10.00000 253.000
10.01995 254.000
10.03989 233.000
10.05984 261.000
10.07979 244.000
10.09973 249.000
10.11968 258.000
10.13963 235.000
10.15958 254.000
10.17952 236.000
10.19947 248.000
10.21942 246.000
10.23936 267.000
10.25931 259.000
10.27926 251.000
10.29920 250.000
10.31915 240.000
10.33910 269.000
10.35905 256.000
10.37899 247.000
10.39894 229.000
10.41889 239.000
10.43883 248.000
10.45878 240.000
10.47873 265.000
10.49867 247.000
10.51862 250.000
10.53857 275.000
10.55851 246.000
10.57846 267.000
10.59841 255.000
10.61836 246.000
10.63830 222.000
10.65825 261.000
10.67820 251.000
10.69814 265.000
10.71809 251.000
10.73804 246.000
10.75798 269.000
10.77793 277.000
10.79788 263.000
10.81783 273.000
10.83777 271.000
10.85772 242.000
10.87767 285.000
10.89761 261.000
10.91756 241.000
10.93751 261.000
10.95745 271.000
10.97740 279.000
10.99735 259.000
11.01730 284.000
11.03724 250.000
11.05719 240.000
11.07714 272.000
11.09708 252.000
11.11703 268.000
11.13698 245.000
11.15692 224.000
11.17687 284.000
11.19682 270.000
11.21676 302.000
11.23671 268.000
11.25666 256.000
11.27661 219.000
11.29655 278.000
11.31650 272.000
11.33645 271.000
11.35639 287.000
11.37634 262.000
11.39629 268.000
11.41623 254.000
11.43618 263.000
11.45613 228.000
11.47608 243.000
11.49602 272.000
11.51597 248.000
11.53592 268.000
11.55586 297.000
11.57581 287.000
11.59576 234.000
11.61570 265.000
11.63565 272.000
11.65560 305.000
11.67554 286.000
11.69549 271.000
11.71544 261.000
11.73539 254.000
11.75533 283.000
11.77528 276.000
11.79523 255.000
11.81517 262.000
11.83512 283.000
11.85507 261.000
11.87501 249.000
11.89496 256.000
11.91491 272.000
11.93486 266.000
11.95480 294.000
11.97475 289.000
11.99470 278.000
12.01464 306.000
12.03459 265.000
12.05454 276.000
12.07448 265.000
12.09443 277.000
12.11438 275.000
12.13432 278.000
12.15427 253.000
12.17422 270.000
12.19417 274.000
12.21411 263.000
12.23406 273.000
12.25401 278.000
12.27395 269.000
12.29390 261.000
12.31385 277.000
12.33379 272.000
12.35374 281.000
12.37369 271.000
12.39364 268.000
12.41358 303.000
12.43353 286.000
12.45348 270.000
12.47342 270.000
12.49337 294.000
12.51332 259.000
12.53326 289.000
12.55321 273.000
12.57316 265.000
12.59311 280.000
12.61305 268.000
12.63300 281.000
12.65295 293.000
12.67289 258.000
12.69284 270.000
12.71279 248.000
12.73273 287.000
12.75268 269.000
12.77263 274.000
12.79257 300.000
12.81252 318.000
12.83247 265.000
12.85242 296.000
12.87236 280.000
12.89231 297.000
12.91226 290.000
12.93220 297.000
12.95215 279.000
12.97210 302.000
12.99204 288.000
13.01199 268.000
13.03194 262.000
13.05189 292.000
13.07183 300.000
13.09178 271.000
13.11173 271.000
13.13167 251.000
13.15162 293.000
13.17157 250.000
13.19151 285.000
13.21146 270.000
13.23141 294.000
13.25135 296.000
13.27130 296.000
13.29125 293.000
13.31120 266.000
13.33114 299.000
13.35109 269.000
13.37104 272.000
13.39098 288.000
13.41093 271.000
13.43088 302.000
13.45082 277.000
13.47077 273.000
13.49072 305.000
13.51067 272.000
13.53061 288.000
13.55056 288.000
13.57051 270.000
13.59045 266.000
13.61040 293.000
13.63035 275.000
13.65029 270.000
13.67024 264.000
13.69019 271.000
13.71013 269.000
13.73008 288.000
13.75003 313.000
13.76998 285.000
13.78992 279.000
13.80987 316.000
13.82982 317.000
13.84976 267.000
13.86971 282.000
13.88966 270.000
13.90960 289.000
13.92955 290.000
13.94950 303.000
13.96945 286.000
13.98939 260.000
14.00934 299.000
14.02929 331.000
14.04923 279.000
14.06918 303.000
14.08913 297.000
14.10907 295.000
14.12902 285.000
14.14897 308.000
14.16892 275.000
14.18886 279.000
14.20881 280.000
14.22876 280.000
14.24870 304.000
14.26865 295.000
14.28860 290.000
14.30854 298.000
14.32849 294.000
14.34844 310.000
14.36838 303.000
14.38833 287.000
14.40828 292.000
14.42823 313.000
14.44817 289.000
14.46812 324.000
14.48807 280.000
14.50801 267.000
14.52796 311.000
14.54791 291.000
14.56785 310.000
14.58780 293.000
14.60775 290.000
14.62770 290.000
14.64764 275.000
14.66759 293.000
14.68754 282.000
14.70748 331.000
14.72743 295.000
14.74738 293.000
14.76732 314.000
14.78727 314.000
14.80722 326.000
14.82716 295.000
14.84711 282.000
14.86706 297.000
14.88701 324.000
14.90695 296.000
14.92690 304.000
14.94685 295.000
14.96679 267.000
14.98674 295.000
15.00669 320.000
15.02663 329.000
15.04658 286.000
15.06653 284.000
15.08648 305.000
15.10642 325.000
15.12637 327.000
15.14632 308.000
15.16626 320.000
15.18621 311.000
15.20616 288.000
15.22610 305.000
15.24605 286.000
15.26600 310.000
15.28594 276.000
15.30589 328.000
15.32584 317.000
15.34579 306.000
15.36573 320.000
15.38568 311.000
15.40563 325.000
15.42557 312.000
15.44552 322.000
15.46547 319.000
15.48541 366.000
15.50536 371.000
15.52531 283.000
15.54526 309.000
15.56520 345.000
15.58515 343.000
15.60510 408.000
15.62504 404.000
15.64499 448.000
15.66494 477.000
15.68488 548.000
15.70483 658.000
15.72478 756.000
15.74472 1000.000
15.76467 1183.000
15.78462 1166.000
15.80457 1225.000
15.82451 1131.000
15.84446 884.000
15.86441 612.000
15.88435 522.000
15.90430 444.000
15.92425 393.000
15.94419 384.000
15.96414 344.000
15.98409 360.000
16.00404 330.000
16.02398 333.000
16.04393 347.000
16.06388 363.000
16.08382 289.000
16.10377 325.000
16.12372 346.000
16.14366 294.000
16.16361 317.000
16.18356 349.000
16.20351 316.000
16.22345 328.000
16.24340 344.000
16.26335 364.000
16.28329 327.000
16.30324 316.000
16.32319 333.000
16.34313 341.000
16.36308 320.000
16.38303 341.000
16.40297 325.000
16.42292 346.000
16.44287 316.000
16.46282 313.000
16.48276 326.000
16.50271 330.000
16.52266 323.000
16.54260 318.000
16.56255 337.000
16.58250 310.000
16.60244 338.000
16.62239 363.000
16.64234 314.000
16.66229 314.000
16.68223 317.000
16.70218 320.000
16.72213 351.000
16.74207 315.000
16.76202 307.000
16.78197 357.000
16.80191 384.000
16.82186 356.000
16.84181 369.000
16.86175 340.000
16.88170 349.000
16.90165 320.000
16.92160 297.000
16.94154 338.000
16.96149 305.000
16.98144 333.000
17.00138 310.000
17.02133 362.000
17.04128 306.000
17.06122 328.000
17.08117 328.000
17.10112 322.000
17.12107 322.000
17.14101 331.000
17.16096 329.000
17.18091 325.000
17.20085 279.000
17.22080 313.000
17.24075 324.000
17.26069 325.000
17.28064 332.000
17.30059 316.000
17.32053 325.000
17.34048 291.000
17.36043 339.000
17.38038 317.000
17.40032 325.000
17.42027 321.000
17.44022 340.000
17.46016 326.000
17.48011 321.000
17.50006 312.000
17.52000 311.000
17.53995 350.000
17.55990 341.000
17.57985 317.000
17.59979 327.000
17.61974 332.000
17.63969 326.000
17.65963 319.000
17.67958 314.000
17.69953 304.000
17.71947 302.000
17.73942 315.000
17.75937 306.000
17.77932 310.000
17.79926 265.000
17.81921 317.000
17.83916 317.000
17.85910 293.000
17.87905 346.000
17.89900 325.000
17.91894 350.000
17.93889 315.000
17.95884 336.000
17.97878 336.000
17.99873 338.000
18.01868 341.000
18.03863 351.000
18.05857 332.000
18.07852 358.000
18.09847 328.000
18.11841 338.000
18.13836 343.000
18.15831 300.000
18.17825 356.000
18.19820 342.000
18.21815 350.000
18.23810 378.000
18.25804 346.000
18.27799 372.000
18.29794 412.000
18.31788 450.000
18.33783 480.000
18.35778 523.000
18.37772 469.000
18.39767 551.000
18.41762 471.000
18.43756 486.000
18.45751 444.000
18.47746 410.000
18.49741 372.000
18.51735 406.000
18.53730 355.000
18.55725 376.000
18.57719 318.000
18.59714 307.000
18.61709 332.000
18.63703 309.000
18.65698 334.000
18.67693 332.000
18.69688 358.000
18.71682 314.000
18.73677 306.000
18.75672 345.000
18.77666 332.000
18.79661 339.000
18.81656 328.000
18.83650 347.000
18.85645 347.000
18.87640 353.000
18.89634 335.000
18.91629 345.000
18.93624 303.000
18.95619 347.000
18.97613 335.000
18.99608 358.000
19.01603 353.000
19.03597 335.000
19.05592 380.000
19.07587 336.000
19.09581 322.000
19.11576 357.000
19.13571 331.000
19.15566 326.000
19.17560 316.000
19.19555 329.000
19.21550 356.000
19.23544 315.000
19.25539 367.000
19.27534 308.000
19.29528 341.000
19.31523 315.000
19.33518 362.000
19.35513 355.000
19.37507 312.000
19.39502 335.000
19.41497 330.000
19.43491 390.000
19.45486 346.000
19.47481 339.000
19.49475 354.000
19.51470 347.000
19.53465 336.000
19.55459 347.000
19.57454 338.000
19.59449 342.000
19.61444 363.000
19.63438 361.000
19.65433 331.000
19.67428 358.000
19.69422 342.000
19.71417 345.000
19.73412 320.000
19.75406 297.000
19.77401 307.000
19.79396 352.000
19.81391 347.000
19.83385 364.000
19.85380 355.000
19.87375 368.000
19.89369 346.000
19.91364 324.000
19.93359 374.000
19.95353 352.000
19.97348 304.000
19.99343 331.000
20.01337 376.000
20.03332 341.000
20.05327 326.000
20.07322 347.000
20.09316 337.000
20.11311 371.000
20.13306 353.000
20.15300 329.000
20.17295 306.000
20.19290 336.000
20.21284 346.000
20.23279 320.000
20.25274 322.000
20.27269 346.000
20.29263 359.000
20.31258 328.000
20.33253 329.000
20.35247 360.000
20.37242 347.000
20.39237 334.000
20.41231 327.000
20.43226 348.000
20.45221 335.000
20.47215 349.000
20.49210 379.000
20.51205 364.000
20.53200 397.000
20.55194 383.000
20.57189 366.000
20.59184 368.000
20.61178 370.000
20.63173 357.000
20.65168 398.000
20.67162 347.000
20.69157 381.000
20.71152 350.000
20.73147 366.000
20.75141 357.000
20.77136 370.000
20.79131 373.000
20.81125 374.000
20.83120 380.000
20.85115 421.000
20.87109 422.000
20.89104 429.000
20.91099 471.000
20.93094 478.000
20.95088 491.000
20.97083 556.000
20.99078 595.000
21.01072 654.000
21.03067 665.000
21.05062 724.000
21.07056 665.000
21.09051 658.000
21.11046 626.000
21.13040 544.000
21.15035 476.000
21.17030 456.000
21.19025 428.000
21.21019 381.000
21.23014 403.000
21.25009 371.000
21.27003 371.000
21.28998 409.000
21.30993 359.000
21.32987 325.000
21.34982 374.000
21.36977 367.000
21.38972 328.000
21.40966 356.000
21.42961 346.000
21.44956 337.000
21.46950 387.000
21.48945 377.000
21.50940 355.000
21.52934 357.000
21.54929 346.000
21.56924 386.000
21.58918 357.000
21.60913 362.000
21.62908 356.000
21.64903 375.000
21.66897 383.000
21.68892 385.000
21.70887 355.000
21.72881 357.000
21.74876 371.000
21.76871 381.000
21.78865 354.000
21.80860 369.000
21.82855 374.000
21.84850 396.000
21.86844 347.000
21.88839 377.000
21.90834 342.000
21.92828 399.000
21.94823 364.000
21.96818 347.000
21.98812 389.000
22.00807 357.000
22.02802 384.000
22.04796 353.000
22.06791 358.000
22.08786 365.000
22.10781 350.000
22.12775 373.000
22.14770 372.000
22.16765 352.000
22.18759 361.000
22.20754 347.000
22.22749 365.000
22.24743 395.000
22.26738 365.000
22.28733 373.000
22.30728 374.000
22.32722 396.000
22.34717 395.000
22.36712 365.000
22.38706 376.000
22.40701 350.000
22.42696 341.000
22.44690 371.000
22.46685 350.000
22.48680 393.000
22.50675 390.000
22.52669 371.000
22.54664 380.000
22.56659 378.000
22.58653 371.000
22.60648 357.000
22.62643 378.000
22.64637 379.000
22.66632 375.000
22.68627 365.000
22.70621 360.000
22.72616 405.000
22.74611 365.000
22.76606 369.000
22.78600 360.000
22.80595 379.000
22.82590 345.000
22.84584 352.000
22.86579 400.000
22.88574 343.000
22.90568 379.000
22.92563 367.000
22.94558 359.000
22.96553 372.000
22.98547 364.000
23.00542 404.000
23.02537 364.000
23.04531 393.000
23.06526 376.000
23.08521 369.000
23.10515 383.000
23.12510 351.000
23.14505 385.000
23.16499 370.000
23.18494 373.000
23.20489 365.000
23.22484 367.000
23.24478 388.000
23.26473 380.000
23.28468 389.000
23.30462 379.000
23.32457 357.000
23.34452 370.000
23.36446 374.000
23.38441 348.000
23.40436 390.000
23.42431 386.000
23.44425 381.000
23.46420 382.000
23.48415 354.000
23.50409 398.000
23.52404 358.000
23.54399 393.000
23.56393 397.000
23.58388 382.000
23.60383 421.000
23.62377 368.000
23.64372 380.000
23.66367 351.000
23.68362 376.000
23.70356 399.000
23.72351 383.000
23.74346 395.000
23.76340 355.000
23.78335 386.000
23.80330 414.000
23.82324 368.000
23.84319 383.000
23.86314 357.000
23.88309 368.000
23.90303 393.000
23.92298 407.000
23.94293 393.000
23.96287 425.000
23.98282 387.000
24.00277 393.000
24.02271 373.000
24.04266 369.000
24.06261 373.000
24.08256 404.000
24.10250 378.000
24.12245 400.000
24.14240 401.000
24.16234 387.000
24.18229 411.000
24.20224 410.000
24.22218 414.000
24.24213 379.000
24.26208 402.000
24.28202 373.000
24.30197 415.000
24.32192 391.000
24.34187 378.000
24.36181 395.000
24.38176 409.000
24.40171 392.000
24.42165 410.000
24.44160 413.000
24.46155 402.000
24.48149 380.000
24.50144 412.000
24.52139 350.000
24.54134 403.000
24.56128 385.000
24.58123 432.000
24.60118 404.000
24.62112 389.000
24.64107 402.000
24.66102 389.000
24.68096 404.000
24.70091 415.000
24.72086 396.000
24.74080 393.000
24.76075 402.000
24.78070 389.000
24.80065 387.000
24.82059 389.000
24.84054 435.000
24.86049 410.000
24.88043 416.000
24.90038 411.000
24.92033 452.000
24.94027 453.000
24.96022 416.000
24.98017 445.000
25.00012 405.000
25.02006 397.000
25.04001 416.000
25.05996 428.000
25.07990 406.000
25.09985 389.000
25.11980 418.000
25.13974 408.000
25.15969 383.000
25.17964 412.000
25.19958 412.000
25.21953 400.000
25.23948 439.000
25.25943 435.000
25.27937 399.000
25.29932 414.000
25.31927 441.000
25.33921 400.000
25.35916 410.000
25.37911 422.000
25.39905 398.000
25.41900 404.000
25.43895 414.000
25.45890 409.000
25.47884 452.000
25.49879 422.000
25.51874 406.000
25.53868 465.000
25.55863 447.000
25.57858 444.000
25.59852 390.000
25.61847 414.000
25.63842 412.000
25.65837 424.000
25.67831 453.000
25.69826 414.000
25.71821 390.000
25.73815 429.000
25.75810 395.000
25.77805 403.000
25.79799 446.000
25.81794 438.000
25.83789 442.000
25.85783 405.000
25.87778 397.000
25.89773 414.000
25.91768 424.000
25.93762 460.000
25.95757 409.000
25.97752 428.000
25.99746 459.000
26.01741 440.000
26.03736 415.000
26.05730 448.000
26.07725 456.000
26.09720 485.000
26.11715 442.000
26.13709 417.000
26.15704 438.000
26.17699 452.000
26.19693 420.000
26.21688 398.000
26.23683 441.000
26.25677 447.000
26.27672 457.000
26.29667 410.000
26.31661 421.000
26.33656 434.000
26.35651 417.000
26.37646 478.000
26.39640 412.000
26.41635 408.000
26.43630 477.000
26.45624 380.000
26.47619 449.000
26.49614 445.000
26.51608 429.000
26.53603 433.000
26.55598 396.000
26.57593 442.000
26.59587 515.000
26.61582 442.000
26.63577 464.000
26.65571 460.000
26.67566 453.000
26.69561 445.000
26.71555 454.000
26.73550 452.000
26.75545 456.000
26.77539 478.000
26.79534 432.000
26.81529 457.000
26.83524 403.000
26.85518 460.000
26.87513 414.000
26.89508 451.000
26.91502 428.000
26.93497 442.000
26.95492 445.000
26.97486 429.000
26.99481 470.000
27.01476 444.000
27.03471 425.000
27.05465 465.000
27.07460 451.000
27.09455 478.000
27.11449 443.000
27.13444 441.000
27.15439 444.000
27.17433 449.000
27.19428 468.000
27.21423 466.000
27.23417 466.000
27.25412 431.000
27.27407 469.000
27.29402 482.000
27.31396 435.000
27.33391 455.000
27.35386 425.000
27.37380 476.000
27.39375 453.000
27.41370 398.000
27.43364 475.000
27.45359 455.000
27.47354 462.000
27.49349 465.000
27.51343 488.000
27.53338 464.000
27.55333 442.000
27.57327 466.000
27.59322 457.000
27.61317 433.000
27.63311 476.000
27.65306 481.000
27.67301 450.000
27.69296 516.000
27.71290 418.000
27.73285 443.000
27.75280 460.000
27.77274 467.000
27.79269 467.000
27.81264 456.000
27.83258 466.000
27.85253 439.000
27.87248 461.000
27.89242 453.000
27.91237 449.000
27.93232 442.000
27.95227 501.000
27.97221 475.000
27.99216 450.000
28.01211 495.000
28.03205 436.000
28.05200 474.000
28.07195 481.000
28.09189 512.000
28.11184 437.000
28.13179 438.000
28.15174 480.000
28.17168 458.000
28.19163 478.000
28.21158 472.000
28.23152 468.000
28.25147 470.000
28.27142 443.000
28.29136 499.000
28.31131 495.000
28.33126 461.000
28.35120 482.000
28.37115 467.000
28.39110 498.000
28.41105 466.000
28.43099 493.000
28.45094 488.000
28.47089 497.000
28.49083 523.000
28.51078 490.000
28.53073 487.000
28.55067 547.000
28.57062 472.000
28.59057 494.000
28.61052 473.000
28.63046 517.000
28.65041 490.000
28.67036 521.000
28.69030 462.000
28.71025 489.000
28.73020 551.000
28.75014 469.000
28.77009 469.000
28.79004 470.000
28.80998 528.000
28.82993 500.000
28.84988 479.000
28.86983 464.000
28.88977 492.000
28.90972 553.000
28.92967 485.000
28.94961 519.000
28.96956 443.000
28.98951 507.000
29.00945 491.000
29.02940 527.000
29.04935 483.000
29.06930 518.000
29.08924 498.000
29.10919 472.000
29.12914 513.000
29.14908 502.000
29.16903 518.000
29.18898 507.000
29.20892 519.000
29.22887 523.000
29.24882 501.000
29.26877 513.000
29.28871 597.000
29.30866 577.000
29.32861 606.000
29.34855 592.000
29.36850 601.000
29.38845 605.000
29.40839 592.000
29.42834 552.000
29.44829 540.000
29.46823 567.000
29.48818 502.000
29.50813 494.000
29.52808 526.000
29.54802 551.000
29.56797 507.000
29.58792 501.000
29.60786 510.000
29.62781 518.000
29.64776 514.000
29.66770 526.000
29.68765 567.000
29.70760 485.000
29.72755 523.000
29.74749 496.000
29.76744 518.000
29.78739 489.000
29.80733 536.000
29.82728 538.000
29.84723 526.000
29.86717 510.000
29.88712 555.000
29.90707 539.000
29.92701 509.000
29.94696 514.000
29.96691 530.000
29.98686 502.000
30.00680 549.000
30.02675 523.000
30.04670 567.000
30.06664 542.000
30.08659 558.000
30.10654 572.000
30.12648 575.000
30.14643 648.000
30.16638 668.000
30.18633 719.000
30.20627 839.000
30.22622 888.000
30.24617 854.000
30.26611 894.000
30.28606 871.000
30.30601 834.000
30.32595 838.000
30.34590 787.000
30.36585 749.000
30.38579 742.000
30.40574 670.000
30.42569 637.000
30.44564 582.000
30.46558 564.000
30.48553 575.000
30.50548 563.000
30.52542 550.000
30.54537 503.000
30.56532 533.000
30.58526 490.000
30.60521 556.000
30.62516 536.000
30.64511 546.000
30.66505 532.000
30.68500 515.000
30.70495 511.000
30.72489 480.000
30.74484 492.000
30.76479 538.000
30.78473 529.000
30.80468 525.000
30.82463 519.000
30.84458 494.000
30.86452 496.000
30.88447 566.000
30.90442 485.000
30.92436 508.000
30.94431 526.000
30.96426 509.000
30.98420 487.000
31.00415 482.000
31.02410 512.000
31.04404 532.000
31.06399 501.000
31.08394 475.000
31.10389 481.000
31.12383 522.000
31.14378 527.000
31.16373 529.000
31.18367 510.000
31.20362 531.000
31.22357 519.000
31.24351 521.000
31.26346 518.000
31.28341 494.000
31.30336 519.000
31.32330 473.000
31.34325 479.000
31.36320 522.000
31.38314 519.000
31.40309 513.000
31.42304 540.000
31.44298 496.000
31.46293 502.000
31.48288 514.000
31.50282 533.000
31.52277 474.000
31.54272 494.000
31.56267 478.000
31.58261 495.000
31.60256 556.000
31.62251 497.000
31.64245 515.000
31.66240 530.000
31.68235 486.000
31.70229 507.000
31.72224 502.000
31.74219 532.000
31.76214 520.000
31.78208 551.000
31.80203 496.000
31.82198 526.000
31.84192 589.000
31.86187 566.000
31.88182 597.000
31.90176 593.000
31.92171 545.000
31.94166 535.000
31.96160 579.000
31.98155 591.000
32.00150 509.000
32.02145 545.000
32.04139 540.000
32.06134 515.000
32.08129 523.000
32.10123 496.000
32.12118 485.000
32.14113 513.000
32.16107 513.000
32.18102 533.000
32.20097 511.000
32.22092 497.000
32.24086 542.000
32.26081 506.000
32.28076 594.000
32.30070 516.000
32.32065 588.000
32.34060 547.000
32.36054 596.000
32.38049 571.000
32.40044 581.000
32.42039 586.000
32.44033 600.000
32.46028 599.000
32.48023 613.000
32.50017 602.000
32.52012 582.000
32.54007 585.000
32.56001 561.000
32.57996 569.000
32.59991 576.000
32.61985 554.000
32.63980 543.000
32.65975 495.000
32.67970 519.000
32.69964 482.000
32.71959 532.000
32.73954 475.000
32.75948 559.000
32.77943 518.000
32.79938 549.000
32.81932 465.000
32.83927 459.000
32.85922 509.000
32.87917 498.000
32.89911 500.000
32.91906 494.000
32.93901 492.000
32.95895 509.000
32.97890 470.000
32.99885 506.000
33.01879 482.000
33.03874 454.000
33.05869 510.000
33.07863 450.000
33.09858 524.000
33.11853 468.000
33.13848 474.000
33.15842 510.000
33.17837 479.000
33.19832 495.000
33.21826 467.000
33.23821 507.000
33.25816 457.000
33.27810 505.000
33.29805 499.000
33.31800 535.000
33.33795 465.000
33.35789 520.000
33.37784 511.000
33.39779 484.000
33.41773 500.000
33.43768 465.000
33.45763 503.000
33.47757 481.000
33.49752 495.000
33.51747 439.000
33.53741 491.000
33.55736 466.000
33.57731 494.000
33.59726 455.000
33.61720 509.000
33.63715 521.000
33.65710 496.000
33.67704 462.000
33.69699 469.000
33.71694 471.000
33.73688 497.000
33.75683 488.000
33.77678 470.000
33.79673 515.000
33.81667 500.000
33.83662 477.000
33.85657 489.000
33.87651 502.000
33.89646 520.000
33.91641 513.000
33.93635 492.000
33.95630 488.000
33.97625 487.000
33.99620 510.000
34.01614 518.000
34.03609 523.000
34.05604 461.000
34.07598 493.000
34.09593 512.000
34.11588 494.000
34.13582 539.000
34.15577 511.000
34.17572 518.000
34.19566 507.000
34.21561 510.000
34.23556 488.000
34.25551 498.000
34.27545 491.000
34.29540 532.000
34.31535 537.000
34.33529 556.000
34.35524 532.000
34.37519 519.000
34.39513 489.000
34.41508 555.000
34.43503 539.000
34.45498 599.000
34.47492 573.000
34.49487 581.000
34.51482 618.000
34.53476 551.000
34.55471 603.000
34.57466 706.000
34.59460 621.000
34.61455 620.000
34.63450 675.000
34.65444 696.000
34.67439 737.000
34.69434 798.000
34.71429 766.000
34.73423 760.000
34.75418 768.000
34.77413 751.000
34.79407 795.000
34.81402 713.000
34.83397 677.000
34.85391 697.000
34.87386 712.000
34.89381 714.000
34.91376 653.000
34.93370 655.000
34.95365 647.000
34.97360 641.000
34.99354 690.000
35.01349 647.000
35.03344 675.000
35.05338 576.000
35.07333 669.000
35.09328 662.000
35.11322 653.000
35.13317 672.000
35.15312 690.000
35.17307 713.000
35.19301 713.000
35.21296 746.000
35.23291 799.000
35.25285 794.000
35.27280 832.000
35.29275 949.000
35.31269 925.000
35.33264 979.000
35.35259 1225.000
35.37254 1294.000
35.39248 1427.000
35.41243 1557.000
35.43238 1688.000
35.45232 1692.000
35.47227 1919.000
35.49222 1990.000
35.51216 2051.000
35.53211 2042.000
35.55206 2057.000
35.57201 2250.000
35.59195 2312.000
35.61190 2328.000
35.63185 2165.000
35.65179 2004.000
35.67174 1999.000
35.69169 1999.000
35.71163 1848.000
35.73158 1692.000
35.75153 1548.000
35.77147 1404.000
35.79142 1252.000
35.81137 1170.000
35.83132 1059.000
35.85126 968.000
35.87121 888.000
35.89116 837.000
35.91110 746.000
35.93105 656.000
35.95100 676.000
35.97094 638.000
35.99089 646.000
36.01084 590.000
36.03079 524.000
36.05073 532.000
36.07068 563.000
36.09063 551.000
36.11057 554.000
36.13052 568.000
36.15047 552.000
36.17041 527.000
36.19036 542.000
36.21031 641.000
36.23025 561.000
36.25020 566.000
36.27015 585.000
36.29010 620.000
36.31004 576.000
36.32999 605.000
36.34994 574.000
36.36988 550.000
36.38983 541.000
36.40978 586.000
36.42972 604.000
36.44967 618.000
36.46962 544.000
36.48957 590.000
36.50951 601.000
36.52946 545.000
36.54941 566.000
36.56935 585.000
36.58930 546.000
36.60925 590.000
36.62919 559.000
36.64914 582.000
36.66909 548.000
36.68903 537.000
36.70898 604.000
36.72893 571.000
36.74888 584.000
36.76882 606.000
36.78877 687.000
36.80872 575.000
36.82866 568.000
36.84861 663.000
36.86856 632.000
36.88850 732.000
36.90845 728.000
36.92840 760.000
36.94835 854.000
36.96829 898.000
36.98824 1086.000
37.00819 1176.000
37.02813 1390.000
37.04808 1720.000
37.06803 1862.000
37.08797 2075.000
37.10792 1964.000
37.12787 1916.000
37.14781 1849.000
37.16776 1672.000
37.18771 1597.000
37.20766 1481.000
37.22760 1255.000
37.24755 1131.000
37.26750 929.000
37.28744 942.000
37.30739 774.000
37.32734 739.000
37.34728 771.000
37.36723 669.000
37.38718 681.000
37.40713 649.000
37.42707 649.000
37.44702 675.000
37.46697 609.000
37.48691 609.000
37.50686 601.000
37.52681 556.000
37.54675 557.000
37.56670 573.000
37.58665 573.000
37.60660 565.000
37.62654 522.000
37.64649 538.000
37.66644 550.000
37.68638 513.000
37.70633 490.000
37.72628 546.000
37.74622 506.000
37.76617 524.000
37.78612 503.000
37.80606 540.000
37.82601 520.000
37.84596 501.000
37.86591 516.000
37.88585 503.000
37.90580 495.000
37.92575 525.000
37.94569 554.000
37.96564 539.000
37.98559 534.000
38.00553 525.000
38.02548 541.000
38.04543 553.000
38.06538 549.000
38.08532 556.000
38.10527 515.000
38.12522 589.000
38.14516 584.000
38.16511 626.000
38.18506 576.000
38.20500 577.000
38.22495 591.000
38.24490 563.000
38.26484 597.000
38.28479 608.000
38.30474 607.000
38.32469 644.000
38.34463 641.000
38.36458 636.000
38.38453 666.000
38.40447 739.000
38.42442 786.000
38.44437 851.000
38.46431 787.000
38.48426 843.000
38.50421 882.000
38.52416 952.000
38.54410 1039.000
38.56405 1153.000
38.58400 1231.000
38.60394 1366.000
38.62389 1431.000
38.64384 1403.000
38.66378 1420.000
38.68373 1504.000
38.70368 1437.000
38.72362 1370.000
38.74357 1287.000
38.76352 1243.000
38.78347 1150.000
38.80341 1166.000
38.82336 1089.000
38.84331 1008.000
38.86325 968.000
38.88320 927.000
38.90315 1034.000
38.92309 911.000
38.94304 909.000
38.96299 920.000
38.98294 827.000
39.00288 836.000
39.02283 771.000
39.04278 726.000
39.06272 719.000
39.08267 657.000
39.10262 654.000
39.12256 654.000
39.14251 587.000
39.16246 575.000
39.18241 557.000
39.20235 545.000
39.22230 557.000
39.24225 544.000
39.26219 576.000
39.28214 574.000
39.30209 552.000
39.32203 577.000
39.34198 546.000
39.36193 563.000
39.38187 542.000
39.40182 576.000
39.42177 559.000
39.44172 490.000
39.46166 486.000
39.48161 520.000
39.50156 516.000
39.52150 513.000
39.54145 497.000
39.56140 493.000
39.58134 431.000
39.60129 487.000
39.62124 449.000
39.64119 431.000
39.66113 484.000
39.68108 454.000
39.70103 477.000
39.72097 478.000
39.74092 453.000
39.76087 475.000
39.78081 460.000
39.80076 500.000
39.82071 474.000
39.84065 451.000
39.86060 475.000
39.88055 406.000
39.90050 437.000
39.92044 448.000
39.94039 466.000
39.96034 465.000
39.98028 443.000
40.00023 430.000
40.02018 470.000
40.04012 464.000
40.06007 463.000
40.08002 425.000
40.09997 480.000
40.11991 455.000
40.13986 445.000
40.15981 436.000
40.17975 438.000
40.19970 435.000
40.21965 446.000
40.23959 439.000
40.25954 450.000
40.27949 468.000
40.29943 449.000
40.31938 461.000
40.33933 453.000
40.35928 427.000
40.37922 444.000
40.39917 428.000
40.41912 452.000
40.43906 430.000
40.45901 432.000
40.47896 454.000
40.49890 451.000
40.51885 422.000
40.53880 455.000
40.55875 488.000
40.57869 469.000
40.59864 449.000
40.61859 443.000
40.63853 425.000
40.65848 420.000
40.67843 437.000
40.69837 466.000
40.71832 470.000
40.73827 468.000
40.75822 432.000
40.77816 459.000
40.79811 451.000
40.81806 424.000
40.83800 455.000
40.85795 443.000
40.87790 436.000
40.89784 469.000
40.91779 446.000
40.93774 419.000
40.95768 452.000
40.97763 458.000
40.99758 472.000
41.01753 475.000
41.03747 455.000
41.05742 429.000
41.07737 458.000
41.09731 427.000
41.11726 420.000
41.13721 450.000
41.15715 435.000
41.17710 451.000
41.19705 444.000
41.21700 411.000
41.23694 430.000
41.25689 422.000
41.27684 432.000
41.29678 441.000
41.31673 462.000
41.33668 439.000
41.35662 447.000
41.37657 438.000
41.39652 446.000
41.41646 454.000
41.43641 409.000
41.45636 426.000
41.47631 443.000
41.49625 459.000
41.51620 470.000
41.53615 456.000
41.55609 418.000
41.57604 447.000
41.59599 462.000
41.61593 454.000
41.63588 464.000
41.65583 452.000
41.67578 384.000
41.69572 423.000
41.71567 451.000
41.73562 468.000
41.75556 456.000
41.77551 456.000
41.79546 432.000
41.81540 465.000
41.83535 451.000
41.85530 475.000
41.87524 450.000
41.89519 429.000
41.91514 470.000
41.93509 437.000
41.95503 453.000
41.97498 464.000
41.99493 438.000
42.01487 474.000
42.03482 443.000
42.05477 487.000
42.07471 444.000
42.09466 462.000
42.11461 480.000
42.13456 480.000
42.15450 475.000
42.17445 499.000
42.19440 493.000
42.21434 538.000
42.23429 521.000
42.25424 475.000
42.27418 503.000
42.29413 494.000
42.31408 512.000
42.33403 505.000
42.35397 486.000
42.37392 502.000
42.39387 505.000
42.41381 572.000
42.43376 552.000
42.45371 540.000
42.47365 556.000
42.49360 540.000
42.51355 569.000
42.53349 579.000
42.55344 539.000
42.57339 573.000
42.59334 567.000
42.61328 599.000
42.63323 579.000
42.65318 651.000
42.67312 612.000
42.69307 652.000
42.71302 641.000
42.73296 690.000
42.75291 697.000
42.77286 724.000
42.79281 728.000
42.81275 726.000
42.83270 817.000
42.85265 808.000
42.87259 887.000
42.89254 958.000
42.91249 999.000
42.93243 1097.000
42.95238 1225.000
42.97233 1334.000
42.99227 1415.000
43.01222 1566.000
43.03217 1610.000
43.05212 1800.000
43.07206 1958.000
43.09201 2005.000
43.11196 2065.000
43.13190 2060.000
43.15185 2054.000
43.17180 2014.000
43.19174 1932.000
43.21169 1896.000
43.23164 1809.000
43.25159 1752.000
43.27153 1641.000
43.29148 1545.000
43.31143 1383.000
43.33137 1229.000
43.35132 1181.000
43.37127 1053.000
43.39121 1060.000
43.41116 1016.000
43.43111 887.000
43.45105 832.000
43.47100 784.000
43.49095 759.000
43.51090 690.000
43.53084 655.000
43.55079 587.000
43.57074 610.000
43.59068 588.000
43.61063 560.000
43.63058 602.000
43.65052 529.000
43.67047 553.000
43.69042 509.000
43.71037 470.000
43.73031 495.000
43.75026 530.000
43.77021 511.000
43.79015 459.000
43.81010 489.000
43.83005 424.000
43.84999 429.000
43.86994 459.000
43.88989 444.000
43.90984 450.000
43.92978 474.000
43.94973 400.000
43.96968 418.000
43.98962 426.000
44.00957 412.000
44.02952 439.000
44.04946 424.000
44.06941 407.000
44.08936 467.000
44.10930 470.000
44.12925 434.000
44.14920 427.000
44.16915 415.000
44.18909 436.000
44.20904 459.000
44.22899 415.000
44.24893 434.000
44.26888 453.000
44.28883 434.000
44.30877 418.000
44.32872 422.000
44.34867 404.000
44.36862 440.000
44.38856 401.000
44.40851 460.000
44.42846 415.000
44.44840 481.000
44.46835 464.000
44.48830 406.000
44.50824 430.000
44.52819 448.000
44.54814 411.000
44.56808 482.000
44.58803 425.000
44.60798 453.000
44.62793 439.000
44.64787 412.000
44.66782 445.000
44.68777 463.000
44.70771 441.000
44.72766 473.000
44.74761 473.000
44.76755 452.000
44.78750 410.000
44.80745 442.000
44.82740 433.000
44.84734 479.000
44.86729 412.000
44.88724 471.000
44.90718 507.000
44.92713 445.000
44.94708 456.000
44.96702 446.000
44.98697 494.000
45.00692 501.000
45.02686 526.000
45.04681 492.000
45.06676 518.000
45.08671 499.000
45.10665 468.000
45.12660 535.000
45.14655 539.000
45.16649 513.000
45.18644 537.000
45.20639 486.000
45.22633 495.000
45.24628 506.000
45.26623 515.000
45.28618 455.000
45.30612 463.000
45.32607 454.000
45.34602 481.000
45.36596 435.000
45.38591 453.000
45.40586 415.000
45.42580 456.000
45.44575 458.000
45.46570 421.000
45.48565 441.000
45.50559 429.000
45.52554 412.000
45.54549 430.000
45.56543 438.000
45.58538 386.000
45.60533 433.000
45.62527 439.000
45.64522 432.000
45.66517 417.000
45.68511 436.000
45.70506 425.000
45.72501 406.000
45.74496 386.000
45.76490 429.000
45.78485 395.000
45.80480 422.000
45.82474 403.000
45.84469 394.000
45.86464 430.000
45.88458 467.000
45.90453 416.000
45.92448 429.000
45.94443 404.000
45.96437 399.000
45.98432 442.000
46.00427 449.000
46.02421 437.000
46.04416 450.000
46.06411 417.000
46.08405 439.000
46.10400 425.000
46.12395 428.000
46.14389 401.000
46.16384 464.000
46.18379 401.000
46.20374 441.000
46.22368 440.000
46.24363 421.000
46.26358 436.000
46.28352 430.000
46.30347 399.000
46.32342 442.000
46.34336 408.000
46.36331 414.000
46.38326 406.000
46.40321 407.000
46.42315 379.000
46.44310 412.000
46.46305 431.000
46.48299 414.000
46.50294 413.000
46.52289 419.000
46.54283 420.000
46.56278 399.000
46.58273 420.000
46.60267 392.000
46.62262 374.000
46.64257 422.000
46.66252 419.000
46.68246 387.000
46.70241 410.000
46.72236 429.000
46.74230 413.000
46.76225 391.000
46.78220 408.000
46.80214 404.000
46.82209 364.000
46.84204 426.000
46.86199 385.000
46.88193 388.000
46.90188 391.000
46.92183 370.000
46.94177 411.000
46.96172 383.000
46.98167 412.000
47.00161 393.000
47.02156 405.000
47.04151 403.000
47.06146 402.000
47.08140 408.000
47.10135 401.000
47.12130 370.000
47.14124 381.000
47.16119 418.000
47.18114 396.000
47.20108 433.000
47.22103 352.000
47.24098 396.000
47.26092 420.000
47.28087 408.000
47.30082 416.000
47.32077 399.000
47.34071 421.000
47.36066 419.000
47.38061 423.000
47.40055 384.000
47.42050 384.000
47.44045 411.000
47.46039 397.000
47.48034 406.000
47.50029 409.000
47.52024 423.000
47.54018 403.000
47.56013 404.000
47.58008 398.000
47.60002 433.000
47.61997 419.000
47.63992 372.000
47.65986 412.000
47.67981 450.000
47.69976 385.000
47.71970 414.000
47.73965 411.000
47.75960 394.000
47.77955 421.000
47.79949 422.000
47.81944 391.000
47.83939 394.000
47.85933 408.000
47.87928 390.000
47.89923 424.000
47.91917 448.000
47.93912 371.000
47.95907 399.000
47.97902 442.000
47.99896 426.000
48.01891 412.000
48.03886 446.000
48.05880 408.000
48.07875 448.000
48.09870 448.000
48.11864 450.000
48.13859 419.000
48.15854 434.000
48.17848 417.000
48.19843 433.000
48.21838 417.000
48.23833 473.000
48.25827 428.000
48.27822 422.000
48.29817 433.000
48.31811 400.000
48.33806 475.000
48.35801 471.000
48.37795 461.000
48.39790 455.000
48.41785 470.000
48.43780 464.000
48.45774 447.000
48.47769 469.000
48.49764 450.000
48.51758 505.000
48.53753 498.000
48.55748 509.000
48.57742 515.000
48.59737 523.000
48.61732 568.000
48.63726 569.000
48.65721 589.000
48.67716 611.000
48.69711 639.000
48.71705 638.000
48.73700 674.000
48.75695 665.000
48.77689 706.000
48.79684 674.000
48.81679 706.000
48.83673 691.000
48.85668 665.000
48.87663 651.000
48.89658 618.000
48.91652 622.000
48.93647 606.000
48.95642 542.000
48.97636 544.000
48.99631 524.000
49.01626 505.000
49.03620 514.000
49.05615 486.000
49.07610 467.000
49.09605 464.000
49.11599 472.000
49.13594 465.000
49.15589 424.000
49.17583 454.000
49.19578 428.000
49.21573 443.000
49.23567 423.000
49.25562 413.000
49.27557 376.000
49.29551 418.000
49.31546 417.000
49.33541 397.000
49.35536 408.000
49.37530 430.000
49.39525 420.000
49.41520 391.000
49.43514 428.000
49.45509 413.000
49.47504 435.000
49.49498 420.000
49.51493 381.000
49.53488 425.000
49.55483 433.000
49.57477 403.000
49.59472 395.000
49.61467 403.000
49.63461 411.000
49.65456 405.000
49.67451 426.000
49.69445 403.000
49.71440 443.000
49.73435 381.000
49.75429 414.000
49.77424 395.000
49.79419 383.000
49.81414 387.000
49.83408 377.000
49.85403 424.000
49.87398 410.000
49.89392 413.000
49.91387 418.000
49.93382 433.000
49.95376 389.000
49.97371 442.000
49.99366 430.000
50.01361 395.000
50.03355 377.000
50.05350 401.000
50.07345 410.000
50.09339 402.000
50.11334 405.000
50.13329 393.000
50.15323 397.000
50.17318 377.000
50.19313 400.000
50.21307 419.000
50.23302 396.000
50.25297 417.000
50.27292 399.000
50.29286 437.000
50.31281 427.000
50.33276 439.000
50.35270 392.000
50.37265 409.000
50.39260 410.000
50.41254 419.000
50.43249 403.000
50.45244 387.000
50.47239 385.000
50.49233 405.000
50.51228 399.000
50.53223 385.000
50.55217 413.000
50.57212 421.000
50.59207 399.000
50.61201 441.000
50.63196 444.000
50.65191 387.000
50.67186 390.000
50.69180 392.000
50.71175 384.000
50.73170 404.000
50.75164 378.000
50.77159 396.000
50.79154 360.000
50.81148 391.000
50.83143 374.000
50.85138 423.000
50.87132 394.000
50.89127 399.000
50.91122 371.000
50.93117 393.000
50.95111 373.000
50.97106 392.000
50.99101 389.000
51.01095 394.000
51.03090 385.000
51.05085 398.000
51.07079 376.000
51.09074 398.000
51.11069 357.000
51.13064 361.000
51.15058 400.000
51.17053 395.000
51.19048 384.000
51.21042 389.000
51.23037 414.000
51.25032 405.000
51.27026 430.000
51.29021 364.000
51.31016 438.000
51.33010 384.000
51.35005 364.000
51.37000 385.000
51.38995 384.000
51.40989 402.000
51.42984 386.000
51.44979 398.000
51.46973 377.000
51.48968 371.000
51.50963 398.000
51.52957 392.000
51.54952 367.000
51.56947 404.000
51.58942 393.000
51.60936 410.000
51.62931 413.000
51.64926 404.000
51.66920 391.000
51.68915 412.000
51.70910 401.000
51.72904 386.000
51.74899 432.000
51.76894 387.000
51.78888 373.000
51.80883 400.000
51.82878 384.000
51.84873 376.000
51.86867 382.000
51.88862 358.000
51.90857 414.000
51.92851 411.000
51.94846 379.000
51.96841 436.000
51.98835 388.000
52.00830 421.000
52.02825 433.000
52.04820 377.000
52.06814 416.000
52.08809 433.000
52.10804 438.000
52.12798 402.000
52.14793 353.000
52.16788 369.000
52.18782 448.000
52.20777 368.000
52.22772 409.000
52.24767 433.000
52.26761 443.000
52.28756 405.000
52.30751 372.000
52.32745 387.000
52.34740 428.000
52.36735 406.000
52.38729 395.000
52.40724 369.000
52.42719 391.000
52.44713 421.000
52.46708 384.000
52.48703 413.000
52.50698 445.000
52.52692 400.000
52.54687 428.000
52.56682 390.000
52.58676 390.000
52.60671 404.000
52.62666 375.000
52.64660 402.000
52.66655 447.000
52.68650 411.000
52.70645 424.000
52.72639 435.000
52.74634 414.000
52.76629 421.000
52.78623 459.000
52.80618 442.000
52.82613 429.000
52.84607 411.000
52.86602 422.000
52.88597 415.000
52.90591 411.000
52.92586 414.000
52.94581 427.000
52.96576 413.000
52.98570 406.000
53.00565 413.000
53.02560 440.000
53.04554 468.000
53.06549 442.000
53.08544 387.000
53.10538 456.000
53.12533 446.000
53.14528 428.000
53.16523 427.000
53.18517 464.000
53.20512 462.000
53.22507 428.000
53.24501 447.000
53.26496 433.000
53.28491 478.000
53.30485 462.000
53.32480 433.000
53.34475 452.000
53.36469 444.000
53.38464 455.000
53.40459 448.000
53.42454 430.000
53.44448 432.000
53.46443 451.000
53.48438 429.000
53.50432 423.000
53.52427 457.000
53.54422 457.000
53.56416 419.000
53.58411 452.000
53.60406 508.000
53.62401 423.000
53.64395 488.000
53.66390 474.000
53.68385 497.000
53.70379 496.000
53.72374 496.000
53.74369 437.000
53.76363 477.000
53.78358 458.000
53.80353 496.000
53.82348 499.000
53.84342 476.000
53.86337 484.000
53.88332 460.000
53.90326 442.000
53.92321 451.000
53.94316 460.000
53.96310 434.000
53.98305 445.000
54.00300 430.000
54.02294 449.000
54.04289 453.000
54.06284 377.000
54.08279 395.000
54.10273 436.000
54.12268 400.000
54.14263 402.000
54.16257 461.000
54.18252 466.000
54.20247 431.000
54.22241 421.000
54.24236 431.000
54.26231 379.000
54.28226 392.000
54.30220 431.000
54.32215 376.000
54.34210 377.000
54.36204 393.000
54.38199 385.000
54.40194 422.000
54.42188 437.000
54.44183 393.000
54.46178 401.000
54.48172 400.000
54.50167 412.000
54.52162 404.000
54.54157 366.000
54.56151 376.000
54.58146 373.000
54.60141 392.000
54.62135 405.000
54.64130 395.000
54.66125 376.000
54.68119 383.000
54.70114 383.000
54.72109 404.000
54.74104 415.000
54.76098 375.000
54.78093 386.000
54.80088 409.000
54.82082 408.000
54.84077 422.000
54.86072 374.000
54.88066 401.000
54.90061 411.000
54.92056 379.000
54.94050 386.000
54.96045 374.000
54.98040 438.000
55.00035 376.000
55.02029 381.000
55.04024 395.000
55.06019 403.000
55.08013 427.000
55.10008 402.000
55.12003 401.000
55.13997 394.000
55.15992 399.000
55.17987 394.000
55.19982 354.000
55.21976 372.000
55.23971 420.000
55.25966 427.000
55.27960 380.000
55.29955 372.000
55.31950 386.000
55.33944 381.000
55.35939 400.000
55.37934 374.000
55.39929 366.000
55.41923 339.000
55.43918 363.000
55.45913 366.000
55.47907 355.000
55.49902 383.000
55.51897 390.000
55.53891 392.000
55.55886 393.000
55.57881 387.000
55.59875 405.000
55.61870 373.000
55.63865 386.000
55.65860 380.000
55.67854 385.000
55.69849 386.000
55.71844 372.000
55.73838 364.000
55.75833 386.000
55.77828 371.000
55.79822 336.000
55.81817 408.000
55.83812 431.000
55.85807 389.000
55.87801 420.000
55.89796 380.000
55.91791 404.000
55.93785 363.000
55.95780 397.000
55.97775 389.000
55.99769 394.000
56.01764 354.000
56.03759 373.000
56.05753 402.000
56.07748 393.000
56.09743 409.000
56.11738 396.000
56.13732 365.000
56.15727 370.000
56.17722 349.000
56.19716 380.000
56.21711 381.000
56.23706 398.000
56.25700 409.000
56.27695 393.000
56.29690 388.000
56.31685 395.000
56.33679 373.000
56.35674 399.000
56.37669 387.000
56.39663 433.000
56.41658 402.000
56.43653 396.000
56.45647 377.000
56.47642 417.000
56.49637 385.000
56.51631 384.000
56.53626 382.000
56.55621 397.000
56.57616 404.000
56.59610 426.000
56.61605 388.000
56.63600 426.000
56.65594 411.000
56.67589 398.000
56.69584 431.000
56.71578 438.000
56.73573 390.000
56.75568 387.000
56.77563 399.000
56.79557 425.000
56.81552 399.000
56.83547 422.000
56.85541 413.000
56.87536 414.000
56.89531 416.000
56.91525 386.000
56.93520 444.000
56.95515 414.000
56.97510 406.000
56.99504 438.000
57.01499 449.000
57.03494 443.000
57.05488 474.000
57.07483 472.000
57.09478 470.000
57.11472 462.000
57.13467 479.000
57.15462 493.000
57.17456 547.000
57.19451 527.000
57.21446 518.000
57.23441 614.000
57.25435 579.000
57.27430 614.000
57.29425 645.000
57.31419 627.000
57.33414 635.000
57.35409 631.000
57.37403 646.000
57.39398 649.000
57.41393 660.000
57.43388 627.000
57.45382 590.000
57.47377 586.000
57.49372 578.000
57.51366 580.000
57.53361 605.000
57.55356 588.000
57.57350 557.000
57.59345 513.000
57.61340 515.000
57.63334 507.000
57.65329 498.000
57.67324 494.000
57.69319 465.000
57.71313 479.000
57.73308 444.000
57.75303 443.000
57.77297 472.000
57.79292 471.000
57.81287 502.000
57.83281 446.000
57.85276 447.000
57.87271 433.000
57.89266 483.000
57.91260 442.000
57.93255 471.000
57.95250 443.000
57.97244 429.000
57.99239 492.000
58.01234 438.000
58.03228 441.000
58.05223 436.000
58.07218 450.000
58.09212 471.000
58.11207 443.000
58.13202 482.000
58.15197 489.000
58.17191 497.000
58.19186 464.000
58.21181 481.000
58.23175 558.000
58.25170 492.000
58.27165 466.000
58.29159 465.000
58.31154 442.000
58.33149 496.000
58.35144 484.000
58.37138 464.000
58.39133 423.000
58.41128 438.000
58.43122 456.000
58.45117 437.000
58.47112 415.000
58.49106 399.000
58.51101 428.000
58.53096 404.000
58.55090 435.000
58.57085 404.000
58.59080 397.000
58.61075 401.000
58.63069 404.000
58.65064 439.000
58.67059 364.000
58.69053 382.000
58.71048 393.000
58.73043 389.000
58.75037 384.000
58.77032 374.000
58.79027 357.000
58.81022 394.000
58.83016 398.000
58.85011 421.000
58.87006 408.000
58.89000 406.000
58.90995 397.000
58.92990 410.000
58.94984 386.000
58.96979 403.000
58.98974 382.000
59.00969 405.000
59.02963 371.000
59.04958 397.000
59.06953 391.000
59.08947 380.000
59.10942 375.000
59.12937 411.000
59.14931 382.000
59.16926 391.000
59.18921 404.000
59.20915 398.000
59.22910 409.000
59.24905 386.000
59.26900 355.000
59.28894 384.000
59.30889 352.000
59.32884 394.000
59.34878 407.000
59.36873 389.000
59.38868 357.000
59.40862 369.000
59.42857 348.000
59.44852 397.000
59.46847 369.000
59.48841 423.000
59.50836 375.000
59.52831 372.000
59.54825 394.000
59.56820 387.000
59.58815 374.000
59.60809 382.000
59.62804 386.000
59.64799 364.000
59.66793 409.000
59.68788 378.000
59.70783 370.000
59.72778 386.000
59.74772 373.000
59.76767 421.000
59.78762 388.000
59.80756 372.000
59.82751 382.000
59.84746 356.000
59.86740 385.000
59.88735 409.000
59.90730 382.000
59.92725 376.000
59.94719 399.000
59.96714 411.000
59.98709 372.000
60.00703 406.000
60.02698 398.000
60.04693 389.000
60.06687 382.000
60.08682 365.000
60.10677 352.000
60.12671 382.000
60.14666 386.000
60.16661 384.000
60.18656 408.000
60.20650 397.000
60.22645 404.000
60.24640 379.000
60.26634 405.000
60.28629 382.000
60.30624 369.000
60.32618 408.000
60.34613 399.000
60.36608 378.000
60.38603 372.000
60.40597 402.000
60.42592 373.000
60.44587 359.000
60.46581 377.000
60.48576 405.000
60.50571 381.000
60.52565 401.000
60.54560 408.000
60.56555 383.000
60.58550 418.000
60.60544 411.000
60.62539 366.000
60.64534 371.000
60.66528 398.000
60.68523 383.000
60.70518 435.000
60.72512 402.000
60.74507 421.000
60.76502 387.000
60.78496 386.000
60.80491 393.000
60.82486 418.000
60.84481 424.000
60.86475 435.000
60.88470 366.000
60.90465 402.000
60.92459 380.000
60.94454 409.000
60.96449 383.000
60.98443 407.000
61.00438 442.000
61.02433 374.000
61.04428 392.000
61.06422 373.000
61.08417 406.000
61.10412 389.000
61.12406 409.000
61.14401 425.000
61.16396 425.000
61.18390 424.000
61.20385 427.000
61.22380 429.000
61.24374 458.000
61.26369 413.000
61.28364 430.000
61.30359 469.000
61.32353 450.000
61.34348 439.000
61.36343 480.000
61.38337 487.000
61.40332 463.000
61.42327 488.000
61.44321 515.000
61.46316 519.000
61.48311 514.000
61.50306 594.000
61.52300 588.000
61.54295 568.000
61.56290 529.000
61.58284 547.000
61.60279 565.000
61.62274 559.000
61.64268 524.000
61.66263 548.000
61.68258 536.000
61.70252 558.000
61.72247 537.000
61.74242 501.000
61.76237 517.000
61.78231 515.000
61.80226 534.000
61.82221 545.000
61.84215 476.000
61.86210 477.000
61.88205 448.000
61.90199 462.000
61.92194 484.000
61.94189 508.000
61.96184 533.000
61.98178 500.000
62.00173 529.000
62.02168 475.000
62.04162 514.000
62.06157 519.000
62.08152 454.000
62.10146 478.000
62.12141 523.000
62.14136 531.000
62.16131 527.000
62.18125 530.000
62.20120 534.000
62.22115 581.000
62.24109 570.000
62.26104 584.000
62.28099 541.000
62.30093 608.000
62.32088 603.000
62.34083 660.000
62.36077 704.000
62.38072 672.000
62.40067 710.000
62.42062 701.000
62.44056 783.000
62.46051 813.000
62.48046 847.000
62.50040 925.000
62.52035 986.000
62.54030 984.000
62.56024 1094.000
62.58019 1145.000
62.60014 1111.000
62.62009 1181.000
62.64003 1225.000
62.65998 1166.000
62.67993 1207.000
62.69987 1146.000
62.71982 1142.000
62.73977 1118.000
62.75971 1063.000
62.77966 1036.000
62.79961 1094.000
62.81955 993.000
62.83950 970.000
62.85945 1050.000
62.87940 964.000
62.89934 899.000
62.91929 939.000
62.93924 851.000
62.95918 818.000
62.97913 779.000
62.99908 764.000
63.01902 797.000
63.03897 761.000
63.05892 780.000
63.07887 798.000
63.09881 722.000
63.11876 734.000
63.13871 711.000
63.15865 638.000
63.17860 647.000
63.19855 562.000
63.21849 573.000
63.23844 576.000
63.25839 575.000
63.27833 545.000
63.29828 513.000
63.31823 554.000
63.33818 546.000
63.35812 503.000
63.37807 471.000
63.39802 441.000
63.41796 478.000
63.43791 478.000
63.45786 470.000
63.47780 417.000
63.49775 410.000
63.51770 434.000
63.53765 405.000
63.55759 406.000
63.57754 399.000
63.59749 421.000
63.61743 415.000
63.63738 416.000
63.65733 412.000
63.67727 408.000
63.69722 399.000
63.71717 400.000
63.73712 417.000
63.75706 381.000
63.77701 401.000
63.79696 408.000
63.81690 392.000
63.83685 425.000
63.85680 420.000
63.87674 355.000
63.89669 375.000
63.91664 401.000
63.93658 383.000
63.95653 367.000
63.97648 426.000
63.99643 424.000
64.01637 396.000
64.03632 402.000
64.05627 402.000
64.07621 415.000
64.09616 411.000
64.11611 424.000
64.13605 443.000
64.15600 370.000
64.17595 414.000
64.19590 434.000
64.21584 399.000
64.23579 414.000
64.25574 404.000
64.27568 441.000
64.29563 387.000
64.31558 406.000
64.33552 388.000
64.35547 411.000
64.37542 386.000
64.39536 414.000
64.41531 436.000
64.43526 438.000
64.45521 416.000
64.47515 387.000
64.49510 418.000
64.51505 428.000
64.53499 393.000
64.55494 388.000
64.57489 442.000
64.59483 376.000
64.61478 406.000
64.63473 451.000
64.65468 417.000
64.67462 412.000
64.69457 389.000
64.71452 433.000
64.73446 380.000
64.75441 419.000
64.77436 383.000
64.79430 406.000
64.81425 393.000
64.83420 405.000
64.85414 424.000
64.87409 393.000
64.89404 404.000
64.91399 417.000
64.93393 384.000
64.95388 433.000
64.97383 355.000
64.99377 427.000
65.01372 400.000
65.03367 394.000
65.05361 403.000
65.07356 387.000
65.09351 406.000
65.11346 413.000
65.13340 417.000
65.15335 428.000
65.17330 407.000
65.19324 399.000
65.21319 408.000
65.23314 419.000
65.25308 402.000
65.27303 405.000
65.29298 396.000
65.31293 436.000
65.33287 429.000
65.35282 436.000
65.37277 429.000
65.39271 441.000
65.41266 440.000
65.43261 423.000
65.45255 449.000
65.47250 449.000
65.49245 441.000
65.51239 429.000
65.53234 485.000
65.55229 472.000
65.57224 502.000
65.59218 485.000
65.61213 432.000
65.63208 513.000
65.65202 491.000
65.67197 520.000
65.69192 450.000
65.71186 480.000
65.73181 483.000
65.75176 451.000
65.77171 511.000
65.79165 455.000
65.81160 483.000
65.83155 471.000
65.85149 468.000
65.87144 508.000
65.89139 507.000
65.91133 435.000
65.93128 494.000
65.95123 485.000
65.97117 474.000
65.99112 472.000
66.01107 462.000
66.03102 482.000
66.05096 492.000
66.07091 480.000
66.09086 541.000
66.11080 495.000
66.13075 517.000
66.15070 529.000
66.17064 463.000
66.19059 528.000
66.21054 517.000
66.23049 543.000
66.25043 551.000
66.27038 535.000
66.29033 537.000
66.31027 523.000
66.33022 566.000
66.35017 539.000
66.37011 521.000
66.39006 536.000
66.41001 479.000
66.42995 512.000
66.44990 490.000
66.46985 478.000
66.48980 474.000
66.50974 491.000
66.52969 495.000
66.54964 504.000
66.56958 413.000
66.58953 450.000
66.60948 496.000
66.62942 451.000
66.64937 451.000
66.66932 435.000
66.68927 439.000
66.70921 462.000
66.72916 448.000
66.74911 456.000
66.76905 465.000
66.78900 450.000
66.80895 446.000
66.82889 447.000
66.84884 442.000
66.86879 467.000
66.88874 478.000
66.90868 429.000
66.92863 444.000
66.94858 414.000
66.96852 462.000
66.98847 413.000
67.00842 466.000
67.02836 466.000
67.04831 454.000
67.06826 417.000
67.08820 442.000
67.10815 423.000
67.12810 390.000
67.14805 406.000
67.16799 422.000
67.18794 405.000
67.20789 430.000
67.22783 439.000
67.24778 410.000
67.26773 400.000
67.28767 371.000
67.30762 441.000
67.32757 398.000
67.34752 438.000
67.36746 393.000
67.38741 412.000
67.40736 380.000
67.42730 401.000
67.44725 406.000
67.46720 413.000
67.48714 424.000
67.50709 429.000
67.52704 425.000
67.54698 439.000
67.56693 380.000
67.58688 400.000
67.60683 404.000
67.62677 458.000
67.64672 456.000
67.66667 430.000
67.68661 432.000
67.70656 479.000
67.72651 417.000
67.74645 504.000
67.76640 470.000
67.78635 470.000
67.80630 453.000
67.82624 507.000
67.84619 475.000
67.86614 473.000
67.88608 504.000
67.90603 527.000
67.92598 502.000
67.94592 523.000
67.96587 575.000
67.98582 529.000
68.00576 536.000
68.02571 549.000
68.04566 550.000
68.06561 530.000
68.08555 496.000
68.10550 497.000
68.12545 496.000
68.14539 500.000
68.16534 461.000
68.18529 466.000
68.20523 448.000
68.22518 474.000
68.24513 450.000
68.26508 462.000
68.28502 419.000
68.30497 409.000
68.32492 396.000
68.34486 417.000
68.36481 443.000
68.38476 425.000
68.40470 389.000
68.42465 418.000
68.44460 422.000
68.46455 372.000
68.48449 411.000
68.50444 367.000
68.52439 368.000
68.54433 402.000
68.56428 373.000
68.58423 391.000
68.60417 390.000
68.62412 384.000
68.64407 411.000
68.66401 411.000
68.68396 390.000
68.70391 356.000
68.72386 376.000
68.74380 383.000
68.76375 394.000
68.78370 370.000
68.80364 389.000
68.82359 367.000
68.84354 395.000
68.86348 377.000
68.88343 398.000
68.90338 387.000
68.92333 417.000
68.94327 362.000
68.96322 387.000
68.98317 393.000
69.00311 397.000
69.02306 355.000
69.04301 376.000
69.06295 375.000
69.08290 398.000
69.10285 402.000
69.12279 367.000
69.14274 348.000
69.16269 363.000
69.18264 379.000
69.20258 357.000
69.22253 386.000
69.24248 378.000
69.26242 402.000
69.28237 369.000
69.30232 351.000
69.32226 382.000
69.34221 386.000
69.36216 372.000
69.38211 383.000
69.40205 424.000
69.42200 394.000
69.44195 392.000
69.46189 339.000
69.48184 381.000
69.50179 378.000
69.52173 371.000
69.54168 378.000
69.56163 348.000
69.58157 382.000
69.60152 372.000
69.62147 341.000
69.64142 356.000
69.66136 387.000
69.68131 386.000
69.70126 360.000
69.72120 329.000
69.74115 353.000
69.76110 371.000
69.78104 366.000
69.80099 417.000
69.82094 384.000
69.84089 397.000
69.86083 376.000
69.88078 358.000
69.90073 366.000
69.92067 375.000
69.94062 358.000
69.96057 378.000
69.98051 358.000
70.00046 355.000
70.02041 341.000
70.04035 375.000
70.06030 380.000
70.08025 392.000
70.10020 374.000
70.12014 355.000
70.14009 376.000
70.16004 348.000
70.17998 367.000
70.19993 381.000
70.21988 359.000
70.23982 365.000
70.25977 379.000
70.27972 376.000
70.29967 345.000
70.31961 377.000
70.33956 355.000
70.35951 356.000
70.37945 367.000
70.39940 324.000
70.41935 369.000
70.43929 387.000
70.45924 411.000
70.47919 363.000
70.49914 374.000
70.51908 372.000
70.53903 343.000
70.55898 367.000
70.57892 328.000
70.59887 367.000
70.61882 337.000
70.63876 378.000
70.65871 371.000
70.67866 406.000
70.69860 386.000
70.71855 388.000
70.73850 368.000
70.75845 343.000
70.77839 367.000
70.79834 382.000
70.81829 370.000
70.83823 372.000
70.85818 389.000
70.87813 363.000
70.89807 376.000
70.91802 361.000
70.93797 367.000
70.95792 357.000
70.97786 379.000
70.99781 417.000
71.01776 364.000
71.03770 360.000
71.05765 370.000
71.07760 371.000
71.09754 385.000
71.11749 385.000
71.13744 379.000
71.15738 376.000
71.17733 355.000
71.19728 349.000
71.21723 378.000
71.23717 354.000
71.25712 386.000
71.27707 326.000
71.29701 373.000
71.31696 400.000
71.33691 417.000
71.35685 365.000
71.37680 422.000
71.39675 367.000
71.41670 400.000
71.43664 420.000
71.45659 380.000
71.47654 400.000
71.49648 408.000
71.51643 402.000
71.53638 405.000
71.55632 404.000
71.57627 397.000
71.59622 368.000
71.61616 392.000
71.63611 419.000
71.65606 351.000
71.67601 370.000
71.69595 383.000
71.71590 368.000
71.73585 423.000
71.75579 415.000
71.77574 388.000
71.79569 407.000
71.81563 370.000
71.83558 405.000
71.85553 390.000
71.87548 397.000
71.89542 390.000
71.91537 370.000
71.93532 400.000
71.95526 376.000
71.97521 400.000
71.99516 364.000
72.01510 384.000
72.03505 358.000
72.05500 375.000
72.07495 356.000
72.09489 412.000
72.11484 415.000
72.13479 393.000
72.15473 386.000
72.17468 445.000
72.19463 380.000
72.21457 426.000
72.23452 420.000
72.25447 437.000
72.27441 434.000
72.29436 410.000
72.31431 417.000
72.33426 442.000
72.35420 427.000
72.37415 427.000
72.39410 423.000
72.41404 454.000
72.43399 427.000
72.45394 422.000
72.47388 402.000
72.49383 451.000
72.51378 381.000
72.53373 417.000
72.55367 413.000
72.57362 418.000
72.59357 437.000
72.61351 386.000
72.63346 390.000
72.65341 390.000
72.67335 381.000
72.69330 408.000
72.71325 371.000
72.73319 383.000
72.75314 360.000
72.77309 351.000
72.79304 391.000
72.81298 367.000
72.83293 363.000
72.85288 393.000
72.87282 353.000
72.89277 374.000
72.91272 382.000
72.93266 388.000
72.95261 358.000
72.97256 384.000
72.99251 383.000
73.01245 404.000
73.03240 372.000
73.05235 371.000
73.07229 351.000
73.09224 390.000
73.11219 367.000
73.13213 365.000
73.15208 337.000
73.17203 384.000
73.19197 366.000
73.21192 384.000
73.23187 380.000
73.25182 358.000
73.27176 390.000
73.29171 350.000
73.31166 372.000
73.33160 400.000
73.35155 381.000
73.37150 376.000
73.39144 380.000
73.41139 376.000
73.43134 407.000
73.45129 381.000
73.47123 385.000
73.49118 345.000
73.51113 360.000
73.53107 387.000
73.55102 367.000
73.57097 375.000
73.59091 395.000
73.61086 375.000
73.63081 424.000
73.65076 368.000
73.67070 408.000
73.69065 360.000
73.71060 357.000
73.73054 372.000
73.75049 399.000
73.77044 345.000
73.79038 376.000
73.81033 405.000
73.83028 369.000
73.85022 390.000
73.87017 365.000
73.89012 363.000
73.91007 404.000
73.93001 379.000
73.94996 356.000
73.96991 410.000
73.98985 384.000
74.00980 403.000
74.02975 391.000
74.04969 385.000
74.06964 400.000
74.08959 377.000
74.10954 391.000
74.12948 372.000
74.14943 353.000
74.16938 408.000
74.18932 434.000
74.20927 397.000
74.22922 387.000
74.24916 415.000
74.26911 388.000
74.28906 405.000
74.30900 415.000
74.32895 413.000
74.34890 414.000
74.36885 420.000
74.38879 444.000
74.40874 479.000
74.42869 420.000
74.44863 446.000
74.46858 453.000
74.48853 448.000
74.50847 430.000
74.52842 449.000
74.54837 450.000
74.56832 470.000
74.58826 464.000
74.60821 500.000
74.62816 448.000
74.64810 493.000
74.66805 486.000
74.68800 441.000
74.70794 505.000
74.72789 488.000
74.74784 501.000
74.76778 506.000
74.78773 516.000
74.80768 534.000
74.82763 573.000
74.84757 564.000
74.86752 594.000
74.88747 551.000
74.90741 532.000
74.92736 616.000
74.94731 609.000
74.96725 566.000
74.98720 585.000
75.00715 597.000
75.02710 633.000
75.04704 633.000
75.06699 649.000
75.08694 676.000
75.10688 661.000
75.12683 649.000
75.14678 664.000
75.16672 687.000
75.18667 683.000
75.20662 664.000
75.22657 634.000
75.24651 622.000
75.26646 601.000
75.28641 661.000
75.30635 594.000
75.32630 633.000
75.34625 616.000
75.36619 538.000
75.38614 587.000
75.40609 577.000
75.42603 523.000
75.44598 545.000
75.46593 524.000
75.48588 479.000
75.50582 506.000
75.52577 468.000
75.54572 484.000
75.56566 468.000
75.58561 403.000
75.60556 455.000
75.62550 462.000
75.64545 466.000
75.66540 450.000
75.68535 440.000
75.70529 425.000
75.72524 438.000
75.74519 400.000
75.76513 381.000
75.78508 437.000
75.80503 456.000
75.82497 388.000
75.84492 407.000
75.86487 431.000
75.88481 423.000
75.90476 428.000
75.92471 419.000
75.94466 409.000
75.96460 397.000
75.98455 372.000
76.00450 380.000
76.02444 398.000
76.04439 373.000
76.06434 374.000
76.08428 343.000
76.10423 407.000
76.12418 355.000
76.14413 392.000
76.16407 383.000
76.18402 401.000
76.20397 389.000
76.22391 403.000
76.24386 369.000
76.26381 341.000
76.28375 369.000
76.30370 374.000
76.32365 377.000
76.34359 381.000
76.36354 404.000
76.38349 385.000
76.40344 419.000
76.42338 394.000
76.44333 346.000
76.46328 380.000
76.48322 409.000
76.50317 358.000
76.52312 396.000
76.54306 349.000
76.56301 415.000
76.58296 352.000
76.60291 354.000
76.62285 364.000
76.64280 350.000
76.66275 358.000
76.68269 383.000
76.70264 368.000
76.72259 348.000
76.74253 365.000
76.76248 346.000
76.78243 398.000
76.80238 400.000
76.82232 332.000
76.84227 392.000
76.86222 371.000
76.88216 372.000
76.90211 378.000
76.92206 376.000
76.94200 368.000
76.96195 354.000
76.98190 380.000
77.00184 362.000
77.02179 361.000
77.04174 341.000
77.06169 366.000
77.08163 342.000
77.10158 381.000
77.12153 375.000
77.14147 382.000
77.16142 379.000
77.18137 353.000
77.20131 373.000
77.22126 360.000
77.24121 386.000
77.26116 355.000
77.28110 379.000
77.30105 365.000
77.32100 376.000
77.34094 384.000
77.36089 392.000
77.38084 387.000
77.40078 349.000
77.42073 337.000
77.44068 342.000
77.46062 363.000
77.48057 368.000
77.50052 368.000
77.52047 381.000
77.54041 377.000
77.56036 348.000
77.58031 406.000
77.60025 357.000
77.62020 373.000
77.64015 376.000
77.66009 360.000
77.68004 402.000
77.69999 363.000
77.71994 398.000
77.73988 360.000
77.75983 341.000
77.77978 364.000
77.79972 359.000
77.81967 354.000
77.83962 390.000
77.85956 386.000
77.87951 385.000
77.89946 371.000
77.91940 369.000
77.93935 357.000
77.95930 395.000
77.97925 359.000
77.99919 359.000
78.01914 372.000
78.03909 355.000
78.05903 352.000
78.07898 366.000
78.09893 349.000
78.11887 402.000
78.13882 403.000
78.15877 406.000
78.17872 361.000
78.19866 408.000
78.21861 394.000
78.23856 397.000
78.25850 354.000
78.27845 370.000
78.29840 351.000
78.31834 389.000
78.33829 333.000
78.35824 392.000
78.37819 361.000
78.39813 377.000
78.41808 367.000
78.43803 379.000
78.45797 389.000
78.47792 395.000
78.49787 390.000
78.51781 410.000
78.53776 379.000
78.55771 401.000
78.57765 371.000
78.59760 382.000
78.61755 383.000
78.63750 378.000
78.65744 416.000
78.67739 422.000
78.69734 432.000
78.71728 405.000
78.73723 416.000
78.75718 416.000
78.77712 435.000
78.79707 446.000
78.81702 446.000
78.83697 478.000
78.85691 454.000
78.87686 410.000
78.89681 464.000
78.91675 447.000
78.93670 472.000
78.95665 492.000
78.97659 527.000
78.99654 527.000
79.01649 521.000
79.03643 486.000
79.05638 532.000
79.07633 561.000
79.09628 518.000
79.11622 543.000
79.13617 514.000
79.15612 515.000
79.17606 462.000
79.19601 536.000
79.21596 464.000
79.23590 489.000
79.25585 515.000
79.27580 525.000
79.29575 530.000
79.31569 453.000
79.33564 452.000
79.35559 465.000
79.37553 428.000
79.39548 435.000
79.41543 488.000
79.43537 469.000
79.45532 387.000
79.47527 411.000
79.49521 389.000
79.51516 394.000
79.53511 383.000
79.55506 399.000
79.57500 398.000
79.59495 399.000
79.61490 391.000
79.63484 417.000
79.65479 408.000
79.67474 427.000
79.69468 388.000
79.71463 376.000
79.73458 383.000
79.75453 359.000
79.77447 365.000
79.79442 398.000
79.81437 378.000
79.83431 370.000
79.85426 377.000
79.87421 361.000
79.89415 388.000
79.91410 374.000
79.93405 366.000
79.95399 368.000
79.97394 384.000
79.99389 312.000
80.01384 390.000
80.03378 358.000
80.05373 359.000
80.07368 386.000
80.09362 382.000
80.11357 372.000
80.13352 411.000
80.15346 376.000
80.17341 392.000
80.19336 370.000
80.21331 394.000
80.23325 389.000
80.25320 383.000
80.27315 382.000
80.29309 334.000
80.31304 352.000
80.33299 381.000
80.35293 352.000
80.37288 351.000
80.39283 380.000
80.41278 390.000
80.43272 414.000
80.45267 366.000
80.47262 371.000
80.49256 388.000
80.51251 353.000
80.53246 389.000
80.55240 398.000
80.57235 349.000
80.59230 391.000
80.61224 363.000
80.63219 390.000
80.65214 330.000
80.67209 344.000
80.69203 365.000
80.71198 382.000
80.73193 346.000
80.75187 369.000
80.77182 388.000
80.79177 419.000
80.81171 343.000
80.83166 358.000
80.85161 341.000
80.87156 382.000
80.89150 357.000
80.91145 326.000
80.93140 376.000
80.95134 334.000
80.97129 387.000
80.99124 349.000
81.01118 393.000
81.03113 357.000
81.05108 362.000
81.07102 348.000
81.09097 403.000
81.11092 400.000
81.13087 400.000
81.15081 381.000
81.17076 353.000
81.19071 379.000
81.21065 364.000
81.23060 385.000
81.25055 368.000
81.27049 332.000
81.29044 346.000
81.31039 382.000
81.33034 352.000
81.35028 417.000
81.37023 368.000
81.39018 368.000
81.41012 342.000
81.43007 369.000
81.45002 345.000
81.46996 360.000
81.48991 387.000
81.50986 350.000
81.52980 392.000
81.54975 361.000
81.56970 336.000
81.58965 365.000
81.60959 372.000
81.62954 350.000
81.64949 345.000
81.66943 352.000
81.68938 370.000
81.70933 363.000
81.72927 349.000
81.74922 384.000
81.76917 366.000
81.78912 332.000
81.80906 336.000
81.82901 383.000
81.84896 384.000
81.86890 353.000
81.88885 373.000
81.90880 361.000
81.92874 344.000
81.94869 344.000
81.96864 355.000
81.98859 365.000
82.00853 408.000
82.02848 376.000
82.04843 372.000
82.06837 392.000
82.08832 364.000
82.10827 386.000
82.12821 409.000
82.14816 364.000
82.16811 427.000
82.18805 352.000
82.20800 379.000
82.22795 406.000
82.24790 385.000
82.26784 385.000
82.28779 365.000
82.30774 405.000
82.32768 372.000
82.34763 365.000
82.36758 418.000
82.38752 420.000
82.40747 390.000
82.42742 401.000
82.44737 406.000
82.46731 419.000
82.48726 391.000
82.50721 404.000
82.52715 375.000
82.54710 430.000
82.56705 423.000
82.58699 401.000
82.60694 457.000
82.62689 378.000
82.64683 403.000
82.66678 393.000
82.68673 423.000
82.70668 401.000
82.72662 371.000
82.74657 373.000
82.76652 424.000
82.78646 423.000
82.80641 394.000
82.82636 395.000
82.84630 395.000
82.86625 373.000
82.88620 395.000
82.90615 428.000
82.92609 406.000
82.94604 362.000
82.96599 457.000
82.98593 383.000
83.00588 411.000
83.02583 423.000
83.04577 400.000
83.06572 394.000
83.08567 402.000
83.10561 381.000
83.12556 392.000
83.14551 396.000
83.16546 381.000
83.18540 360.000
83.20535 365.000
83.22530 417.000
83.24524 382.000
83.26519 385.000
83.28514 384.000
83.30508 378.000
83.32503 389.000
83.34498 374.000
83.36493 375.000
83.38487 376.000
83.40482 406.000
83.42477 354.000
83.44471 394.000
83.46466 427.000
83.48461 380.000
83.50455 409.000
83.52450 360.000
83.54445 388.000
83.56440 423.000
83.58434 403.000
83.60429 384.000
83.62424 439.000
83.64418 387.000
83.66413 409.000
83.68408 381.000
83.70402 388.000
83.72397 406.000
83.74392 403.000
83.76386 396.000
83.78381 423.000
83.80376 403.000
83.82371 418.000
83.84365 350.000
83.86360 423.000
83.88355 347.000
83.90349 387.000
83.92344 363.000
83.94339 404.000
83.96333 376.000
83.98328 380.000
84.00323 390.000
84.02318 386.000
84.04312 399.000
84.06307 407.000
84.08302 359.000
84.10296 361.000
84.12291 385.000
84.14286 384.000
84.16280 367.000
84.18275 369.000
84.20270 403.000
84.22264 404.000
84.24259 395.000
84.26254 401.000
84.28249 402.000
84.30243 347.000
84.32238 369.000
84.34233 386.000
84.36227 375.000
84.38222 364.000
84.40217 380.000
84.42211 343.000
84.44206 385.000
84.46201 344.000
84.48196 383.000
84.50190 386.000
84.52185 337.000
84.54180 394.000
84.56174 354.000
84.58169 363.000
84.60164 362.000
84.62158 355.000
84.64153 377.000
84.66148 383.000
84.68142 360.000
84.70137 376.000
84.72132 345.000
84.74127 372.000
84.76121 364.000
84.78116 367.000
84.80111 371.000
84.82105 401.000
84.84100 357.000
84.86095 376.000
84.88089 353.000
84.90084 334.000
84.92079 380.000
84.94074 360.000
84.96068 374.000
84.98063 357.000
85.00058 370.000
85.02052 333.000
85.04047 381.000
85.06042 364.000
85.08036 357.000
85.10031 343.000
85.12026 369.000
85.14021 350.000
85.16015 351.000
85.18010 358.000
85.20005 364.000
85.21999 353.000
85.23994 360.000
85.25989 366.000
85.27983 377.000
85.29978 370.000
85.31973 376.000
85.33967 364.000
85.35962 407.000
85.37957 352.000
85.39952 345.000
85.41946 344.000
85.43941 364.000
85.45936 348.000
85.47930 363.000
85.49925 356.000
85.51920 371.000
85.53914 359.000
85.55909 325.000
85.57904 334.000
85.59899 380.000
85.61893 368.000
85.63888 371.000
85.65883 365.000
85.67877 380.000
85.69872 365.000
85.71867 385.000
85.73861 331.000
85.75856 317.000
85.77851 323.000
85.79845 333.000
85.81840 349.000
85.83835 348.000
85.85830 357.000
85.87824 375.000
85.89819 350.000
85.91814 345.000
85.93808 368.000
85.95803 360.000
85.97798 374.000
85.99792 389.000
86.01787 379.000
86.03782 340.000
86.05777 355.000
86.07771 329.000
86.09766 363.000
86.11761 338.000
86.13755 384.000
86.15750 348.000
86.17745 356.000
86.19739 375.000
86.21734 335.000
86.23729 334.000
86.25723 358.000
86.27718 338.000
86.29713 397.000
86.31708 357.000
86.33702 343.000
86.35697 345.000
86.37692 364.000
86.39686 361.000
86.41681 358.000
86.43676 368.000
86.45670 361.000
86.47665 361.000
86.49660 354.000
86.51655 341.000
86.53649 359.000
86.55644 387.000
86.57639 348.000
86.59633 383.000
86.61628 411.000
86.63623 368.000
86.65617 372.000
86.67612 370.000
86.69607 352.000
86.71602 395.000
86.73596 399.000
86.75591 388.000
86.77586 374.000
86.79580 362.000
86.81575 386.000
86.83570 364.000
86.85564 361.000
86.87559 376.000
86.89554 358.000
86.91548 386.000
86.93543 369.000
86.95538 351.000
86.97533 379.000
86.99527 379.000
87.01522 367.000
87.03517 384.000
87.05511 371.000
87.07506 394.000
87.09501 356.000
87.11495 382.000
87.13490 376.000
87.15485 369.000
87.17480 369.000
87.19474 410.000
87.21469 388.000
87.23464 382.000
87.25458 377.000
87.27453 401.000
87.29448 394.000
87.31442 389.000
87.33437 393.000
87.35432 421.000
87.37426 378.000
87.39421 373.000
87.41416 336.000
87.43411 405.000
87.45405 381.000
87.47400 384.000
87.49395 354.000
87.51389 364.000
87.53384 367.000
87.55379 376.000
87.57373 396.000
87.59368 401.000
87.61363 370.000
87.63358 351.000
87.65352 409.000
87.67347 416.000
87.69342 371.000
87.71336 364.000
87.73331 372.000
87.75326 373.000
87.77320 388.000
87.79315 344.000
87.81310 396.000
87.83304 375.000
87.85299 374.000
87.87294 386.000
87.89289 345.000
87.91283 369.000
87.93278 349.000
87.95273 396.000
87.97267 365.000
87.99262 388.000
88.01257 383.000
88.03251 351.000
88.05246 354.000
88.07241 377.000
88.09236 370.000
88.11230 356.000
88.13225 337.000
88.15220 378.000
88.17214 352.000
88.19209 372.000
88.21204 332.000
88.23198 396.000
88.25193 404.000
88.27188 369.000
88.29183 360.000
88.31177 372.000
88.33172 354.000
88.35167 367.000
88.37161 392.000
88.39156 342.000
88.41151 365.000
88.43145 373.000
88.45140 322.000
88.47135 343.000
88.49129 389.000
88.51124 418.000
88.53119 356.000
88.55114 396.000
88.57108 382.000
88.59103 333.000
88.61098 333.000
88.63092 348.000
88.65087 354.000
88.67082 372.000
88.69076 340.000
88.71071 347.000
88.73066 350.000
88.75061 361.000
88.77055 380.000
88.79050 370.000
88.81045 409.000
88.83039 350.000
88.85034 374.000
88.87029 352.000
88.89023 372.000
88.91018 377.000
88.93013 366.000
88.95007 362.000
88.97002 397.000
88.98997 360.000
89.00992 389.000
89.02986 351.000
89.04981 356.000
89.06976 379.000
89.08970 363.000
89.10965 380.000
89.12960 374.000
89.14954 350.000
89.16949 361.000
89.18944 372.000
89.20939 365.000
89.22933 359.000
89.24928 393.000
89.26923 386.000
89.28917 344.000
89.30912 394.000
89.32907 366.000
89.34901 341.000
89.36896 372.000
89.38891 379.000
89.40885 385.000
89.42880 387.000
89.44875 376.000
89.46870 364.000
89.48864 384.000
89.50859 396.000
89.52854 384.000
89.54848 386.000
89.56843 362.000
89.58838 425.000
89.60832 390.000
89.62827 395.000
89.64822 402.000
89.66817 406.000
89.68811 423.000
89.70806 392.000
89.72801 354.000
89.74795 386.000
89.76790 427.000
89.78785 371.000
89.80779 364.000
89.82774 372.000
89.84769 338.000
89.86764 404.000
89.88758 389.000
89.90753 418.000
89.92748 393.000
89.94742 369.000
89.96737 382.000
89.98732 387.000
90.00726 380.000
