10.00000 135.000
10.01995 142.000
10.03989 110.000
10.05984 151.000
10.07979 130.000
10.09973 126.000
10.11968 118.000
10.13963 123.000
10.15958 132.000
10.17952 152.000
10.19947 128.000
10.21942 115.000
10.23936 141.000
10.25931 149.000
10.27926 117.000
10.29920 136.000
10.31915 149.000
10.33910 122.000
10.35905 143.000
10.37899 123.000
10.39894 131.000
10.41889 126.000
10.43883 126.000
10.45878 126.000
10.47873 130.000
10.49867 132.000
10.51862 127.000
10.53857 149.000
10.55851 153.000
10.57846 137.000
10.59841 118.000
10.61836 122.000
10.63830 136.000
10.65825 144.000
10.67820 126.000
10.69814 125.000
10.71809 118.000
10.73804 128.000
10.75798 124.000
10.77793 131.000
10.79788 118.000
10.81783 135.000
10.83777 111.000
10.85772 124.000
10.87767 127.000
10.89761 126.000
10.91756 128.000
10.93751 118.000
10.95745 119.000
10.97740 137.000
10.99735 126.000
11.01730 119.000
11.03724 142.000
11.05719 144.000
11.07714 139.000
11.09708 150.000
11.11703 120.000
11.13698 126.000
11.15692 127.000
11.17687 108.000
11.19682 111.000
11.21676 111.000
11.23671 127.000
11.25666 117.000
11.27661 135.000
11.29655 115.000
11.31650 106.000
11.33645 110.000
11.35639 108.000
11.37634 112.000
11.39629 136.000
11.41623 129.000
11.43618 128.000
11.45613 134.000
11.47608 128.000
11.49602 140.000
11.51597 116.000
11.53592 126.000
11.55586 137.000
11.57581 137.000
11.59576 126.000
11.61570 131.000
11.63565 125.000
11.65560 130.000
11.67554 122.000
11.69549 123.000
11.71544 156.000
11.73539 141.000
11.75533 153.000
11.77528 121.000
11.79523 126.000
11.81517 139.000
11.83512 138.000
11.85507 126.000
11.87501 123.000
11.89496 131.000
11.91491 141.000
11.93486 117.000
11.95480 126.000
11.97475 128.000
11.99470 130.000
12.01464 121.000
12.03459 134.000
12.05454 117.000
12.07448 139.000
12.09443 125.000
12.11438 141.000
12.13432 129.000
12.15427 128.000
12.17422 128.000
12.19417 122.000
12.21411 119.000
12.23406 154.000
12.25401 140.000
12.27395 130.000
12.29390 132.000
12.31385 141.000
12.33379 127.000
12.35374 143.000
12.37369 163.000
12.39364 137.000
12.41358 153.000
12.43353 140.000
12.45348 126.000
12.47342 157.000
12.49337 123.000
12.51332 145.000
12.53326 132.000
12.55321 131.000
12.57316 122.000
12.59311 151.000
12.61305 122.000
12.63300 140.000
12.65295 141.000
12.67289 132.000
12.69284 126.000
12.71279 132.000
12.73273 130.000
12.75268 156.000
12.77263 141.000
12.79257 148.000
12.81252 136.000
12.83247 124.000
12.85242 142.000
12.87236 136.000
12.89231 137.000
12.91226 107.000
12.93220 137.000
12.95215 121.000
12.97210 138.000
12.99204 164.000
13.01199 144.000
13.03194 127.000
13.05189 132.000
13.07183 141.000
13.09178 125.000
13.11173 144.000
13.13167 146.000
13.15162 121.000
13.17157 140.000
13.19151 131.000
13.21146 136.000
13.23141 139.000
13.25135 137.000
13.27130 128.000
13.29125 161.000
13.31120 127.000
13.33114 125.000
13.35109 128.000
13.37104 121.000
13.39098 137.000
13.41093 110.000
13.43088 140.000
13.45082 107.000
13.47077 143.000
13.49072 148.000
13.51067 116.000
13.53061 130.000
13.55056 109.000
13.57051 158.000
13.59045 167.000
13.61040 148.000
13.63035 110.000
13.65029 128.000
13.67024 113.000
13.69019 132.000
13.71013 147.000
13.73008 149.000
13.75003 135.000
13.76998 135.000
13.78992 142.000
13.80987 135.000
13.82982 152.000
13.84976 132.000
13.86971 123.000
13.88966 116.000
13.90960 131.000
13.92955 144.000
13.94950 113.000
13.96945 134.000
13.98939 155.000
14.00934 150.000
14.02929 128.000
14.04923 143.000
14.06918 128.000
14.08913 119.000
14.10907 142.000
14.12902 122.000
14.14897 123.000
14.16892 152.000
14.18886 120.000
14.20881 135.000
14.22876 133.000
14.24870 108.000
14.26865 151.000
14.28860 134.000
14.30854 142.000
14.32849 118.000
14.34844 138.000
14.36838 169.000
14.38833 165.000
14.40828 139.000
14.42823 142.000
14.44817 134.000
14.46812 152.000
14.48807 161.000
14.50801 135.000
14.52796 120.000
14.54791 124.000
14.56785 139.000
14.58780 137.000
14.60775 125.000
14.62770 145.000
14.64764 141.000
14.66759 128.000
14.68754 123.000
14.70748 125.000
14.72743 123.000
14.74738 136.000
14.76732 144.000
14.78727 138.000
14.80722 124.000
14.82716 137.000
14.84711 132.000
14.86706 122.000
14.88701 138.000
14.90695 136.000
14.92690 141.000
14.94685 140.000
14.96679 141.000
14.98674 132.000
15.00669 133.000
15.02663 151.000
15.04658 152.000
15.06653 144.000
15.08648 146.000
15.10642 146.000
15.12637 169.000
15.14632 155.000
15.16626 143.000
15.18621 172.000
15.20616 174.000
15.22610 161.000
15.24605 205.000
15.26600 188.000
15.28594 167.000
15.30589 166.000
15.32584 154.000
15.34579 179.000
15.36573 171.000
15.38568 171.000
15.40563 130.000
15.42557 196.000
15.44552 206.000
15.46547 203.000
15.48541 196.000
15.50536 229.000
15.52531 217.000
15.54526 203.000
15.56520 233.000
15.58515 219.000
15.60510 204.000
15.62504 253.000
15.64499 250.000
15.66494 312.000
15.68488 292.000
15.70483 338.000
15.72478 387.000
15.74472 492.000
15.76467 663.000
15.78462 852.000
15.80457 1327.000
15.82451 1996.000
15.84446 3213.000
15.86441 5192.000
15.88435 7847.000
15.90430 10399.000
15.92425 10468.000
15.94419 8676.000
15.96414 6091.000
15.98409 3551.000
16.00404 1924.000
16.02398 1029.000
16.04393 568.000
16.06388 420.000
16.08382 391.000
16.10377 317.000
16.12372 277.000
16.14366 287.000
16.16361 280.000
16.18356 252.000
16.20351 282.000
16.22345 216.000
16.24340 237.000
16.26335 198.000
16.28329 238.000
16.30324 212.000
16.32319 190.000
16.34313 196.000
16.36308 170.000
16.38303 188.000
16.40297 157.000
16.42292 170.000
16.44287 193.000
16.46282 180.000
16.48276 166.000
16.50271 170.000
16.52266 151.000
16.54260 163.000
16.56255 167.000
16.58250 182.000
16.60244 156.000
16.62239 131.000
16.64234 165.000
16.66229 163.000
16.68223 131.000
16.70218 164.000
16.72213 155.000
16.74207 158.000
16.76202 145.000
16.78197 144.000
16.80191 137.000
16.82186 143.000
16.84181 143.000
16.86175 160.000
16.88170 154.000
16.90165 148.000
16.92160 157.000
16.94154 167.000
16.96149 144.000
16.98144 150.000
17.00138 154.000
17.02133 135.000
17.04128 144.000
17.06122 147.000
17.08117 156.000
17.10112 144.000
17.12107 136.000
17.14101 127.000
17.16096 133.000
17.18091 124.000
17.20085 153.000
17.22080 138.000
17.24075 152.000
17.26069 150.000
17.28064 139.000
17.30059 131.000
17.32053 147.000
17.34048 135.000
17.36043 142.000
17.38038 150.000
17.40032 126.000
17.42027 154.000
17.44022 153.000
17.46016 131.000
17.48011 146.000
17.50006 148.000
17.52000 132.000
17.53995 123.000
17.55990 150.000
17.57985 142.000
17.59979 163.000
17.61974 127.000
17.63969 163.000
17.65963 121.000
17.67958 123.000
17.69953 130.000
17.71947 137.000
17.73942 151.000
17.75937 149.000
17.77932 153.000
17.79926 111.000
17.81921 127.000
17.83916 153.000
17.85910 146.000
17.87905 141.000
17.89900 142.000
17.91894 114.000
17.93889 138.000
17.95884 125.000
17.97878 142.000
17.99873 139.000
18.01868 143.000
18.03863 142.000
18.05857 153.000
18.07852 123.000
18.09847 157.000
18.11841 145.000
18.13836 125.000
18.15831 127.000
18.17825 127.000
18.19820 125.000
18.21815 129.000
18.23810 152.000
18.25804 133.000
18.27799 148.000
18.29794 148.000
18.31788 138.000
18.33783 127.000
18.35778 140.000
18.37772 146.000
18.39767 155.000
18.41762 163.000
18.43756 205.000
18.45751 165.000
18.47746 202.000
18.49741 191.000
18.51735 159.000
18.53730 154.000
18.55725 157.000
18.57719 144.000
18.59714 135.000
18.61709 141.000
18.63703 142.000
18.65698 148.000
18.67693 136.000
18.69688 159.000
18.71682 130.000
18.73677 144.000
18.75672 143.000
18.77666 128.000
18.79661 133.000
18.81656 143.000
18.83650 126.000
18.85645 113.000
18.87640 149.000
18.89634 121.000
18.91629 137.000
18.93624 123.000
18.95619 116.000
18.97613 166.000
18.99608 143.000
19.01603 129.000
19.03597 140.000
19.05592 138.000
19.07587 109.000
19.09581 140.000
19.11576 127.000
19.13571 155.000
19.15566 133.000
19.17560 150.000
19.19555 141.000
19.21550 127.000
19.23544 152.000
19.25539 136.000
19.27534 135.000
19.29528 137.000
19.31523 126.000
19.33518 117.000
19.35513 147.000
19.37507 145.000
19.39502 146.000
19.41497 162.000
19.43491 141.000
19.45486 129.000
19.47481 133.000
19.49475 142.000
19.51470 160.000
19.53465 146.000
19.55459 147.000
19.57454 128.000
19.59449 126.000
19.61444 119.000
19.63438 133.000
19.65433 137.000
19.67428 162.000
19.69422 142.000
19.71417 146.000
19.73412 145.000
19.75406 121.000
19.77401 113.000
19.79396 161.000
19.81391 141.000
19.83385 145.000
19.85380 117.000
19.87375 124.000
19.89369 153.000
19.91364 135.000
19.93359 139.000
19.95353 132.000
19.97348 124.000
19.99343 143.000
20.01337 148.000
20.03332 148.000
20.05327 141.000
20.07322 124.000
20.09316 122.000
20.11311 138.000
20.13306 124.000
20.15300 120.000
20.17295 118.000
20.19290 126.000
20.21284 136.000
20.23279 146.000
20.25274 146.000
20.27269 144.000
20.29263 137.000
20.31258 170.000
20.33253 127.000
20.35247 155.000
20.37242 118.000
20.39237 145.000
20.41231 134.000
20.43226 146.000
20.45221 128.000
20.47215 136.000
20.49210 143.000
20.51205 142.000
20.53200 150.000
20.55194 139.000
20.57189 139.000
20.59184 144.000
20.61178 155.000
20.63173 156.000
20.65168 149.000
20.67162 122.000
20.69157 148.000
20.71152 132.000
20.73147 133.000
20.75141 163.000
20.77136 134.000
20.79131 146.000
20.81125 145.000
20.83120 143.000
20.85115 144.000
20.87109 149.000
20.89104 193.000
20.91099 164.000
20.93094 203.000
20.95088 163.000
20.97083 183.000
20.99078 184.000
21.01072 220.000
21.03067 201.000
21.05062 218.000
21.07056 203.000
21.09051 211.000
21.11046 190.000
21.13040 193.000
21.15035 185.000
21.17030 163.000
21.19025 168.000
21.21019 148.000
21.23014 142.000
21.25009 151.000
21.27003 159.000
21.28998 134.000
21.30993 158.000
21.32987 155.000
21.34982 129.000
21.36977 145.000
21.38972 157.000
21.40966 147.000
21.42961 148.000
21.44956 147.000
21.46950 132.000
21.48945 126.000
21.50940 123.000
21.52934 150.000
21.54929 141.000
21.56924 137.000
21.58918 138.000
21.60913 139.000
21.62908 140.000
21.64903 166.000
21.66897 162.000
21.68892 130.000
21.70887 154.000
21.72881 131.000
21.74876 135.000
21.76871 140.000
21.78865 149.000
21.80860 143.000
21.82855 152.000
21.84850 127.000
21.86844 158.000
21.88839 137.000
21.90834 164.000
21.92828 128.000
21.94823 125.000
21.96818 131.000
21.98812 131.000
22.00807 146.000
22.02802 156.000
22.04796 141.000
22.06791 140.000
22.08786 162.000
22.10781 140.000
22.12775 134.000
22.14770 149.000
22.16765 144.000
22.18759 132.000
22.20754 125.000
22.22749 155.000
22.24743 150.000
22.26738 150.000
22.28733 157.000
22.30728 134.000
22.32722 141.000
22.34717 144.000
22.36712 141.000
22.38706 122.000
22.40701 124.000
22.42696 129.000
22.44690 158.000
22.46685 164.000
22.48680 131.000
22.50675 123.000
22.52669 131.000
22.54664 166.000
22.56659 160.000
22.58653 146.000
22.60648 140.000
22.62643 118.000
22.64637 136.000
22.66632 134.000
22.68627 139.000
22.70621 124.000
22.72616 118.000
22.74611 141.000
22.76606 126.000
22.78600 113.000
22.80595 130.000
22.82590 156.000
22.84584 152.000
22.86579 134.000
22.88574 125.000
22.90568 123.000
22.92563 135.000
22.94558 146.000
22.96553 140.000
22.98547 140.000
23.00542 160.000
23.02537 107.000
23.04531 154.000
23.06526 136.000
23.08521 138.000
23.10515 138.000
23.12510 150.000
23.14505 147.000
23.16499 109.000
23.18494 141.000
23.20489 142.000
23.22484 151.000
23.24478 123.000
23.26473 150.000
23.28468 138.000
23.30462 144.000
23.32457 146.000
23.34452 135.000
23.36446 131.000
23.38441 119.000
23.40436 149.000
23.42431 148.000
23.44425 136.000
23.46420 121.000
23.48415 139.000
23.50409 132.000
23.52404 149.000
23.54399 125.000
23.56393 154.000
23.58388 135.000
23.60383 132.000
23.62377 137.000
23.64372 147.000
23.66367 127.000
23.68362 134.000
23.70356 160.000
23.72351 143.000
23.74346 144.000
23.76340 134.000
23.78335 162.000
23.80330 134.000
23.82324 120.000
23.84319 120.000
23.86314 136.000
23.88309 140.000
23.90303 143.000
23.92298 153.000
23.94293 133.000
23.96287 134.000
23.98282 145.000
24.00277 158.000
24.02271 141.000
24.04266 147.000
24.06261 141.000
24.08256 130.000
24.10250 172.000
24.12245 141.000
24.14240 142.000
24.16234 127.000
24.18229 158.000
24.20224 143.000
24.22218 137.000
24.24213 157.000
24.26208 130.000
24.28202 145.000
24.30197 136.000
24.32192 136.000
24.34187 134.000
24.36181 128.000
24.38176 146.000
24.40171 127.000
24.42165 150.000
24.44160 139.000
24.46155 138.000
24.48149 148.000
24.50144 155.000
24.52139 155.000
24.54134 134.000
24.56128 149.000
24.58123 138.000
24.60118 160.000
24.62112 153.000
24.64107 136.000
24.66102 170.000
24.68096 125.000
24.70091 130.000
24.72086 165.000
24.74080 152.000
24.76075 131.000
24.78070 150.000
24.80065 145.000
24.82059 156.000
24.84054 145.000
24.86049 147.000
24.88043 155.000
24.90038 131.000
24.92033 118.000
24.94027 137.000
24.96022 140.000
24.98017 142.000
25.00012 157.000
25.02006 154.000
25.04001 154.000
25.05996 161.000
25.07990 153.000
25.09985 148.000
25.11980 149.000
25.13974 138.000
25.15969 138.000
25.17964 141.000
25.19958 129.000
25.21953 141.000
25.23948 151.000
25.25943 146.000
25.27937 127.000
25.29932 146.000
25.31927 139.000
25.33921 140.000
25.35916 152.000
25.37911 118.000
25.39905 147.000
25.41900 136.000
25.43895 133.000
25.45890 132.000
25.47884 139.000
25.49879 137.000
25.51874 160.000
25.53868 148.000
25.55863 156.000
25.57858 152.000
25.59852 132.000
25.61847 142.000
25.63842 135.000
25.65837 151.000
25.67831 135.000
25.69826 145.000
25.71821 148.000
25.73815 150.000
25.75810 150.000
25.77805 145.000
25.79799 138.000
25.81794 154.000
25.83789 159.000
25.85783 121.000
25.87778 149.000
25.89773 165.000
25.91768 134.000
25.93762 121.000
25.95757 128.000
25.97752 139.000
25.99746 132.000
26.01741 145.000
26.03736 134.000
26.05730 160.000
26.07725 133.000
26.09720 146.000
26.11715 131.000
26.13709 160.000
26.15704 141.000
26.17699 137.000
26.19693 147.000
26.21688 147.000
26.23683 141.000
26.25677 126.000
26.27672 145.000
26.29667 129.000
26.31661 158.000
26.33656 123.000
26.35651 147.000
26.37646 145.000
26.39640 151.000
26.41635 145.000
26.43630 136.000
26.45624 154.000
26.47619 145.000
26.49614 162.000
26.51608 136.000
26.53603 133.000
26.55598 144.000
26.57593 162.000
26.59587 158.000
26.61582 133.000
26.63577 148.000
26.65571 156.000
26.67566 166.000
26.69561 131.000
26.71555 152.000
26.73550 144.000
26.75545 133.000
26.77539 160.000
26.79534 140.000
26.81529 140.000
26.83524 127.000
26.85518 153.000
26.87513 133.000
26.89508 142.000
26.91502 145.000
26.93497 119.000
26.95492 161.000
26.97486 149.000
26.99481 148.000
27.01476 169.000
27.03471 142.000
27.05465 146.000
27.07460 126.000
27.09455 157.000
27.11449 154.000
27.13444 140.000
27.15439 162.000
27.17433 159.000
27.19428 160.000
27.21423 161.000
27.23417 153.000
27.25412 159.000
27.27407 161.000
27.29402 160.000
27.31396 166.000
27.33391 155.000
27.35386 148.000
27.37380 152.000
27.39375 143.000
27.41370 130.000
27.43364 136.000
27.45359 150.000
27.47354 145.000
27.49349 161.000
27.51343 131.000
27.53338 148.000
27.55333 148.000
27.57327 157.000
27.59322 135.000
27.61317 159.000
27.63311 156.000
27.65306 160.000
27.67301 120.000
27.69296 155.000
27.71290 168.000
27.73285 139.000
27.75280 140.000
27.77274 154.000
27.79269 144.000
27.81264 152.000
27.83258 129.000
27.85253 140.000
27.87248 146.000
27.89242 157.000
27.91237 152.000
27.93232 126.000
27.95227 175.000
27.97221 141.000
27.99216 151.000
28.01211 153.000
28.03205 158.000
28.05200 160.000
28.07195 140.000
28.09189 153.000
28.11184 153.000
28.13179 172.000
28.15174 160.000
28.17168 169.000
28.19163 177.000
28.21158 174.000
28.23152 147.000
28.25147 155.000
28.27142 182.000
28.29136 175.000
28.31131 173.000
28.33126 166.000
28.35120 173.000
28.37115 186.000
28.39110 183.000
28.41105 165.000
28.43099 188.000
28.45094 174.000
28.47089 195.000
28.49083 176.000
28.51078 167.000
28.53073 171.000
28.55067 157.000
28.57062 170.000
28.59057 141.000
28.61052 135.000
28.63046 150.000
28.65041 166.000
28.67036 141.000
28.69030 181.000
28.71025 159.000
28.73020 164.000
28.75014 149.000
28.77009 155.000
28.79004 157.000
28.80998 131.000
28.82993 160.000
28.84988 160.000
28.86983 167.000
28.88977 164.000
28.90972 166.000
28.92967 163.000
28.94961 163.000
28.96956 173.000
28.98951 150.000
29.00945 167.000
29.02940 147.000
29.04935 148.000
29.06930 172.000
29.08924 127.000
29.10919 137.000
29.12914 156.000
29.14908 136.000
29.16903 144.000
29.18898 164.000
29.20892 165.000
29.22887 142.000
29.24882 160.000
29.26877 145.000
29.28871 157.000
29.30866 183.000
29.32861 179.000
29.34855 177.000
29.36850 203.000
29.38845 197.000
29.40839 200.000
29.42834 207.000
29.44829 176.000
29.46823 154.000
29.48818 197.000
29.50813 182.000
29.52808 165.000
29.54802 151.000
29.56797 161.000
29.58792 171.000
29.60786 148.000
29.62781 156.000
29.64776 142.000
29.66770 136.000
29.68765 137.000
29.70760 120.000
29.72755 131.000
29.74749 173.000
29.76744 143.000
29.78739 150.000
29.80733 157.000
29.82728 150.000
29.84723 158.000
29.86717 135.000
29.88712 158.000
29.90707 159.000
29.92701 167.000
29.94696 147.000
29.96691 166.000
29.98686 145.000
30.00680 175.000
30.02675 164.000
30.04670 160.000
30.06664 155.000
30.08659 166.000
30.10654 154.000
30.12648 154.000
30.14643 169.000
30.16638 142.000
30.18633 150.000
30.20627 174.000
30.22622 175.000
30.24617 214.000
30.26611 176.000
30.28606 219.000
30.30601 225.000
30.32595 237.000
30.34590 219.000
30.36585 237.000
30.38579 256.000
30.40574 213.000
30.42569 207.000
30.44564 182.000
30.46558 188.000
30.48553 169.000
30.50548 184.000
30.52542 170.000
30.54537 160.000
30.56532 173.000
30.58526 163.000
30.60521 160.000
30.62516 161.000
30.64511 134.000
30.66505 155.000
30.68500 165.000
30.70495 161.000
30.72489 163.000
30.74484 170.000
30.76479 187.000
30.78473 165.000
30.80468 140.000
30.82463 170.000
30.84458 160.000
30.86452 161.000
30.88447 172.000
30.90442 153.000
30.92436 167.000
30.94431 168.000
30.96426 159.000
30.98420 156.000
31.00415 167.000
31.02410 142.000
31.04404 145.000
31.06399 180.000
31.08394 140.000
31.10389 166.000
31.12383 142.000
31.14378 162.000
31.16373 174.000
31.18367 181.000
31.20362 162.000
31.22357 154.000
31.24351 144.000
31.26346 187.000
31.28341 154.000
31.30336 165.000
31.32330 182.000
31.34325 155.000
31.36320 174.000
31.38314 177.000
31.40309 172.000
31.42304 158.000
31.44298 152.000
31.46293 177.000
31.48288 165.000
31.50282 152.000
31.52277 163.000
31.54272 168.000
31.56267 150.000
31.58261 149.000
31.60256 177.000
31.62251 177.000
31.64245 162.000
31.66240 171.000
31.68235 166.000
31.70229 177.000
31.72224 191.000
31.74219 181.000
31.76214 176.000
31.78208 162.000
31.80203 172.000
31.82198 170.000
31.84192 185.000
31.86187 187.000
31.88182 191.000
31.90176 212.000
31.92171 210.000
31.94166 200.000
31.96160 222.000
31.98155 295.000
32.00150 373.000
32.02145 505.000
32.04139 616.000
32.06134 892.000
32.08129 942.000
32.10123 1004.000
32.12118 965.000
32.14113 901.000
32.16107 839.000
32.18102 754.000
32.20097 614.000
32.22092 510.000
32.24086 439.000
32.26081 320.000
32.28076 277.000
32.30070 239.000
32.32065 186.000
32.34060 173.000
32.36054 174.000
32.38049 176.000
32.40044 172.000
32.42039 154.000
32.44033 180.000
32.46028 175.000
32.48023 174.000
32.50017 153.000
32.52012 151.000
32.54007 194.000
32.56001 167.000
32.57996 160.000
32.59991 171.000
32.61985 179.000
32.63980 165.000
32.65975 157.000
32.67970 145.000
32.69964 174.000
32.71959 187.000
32.73954 185.000
32.75948 156.000
32.77943 183.000
32.79938 157.000
32.81932 166.000
32.83927 174.000
32.85922 150.000
32.87917 148.000
32.89911 193.000
32.91906 162.000
32.93901 154.000
32.95895 133.000
32.97890 152.000
32.99885 159.000
33.01879 144.000
33.03874 162.000
33.05869 149.000
33.07863 158.000
33.09858 137.000
33.11853 166.000
33.13848 164.000
33.15842 161.000
33.17837 162.000
33.19832 168.000
33.21826 155.000
33.23821 152.000
33.25816 168.000
33.27810 167.000
33.29805 134.000
33.31800 150.000
33.33795 162.000
33.35789 148.000
33.37784 159.000
33.39779 154.000
33.41773 144.000
33.43768 163.000
33.45763 140.000
33.47757 152.000
33.49752 152.000
33.51747 150.000
33.53741 157.000
33.55736 169.000
33.57731 141.000
33.59726 156.000
33.61720 143.000
33.63715 160.000
33.65710 145.000
33.67704 129.000
33.69699 147.000
33.71694 169.000
33.73688 146.000
33.75683 155.000
33.77678 145.000
33.79673 150.000
33.81667 145.000
33.83662 145.000
33.85657 137.000
33.87651 159.000
33.89646 140.000
33.91641 144.000
33.93635 156.000
33.95630 172.000
33.97625 139.000
33.99620 159.000
34.01614 158.000
34.03609 177.000
34.05604 151.000
34.07598 152.000
34.09593 165.000
34.11588 149.000
34.13582 166.000
34.15577 146.000
34.17572 159.000
34.19566 168.000
34.21561 138.000
34.23556 176.000
34.25551 156.000
34.27545 148.000
34.29540 164.000
34.31535 179.000
34.33529 170.000
34.35524 159.000
34.37519 164.000
34.39513 172.000
34.41508 175.000
34.43503 177.000
34.45498 167.000
34.47492 176.000
34.49487 177.000
34.51482 200.000
34.53476 194.000
34.55471 180.000
34.57466 188.000
34.59460 158.000
34.61455 184.000
34.63450 230.000
34.65444 246.000
34.67439 230.000
34.69434 277.000
34.71429 246.000
34.73423 244.000
34.75418 265.000
34.77413 219.000
34.79407 223.000
34.81402 218.000
34.83397 228.000
34.85391 200.000
34.87386 223.000
34.89381 191.000
34.91376 201.000
34.93370 203.000
34.95365 196.000
34.97360 204.000
34.99354 169.000
35.01349 181.000
35.03344 168.000
35.05338 171.000
35.07333 171.000
35.09328 164.000
35.11322 163.000
35.13317 160.000
35.15312 156.000
35.17307 166.000
35.19301 183.000
35.21296 177.000
35.23291 183.000
35.25285 192.000
35.27280 192.000
35.29275 172.000
35.31269 190.000
35.33264 209.000
35.35259 205.000
35.37254 218.000
35.39248 204.000
35.41243 248.000
35.43238 223.000
35.45232 275.000
35.47227 282.000
35.49222 283.000
35.51216 320.000
35.53211 322.000
35.55206 389.000
35.57201 371.000
35.59195 415.000
35.61190 468.000
35.63185 537.000
35.65179 607.000
35.67174 700.000
35.69169 863.000
35.71163 903.000
35.73158 1072.000
35.75153 1104.000
35.77147 1137.000
35.79142 1211.000
35.81137 1156.000
35.83132 1089.000
35.85126 1012.000
35.87121 898.000
35.89116 804.000
35.91110 656.000
35.93105 574.000
35.95100 473.000
35.97094 410.000
35.99089 347.000
36.01084 318.000
36.03079 268.000
36.05073 261.000
36.07068 224.000
36.09063 217.000
36.11057 203.000
36.13052 212.000
36.15047 197.000
36.17041 202.000
36.19036 210.000
36.21031 229.000
36.23025 192.000
36.25020 187.000
36.27015 176.000
36.29010 194.000
36.31004 192.000
36.32999 197.000
36.34994 173.000
36.36988 186.000
36.38983 197.000
36.40978 213.000
36.42972 172.000
36.44967 203.000
36.46962 188.000
36.48957 236.000
36.50951 199.000
36.52946 192.000
36.54941 182.000
36.56935 194.000
36.58930 194.000
36.60925 232.000
36.62919 263.000
36.64914 229.000
36.66909 235.000
36.68903 262.000
36.70898 297.000
36.72893 245.000
36.74888 244.000
36.76882 235.000
36.78877 242.000
36.80872 240.000
36.82866 254.000
36.84861 247.000
36.86856 255.000
36.88850 254.000
36.90845 282.000
36.92840 311.000
36.94835 321.000
36.96829 359.000
36.98824 408.000
37.00819 526.000
37.02813 557.000
37.04808 704.000
37.06803 835.000
37.08797 1040.000
37.10792 1107.000
37.12787 1207.000
37.14781 1299.000
37.16776 1217.000
37.18771 1172.000
37.20766 1094.000
37.22760 948.000
37.24755 877.000
37.26750 683.000
37.28744 618.000
37.30739 512.000
37.32734 437.000
37.34728 368.000
37.36723 287.000
37.38718 315.000
37.40713 262.000
37.42707 253.000
37.44702 247.000
37.46697 229.000
37.48691 209.000
37.50686 204.000
37.52681 196.000
37.54675 208.000
37.56670 195.000
37.58665 195.000
37.60660 176.000
37.62654 196.000
37.64649 180.000
37.66644 184.000
37.68638 152.000
37.70633 157.000
37.72628 200.000
37.74622 161.000
37.76617 165.000
37.78612 173.000
37.80606 159.000
37.82601 173.000
37.84596 202.000
37.86591 182.000
37.88585 167.000
37.90580 183.000
37.92575 144.000
37.94569 185.000
37.96564 168.000
37.98559 188.000
38.00553 188.000
38.02548 169.000
38.04543 176.000
38.06538 178.000
38.08532 164.000
38.10527 202.000
38.12522 184.000
38.14516 156.000
38.16511 162.000
38.18506 154.000
38.20500 173.000
38.22495 178.000
38.24490 168.000
38.26484 197.000
38.28479 194.000
38.30474 176.000
38.32469 151.000
38.34463 174.000
38.36458 186.000
38.38453 194.000
38.40447 203.000
38.42442 176.000
38.44437 172.000
38.46431 182.000
38.48426 181.000
38.50421 208.000
38.52416 211.000
38.54410 202.000
38.56405 236.000
38.58400 218.000
38.60394 213.000
38.62389 203.000
38.64384 243.000
38.66378 222.000
38.68373 234.000
38.70368 252.000
38.72362 249.000
38.74357 267.000
38.76352 279.000
38.78347 280.000
38.80341 266.000
38.82336 293.000
38.84331 223.000
38.86325 276.000
38.88320 258.000
38.90315 288.000
38.92309 284.000
38.94304 276.000
38.96299 227.000
38.98294 270.000
39.00288 263.000
39.02283 267.000
39.04278 269.000
39.06272 230.000
39.08267 274.000
39.10262 275.000
39.12256 311.000
39.14251 331.000
39.16246 332.000
39.18241 373.000
39.20235 487.000
39.22230 545.000
39.24225 685.000
39.26219 885.000
39.28214 1101.000
39.30209 1407.000
39.32203 1636.000
39.34198 1715.000
39.36193 1841.000
39.38187 1823.000
39.40182 1904.000
39.42177 1727.000
39.44172 1528.000
39.46166 1474.000
39.48161 1290.000
39.50156 1119.000
39.52150 949.000
39.54145 717.000
39.56140 596.000
39.58134 544.000
39.60129 388.000
39.62124 379.000
39.64119 327.000
39.66113 267.000
39.68108 236.000
39.70103 238.000
39.72097 218.000
39.74092 223.000
39.76087 211.000
39.78081 219.000
39.80076 180.000
39.82071 197.000
39.84065 186.000
39.86060 214.000
39.88055 194.000
39.90050 191.000
39.92044 173.000
39.94039 200.000
39.96034 182.000
39.98028 199.000
40.00023 156.000
40.02018 154.000
40.04012 168.000
40.06007 165.000
40.08002 169.000
40.09997 154.000
40.11991 173.000
40.13986 162.000
40.15981 197.000
40.17975 165.000
40.19970 157.000
40.21965 184.000
40.23959 156.000
40.25954 159.000
40.27949 168.000
40.29943 192.000
40.31938 166.000
40.33933 181.000
40.35928 162.000
40.37922 170.000
40.39917 167.000
40.41912 159.000
40.43906 144.000
40.45901 156.000
40.47896 156.000
40.49890 173.000
40.51885 165.000
40.53880 157.000
40.55875 163.000
40.57869 166.000
40.59864 162.000
40.61859 170.000
40.63853 178.000
40.65848 159.000
40.67843 149.000
40.69837 163.000
40.71832 144.000
40.73827 187.000
40.75822 170.000
40.77816 151.000
40.79811 146.000
40.81806 150.000
40.83800 170.000
40.85795 150.000
40.87790 156.000
40.89784 145.000
40.91779 168.000
40.93774 157.000
40.95768 180.000
40.97763 165.000
40.99758 153.000
41.01753 176.000
41.03747 147.000
41.05742 176.000
41.07737 158.000
41.09731 163.000
41.11726 164.000
41.13721 168.000
41.15715 156.000
41.17710 154.000
41.19705 166.000
41.21700 168.000
41.23694 148.000
41.25689 152.000
41.27684 166.000
41.29678 172.000
41.31673 161.000
41.33668 175.000
41.35662 156.000
41.37657 158.000
41.39652 155.000
41.41646 156.000
41.43641 168.000
41.45636 176.000
41.47631 186.000
41.49625 182.000
41.51620 196.000
41.53615 171.000
41.55609 178.000
41.57604 179.000
41.59599 183.000
41.61593 168.000
41.63588 163.000
41.65583 185.000
41.67578 169.000
41.69572 175.000
41.71567 159.000
41.73562 164.000
41.75556 185.000
41.77551 180.000
41.79546 155.000
41.81540 169.000
41.83535 183.000
41.85530 189.000
41.87524 170.000
41.89519 169.000
41.91514 177.000
41.93509 162.000
41.95503 182.000
41.97498 190.000
41.99493 198.000
42.01487 177.000
42.03482 161.000
42.05477 186.000
42.07471 184.000
42.09466 199.000
42.11461 148.000
42.13456 183.000
42.15450 161.000
42.17445 173.000
42.19440 175.000
42.21434 173.000
42.23429 187.000
42.25424 162.000
42.27418 179.000
42.29413 176.000
42.31408 167.000
42.33403 180.000
42.35397 180.000
42.37392 157.000
42.39387 178.000
42.41381 185.000
42.43376 194.000
42.45371 189.000
42.47365 190.000
42.49360 181.000
42.51355 189.000
42.53349 202.000
42.55344 197.000
42.57339 196.000
42.59334 209.000
42.61328 218.000
42.63323 179.000
42.65318 193.000
42.67312 205.000
42.69307 239.000
42.71302 222.000
42.73296 214.000
42.75291 256.000
42.77286 244.000
42.79281 279.000
42.81275 258.000
42.83270 303.000
42.85265 317.000
42.87259 339.000
42.89254 380.000
42.91249 463.000
42.93243 456.000
42.95238 529.000
42.97233 599.000
42.99227 626.000
43.01222 717.000
43.03217 819.000
43.05212 892.000
43.07206 998.000
43.09201 1093.000
43.11196 1217.000
43.13190 1297.000
43.15185 1350.000
43.17180 1382.000
43.19174 1344.000
43.21169 1293.000
43.23164 1289.000
43.25159 1224.000
43.27153 1136.000
43.29148 1037.000
43.31143 992.000
43.33137 902.000
43.35132 855.000
43.37127 800.000
43.39121 810.000
43.41116 824.000
43.43111 942.000
43.45105 983.000
43.47100 968.000
43.49095 1049.000
43.51090 949.000
43.53084 956.000
43.55079 909.000
43.57074 817.000
43.59068 744.000
43.61063 655.000
43.63058 599.000
43.65052 528.000
43.67047 453.000
43.69042 414.000
43.71037 370.000
43.73031 312.000
43.75026 242.000
43.77021 263.000
43.79015 256.000
43.81010 242.000
43.83005 188.000
43.84999 225.000
43.86994 200.000
43.88989 160.000
43.90984 198.000
43.92978 180.000
43.94973 191.000
43.96968 160.000
43.98962 187.000
44.00957 176.000
44.02952 169.000
44.04946 189.000
44.06941 172.000
44.08936 168.000
44.10930 180.000
44.12925 185.000
44.14920 168.000
44.16915 167.000
44.18909 151.000
44.20904 172.000
44.22899 171.000
44.24893 169.000
44.26888 146.000
44.28883 187.000
44.30877 162.000
44.32872 159.000
44.34867 178.000
44.36862 144.000
44.38856 167.000
44.40851 142.000
44.42846 154.000
44.44840 169.000
44.46835 165.000
44.48830 185.000
44.50824 181.000
44.52819 182.000
44.54814 171.000
44.56808 153.000
44.58803 171.000
44.60798 171.000
44.62793 154.000
44.64787 123.000
44.66782 156.000
44.68777 153.000
44.70771 160.000
44.72766 159.000
44.74761 155.000
44.76755 171.000
44.78750 167.000
44.80745 154.000
44.82740 183.000
44.84734 172.000
44.86729 174.000
44.88724 153.000
44.90718 175.000
44.92713 192.000
44.94708 187.000
44.96702 172.000
44.98697 162.000
45.00692 163.000
45.02686 173.000
45.04681 178.000
45.06676 166.000
45.08671 174.000
45.10665 156.000
45.12660 177.000
45.14655 178.000
45.16649 156.000
45.18644 170.000
45.20639 141.000
45.22633 171.000
45.24628 203.000
45.26623 169.000
45.28618 174.000
45.30612 170.000
45.32607 158.000
45.34602 170.000
45.36596 190.000
45.38591 170.000
45.40586 164.000
45.42580 185.000
45.44575 178.000
45.46570 161.000
45.48565 176.000
45.50559 146.000
45.52554 155.000
45.54549 162.000
45.56543 166.000
45.58538 147.000
45.60533 152.000
45.62527 157.000
45.64522 165.000
45.66517 165.000
45.68511 176.000
45.70506 169.000
45.72501 161.000
45.74496 156.000
45.76490 172.000
45.78485 162.000
45.80480 174.000
45.82474 139.000
45.84469 172.000
45.86464 169.000
45.88458 132.000
45.90453 181.000
45.92448 159.000
45.94443 184.000
45.96437 137.000
45.98432 161.000
46.00427 145.000
46.02421 165.000
46.04416 152.000
46.06411 156.000
46.08405 155.000
46.10400 159.000
46.12395 127.000
46.14389 148.000
46.16384 184.000
46.18379 163.000
46.20374 162.000
46.22368 157.000
46.24363 160.000
46.26358 153.000
46.28352 149.000
46.30347 162.000
46.32342 156.000
46.34336 144.000
46.36331 133.000
46.38326 158.000
46.40321 144.000
46.42315 168.000
46.44310 174.000
46.46305 155.000
46.48299 120.000
46.50294 181.000
46.52289 156.000
46.54283 153.000
46.56278 135.000
46.58273 137.000
46.60267 146.000
46.62262 139.000
46.64257 134.000
46.66252 137.000
46.68246 175.000
46.70241 159.000
46.72236 138.000
46.74230 139.000
46.76225 149.000
46.78220 171.000
46.80214 169.000
46.82209 150.000
46.84204 167.000
46.86199 169.000
46.88193 142.000
46.90188 144.000
46.92183 142.000
46.94177 152.000
46.96172 169.000
46.98167 169.000
47.00161 163.000
47.02156 176.000
47.04151 141.000
47.06146 157.000
47.08140 156.000
47.10135 140.000
47.12130 144.000
47.14124 152.000
47.16119 157.000
47.18114 160.000
47.20108 155.000
47.22103 140.000
47.24098 148.000
47.26092 164.000
47.28087 164.000
47.30082 168.000
47.32077 173.000
47.34071 167.000
47.36066 157.000
47.38061 175.000
47.40055 154.000
47.42050 151.000
47.44045 161.000
47.46039 161.000
47.48034 150.000
47.50029 167.000
47.52024 150.000
47.54018 159.000
47.56013 155.000
47.58008 164.000
47.60002 160.000
47.61997 151.000
47.63992 175.000
47.65986 143.000
47.67981 149.000
47.69976 164.000
47.71970 164.000
47.73965 159.000
47.75960 162.000
47.77955 147.000
47.79949 134.000
47.81944 168.000
47.83939 168.000
47.85933 165.000
47.87928 170.000
47.89923 152.000
47.91917 168.000
47.93912 170.000
47.95907 175.000
47.97902 162.000
47.99896 160.000
48.01891 198.000
48.03886 159.000
48.05880 192.000
48.07875 168.000
48.09870 167.000
48.11864 175.000
48.13859 179.000
48.15854 181.000
48.17848 185.000
48.19843 164.000
48.21838 196.000
48.23833 188.000
48.25827 163.000
48.27822 182.000
48.29817 169.000
48.31811 179.000
48.33806 187.000
48.35801 202.000
48.37795 168.000
48.39790 204.000
48.41785 204.000
48.43780 211.000
48.45774 250.000
48.47769 224.000
48.49764 252.000
48.51758 255.000
48.53753 264.000
48.55748 269.000
48.57742 318.000
48.59737 314.000
48.61732 368.000
48.63726 356.000
48.65721 504.000
48.67716 608.000
48.69711 756.000
48.71705 971.000
48.73700 1106.000
48.75695 1432.000
48.77689 1557.000
48.79684 1649.000
48.81679 1621.000
48.83673 1574.000
48.85668 1471.000
48.87663 1421.000
48.89658 1362.000
48.91652 1221.000
48.93647 1117.000
48.95642 976.000
48.97636 903.000
48.99631 741.000
49.01626 631.000
49.03620 489.000
49.05615 404.000
49.07610 359.000
49.09605 330.000
49.11599 292.000
49.13594 287.000
49.15589 215.000
49.17583 236.000
49.19578 249.000
49.21573 194.000
49.23567 201.000
49.25562 213.000
49.27557 188.000
49.29551 207.000
49.31546 183.000
49.33541 197.000
49.35536 176.000
49.37530 186.000
49.39525 199.000
49.41520 180.000
49.43514 178.000
49.45509 192.000
49.47504 179.000
49.49498 182.000
49.51493 186.000
49.53488 182.000
49.55483 170.000
49.57477 145.000
49.59472 170.000
49.61467 135.000
49.63461 181.000
49.65456 173.000
49.67451 165.000
49.69445 170.000
49.71440 169.000
49.73435 142.000
49.75429 151.000
49.77424 138.000
49.79419 157.000
49.81414 171.000
49.83408 152.000
49.85403 166.000
49.87398 170.000
49.89392 146.000
49.91387 174.000
49.93382 157.000
49.95376 155.000
49.97371 150.000
49.99366 151.000
50.01361 129.000
50.03355 185.000
50.05350 147.000
50.07345 169.000
50.09339 161.000
50.11334 145.000
50.13329 170.000
50.15323 148.000
50.17318 145.000
50.19313 168.000
50.21307 128.000
50.23302 136.000
50.25297 145.000
50.27292 148.000
50.29286 166.000
50.31281 160.000
50.33276 168.000
50.35270 144.000
50.37265 127.000
50.39260 176.000
50.41254 149.000
50.43249 147.000
50.45244 145.000
50.47239 163.000
50.49233 160.000
50.51228 155.000
50.53223 149.000
50.55217 166.000
50.57212 146.000
50.59207 165.000
50.61201 153.000
50.63196 131.000
50.65191 147.000
50.67186 143.000
50.69180 152.000
50.71175 154.000
50.73170 146.000
50.75164 139.000
50.77159 182.000
50.79154 148.000
50.81148 161.000
50.83143 141.000
50.85138 150.000
50.87132 133.000
50.89127 124.000
50.91122 155.000
50.93117 145.000
50.95111 164.000
50.97106 149.000
50.99101 158.000
51.01095 158.000
51.03090 148.000
51.05085 143.000
51.07079 149.000
51.09074 163.000
51.11069 152.000
51.13064 128.000
51.15058 140.000
51.17053 146.000
51.19048 143.000
51.21042 137.000
51.23037 148.000
51.25032 178.000
51.27026 160.000
51.29021 158.000
51.31016 141.000
51.33010 147.000
51.35005 148.000
51.37000 167.000
51.38995 168.000
51.40989 143.000
51.42984 146.000
51.44979 137.000
51.46973 148.000
51.48968 177.000
51.50963 148.000
51.52957 166.000
51.54952 141.000
51.56947 133.000
51.58942 158.000
51.60936 150.000
51.62931 156.000
51.64926 124.000
51.66920 134.000
51.68915 139.000
51.70910 171.000
51.72904 173.000
51.74899 143.000
51.76894 156.000
51.78888 140.000
51.80883 143.000
51.82878 151.000
51.84873 169.000
51.86867 166.000
51.88862 143.000
51.90857 171.000
51.92851 140.000
51.94846 148.000
51.96841 189.000
51.98835 149.000
52.00830 186.000
52.02825 169.000
52.04820 181.000
52.06814 141.000
52.08809 170.000
52.10804 182.000
52.12798 160.000
52.14793 147.000
52.16788 144.000
52.18782 167.000
52.20777 157.000
52.22772 163.000
52.24767 159.000
52.26761 172.000
52.28756 168.000
52.30751 153.000
52.32745 143.000
52.34740 151.000
52.36735 137.000
52.38729 156.000
52.40724 166.000
52.42719 141.000
52.44713 147.000
52.46708 147.000
52.48703 162.000
52.50698 160.000
52.52692 150.000
52.54687 148.000
52.56682 156.000
52.58676 140.000
52.60671 139.000
52.62666 147.000
52.64660 136.000
52.66655 142.000
52.68650 174.000
52.70645 159.000
52.72639 149.000
52.74634 158.000
52.76629 168.000
52.78623 150.000
52.80618 159.000
52.82613 136.000
52.84607 163.000
52.86602 134.000
52.88597 160.000
52.90591 164.000
52.92586 173.000
52.94581 147.000
52.96576 176.000
52.98570 145.000
53.00565 139.000
53.02560 128.000
53.04554 157.000
53.06549 163.000
53.08544 142.000
53.10538 129.000
53.12533 159.000
53.14528 150.000
53.16523 143.000
53.18517 155.000
53.20512 159.000
53.22507 155.000
53.24501 144.000
53.26496 158.000
53.28491 149.000
53.30485 154.000
53.32480 147.000
53.34475 159.000
53.36469 154.000
53.38464 159.000
53.40459 180.000
53.42454 156.000
53.44448 167.000
53.46443 173.000
53.48438 136.000
53.50432 155.000
53.52427 148.000
53.54422 158.000
53.56416 154.000
53.58411 162.000
53.60406 157.000
53.62401 150.000
53.64395 145.000
53.66390 159.000
53.68385 159.000
53.70379 162.000
53.72374 159.000
53.74369 151.000
53.76363 140.000
53.78358 172.000
53.80353 175.000
53.82348 185.000
53.84342 176.000
53.86337 169.000
53.88332 163.000
53.90326 171.000
53.92321 156.000
53.94316 154.000
53.96310 199.000
53.98305 159.000
54.00300 180.000
54.02294 156.000
54.04289 160.000
54.06284 160.000
54.08279 158.000
54.10273 152.000
54.12268 169.000
54.14263 165.000
54.16257 158.000
54.18252 164.000
54.20247 160.000
54.22241 144.000
54.24236 162.000
54.26231 148.000
54.28226 145.000
54.30220 137.000
54.32215 165.000
54.34210 142.000
54.36204 163.000
54.38199 150.000
54.40194 148.000
54.42188 149.000
54.44183 137.000
54.46178 131.000
54.48172 149.000
54.50167 141.000
54.52162 155.000
54.54157 141.000
54.56151 144.000
54.58146 145.000
54.60141 144.000
54.62135 145.000
54.64130 147.000
54.66125 145.000
54.68119 155.000
54.70114 138.000
54.72109 137.000
54.74104 157.000
54.76098 144.000
54.78093 179.000
54.80088 157.000
54.82082 127.000
54.84077 164.000
54.86072 138.000
54.88066 167.000
54.90061 160.000
54.92056 166.000
54.94050 139.000
54.96045 138.000
54.98040 157.000
55.00035 155.000
55.02029 122.000
55.04024 161.000
55.06019 155.000
55.08013 149.000
55.10008 161.000
55.12003 148.000
55.13997 170.000
55.15992 139.000
55.17987 138.000
55.19982 154.000
55.21976 147.000
55.23971 155.000
55.25966 131.000
55.27960 147.000
55.29955 160.000
55.31950 133.000
55.33944 155.000
55.35939 154.000
55.37934 158.000
55.39929 134.000
55.41923 130.000
55.43918 151.000
55.45913 153.000
55.47907 161.000
55.49902 153.000
55.51897 142.000
55.53891 145.000
55.55886 164.000
55.57881 147.000
55.59875 136.000
55.61870 154.000
55.63865 161.000
55.65860 161.000
55.67854 166.000
55.69849 167.000
55.71844 149.000
55.73838 145.000
55.75833 157.000
55.77828 136.000
55.79822 155.000
55.81817 152.000
55.83812 134.000
55.85807 148.000
55.87801 138.000
55.89796 140.000
55.91791 155.000
55.93785 128.000
55.95780 147.000
55.97775 137.000
55.99769 152.000
56.01764 137.000
56.03759 145.000
56.05753 131.000
56.07748 160.000
56.09743 181.000
56.11738 168.000
56.13732 155.000
56.15727 152.000
56.17722 144.000
56.19716 145.000
56.21711 147.000
56.23706 153.000
56.25700 131.000
56.27695 151.000
56.29690 145.000
56.31685 145.000
56.33679 158.000
56.35674 182.000
56.37669 162.000
56.39663 136.000
56.41658 142.000
56.43653 145.000
56.45647 146.000
56.47642 174.000
56.49637 164.000
56.51631 153.000
56.53626 169.000
56.55621 187.000
56.57616 148.000
56.59610 160.000
56.61605 161.000
56.63600 151.000
56.65594 121.000
56.67589 157.000
56.69584 171.000
56.71578 151.000
56.73573 175.000
56.75568 164.000
56.77563 180.000
56.79557 166.000
56.81552 169.000
56.83547 163.000
56.85541 168.000
56.87536 131.000
56.89531 161.000
56.91525 138.000
56.93520 155.000
56.95515 152.000
56.97510 181.000
56.99504 158.000
57.01499 158.000
57.03494 166.000
57.05488 159.000
57.07483 162.000
57.09478 167.000
57.11472 141.000
57.13467 163.000
57.15462 165.000
57.17456 172.000
57.19451 158.000
57.21446 179.000
57.23441 166.000
57.25435 188.000
57.27430 171.000
57.29425 178.000
57.31419 186.000
57.33414 187.000
57.35409 189.000
57.37403 178.000
57.39398 198.000
57.41393 216.000
57.43388 197.000
57.45382 196.000
57.47377 216.000
57.49372 213.000
57.51366 202.000
57.53361 192.000
57.55356 191.000
57.57350 207.000
57.59345 178.000
57.61340 182.000
57.63334 174.000
57.65329 178.000
57.67324 197.000
57.69319 166.000
57.71313 190.000
57.73308 177.000
57.75303 169.000
57.77297 165.000
57.79292 170.000
57.81287 164.000
57.83281 185.000
57.85276 159.000
57.87271 142.000
57.89266 190.000
57.91260 176.000
57.93255 152.000
57.95250 170.000
57.97244 154.000
57.99239 145.000
58.01234 147.000
58.03228 163.000
58.05223 153.000
58.07218 166.000
58.09212 164.000
58.11207 139.000
58.13202 135.000
58.15197 151.000
58.17191 150.000
58.19186 173.000
58.21181 168.000
58.23175 151.000
58.25170 186.000
58.27165 178.000
58.29159 156.000
58.31154 178.000
58.33149 170.000
58.35144 180.000
58.37138 152.000
58.39133 170.000
58.41128 153.000
58.43122 169.000
58.45117 167.000
58.47112 149.000
58.49106 146.000
58.51101 141.000
58.53096 142.000
58.55090 172.000
58.57085 169.000
58.59080 161.000
58.61075 193.000
58.63069 155.000
58.65064 167.000
58.67059 181.000
58.69053 172.000
58.71048 163.000
58.73043 158.000
58.75037 166.000
58.77032 142.000
58.79027 171.000
58.81022 144.000
58.83016 178.000
58.85011 147.000
58.87006 168.000
58.89000 133.000
58.90995 156.000
58.92990 140.000
58.94984 159.000
58.96979 156.000
58.98974 156.000
59.00969 150.000
59.02963 156.000
59.04958 186.000
59.06953 141.000
59.08947 148.000
59.10942 151.000
59.12937 137.000
59.14931 118.000
59.16926 158.000
59.18921 165.000
59.20915 139.000
59.22910 164.000
59.24905 160.000
59.26900 170.000
59.28894 170.000
59.30889 163.000
59.32884 181.000
59.34878 170.000
59.36873 165.000
59.38868 169.000
59.40862 128.000
59.42857 139.000
59.44852 160.000
59.46847 143.000
59.48841 143.000
59.50836 173.000
59.52831 147.000
59.54825 177.000
59.56820 183.000
59.58815 156.000
59.60809 157.000
59.62804 129.000
59.64799 158.000
59.66793 155.000
59.68788 157.000
59.70783 159.000
59.72778 155.000
59.74772 148.000
59.76767 162.000
59.78762 137.000
59.80756 151.000
59.82751 178.000
59.84746 169.000
59.86740 144.000
59.88735 172.000
59.90730 154.000
59.92725 140.000
59.94719 171.000
59.96714 164.000
59.98709 157.000
60.00703 155.000
60.02698 135.000
60.04693 159.000
60.06687 150.000
60.08682 139.000
60.10677 142.000
60.12671 146.000
60.14666 182.000
60.16661 162.000
60.18656 169.000
60.20650 159.000
60.22645 171.000
60.24640 199.000
60.26634 177.000
60.28629 129.000
60.30624 138.000
60.32618 167.000
60.34613 150.000
60.36608 156.000
60.38603 128.000
60.40597 124.000
60.42592 164.000
60.44587 162.000
60.46581 167.000
60.48576 178.000
60.50571 187.000
60.52565 162.000
60.54560 172.000
60.56555 189.000
60.58550 166.000
60.60544 156.000
60.62539 171.000
60.64534 169.000
60.66528 166.000
60.68523 152.000
60.70518 152.000
60.72512 149.000
60.74507 183.000
60.76502 172.000
60.78496 173.000
60.80491 157.000
60.82486 154.000
60.84481 166.000
60.86475 161.000
60.88470 166.000
60.90465 150.000
60.92459 158.000
60.94454 145.000
60.96449 149.000
60.98443 179.000
61.00438 170.000
61.02433 155.000
61.04428 153.000
61.06422 162.000
61.08417 157.000
61.10412 159.000
61.12406 173.000
61.14401 170.000
61.16396 175.000
61.18390 161.000
61.20385 165.000
61.22380 168.000
61.24374 170.000
61.26369 153.000
61.28364 168.000
61.30359 174.000
61.32353 176.000
61.34348 140.000
61.36343 172.000
61.38337 165.000
61.40332 171.000
61.42327 177.000
61.44321 185.000
61.46316 172.000
61.48311 176.000
61.50306 179.000
61.52300 176.000
61.54295 205.000
61.56290 196.000
61.58284 205.000
61.60279 188.000
61.62274 201.000
61.64268 183.000
61.66263 183.000
61.68258 185.000
61.70252 233.000
61.72247 232.000
61.74242 207.000
61.76237 234.000
61.78231 235.000
61.80226 238.000
61.82221 221.000
61.84215 235.000
61.86210 253.000
61.88205 272.000
61.90199 270.000
61.92194 315.000
61.94189 322.000
61.96184 390.000
61.98178 456.000
62.00173 491.000
62.02168 567.000
62.04162 666.000
62.06157 742.000
62.08152 760.000
62.10146 821.000
62.12141 724.000
62.14136 704.000
62.16131 654.000
62.18125 640.000
62.20120 655.000
62.22115 665.000
62.24109 695.000
62.26104 619.000
62.28099 597.000
62.30093 539.000
62.32088 539.000
62.34083 561.000
62.36077 450.000
62.38072 456.000
62.40067 457.000
62.42062 467.000
62.44056 473.000
62.46051 443.000
62.48046 488.000
62.50040 522.000
62.52035 502.000
62.54030 582.000
62.56024 606.000
62.58019 589.000
62.60014 668.000
62.62009 650.000
62.64003 660.000
62.65998 688.000
62.67993 689.000
62.69987 661.000
62.71982 689.000
62.73977 658.000
62.75971 591.000
62.77966 576.000
62.79961 613.000
62.81955 498.000
62.83950 489.000
62.85945 465.000
62.87940 462.000
62.89934 464.000
62.91929 415.000
62.93924 389.000
62.95918 389.000
62.97913 337.000
62.99908 341.000
63.01902 329.000
63.03897 268.000
63.05892 270.000
63.07887 298.000
63.09881 260.000
63.11876 269.000
63.13871 271.000
63.15865 283.000
63.17860 249.000
63.19855 216.000
63.21849 243.000
63.23844 281.000
63.25839 259.000
63.27833 219.000
63.29828 229.000
63.31823 208.000
63.33818 220.000
63.35812 221.000
63.37807 189.000
63.39802 202.000
63.41796 179.000
63.43791 167.000
63.45786 208.000
63.47780 212.000
63.49775 184.000
63.51770 200.000
63.53765 190.000
63.55759 164.000
63.57754 181.000
63.59749 175.000
63.61743 183.000
63.63738 166.000
63.65733 169.000
63.67727 146.000
63.69722 177.000
63.71717 168.000
63.73712 187.000
63.75706 160.000
63.77701 182.000
63.79696 182.000
63.81690 175.000
63.83685 177.000
63.85680 206.000
63.87674 183.000
63.89669 191.000
63.91664 201.000
63.93658 216.000
63.95653 192.000
63.97648 232.000
63.99643 216.000
64.01637 243.000
64.03632 254.000
64.05627 295.000
64.07621 313.000
64.09616 356.000
64.11611 364.000
64.13605 390.000
64.15600 434.000
64.17595 420.000
64.19590 459.000
64.21584 470.000
64.23579 515.000
64.25574 489.000
64.27568 536.000
64.29563 482.000
64.31558 527.000
64.33552 443.000
64.35547 505.000
64.37542 483.000
64.39536 478.000
64.41531 408.000
64.43526 447.000
64.45521 381.000
64.47515 411.000
64.49510 353.000
64.51505 357.000
64.53499 369.000
64.55494 278.000
64.57489 290.000
64.59483 276.000
64.61478 249.000
64.63473 213.000
64.65468 211.000
64.67462 229.000
64.69457 185.000
64.71452 198.000
64.73446 197.000
64.75441 188.000
64.77436 191.000
64.79430 191.000
64.81425 164.000
64.83420 174.000
64.85414 161.000
64.87409 172.000
64.89404 169.000
64.91399 167.000
64.93393 184.000
64.95388 145.000
64.97383 183.000
64.99377 201.000
65.01372 182.000
65.03367 183.000
65.05361 180.000
65.07356 159.000
65.09351 177.000
65.11346 150.000
65.13340 168.000
65.15335 172.000
65.17330 162.000
65.19324 165.000
65.21319 142.000
65.23314 162.000
65.25308 172.000
65.27303 189.000
65.29298 174.000
65.31293 177.000
65.33287 177.000
65.35282 185.000
65.37277 174.000
65.39271 174.000
65.41266 170.000
65.43261 170.000
65.45255 182.000
65.47250 178.000
65.49245 181.000
65.51239 182.000
65.53234 174.000
65.55229 185.000
65.57224 155.000
65.59218 186.000
65.61213 169.000
65.63208 175.000
65.65202 177.000
65.67197 163.000
65.69192 167.000
65.71186 197.000
65.73181 192.000
65.75176 161.000
65.77171 162.000
65.79165 174.000
65.81160 172.000
65.83155 157.000
65.85149 174.000
65.87144 164.000
65.89139 176.000
65.91133 183.000
65.93128 175.000
65.95123 176.000
65.97117 169.000
65.99112 203.000
66.01107 167.000
66.03102 165.000
66.05096 174.000
66.07091 165.000
66.09086 167.000
66.11080 180.000
66.13075 187.000
66.15070 168.000
66.17064 206.000
66.19059 191.000
66.21054 170.000
66.23049 188.000
66.25043 193.000
66.27038 188.000
66.29033 196.000
66.31027 219.000
66.33022 205.000
66.35017 188.000
66.37011 210.000
66.39006 207.000
66.41001 228.000
66.42995 225.000
66.44990 249.000
66.46985 251.000
66.48980 297.000
66.50974 290.000
66.52969 323.000
66.54964 354.000
66.56958 355.000
66.58953 360.000
66.60948 342.000
66.62942 360.000
66.64937 345.000
66.66932 359.000
66.68927 346.000
66.70921 435.000
66.72916 341.000
66.74911 349.000
66.76905 400.000
66.78900 356.000
66.80895 378.000
66.82889 302.000
66.84884 321.000
66.86879 325.000
66.88874 338.000
66.90868 269.000
66.92863 286.000
66.94858 255.000
66.96852 258.000
66.98847 336.000
67.00842 282.000
67.02836 292.000
67.04831 310.000
67.06826 289.000
67.08820 275.000
67.10815 266.000
67.12810 258.000
67.14805 195.000
67.16799 262.000
67.18794 282.000
67.20789 240.000
67.22783 212.000
67.24778 255.000
67.26773 228.000
67.28767 231.000
67.30762 224.000
67.32757 189.000
67.34752 194.000
67.36746 178.000
67.38741 182.000
67.40736 196.000
67.42730 189.000
67.44725 182.000
67.46720 221.000
67.48714 149.000
67.50709 176.000
67.52704 149.000
67.54698 151.000
67.56693 175.000
67.58688 170.000
67.60683 163.000
67.62677 178.000
67.64672 168.000
67.66667 137.000
67.68661 162.000
67.70656 161.000
67.72651 180.000
67.74645 195.000
67.76640 168.000
67.78635 164.000
67.80630 169.000
67.82624 150.000
67.84619 175.000
67.86614 167.000
67.88608 165.000
67.90603 159.000
67.92598 153.000
67.94592 155.000
67.96587 157.000
67.98582 150.000
68.00576 173.000
68.02571 187.000
68.04566 181.000
68.06561 167.000
68.08555 165.000
68.10550 197.000
68.12545 168.000
68.14539 168.000
68.16534 181.000
68.18529 179.000
68.20523 177.000
68.22518 147.000
68.24513 151.000
68.26508 151.000
68.28502 173.000
68.30497 156.000
68.32492 157.000
68.34486 170.000
68.36481 142.000
68.38476 185.000
68.40470 142.000
68.42465 162.000
68.44460 153.000
68.46455 149.000
68.48449 128.000
68.50444 165.000
68.52439 171.000
68.54433 177.000
68.56428 145.000
68.58423 162.000
68.60417 151.000
68.62412 162.000
68.64407 145.000
68.66401 146.000
68.68396 165.000
68.70391 149.000
68.72386 161.000
68.74380 142.000
68.76375 141.000
68.78370 152.000
68.80364 154.000
68.82359 147.000
68.84354 154.000
68.86348 149.000
68.88343 193.000
68.90338 170.000
68.92333 142.000
68.94327 154.000
68.96322 175.000
68.98317 132.000
69.00311 139.000
69.02306 162.000
69.04301 150.000
69.06295 148.000
69.08290 144.000
69.10285 146.000
69.12279 159.000
69.14274 160.000
69.16269 160.000
69.18264 146.000
69.20258 146.000
69.22253 146.000
69.24248 161.000
69.26242 153.000
69.28237 137.000
69.30232 138.000
69.32226 141.000
69.34221 152.000
69.36216 138.000
69.38211 119.000
69.40205 153.000
69.42200 159.000
69.44195 146.000
69.46189 168.000
69.48184 171.000
69.50179 136.000
69.52173 164.000
69.54168 164.000
69.56163 140.000
69.58157 171.000
69.60152 154.000
69.62147 160.000
69.64142 156.000
69.66136 155.000
69.68131 165.000
69.70126 141.000
69.72120 165.000
69.74115 154.000
69.76110 152.000
69.78104 175.000
69.80099 140.000
69.82094 146.000
69.84089 167.000
69.86083 156.000
69.88078 170.000
69.90073 150.000
69.92067 156.000
69.94062 163.000
69.96057 148.000
69.98051 170.000
70.00046 157.000
70.02041 142.000
70.04035 147.000
70.06030 156.000
70.08025 179.000
70.10020 150.000
70.12014 143.000
70.14009 160.000
70.16004 173.000
70.17998 152.000
70.19993 150.000
70.21988 159.000
70.23982 163.000
70.25977 147.000
70.27972 147.000
70.29967 157.000
70.31961 142.000
70.33956 137.000
70.35951 159.000
70.37945 159.000
70.39940 134.000
70.41935 163.000
70.43929 145.000
70.45924 152.000
70.47919 156.000
70.49914 150.000
70.51908 144.000
70.53903 140.000
70.55898 163.000
70.57892 146.000
70.59887 144.000
70.61882 154.000
70.63876 147.000
70.65871 147.000
70.67866 141.000
70.69860 155.000
70.71855 167.000
70.73850 145.000
70.75845 132.000
70.77839 163.000
70.79834 131.000
70.81829 138.000
70.83823 158.000
70.85818 158.000
70.87813 143.000
70.89807 168.000
70.91802 140.000
70.93797 144.000
70.95792 163.000
70.97786 147.000
70.99781 142.000
71.01776 160.000
71.03770 152.000
71.05765 167.000
71.07760 147.000
71.09754 148.000
71.11749 152.000
71.13744 158.000
71.15738 142.000
71.17733 167.000
71.19728 129.000
71.21723 129.000
71.23717 133.000
71.25712 153.000
71.27707 131.000
71.29701 178.000
71.31696 141.000
71.33691 178.000
71.35685 159.000
71.37680 147.000
71.39675 162.000
71.41670 181.000
71.43664 166.000
71.45659 155.000
71.47654 146.000
71.49648 170.000
71.51643 167.000
71.53638 155.000
71.55632 166.000
71.57627 156.000
71.59622 142.000
71.61616 149.000
71.63611 147.000
71.65606 168.000
71.67601 162.000
71.69595 160.000
71.71590 136.000
71.73585 147.000
71.75579 151.000
71.77574 146.000
71.79569 159.000
71.81563 149.000
71.83558 137.000
71.85553 154.000
71.87548 151.000
71.89542 160.000
71.91537 177.000
71.93532 160.000
71.95526 158.000
71.97521 165.000
71.99516 170.000
72.01510 147.000
72.03505 162.000
72.05500 150.000
72.07495 177.000
72.09489 157.000
72.11484 165.000
72.13479 155.000
72.15473 156.000
72.17468 170.000
72.19463 154.000
72.21457 152.000
72.23452 138.000
72.25447 139.000
72.27441 136.000
72.29436 147.000
72.31431 176.000
72.33426 144.000
72.35420 165.000
72.37415 164.000
72.39410 182.000
72.41404 161.000
72.43399 151.000
72.45394 146.000
72.47388 193.000
72.49383 145.000
72.51378 170.000
72.53373 155.000
72.55367 138.000
72.57362 181.000
72.59357 152.000
72.61351 137.000
72.63346 161.000
72.65341 158.000
72.67335 159.000
72.69330 147.000
72.71325 163.000
72.73319 163.000
72.75314 171.000
72.77309 153.000
72.79304 158.000
72.81298 151.000
72.83293 164.000
72.85288 175.000
72.87282 144.000
72.89277 146.000
72.91272 150.000
72.93266 153.000
72.95261 157.000
72.97256 136.000
72.99251 160.000
73.01245 168.000
73.03240 172.000
73.05235 149.000
73.07229 152.000
73.09224 159.000
73.11219 170.000
73.13213 151.000
73.15208 178.000
73.17203 188.000
73.19197 172.000
73.21192 172.000
73.23187 154.000
73.25182 177.000
73.27176 171.000
73.29171 155.000
73.31166 166.000
73.33160 172.000
73.35155 199.000
73.37150 181.000
73.39144 178.000
73.41139 196.000
73.43134 184.000
73.45129 243.000
73.47123 202.000
73.49118 218.000
73.51113 257.000
73.53107 232.000
73.55102 243.000
73.57097 248.000
73.59091 266.000
73.61086 271.000
73.63081 265.000
73.65076 270.000
73.67070 291.000
73.69065 293.000
73.71060 264.000
73.73054 248.000
73.75049 259.000
73.77044 247.000
73.79038 230.000
73.81033 226.000
73.83028 229.000
73.85022 236.000
73.87017 211.000
73.89012 218.000
73.91007 213.000
73.93001 205.000
73.94996 189.000
73.96991 180.000
73.98985 176.000
74.00980 190.000
74.02975 182.000
74.04969 161.000
74.06964 169.000
74.08959 195.000
74.10954 177.000
74.12948 178.000
74.14943 155.000
74.16938 164.000
74.18932 187.000
74.20927 162.000
74.22922 135.000
74.24916 155.000
74.26911 157.000
74.28906 145.000
74.30900 173.000
74.32895 175.000
74.34890 187.000
74.36885 159.000
74.38879 156.000
74.40874 187.000
74.42869 157.000
74.44863 148.000
74.46858 186.000
74.48853 195.000
74.50847 181.000
74.52842 188.000
74.54837 189.000
74.56832 198.000
74.58826 175.000
74.60821 199.000
74.62816 189.000
74.64810 194.000
74.66805 210.000
74.68800 222.000
74.70794 216.000
74.72789 207.000
74.74784 180.000
74.76778 197.000
74.78773 204.000
74.80768 213.000
74.82763 216.000
74.84757 239.000
74.86752 250.000
74.88747 225.000
74.90741 211.000
74.92736 253.000
74.94731 215.000
74.96725 250.000
74.98720 264.000
75.00715 239.000
75.02710 269.000
75.04704 278.000
75.06699 270.000
75.08694 287.000
75.10688 292.000
75.12683 284.000
75.14678 273.000
75.16672 288.000
75.18667 317.000
75.20662 284.000
75.22657 282.000
75.24651 311.000
75.26646 305.000
75.28641 275.000
75.30635 269.000
75.32630 279.000
75.34625 251.000
75.36619 269.000
75.38614 255.000
75.40609 228.000
75.42603 235.000
75.44598 217.000
75.46593 278.000
75.48588 240.000
75.50582 210.000
75.52577 247.000
75.54572 218.000
75.56566 230.000
75.58561 222.000
75.60556 196.000
75.62550 197.000
75.64545 207.000
75.66540 227.000
75.68535 202.000
75.70529 209.000
75.72524 224.000
75.74519 228.000
75.76513 219.000
75.78508 187.000
75.80503 181.000
75.82497 207.000
75.84492 230.000
75.86487 199.000
75.88481 181.000
75.90476 186.000
75.92471 192.000
75.94466 195.000
75.96460 213.000
75.98455 179.000
76.00450 199.000
76.02444 207.000
76.04439 161.000
76.06434 182.000
76.08428 174.000
76.10423 192.000
76.12418 154.000
76.14413 177.000
76.16407 179.000
76.18402 176.000
76.20397 160.000
76.22391 165.000
76.24386 160.000
76.26381 160.000
76.28375 154.000
76.30370 197.000
76.32365 202.000
76.34359 139.000
76.36354 160.000
76.38349 181.000
76.40344 167.000
76.42338 174.000
76.44333 181.000
76.46328 160.000
76.48322 154.000
76.50317 136.000
76.52312 182.000
76.54306 136.000
76.56301 170.000
76.58296 142.000
76.60291 151.000
76.62285 167.000
76.64280 176.000
76.66275 151.000
76.68269 170.000
76.70264 179.000
76.72259 159.000
76.74253 168.000
76.76248 155.000
76.78243 178.000
76.80238 155.000
76.82232 157.000
76.84227 160.000
76.86222 192.000
76.88216 170.000
76.90211 163.000
76.92206 164.000
76.94200 159.000
76.96195 142.000
76.98190 137.000
77.00184 164.000
77.02179 153.000
77.04174 179.000
77.06169 164.000
77.08163 164.000
77.10158 142.000
77.12153 168.000
77.14147 144.000
77.16142 165.000
77.18137 149.000
77.20131 131.000
77.22126 166.000
77.24121 181.000
77.26116 146.000
77.28110 131.000
77.30105 186.000
77.32100 169.000
77.34094 150.000
77.36089 144.000
77.38084 171.000
77.40078 138.000
77.42073 146.000
77.44068 173.000
77.46062 169.000
77.48057 168.000
77.50052 160.000
77.52047 161.000
77.54041 187.000
77.56036 161.000
77.58031 159.000
77.60025 155.000
77.62020 182.000
77.64015 174.000
77.66009 191.000
77.68004 175.000
77.69999 181.000
77.71994 181.000
77.73988 195.000
77.75983 196.000
77.77978 197.000
77.79972 211.000
77.81967 210.000
77.83962 203.000
77.85956 214.000
77.87951 256.000
77.89946 255.000
77.91940 256.000
77.93935 251.000
77.95930 260.000
77.97925 264.000
77.99919 259.000
78.01914 273.000
78.03909 280.000
78.05903 258.000
78.07898 282.000
78.09893 274.000
78.11887 275.000
78.13882 260.000
78.15877 240.000
78.17872 258.000
78.19866 270.000
78.21861 300.000
78.23856 286.000
78.25850 260.000
78.27845 312.000
78.29840 318.000
78.31834 277.000
78.33829 321.000
78.35824 366.000
78.37819 331.000
78.39813 358.000
78.41808 318.000
78.43803 293.000
78.45797 290.000
78.47792 299.000
78.49787 281.000
78.51781 270.000
78.53776 288.000
78.55771 277.000
78.57765 254.000
78.59760 276.000
78.61755 290.000
78.63750 279.000
78.65744 257.000
78.67739 241.000
78.69734 276.000
78.71728 224.000
78.73723 246.000
78.75718 223.000
78.77712 217.000
78.79707 207.000
78.81702 212.000
78.83697 208.000
78.85691 225.000
78.87686 240.000
78.89681 234.000
78.91675 260.000
78.93670 226.000
78.95665 225.000
78.97659 268.000
78.99654 279.000
79.01649 271.000
79.03643 269.000
79.05638 292.000
79.07633 280.000
79.09628 260.000
79.11622 264.000
79.13617 275.000
79.15612 246.000
79.17606 260.000
79.19601 248.000
79.21596 269.000
79.23590 263.000
79.25585 259.000
79.27580 234.000
79.29575 215.000
79.31569 217.000
79.33564 223.000
79.35559 212.000
79.37553 199.000
79.39548 223.000
79.41543 223.000
79.43537 221.000
79.45532 180.000
79.47527 197.000
79.49521 188.000
79.51516 166.000
79.53511 175.000
79.55506 181.000
79.57500 187.000
79.59495 181.000
79.61490 167.000
79.63484 166.000
79.65479 180.000
79.67474 154.000
79.69468 160.000
79.71463 157.000
79.73458 184.000
79.75453 166.000
79.77447 181.000
79.79442 185.000
79.81437 151.000
79.83431 158.000
79.85426 164.000
79.87421 170.000
79.89415 154.000
79.91410 179.000
79.93405 146.000
79.95399 166.000
79.97394 160.000
79.99389 165.000
80.01384 164.000
80.03378 134.000
80.05373 162.000
80.07368 152.000
80.09362 149.000
80.11357 144.000
80.13352 164.000
80.15346 151.000
80.17341 160.000
80.19336 163.000
80.21331 158.000
80.23325 142.000
80.25320 155.000
80.27315 157.000
80.29309 150.000
80.31304 196.000
80.33299 167.000
80.35293 146.000
80.37288 161.000
80.39283 161.000
80.41278 155.000
80.43272 155.000
80.45267 156.000
80.47262 163.000
80.49256 147.000
80.51251 178.000
80.53246 165.000
80.55240 158.000
80.57235 157.000
80.59230 147.000
80.61224 162.000
80.63219 172.000
80.65214 159.000
80.67209 169.000
80.69203 169.000
80.71198 167.000
80.73193 166.000
80.75187 165.000
80.77182 172.000
80.79177 157.000
80.81171 150.000
80.83166 159.000
80.85161 140.000
80.87156 181.000
80.89150 173.000
80.91145 174.000
80.93140 169.000
80.95134 161.000
80.97129 149.000
80.99124 174.000
81.01118 162.000
81.03113 173.000
81.05108 148.000
81.07102 172.000
81.09097 160.000
81.11092 164.000
81.13087 172.000
81.15081 153.000
81.17076 157.000
81.19071 159.000
81.21065 152.000
81.23060 151.000
81.25055 149.000
81.27049 130.000
81.29044 151.000
81.31039 164.000
81.33034 149.000
81.35028 158.000
81.37023 145.000
81.39018 178.000
81.41012 153.000
81.43007 148.000
81.45002 158.000
81.46996 155.000
81.48991 158.000
81.50986 157.000
81.52980 159.000
81.54975 139.000
81.56970 138.000
81.58965 143.000
81.60959 165.000
81.62954 136.000
81.64949 144.000
81.66943 167.000
81.68938 157.000
81.70933 148.000
81.72927 138.000
81.74922 158.000
81.76917 157.000
81.78912 137.000
81.80906 151.000
81.82901 132.000
81.84896 165.000
81.86890 141.000
81.88885 148.000
81.90880 147.000
81.92874 144.000
81.94869 160.000
81.96864 146.000
81.98859 156.000
82.00853 153.000
82.02848 160.000
82.04843 171.000
82.06837 148.000
82.08832 169.000
82.10827 136.000
82.12821 148.000
82.14816 152.000
82.16811 134.000
82.18805 156.000
82.20800 151.000
82.22795 147.000
82.24790 158.000
82.26784 130.000
82.28779 173.000
82.30774 158.000
82.32768 138.000
82.34763 150.000
82.36758 147.000
82.38752 146.000
82.40747 169.000
82.42742 150.000
82.44737 143.000
82.46731 151.000
82.48726 152.000
82.50721 161.000
82.52715 156.000
82.54710 143.000
82.56705 131.000
82.58699 159.000
82.60694 153.000
82.62689 136.000
82.64683 161.000
82.66678 155.000
82.68673 169.000
82.70668 140.000
82.72662 144.000
82.74657 146.000
82.76652 175.000
82.78646 170.000
82.80641 159.000
82.82636 159.000
82.84630 160.000
82.86625 157.000
82.88620 163.000
82.90615 142.000
82.92609 155.000
82.94604 166.000
82.96599 145.000
82.98593 150.000
83.00588 177.000
83.02583 139.000
83.04577 145.000
83.06572 136.000
83.08567 152.000
83.10561 173.000
83.12556 153.000
83.14551 161.000
83.16546 157.000
83.18540 164.000
83.20535 145.000
83.22530 160.000
83.24524 173.000
83.26519 172.000
83.28514 145.000
83.30508 151.000
83.32503 155.000
83.34498 154.000
83.36493 177.000
83.38487 166.000
83.40482 159.000
83.42477 142.000
83.44471 144.000
83.46466 162.000
83.48461 167.000
83.50455 140.000
83.52450 159.000
83.54445 165.000
83.56440 138.000
83.58434 176.000
83.60429 158.000
83.62424 154.000
83.64418 141.000
83.66413 140.000
83.68408 151.000
83.70402 139.000
83.72397 167.000
83.74392 132.000
83.76386 150.000
83.78381 190.000
83.80376 134.000
83.82371 134.000
83.84365 153.000
83.86360 159.000
83.88355 140.000
83.90349 164.000
83.92344 162.000
83.94339 169.000
83.96333 177.000
83.98328 146.000
84.00323 143.000
84.02318 158.000
84.04312 162.000
84.06307 172.000
84.08302 153.000
84.10296 135.000
84.12291 180.000
84.14286 159.000
84.16280 141.000
84.18275 188.000
84.20270 189.000
84.22264 159.000
84.24259 166.000
84.26254 176.000
84.28249 174.000
84.30243 173.000
84.32238 183.000
84.34233 189.000
84.36227 163.000
84.38222 186.000
84.40217 202.000
84.42211 189.000
84.44206 218.000
84.46201 205.000
84.48196 245.000
84.50190 252.000
84.52185 240.000
84.54180 257.000
84.56174 259.000
84.58169 252.000
84.60164 220.000
84.62158 250.000
84.64153 260.000
84.66148 238.000
84.68142 251.000
84.70137 254.000
84.72132 256.000
84.74127 276.000
84.76121 243.000
84.78116 252.000
84.80111 246.000
84.82105 244.000
84.84100 251.000
84.86095 242.000
84.88089 237.000
84.90084 223.000
84.92079 220.000
84.94074 218.000
84.96068 221.000
84.98063 224.000
85.00058 176.000
85.02052 213.000
85.04047 204.000
85.06042 184.000
85.08036 193.000
85.10031 174.000
85.12026 175.000
85.14021 190.000
85.16015 204.000
85.18010 152.000
85.20005 197.000
85.21999 173.000
85.23994 156.000
85.25989 158.000
85.27983 172.000
85.29978 163.000
85.31973 141.000
85.33967 142.000
85.35962 158.000
85.37957 159.000
85.39952 149.000
85.41946 144.000
85.43941 164.000
85.45936 167.000
85.47930 125.000
85.49925 153.000
85.51920 140.000
85.53914 161.000
85.55909 150.000
85.57904 145.000
85.59899 150.000
85.61893 133.000
85.63888 127.000
85.65883 127.000
85.67877 149.000
85.69872 162.000
85.71867 174.000
85.73861 140.000
85.75856 133.000
85.77851 152.000
85.79845 162.000
85.81840 151.000
85.83835 150.000
85.85830 150.000
85.87824 172.000
85.89819 163.000
85.91814 146.000
85.93808 154.000
85.95803 142.000
85.97798 133.000
85.99792 132.000
86.01787 150.000
86.03782 154.000
86.05777 148.000
86.07771 168.000
86.09766 168.000
86.11761 162.000
86.13755 118.000
86.15750 174.000
86.17745 158.000
86.19739 149.000
86.21734 143.000
86.23729 160.000
86.25723 131.000
86.27718 166.000
86.29713 154.000
86.31708 135.000
86.33702 126.000
86.35697 165.000
86.37692 150.000
86.39686 155.000
86.41681 151.000
86.43676 128.000
86.45670 155.000
86.47665 163.000
86.49660 154.000
86.51655 131.000
86.53649 155.000
86.55644 144.000
86.57639 134.000
86.59633 172.000
86.61628 139.000
86.63623 138.000
86.65617 149.000
86.67612 126.000
86.69607 164.000
86.71602 180.000
86.73596 163.000
86.75591 143.000
86.77586 149.000
86.79580 153.000
86.81575 168.000
86.83570 160.000
86.85564 169.000
86.87559 156.000
86.89554 143.000
86.91548 136.000
86.93543 149.000
86.95538 144.000
86.97533 177.000
86.99527 147.000
87.01522 138.000
87.03517 147.000
87.05511 144.000
87.07506 145.000
87.09501 173.000
87.11495 175.000
87.13490 166.000
87.15485 178.000
87.17480 167.000
87.19474 186.000
87.21469 196.000
87.23464 170.000
87.25458 185.000
87.27453 167.000
87.29448 182.000
87.31442 168.000
87.33437 156.000
87.35432 183.000
87.37426 164.000
87.39421 152.000
87.41416 144.000
87.43411 186.000
87.45405 210.000
87.47400 177.000
87.49395 164.000
87.51389 168.000
87.53384 194.000
87.55379 172.000
87.57373 179.000
87.59368 176.000
87.61363 191.000
87.63358 183.000
87.65352 180.000
87.67347 171.000
87.69342 172.000
87.71336 186.000
87.73331 156.000
87.75326 177.000
87.77320 181.000
87.79315 204.000
87.81310 203.000
87.83304 192.000
87.85299 162.000
87.87294 171.000
87.89289 161.000
87.91283 155.000
87.93278 166.000
87.95273 178.000
87.97267 172.000
87.99262 154.000
88.01257 167.000
88.03251 168.000
88.05246 156.000
88.07241 156.000
88.09236 159.000
88.11230 156.000
88.13225 174.000
88.15220 147.000
88.17214 150.000
88.19209 172.000
88.21204 167.000
88.23198 156.000
88.25193 145.000
88.27188 148.000
88.29183 149.000
88.31177 136.000
88.33172 154.000
88.35167 162.000
88.37161 143.000
88.39156 133.000
88.41151 171.000
88.43145 162.000
88.45140 168.000
88.47135 149.000
88.49129 149.000
88.51124 116.000
88.53119 167.000
88.55114 145.000
88.57108 140.000
88.59103 141.000
88.61098 164.000
88.63092 141.000
88.65087 153.000
88.67082 164.000
88.69076 140.000
88.71071 162.000
88.73066 151.000
88.75061 140.000
88.77055 155.000
88.79050 177.000
88.81045 136.000
88.83039 157.000
88.85034 150.000
88.87029 155.000
88.89023 163.000
88.91018 160.000
88.93013 169.000
88.95007 178.000
88.97002 145.000
88.98997 174.000
89.00992 118.000
89.02986 161.000
89.04981 136.000
89.06976 159.000
89.08970 164.000
89.10965 133.000
89.12960 152.000
89.14954 161.000
89.16949 159.000
89.18944 145.000
89.20939 146.000
89.22933 136.000
89.24928 170.000
89.26923 149.000
89.28917 144.000
89.30912 161.000
89.32907 153.000
89.34901 150.000
89.36896 141.000
89.38891 150.000
89.40885 148.000
89.42880 142.000
89.44875 142.000
89.46870 135.000
89.48864 164.000
89.50859 160.000
89.52854 156.000
89.54848 152.000
89.56843 142.000
89.58838 170.000
89.60832 141.000
89.62827 146.000
89.64822 172.000
89.66817 148.000
89.68811 136.000
89.70806 145.000
89.72801 134.000
89.74795 148.000
89.76790 161.000
89.78785 142.000
89.80779 161.000
89.82774 176.000
89.84769 155.000
89.86764 144.000
89.88758 163.000
89.90753 160.000
89.92748 146.000
89.94742 144.000
89.96737 143.000
89.98732 143.000
90.00726 163.000
