10.00000 218.000
10.01995 203.000
10.03989 192.000
10.05984 197.000
10.07979 220.000
10.09973 193.000
10.11968 217.000
10.13963 195.000
10.15958 194.000
10.17952 200.000
10.19947 203.000
10.21942 187.000
10.23936 200.000
10.25931 190.000
10.27926 218.000
10.29920 187.000
10.31915 210.000
10.33910 212.000
10.35905 184.000
10.37899 194.000
10.39894 197.000
10.41889 213.000
10.43883 190.000
10.45878 204.000
10.47873 226.000
10.49867 197.000
10.51862 189.000
10.53857 240.000
10.55851 174.000
10.57846 195.000
10.59841 221.000
10.61836 207.000
10.63830 226.000
10.65825 203.000
10.67820 225.000
10.69814 202.000
10.71809 212.000
10.73804 206.000
10.75798 190.000
10.77793 231.000
10.79788 222.000
10.81783 196.000
10.83777 206.000
10.85772 210.000
10.87767 174.000
10.89761 219.000
10.91756 204.000
10.93751 189.000
10.95745 192.000
10.97740 188.000
10.99735 223.000
11.01730 188.000
11.03724 221.000
11.05719 244.000
11.07714 235.000
11.09708 187.000
11.11703 207.000
11.13698 202.000
11.15692 188.000
11.17687 224.000
11.19682 214.000
11.21676 209.000
11.23671 169.000
11.25666 192.000
11.27661 202.000
11.29655 219.000
11.31650 215.000
11.33645 198.000
11.35639 198.000
11.37634 213.000
11.39629 216.000
11.41623 217.000
11.43618 184.000
11.45613 189.000
11.47608 205.000
11.49602 210.000
11.51597 197.000
11.53592 217.000
11.55586 215.000
11.57581 205.000
11.59576 212.000
11.61570 232.000
11.63565 181.000
11.65560 198.000
11.67554 202.000
11.69549 216.000
11.71544 212.000
11.73539 207.000
11.75533 217.000
11.77528 193.000
11.79523 206.000
11.81517 233.000
11.83512 228.000
11.85507 201.000
11.87501 188.000
11.89496 193.000
11.91491 211.000
11.93486 206.000
11.95480 209.000
11.97475 196.000
11.99470 207.000
12.01464 203.000
12.03459 218.000
12.05454 189.000
12.07448 205.000
12.09443 199.000
12.11438 203.000
12.13432 210.000
12.15427 182.000
12.17422 216.000
12.19417 204.000
12.21411 211.000
12.23406 216.000
12.25401 230.000
12.27395 216.000
12.29390 215.000
12.31385 212.000
12.33379 230.000
12.35374 218.000
12.37369 212.000
12.39364 215.000
12.41358 218.000
12.43353 221.000
12.45348 180.000
12.47342 225.000
12.49337 188.000
12.51332 200.000
12.53326 206.000
12.55321 241.000
12.57316 231.000
12.59311 185.000
12.61305 180.000
12.63300 213.000
12.65295 206.000
12.67289 222.000
12.69284 229.000
12.71279 186.000
12.73273 237.000
12.75268 211.000
12.77263 209.000
12.79257 226.000
12.81252 191.000
12.83247 217.000
12.85242 192.000
12.87236 219.000
12.89231 194.000
12.91226 209.000
12.93220 187.000
12.95215 191.000
12.97210 211.000
12.99204 216.000
13.01199 181.000
13.03194 211.000
13.05189 192.000
13.07183 199.000
13.09178 190.000
13.11173 214.000
13.13167 218.000
13.15162 227.000
13.17157 206.000
13.19151 180.000
13.21146 230.000
13.23141 180.000
13.25135 211.000
13.27130 204.000
13.29125 217.000
13.31120 206.000
13.33114 210.000
13.35109 192.000
13.37104 217.000
13.39098 175.000
13.41093 213.000
13.43088 202.000
13.45082 190.000
13.47077 238.000
13.49072 205.000
13.51067 208.000
13.53061 210.000
13.55056 209.000
13.57051 196.000
13.59045 198.000
13.61040 204.000
13.63035 217.000
13.65029 207.000
13.67024 218.000
13.69019 175.000
13.71013 208.000
13.73008 208.000
13.75003 209.000
13.76998 216.000
13.78992 193.000
13.80987 205.000
13.82982 207.000
13.84976 199.000
13.86971 204.000
13.88966 216.000
13.90960 226.000
13.92955 201.000
13.94950 231.000
13.96945 206.000
13.98939 204.000
14.00934 227.000
14.02929 153.000
14.04923 223.000
14.06918 210.000
14.08913 196.000
14.10907 188.000
14.12902 197.000
14.14897 194.000
14.16892 216.000
14.18886 220.000
14.20881 215.000
14.22876 210.000
14.24870 192.000
14.26865 224.000
14.28860 191.000
14.30854 230.000
14.32849 216.000
14.34844 229.000
14.36838 207.000
14.38833 219.000
14.40828 211.000
14.42823 202.000
14.44817 191.000
14.46812 204.000
14.48807 202.000
14.50801 189.000
14.52796 196.000
14.54791 194.000
14.56785 214.000
14.58780 214.000
14.60775 208.000
14.62770 217.000
14.64764 211.000
14.66759 236.000
14.68754 230.000
14.70748 186.000
14.72743 227.000
14.74738 220.000
14.76732 205.000
14.78727 221.000
14.80722 217.000
14.82716 213.000
14.84711 196.000
14.86706 219.000
14.88701 206.000
14.90695 233.000
14.92690 198.000
14.94685 233.000
14.96679 210.000
14.98674 221.000
15.00669 213.000
15.02663 210.000
15.04658 249.000
15.06653 235.000
15.08648 230.000
15.10642 236.000
15.12637 238.000
15.14632 283.000
15.16626 217.000
15.18621 251.000
15.20616 219.000
15.22610 264.000
15.24605 275.000
15.26600 293.000
15.28594 292.000
15.30589 269.000
15.32584 267.000
15.34579 275.000
15.36573 270.000
15.38568 255.000
15.40563 277.000
15.42557 276.000
15.44552 291.000
15.46547 295.000
15.48541 293.000
15.50536 292.000
15.52531 280.000
15.54526 296.000
15.56520 299.000
15.58515 319.000
15.60510 319.000
15.62504 328.000
15.64499 375.000
15.66494 380.000
15.68488 386.000
15.70483 456.000
15.72478 526.000
15.74472 680.000
15.76467 907.000
15.78462 1245.000
15.80457 1980.000
15.82451 2993.000
15.84446 4672.000
15.86441 6628.000
15.88435 8918.000
15.90430 10153.000
15.92425 10062.000
15.94419 8141.000
15.96414 5697.000
15.98409 3852.000
16.00404 2387.000
16.02398 1742.000
16.04393 1544.000
16.06388 1428.000
16.08382 1571.000
16.10377 1597.000
16.12372 1745.000
16.14366 1867.000
16.16361 1941.000
16.18356 2197.000
16.20351 2188.000
16.22345 2021.000
16.24340 1884.000
16.26335 1723.000
16.28329 1474.000
16.30324 1115.000
16.32319 1050.000
16.34313 769.000
16.36308 571.000
16.38303 474.000
16.40297 396.000
16.42292 361.000
16.44287 292.000
16.46282 266.000
16.48276 284.000
16.50271 260.000
16.52266 252.000
16.54260 237.000
16.56255 271.000
16.58250 265.000
16.60244 258.000
16.62239 245.000
16.64234 239.000
16.66229 241.000
16.68223 251.000
16.70218 263.000
16.72213 269.000
16.74207 239.000
16.76202 212.000
16.78197 258.000
16.80191 267.000
16.82186 285.000
16.84181 332.000
16.86175 316.000
16.88170 337.000
16.90165 270.000
16.92160 254.000
16.94154 293.000
16.96149 240.000
16.98144 251.000
17.00138 214.000
17.02133 224.000
17.04128 197.000
17.06122 224.000
17.08117 198.000
17.10112 248.000
17.12107 211.000
17.14101 199.000
17.16096 201.000
17.18091 211.000
17.20085 235.000
17.22080 216.000
17.24075 209.000
17.26069 214.000
17.28064 231.000
17.30059 225.000
17.32053 207.000
17.34048 206.000
17.36043 240.000
17.38038 213.000
17.40032 247.000
17.42027 229.000
17.44022 204.000
17.46016 205.000
17.48011 225.000
17.50006 220.000
17.52000 223.000
17.53995 204.000
17.55990 213.000
17.57985 209.000
17.59979 216.000
17.61974 222.000
17.63969 223.000
17.65963 217.000
17.67958 199.000
17.69953 198.000
17.71947 190.000
17.73942 204.000
17.75937 203.000
17.77932 219.000
17.79926 213.000
17.81921 215.000
17.83916 200.000
17.85910 214.000
17.87905 209.000
17.89900 244.000
17.91894 198.000
17.93889 202.000
17.95884 211.000
17.97878 202.000
17.99873 232.000
18.01868 238.000
18.03863 230.000
18.05857 222.000
18.07852 231.000
18.09847 210.000
18.11841 257.000
18.13836 197.000
18.15831 217.000
18.17825 210.000
18.19820 240.000
18.21815 218.000
18.23810 203.000
18.25804 220.000
18.27799 187.000
18.29794 226.000
18.31788 213.000
18.33783 189.000
18.35778 202.000
18.37772 214.000
18.39767 225.000
18.41762 220.000
18.43756 201.000
18.45751 207.000
18.47746 202.000
18.49741 215.000
18.51735 221.000
18.53730 213.000
18.55725 218.000
18.57719 209.000
18.59714 214.000
18.61709 225.000
18.63703 187.000
18.65698 204.000
18.67693 230.000
18.69688 187.000
18.71682 232.000
18.73677 197.000
18.75672 214.000
18.77666 207.000
18.79661 196.000
18.81656 203.000
18.83650 206.000
18.85645 203.000
18.87640 202.000
18.89634 186.000
18.91629 178.000
18.93624 227.000
18.95619 232.000
18.97613 215.000
18.99608 195.000
19.01603 194.000
19.03597 201.000
19.05592 206.000
19.07587 191.000
19.09581 208.000
19.11576 211.000
19.13571 219.000
19.15566 226.000
19.17560 186.000
19.19555 200.000
19.21550 193.000
19.23544 199.000
19.25539 221.000
19.27534 224.000
19.29528 212.000
19.31523 214.000
19.33518 206.000
19.35513 198.000
19.37507 207.000
19.39502 218.000
19.41497 211.000
19.43491 225.000
19.45486 207.000
19.47481 188.000
19.49475 212.000
19.51470 198.000
19.53465 239.000
19.55459 196.000
19.57454 226.000
19.59449 221.000
19.61444 217.000
19.63438 205.000
19.65433 208.000
19.67428 195.000
19.69422 211.000
19.71417 193.000
19.73412 201.000
19.75406 200.000
19.77401 212.000
19.79396 224.000
19.81391 218.000
19.83385 224.000
19.85380 199.000
19.87375 184.000
19.89369 211.000
19.91364 199.000
19.93359 179.000
19.95353 215.000
19.97348 220.000
19.99343 181.000
20.01337 241.000
20.03332 231.000
20.05327 226.000
20.07322 237.000
20.09316 211.000
20.11311 204.000
20.13306 208.000
20.15300 209.000
20.17295 205.000
20.19290 242.000
20.21284 196.000
20.23279 207.000
20.25274 211.000
20.27269 205.000
20.29263 249.000
20.31258 209.000
20.33253 217.000
20.35247 211.000
20.37242 232.000
20.39237 203.000
20.41231 218.000
20.43226 181.000
20.45221 230.000
20.47215 243.000
20.49210 202.000
20.51205 223.000
20.53200 200.000
20.55194 230.000
20.57189 194.000
20.59184 212.000
20.61178 210.000
20.63173 217.000
20.65168 212.000
20.67162 234.000
20.69157 202.000
20.71152 213.000
20.73147 228.000
20.75141 224.000
20.77136 226.000
20.79131 201.000
20.81125 249.000
20.83120 282.000
20.85115 292.000
20.87109 283.000
20.89104 318.000
20.91099 287.000
20.93094 324.000
20.95088 304.000
20.97083 300.000
20.99078 289.000
21.01072 308.000
21.03067 271.000
21.05062 308.000
21.07056 261.000
21.09051 284.000
21.11046 268.000
21.13040 265.000
21.15035 281.000
21.17030 265.000
21.19025 263.000
21.21019 201.000
21.23014 219.000
21.25009 226.000
21.27003 203.000
21.28998 205.000
21.30993 209.000
21.32987 232.000
21.34982 217.000
21.36977 196.000
21.38972 218.000
21.40966 205.000
21.42961 209.000
21.44956 218.000
21.46950 236.000
21.48945 195.000
21.50940 211.000
21.52934 202.000
21.54929 209.000
21.56924 220.000
21.58918 193.000
21.60913 198.000
21.62908 205.000
21.64903 230.000
21.66897 226.000
21.68892 238.000
21.70887 239.000
21.72881 191.000
21.74876 225.000
21.76871 232.000
21.78865 207.000
21.80860 222.000
21.82855 211.000
21.84850 199.000
21.86844 242.000
21.88839 162.000
21.90834 215.000
21.92828 194.000
21.94823 229.000
21.96818 224.000
21.98812 227.000
22.00807 184.000
22.02802 214.000
22.04796 202.000
22.06791 215.000
22.08786 188.000
22.10781 216.000
22.12775 219.000
22.14770 208.000
22.16765 220.000
22.18759 209.000
22.20754 190.000
22.22749 211.000
22.24743 191.000
22.26738 220.000
22.28733 202.000
22.30728 207.000
22.32722 225.000
22.34717 207.000
22.36712 209.000
22.38706 203.000
22.40701 206.000
22.42696 212.000
22.44690 210.000
22.46685 218.000
22.48680 204.000
22.50675 194.000
22.52669 220.000
22.54664 224.000
22.56659 239.000
22.58653 186.000
22.60648 219.000
22.62643 214.000
22.64637 216.000
22.66632 205.000
22.68627 199.000
22.70621 229.000
22.72616 210.000
22.74611 200.000
22.76606 215.000
22.78600 215.000
22.80595 220.000
22.82590 190.000
22.84584 206.000
22.86579 216.000
22.88574 207.000
22.90568 221.000
22.92563 212.000
22.94558 227.000
22.96553 206.000
22.98547 217.000
23.00542 197.000
23.02537 191.000
23.04531 206.000
23.06526 227.000
23.08521 219.000
23.10515 218.000
23.12510 229.000
23.14505 208.000
23.16499 198.000
23.18494 229.000
23.20489 207.000
23.22484 226.000
23.24478 212.000
23.26473 215.000
23.28468 199.000
23.30462 209.000
23.32457 207.000
23.34452 233.000
23.36446 222.000
23.38441 223.000
23.40436 189.000
23.42431 221.000
23.44425 214.000
23.46420 214.000
23.48415 245.000
23.50409 226.000
23.52404 184.000
23.54399 234.000
23.56393 238.000
23.58388 200.000
23.60383 218.000
23.62377 197.000
23.64372 226.000
23.66367 205.000
23.68362 221.000
23.70356 213.000
23.72351 221.000
23.74346 199.000
23.76340 220.000
23.78335 246.000
23.80330 222.000
23.82324 206.000
23.84319 225.000
23.86314 226.000
23.88309 223.000
23.90303 189.000
23.92298 202.000
23.94293 220.000
23.96287 223.000
23.98282 210.000
24.00277 198.000
24.02271 214.000
24.04266 206.000
24.06261 198.000
24.08256 218.000
24.10250 212.000
24.12245 197.000
24.14240 242.000
24.16234 211.000
24.18229 197.000
24.20224 239.000
24.22218 217.000
24.24213 218.000
24.26208 192.000
24.28202 226.000
24.30197 224.000
24.32192 229.000
24.34187 224.000
24.36181 178.000
24.38176 201.000
24.40171 207.000
24.42165 235.000
24.44160 223.000
24.46155 212.000
24.48149 202.000
24.50144 215.000
24.52139 223.000
24.54134 219.000
24.56128 221.000
24.58123 220.000
24.60118 225.000
24.62112 215.000
24.64107 230.000
24.66102 194.000
24.68096 232.000
24.70091 206.000
24.72086 193.000
24.74080 224.000
24.76075 195.000
24.78070 227.000
24.80065 207.000
24.82059 202.000
24.84054 212.000
24.86049 208.000
24.88043 218.000
24.90038 236.000
24.92033 241.000
24.94027 275.000
24.96022 241.000
24.98017 284.000
25.00012 257.000
25.02006 267.000
25.04001 314.000
25.05996 243.000
25.07990 261.000
25.09985 258.000
25.11980 240.000
25.13974 229.000
25.15969 216.000
25.17964 224.000
25.19958 238.000
25.21953 223.000
25.23948 215.000
25.25943 222.000
25.27937 248.000
25.29932 230.000
25.31927 243.000
25.33921 208.000
25.35916 201.000
25.37911 217.000
25.39905 197.000
25.41900 207.000
25.43895 236.000
25.45890 216.000
25.47884 190.000
25.49879 209.000
25.51874 201.000
25.53868 233.000
25.55863 199.000
25.57858 207.000
25.59852 192.000
25.61847 234.000
25.63842 204.000
25.65837 222.000
25.67831 215.000
25.69826 193.000
25.71821 207.000
25.73815 245.000
25.75810 218.000
25.77805 236.000
25.79799 206.000
25.81794 201.000
25.83789 228.000
25.85783 235.000
25.87778 226.000
25.89773 198.000
25.91768 214.000
25.93762 204.000
25.95757 231.000
25.97752 206.000
25.99746 228.000
26.01741 212.000
26.03736 243.000
26.05730 206.000
26.07725 215.000
26.09720 200.000
26.11715 198.000
26.13709 226.000
26.15704 211.000
26.17699 210.000
26.19693 194.000
26.21688 185.000
26.23683 225.000
26.25677 228.000
26.27672 221.000
26.29667 230.000
26.31661 221.000
26.33656 223.000
26.35651 234.000
26.37646 225.000
26.39640 217.000
26.41635 225.000
26.43630 216.000
26.45624 240.000
26.47619 225.000
26.49614 232.000
26.51608 210.000
26.53603 220.000
26.55598 217.000
26.57593 216.000
26.59587 209.000
26.61582 207.000
26.63577 237.000
26.65571 250.000
26.67566 228.000
26.69561 214.000
26.71555 209.000
26.73550 208.000
26.75545 232.000
26.77539 229.000
26.79534 249.000
26.81529 218.000
26.83524 227.000
26.85518 210.000
26.87513 257.000
26.89508 210.000
26.91502 229.000
26.93497 199.000
26.95492 214.000
26.97486 257.000
26.99481 224.000
27.01476 252.000
27.03471 225.000
27.05465 237.000
27.07460 246.000
27.09455 235.000
27.11449 198.000
27.13444 215.000
27.15439 220.000
27.17433 234.000
27.19428 247.000
27.21423 255.000
27.23417 240.000
27.25412 223.000
27.27407 260.000
27.29402 230.000
27.31396 248.000
27.33391 215.000
27.35386 222.000
27.37380 244.000
27.39375 213.000
27.41370 223.000
27.43364 236.000
27.45359 230.000
27.47354 222.000
27.49349 252.000
27.51343 239.000
27.53338 219.000
27.55333 205.000
27.57327 211.000
27.59322 180.000
27.61317 218.000
27.63311 250.000
27.65306 224.000
27.67301 214.000
27.69296 236.000
27.71290 222.000
27.73285 237.000
27.75280 231.000
27.77274 244.000
27.79269 222.000
27.81264 246.000
27.83258 225.000
27.85253 213.000
27.87248 233.000
27.89242 234.000
27.91237 223.000
27.93232 228.000
27.95227 231.000
27.97221 238.000
27.99216 235.000
28.01211 221.000
28.03205 251.000
28.05200 213.000
28.07195 230.000
28.09189 215.000
28.11184 222.000
28.13179 253.000
28.15174 245.000
28.17168 206.000
28.19163 240.000
28.21158 200.000
28.23152 249.000
28.25147 239.000
28.27142 240.000
28.29136 245.000
28.31131 230.000
28.33126 244.000
28.35120 240.000
28.37115 239.000
28.39110 225.000
28.41105 224.000
28.43099 215.000
28.45094 201.000
28.47089 222.000
28.49083 224.000
28.51078 238.000
28.53073 217.000
28.55067 237.000
28.57062 247.000
28.59057 237.000
28.61052 259.000
28.63046 230.000
28.65041 223.000
28.67036 215.000
28.69030 263.000
28.71025 234.000
28.73020 221.000
28.75014 227.000
28.77009 249.000
28.79004 231.000
28.80998 226.000
28.82993 208.000
28.84988 219.000
28.86983 214.000
28.88977 222.000
28.90972 206.000
28.92967 229.000
28.94961 231.000
28.96956 212.000
28.98951 214.000
29.00945 245.000
29.02940 227.000
29.04935 213.000
29.06930 197.000
29.08924 201.000
29.10919 223.000
29.12914 237.000
29.14908 224.000
29.16903 212.000
29.18898 221.000
29.20892 251.000
29.22887 257.000
29.24882 250.000
29.26877 273.000
29.28871 274.000
29.30866 334.000
29.32861 307.000
29.34855 367.000
29.36850 433.000
29.38845 422.000
29.40839 453.000
29.42834 413.000
29.44829 430.000
29.46823 424.000
29.48818 421.000
29.50813 391.000
29.52808 345.000
29.54802 298.000
29.56797 325.000
29.58792 290.000
29.60786 287.000
29.62781 267.000
29.64776 271.000
29.66770 276.000
29.68765 259.000
29.70760 256.000
29.72755 241.000
29.74749 275.000
29.76744 245.000
29.78739 249.000
29.80733 222.000
29.82728 247.000
29.84723 245.000
29.86717 227.000
29.88712 226.000
29.90707 218.000
29.92701 240.000
29.94696 219.000
29.96691 251.000
29.98686 237.000
30.00680 208.000
30.02675 256.000
30.04670 260.000
30.06664 266.000
30.08659 228.000
30.10654 245.000
30.12648 253.000
30.14643 246.000
30.16638 256.000
30.18633 262.000
30.20627 257.000
30.22622 265.000
30.24617 218.000
30.26611 239.000
30.28606 230.000
30.30601 254.000
30.32595 231.000
30.34590 256.000
30.36585 242.000
30.38579 240.000
30.40574 217.000
30.42569 215.000
30.44564 248.000
30.46558 211.000
30.48553 235.000
30.50548 234.000
30.52542 226.000
30.54537 251.000
30.56532 226.000
30.58526 259.000
30.60521 234.000
30.62516 213.000
30.64511 229.000
30.66505 225.000
30.68500 239.000
30.70495 252.000
30.72489 220.000
30.74484 248.000
30.76479 214.000
30.78473 226.000
30.80468 225.000
30.82463 199.000
30.84458 232.000
30.86452 222.000
30.88447 257.000
30.90442 226.000
30.92436 240.000
30.94431 262.000
30.96426 229.000
30.98420 230.000
31.00415 226.000
31.02410 237.000
31.04404 218.000
31.06399 260.000
31.08394 237.000
31.10389 227.000
31.12383 239.000
31.14378 253.000
31.16373 255.000
31.18367 218.000
31.20362 217.000
31.22357 221.000
31.24351 229.000
31.26346 238.000
31.28341 206.000
31.30336 226.000
31.32330 232.000
31.34325 210.000
31.36320 207.000
31.38314 243.000
31.40309 238.000
31.42304 230.000
31.44298 255.000
31.46293 216.000
31.48288 225.000
31.50282 241.000
31.52277 231.000
31.54272 230.000
31.56267 219.000
31.58261 233.000
31.60256 237.000
31.62251 251.000
31.64245 257.000
31.66240 238.000
31.68235 225.000
31.70229 257.000
31.72224 240.000
31.74219 248.000
31.76214 242.000
31.78208 245.000
31.80203 249.000
31.82198 236.000
31.84192 239.000
31.86187 275.000
31.88182 287.000
31.90176 289.000
31.92171 338.000
31.94166 384.000
31.96160 464.000
31.98155 485.000
32.00150 548.000
32.02145 744.000
32.04139 769.000
32.06134 913.000
32.08129 1012.000
32.10123 1031.000
32.12118 927.000
32.14113 826.000
32.16107 827.000
32.18102 721.000
32.20097 627.000
32.22092 548.000
32.24086 449.000
32.26081 397.000
32.28076 394.000
32.30070 291.000
32.32065 303.000
32.34060 363.000
32.36054 314.000
32.38049 302.000
32.40044 344.000
32.42039 294.000
32.44033 350.000
32.46028 370.000
32.48023 388.000
32.50017 421.000
32.52012 484.000
32.54007 499.000
32.56001 521.000
32.57996 495.000
32.59991 460.000
32.61985 494.000
32.63980 435.000
32.65975 425.000
32.67970 428.000
32.69964 435.000
32.71959 355.000
32.73954 370.000
32.75948 362.000
32.77943 397.000
32.79938 350.000
32.81932 305.000
32.83927 365.000
32.85922 347.000
32.87917 322.000
32.89911 294.000
32.91906 288.000
32.93901 279.000
32.95895 282.000
32.97890 302.000
32.99885 256.000
33.01879 263.000
33.03874 254.000
33.05869 268.000
33.07863 244.000
33.09858 258.000
33.11853 256.000
33.13848 247.000
33.15842 226.000
33.17837 251.000
33.19832 235.000
33.21826 261.000
33.23821 245.000
33.25816 218.000
33.27810 242.000
33.29805 247.000
33.31800 211.000
33.33795 209.000
33.35789 266.000
33.37784 234.000
33.39779 215.000
33.41773 241.000
33.43768 252.000
33.45763 202.000
33.47757 226.000
33.49752 220.000
33.51747 247.000
33.53741 216.000
33.55736 219.000
33.57731 211.000
33.59726 223.000
33.61720 232.000
33.63715 228.000
33.65710 242.000
33.67704 265.000
33.69699 236.000
33.71694 247.000
33.73688 246.000
33.75683 211.000
33.77678 227.000
33.79673 256.000
33.81667 231.000
33.83662 252.000
33.85657 267.000
33.87651 246.000
33.89646 257.000
33.91641 257.000
33.93635 230.000
33.95630 269.000
33.97625 225.000
33.99620 238.000
34.01614 246.000
34.03609 283.000
34.05604 242.000
34.07598 257.000
34.09593 277.000
34.11588 293.000
34.13582 260.000
34.15577 263.000
34.17572 250.000
34.19566 269.000
34.21561 293.000
34.23556 290.000
34.25551 277.000
34.27545 304.000
34.29540 345.000
34.31535 337.000
34.33529 307.000
34.35524 335.000
34.37519 332.000
34.39513 322.000
34.41508 366.000
34.43503 379.000
34.45498 405.000
34.47492 360.000
34.49487 390.000
34.51482 386.000
34.53476 388.000
34.55471 390.000
34.57466 384.000
34.59460 321.000
34.61455 334.000
34.63450 328.000
34.65444 333.000
34.67439 343.000
34.69434 339.000
34.71429 327.000
34.73423 320.000
34.75418 336.000
34.77413 298.000
34.79407 321.000
34.81402 356.000
34.83397 353.000
34.85391 377.000
34.87386 392.000
34.89381 406.000
34.91376 354.000
34.93370 367.000
34.95365 350.000
34.97360 336.000
34.99354 274.000
35.01349 317.000
35.03344 311.000
35.05338 274.000
35.07333 281.000
35.09328 296.000
35.11322 303.000
35.13317 288.000
35.15312 283.000
35.17307 243.000
35.19301 288.000
35.21296 311.000
35.23291 316.000
35.25285 302.000
35.27280 286.000
35.29275 323.000
35.31269 344.000
35.33264 360.000
35.35259 390.000
35.37254 442.000
35.39248 449.000
35.41243 589.000
35.43238 683.000
35.45232 977.000
35.47227 1157.000
35.49222 1182.000
35.51216 1189.000
35.53211 1400.000
35.55206 1768.000
35.57201 1970.000
35.59195 1862.000
35.61190 1667.000
35.63185 1473.000
35.65179 1465.000
35.67174 1344.000
35.69169 1286.000
35.71163 1118.000
35.73158 1035.000
35.75153 943.000
35.77147 954.000
35.79142 924.000
35.81137 945.000
35.83132 846.000
35.85126 800.000
35.87121 767.000
35.89116 739.000
35.91110 648.000
35.93105 569.000
35.95100 519.000
35.97094 494.000
35.99089 451.000
36.01084 419.000
36.03079 445.000
36.05073 414.000
36.07068 396.000
36.09063 409.000
36.11057 383.000
36.13052 395.000
36.15047 428.000
36.17041 393.000
36.19036 348.000
36.21031 378.000
36.23025 324.000
36.25020 332.000
36.27015 336.000
36.29010 316.000
36.31004 328.000
36.32999 282.000
36.34994 326.000
36.36988 277.000
36.38983 292.000
36.40978 289.000
36.42972 299.000
36.44967 265.000
36.46962 318.000
36.48957 323.000
36.50951 308.000
36.52946 310.000
36.54941 299.000
36.56935 310.000
36.58930 287.000
36.60925 263.000
36.62919 296.000
36.64914 308.000
36.66909 321.000
36.68903 306.000
36.70898 288.000
36.72893 303.000
36.74888 293.000
36.76882 317.000
36.78877 342.000
36.80872 341.000
36.82866 313.000
36.84861 357.000
36.86856 329.000
36.88850 359.000
36.90845 329.000
36.92840 358.000
36.94835 371.000
36.96829 393.000
36.98824 449.000
37.00819 436.000
37.02813 518.000
37.04808 525.000
37.06803 507.000
37.08797 525.000
37.10792 484.000
37.12787 508.000
37.14781 501.000
37.16776 456.000
37.18771 509.000
37.20766 499.000
37.22760 464.000
37.24755 468.000
37.26750 445.000
37.28744 519.000
37.30739 420.000
37.32734 408.000
37.34728 446.000
37.36723 446.000
37.38718 440.000
37.40713 415.000
37.42707 445.000
37.44702 430.000
37.46697 413.000
37.48691 430.000
37.50686 348.000
37.52681 362.000
37.54675 351.000
37.56670 344.000
37.58665 315.000
37.60660 306.000
37.62654 279.000
37.64649 290.000
37.66644 302.000
37.68638 300.000
37.70633 267.000
37.72628 276.000
37.74622 250.000
37.76617 248.000
37.78612 281.000
37.80606 280.000
37.82601 284.000
37.84596 285.000
37.86591 258.000
37.88585 261.000
37.90580 279.000
37.92575 259.000
37.94569 290.000
37.96564 260.000
37.98559 264.000
38.00553 283.000
38.02548 308.000
38.04543 250.000
38.06538 282.000
38.08532 279.000
38.10527 281.000
38.12522 270.000
38.14516 280.000
38.16511 264.000
38.18506 265.000
38.20500 284.000
38.22495 292.000
38.24490 262.000
38.26484 277.000
38.28479 276.000
38.30474 253.000
38.32469 296.000
38.34463 276.000
38.36458 306.000
38.38453 295.000
38.40447 339.000
38.42442 309.000
38.44437 305.000
38.46431 323.000
38.48426 328.000
38.50421 348.000
38.52416 373.000
38.54410 394.000
38.56405 429.000
38.58400 475.000
38.60394 529.000
38.62389 600.000
38.64384 690.000
38.66378 884.000
38.68373 1086.000
38.70368 1338.000
38.72362 1578.000
38.74357 1613.000
38.76352 1576.000
38.78347 1504.000
38.80341 1255.000
38.82336 1258.000
38.84331 1167.000
38.86325 1071.000
38.88320 930.000
38.90315 792.000
38.92309 765.000
38.94304 707.000
38.96299 708.000
38.98294 693.000
39.00288 684.000
39.02283 703.000
39.04278 604.000
39.06272 607.000
39.08267 552.000
39.10262 511.000
39.12256 504.000
39.14251 468.000
39.16246 446.000
39.18241 399.000
39.20235 431.000
39.22230 459.000
39.24225 489.000
39.26219 563.000
39.28214 634.000
39.30209 741.000
39.32203 856.000
39.34198 908.000
39.36193 966.000
39.38187 1002.000
39.40182 964.000
39.42177 968.000
39.44172 923.000
39.46166 850.000
39.48161 759.000
39.50156 592.000
39.52150 589.000
39.54145 563.000
39.56140 447.000
39.58134 440.000
39.60129 389.000
39.62124 360.000
39.64119 341.000
39.66113 299.000
39.68108 286.000
39.70103 274.000
39.72097 298.000
39.74092 289.000
39.76087 289.000
39.78081 271.000
39.80076 262.000
39.82071 254.000
39.84065 249.000
39.86060 273.000
39.88055 242.000
39.90050 249.000
39.92044 298.000
39.94039 258.000
39.96034 290.000
39.98028 271.000
40.00023 283.000
40.02018 250.000
40.04012 290.000
40.06007 254.000
40.08002 268.000
40.09997 260.000
40.11991 259.000
40.13986 229.000
40.15981 214.000
40.17975 246.000
40.19970 270.000
40.21965 260.000
40.23959 247.000
40.25954 226.000
40.27949 241.000
40.29943 268.000
40.31938 256.000
40.33933 250.000
40.35928 240.000
40.37922 265.000
40.39917 260.000
40.41912 235.000
40.43906 255.000
40.45901 237.000
40.47896 241.000
40.49890 238.000
40.51885 249.000
40.53880 243.000
40.55875 234.000
40.57869 232.000
40.59864 254.000
40.61859 240.000
40.63853 238.000
40.65848 261.000
40.67843 235.000
40.69837 211.000
40.71832 260.000
40.73827 236.000
40.75822 252.000
40.77816 259.000
40.79811 233.000
40.81806 248.000
40.83800 274.000
40.85795 263.000
40.87790 260.000
40.89784 250.000
40.91779 261.000
40.93774 248.000
40.95768 224.000
40.97763 239.000
40.99758 258.000
41.01753 230.000
41.03747 231.000
41.05742 250.000
41.07737 259.000
41.09731 262.000
41.11726 240.000
41.13721 251.000
41.15715 271.000
41.17710 237.000
41.19705 248.000
41.21700 248.000
41.23694 255.000
41.25689 279.000
41.27684 256.000
41.29678 256.000
41.31673 284.000
41.33668 290.000
41.35662 273.000
41.37657 292.000
41.39652 250.000
41.41646 291.000
41.43641 291.000
41.45636 314.000
41.47631 318.000
41.49625 294.000
41.51620 329.000
41.53615 345.000
41.55609 365.000
41.57604 365.000
41.59599 410.000
41.61593 453.000
41.63588 449.000
41.65583 466.000
41.67578 537.000
41.69572 544.000
41.71567 618.000
41.73562 661.000
41.75556 785.000
41.77551 883.000
41.79546 1013.000
41.81540 1147.000
41.83535 1139.000
41.85530 1104.000
41.87524 1035.000
41.89519 990.000
41.91514 854.000
41.93509 839.000
41.95503 751.000
41.97498 657.000
41.99493 570.000
42.01487 547.000
42.03482 466.000
42.05477 396.000
42.07471 370.000
42.09466 361.000
42.11461 358.000
42.13456 370.000
42.15450 340.000
42.17445 353.000
42.19440 336.000
42.21434 334.000
42.23429 318.000
42.25424 311.000
42.27418 271.000
42.29413 324.000
42.31408 293.000
42.33403 310.000
42.35397 319.000
42.37392 359.000
42.39387 295.000
42.41381 317.000
42.43376 340.000
42.45371 299.000
42.47365 288.000
42.49360 279.000
42.51355 295.000
42.53349 294.000
42.55344 240.000
42.57339 279.000
42.59334 261.000
42.61328 245.000
42.63323 274.000
42.65318 282.000
42.67312 259.000
42.69307 266.000
42.71302 266.000
42.73296 228.000
42.75291 262.000
42.77286 258.000
42.79281 267.000
42.81275 227.000
42.83270 276.000
42.85265 280.000
42.87259 254.000
42.89254 261.000
42.91249 240.000
42.93243 255.000
42.95238 276.000
42.97233 258.000
42.99227 243.000
43.01222 255.000
43.03217 264.000
43.05212 277.000
43.07206 225.000
43.09201 288.000
43.11196 251.000
43.13190 293.000
43.15185 283.000
43.17180 284.000
43.19174 295.000
43.21169 284.000
43.23164 293.000
43.25159 312.000
43.27153 320.000
43.29148 332.000
43.31143 328.000
43.33137 311.000
43.35132 354.000
43.37127 399.000
43.39121 351.000
43.41116 446.000
43.43111 492.000
43.45105 497.000
43.47100 489.000
43.49095 533.000
43.51090 515.000
43.53084 542.000
43.55079 518.000
43.57074 485.000
43.59068 464.000
43.61063 412.000
43.63058 421.000
43.65052 390.000
43.67047 375.000
43.69042 337.000
43.71037 327.000
43.73031 301.000
43.75026 276.000
43.77021 266.000
43.79015 249.000
43.81010 287.000
43.83005 284.000
43.84999 235.000
43.86994 250.000
43.88989 264.000
43.90984 254.000
43.92978 239.000
43.94973 257.000
43.96968 296.000
43.98962 248.000
44.00957 262.000
44.02952 280.000
44.04946 258.000
44.06941 243.000
44.08936 281.000
44.10930 243.000
44.12925 275.000
44.14920 244.000
44.16915 256.000
44.18909 269.000
44.20904 262.000
44.22899 289.000
44.24893 247.000
44.26888 258.000
44.28883 237.000
44.30877 276.000
44.32872 284.000
44.34867 264.000
44.36862 289.000
44.38856 254.000
44.40851 306.000
44.42846 299.000
44.44840 316.000
44.46835 296.000
44.48830 282.000
44.50824 287.000
44.52819 289.000
44.54814 325.000
44.56808 316.000
44.58803 273.000
44.60798 300.000
44.62793 299.000
44.64787 318.000
44.66782 292.000
44.68777 289.000
44.70771 317.000
44.72766 308.000
44.74761 302.000
44.76755 278.000
44.78750 284.000
44.80745 298.000
44.82740 313.000
44.84734 273.000
44.86729 304.000
44.88724 255.000
44.90718 315.000
44.92713 281.000
44.94708 277.000
44.96702 288.000
44.98697 318.000
45.00692 299.000
45.02686 324.000
45.04681 297.000
45.06676 334.000
45.08671 326.000
45.10665 333.000
45.12660 346.000
45.14655 349.000
45.16649 338.000
45.18644 288.000
45.20639 348.000
45.22633 324.000
45.24628 347.000
45.26623 338.000
45.28618 320.000
45.30612 344.000
45.32607 315.000
45.34602 327.000
45.36596 346.000
45.38591 340.000
45.40586 319.000
45.42580 327.000
45.44575 305.000
45.46570 332.000
45.48565 317.000
45.50559 306.000
45.52554 320.000
45.54549 287.000
45.56543 301.000
45.58538 275.000
45.60533 278.000
45.62527 280.000
45.64522 244.000
45.66517 266.000
45.68511 295.000
45.70506 246.000
45.72501 238.000
45.74496 255.000
45.76490 255.000
45.78485 247.000
45.80480 241.000
45.82474 267.000
45.84469 256.000
45.86464 236.000
45.88458 259.000
45.90453 237.000
45.92448 241.000
45.94443 262.000
45.96437 240.000
45.98432 256.000
46.00427 243.000
46.02421 234.000
46.04416 227.000
46.06411 231.000
46.08405 278.000
46.10400 229.000
46.12395 249.000
46.14389 241.000
46.16384 238.000
46.18379 232.000
46.20374 263.000
46.22368 246.000
46.24363 265.000
46.26358 262.000
46.28352 255.000
46.30347 253.000
46.32342 266.000
46.34336 252.000
46.36331 250.000
46.38326 254.000
46.40321 247.000
46.42315 267.000
46.44310 248.000
46.46305 255.000
46.48299 273.000
46.50294 244.000
46.52289 248.000
46.54283 222.000
46.56278 215.000
46.58273 265.000
46.60267 245.000
46.62262 226.000
46.64257 253.000
46.66252 237.000
46.68246 261.000
46.70241 229.000
46.72236 217.000
46.74230 262.000
46.76225 235.000
46.78220 254.000
46.80214 230.000
46.82209 211.000
46.84204 258.000
46.86199 226.000
46.88193 229.000
46.90188 249.000
46.92183 224.000
46.94177 256.000
46.96172 223.000
46.98167 238.000
47.00161 262.000
47.02156 245.000
47.04151 220.000
47.06146 225.000
47.08140 207.000
47.10135 220.000
47.12130 244.000
47.14124 246.000
47.16119 229.000
47.18114 221.000
47.20108 237.000
47.22103 215.000
47.24098 224.000
47.26092 219.000
47.28087 226.000
47.30082 246.000
47.32077 248.000
47.34071 228.000
47.36066 238.000
47.38061 256.000
47.40055 243.000
47.42050 236.000
47.44045 222.000
47.46039 220.000
47.48034 265.000
47.50029 231.000
47.52024 230.000
47.54018 248.000
47.56013 268.000
47.58008 230.000
47.60002 224.000
47.61997 233.000
47.63992 242.000
47.65986 243.000
47.67981 221.000
47.69976 255.000
47.71970 206.000
47.73965 238.000
47.75960 281.000
47.77955 227.000
47.79949 250.000
47.81944 240.000
47.83939 250.000
47.85933 260.000
47.87928 240.000
47.89923 239.000
47.91917 234.000
47.93912 216.000
47.95907 274.000
47.97902 219.000
47.99896 265.000
48.01891 290.000
48.03886 273.000
48.05880 279.000
48.07875 265.000
48.09870 271.000
48.11864 285.000
48.13859 281.000
48.15854 282.000
48.17848 285.000
48.19843 262.000
48.21838 296.000
48.23833 294.000
48.25827 280.000
48.27822 286.000
48.29817 260.000
48.31811 282.000
48.33806 267.000
48.35801 301.000
48.37795 292.000
48.39790 267.000
48.41785 281.000
48.43780 280.000
48.45774 293.000
48.47769 328.000
48.49764 319.000
48.51758 310.000
48.53753 332.000
48.55748 340.000
48.57742 364.000
48.59737 409.000
48.61732 399.000
48.63726 508.000
48.65721 513.000
48.67716 566.000
48.69711 717.000
48.71705 799.000
48.73700 939.000
48.75695 1163.000
48.77689 1268.000
48.79684 1388.000
48.81679 1358.000
48.83673 1274.000
48.85668 1233.000
48.87663 1149.000
48.89658 1059.000
48.91652 1083.000
48.93647 951.000
48.95642 845.000
48.97636 759.000
48.99631 648.000
49.01626 574.000
49.03620 511.000
49.05615 486.000
49.07610 431.000
49.09605 388.000
49.11599 359.000
49.13594 315.000
49.15589 317.000
49.17583 325.000
49.19578 298.000
49.21573 287.000
49.23567 265.000
49.25562 304.000
49.27557 266.000
49.29551 280.000
49.31546 270.000
49.33541 241.000
49.35536 252.000
49.37530 230.000
49.39525 242.000
49.41520 269.000
49.43514 260.000
49.45509 286.000
49.47504 261.000
49.49498 281.000
49.51493 289.000
49.53488 252.000
49.55483 271.000
49.57477 272.000
49.59472 286.000
49.61467 242.000
49.63461 253.000
49.65456 243.000
49.67451 252.000
49.69445 267.000
49.71440 258.000
49.73435 225.000
49.75429 269.000
49.77424 255.000
49.79419 255.000
49.81414 229.000
49.83408 247.000
49.85403 247.000
49.87398 234.000
49.89392 236.000
49.91387 259.000
49.93382 253.000
49.95376 226.000
49.97371 237.000
49.99366 248.000
50.01361 238.000
50.03355 237.000
50.05350 246.000
50.07345 219.000
50.09339 215.000
50.11334 234.000
50.13329 238.000
50.15323 242.000
50.17318 232.000
50.19313 227.000
50.21307 227.000
50.23302 240.000
50.25297 224.000
50.27292 245.000
50.29286 235.000
50.31281 229.000
50.33276 234.000
50.35270 233.000
50.37265 244.000
50.39260 234.000
50.41254 239.000
50.43249 238.000
50.45244 228.000
50.47239 266.000
50.49233 250.000
50.51228 211.000
50.53223 215.000
50.55217 232.000
50.57212 250.000
50.59207 221.000
50.61201 259.000
50.63196 232.000
50.65191 222.000
50.67186 206.000
50.69180 232.000
50.71175 243.000
50.73170 236.000
50.75164 242.000
50.77159 243.000
50.79154 210.000
50.81148 232.000
50.83143 240.000
50.85138 245.000
50.87132 250.000
50.89127 207.000
50.91122 200.000
50.93117 210.000
50.95111 236.000
50.97106 228.000
50.99101 232.000
51.01095 241.000
51.03090 238.000
51.05085 243.000
51.07079 241.000
51.09074 219.000
51.11069 222.000
51.13064 241.000
51.15058 241.000
51.17053 219.000
51.19048 248.000
51.21042 240.000
51.23037 242.000
51.25032 247.000
51.27026 235.000
51.29021 241.000
51.31016 257.000
51.33010 247.000
51.35005 253.000
51.37000 237.000
51.38995 251.000
51.40989 249.000
51.42984 249.000
51.44979 274.000
51.46973 264.000
51.48968 210.000
51.50963 238.000
51.52957 229.000
51.54952 232.000
51.56947 234.000
51.58942 212.000
51.60936 291.000
51.62931 236.000
51.64926 238.000
51.66920 271.000
51.68915 238.000
51.70910 198.000
51.72904 235.000
51.74899 245.000
51.76894 218.000
51.78888 247.000
51.80883 212.000
51.82878 257.000
51.84873 254.000
51.86867 222.000
51.88862 242.000
51.90857 245.000
51.92851 257.000
51.94846 277.000
51.96841 222.000
51.98835 259.000
52.00830 268.000
52.02825 255.000
52.04820 270.000
52.06814 250.000
52.08809 293.000
52.10804 296.000
52.12798 299.000
52.14793 272.000
52.16788 274.000
52.18782 303.000
52.20777 271.000
52.22772 319.000
52.24767 289.000
52.26761 291.000
52.28756 279.000
52.30751 306.000
52.32745 280.000
52.34740 263.000
52.36735 246.000
52.38729 284.000
52.40724 289.000
52.42719 256.000
52.44713 246.000
52.46708 247.000
52.48703 274.000
52.50698 289.000
52.52692 273.000
52.54687 286.000
52.56682 265.000
52.58676 270.000
52.60671 230.000
52.62666 226.000
52.64660 271.000
52.66655 264.000
52.68650 266.000
52.70645 290.000
52.72639 294.000
52.74634 268.000
52.76629 243.000
52.78623 272.000
52.80618 267.000
52.82613 295.000
52.84607 299.000
52.86602 291.000
52.88597 298.000
52.90591 286.000
52.92586 299.000
52.94581 297.000
52.96576 273.000
52.98570 307.000
53.00565 283.000
53.02560 275.000
53.04554 274.000
53.06549 289.000
53.08544 328.000
53.10538 340.000
53.12533 347.000
53.14528 358.000
53.16523 359.000
53.18517 358.000
53.20512 375.000
53.22507 359.000
53.24501 396.000
53.26496 333.000
53.28491 381.000
53.30485 383.000
53.32480 375.000
53.34475 372.000
53.36469 382.000
53.38464 385.000
53.40459 361.000
53.42454 369.000
53.44448 360.000
53.46443 362.000
53.48438 385.000
53.50432 367.000
53.52427 354.000
53.54422 333.000
53.56416 326.000
53.58411 311.000
53.60406 327.000
53.62401 300.000
53.64395 355.000
53.66390 280.000
53.68385 276.000
53.70379 283.000
53.72374 267.000
53.74369 300.000
53.76363 292.000
53.78358 254.000
53.80353 300.000
53.82348 253.000
53.84342 260.000
53.86337 268.000
53.88332 243.000
53.90326 245.000
53.92321 271.000
53.94316 263.000
53.96310 244.000
53.98305 244.000
54.00300 229.000
54.02294 216.000
54.04289 264.000
54.06284 243.000
54.08279 245.000
54.10273 248.000
54.12268 261.000
54.14263 258.000
54.16257 229.000
54.18252 221.000
54.20247 227.000
54.22241 227.000
54.24236 249.000
54.26231 239.000
54.28226 263.000
54.30220 250.000
54.32215 265.000
54.34210 222.000
54.36204 238.000
54.38199 209.000
54.40194 242.000
54.42188 237.000
54.44183 233.000
54.46178 249.000
54.48172 205.000
54.50167 211.000
54.52162 224.000
54.54157 254.000
54.56151 234.000
54.58146 244.000
54.60141 238.000
54.62135 253.000
54.64130 227.000
54.66125 240.000
54.68119 264.000
54.70114 255.000
54.72109 235.000
54.74104 239.000
54.76098 223.000
54.78093 203.000
54.80088 241.000
54.82082 244.000
54.84077 214.000
54.86072 258.000
54.88066 222.000
54.90061 218.000
54.92056 251.000
54.94050 248.000
54.96045 237.000
54.98040 258.000
55.00035 222.000
55.02029 258.000
55.04024 232.000
55.06019 229.000
55.08013 231.000
55.10008 229.000
55.12003 207.000
55.13997 268.000
55.15992 232.000
55.17987 246.000
55.19982 246.000
55.21976 205.000
55.23971 221.000
55.25966 255.000
55.27960 224.000
55.29955 227.000
55.31950 259.000
55.33944 247.000
55.35939 218.000
55.37934 203.000
55.39929 212.000
55.41923 240.000
55.43918 216.000
55.45913 248.000
55.47907 229.000
55.49902 244.000
55.51897 258.000
55.53891 224.000
55.55886 250.000
55.57881 257.000
55.59875 236.000
55.61870 248.000
55.63865 239.000
55.65860 219.000
55.67854 239.000
55.69849 221.000
55.71844 248.000
55.73838 245.000
55.75833 252.000
55.77828 240.000
55.79822 206.000
55.81817 222.000
55.83812 225.000
55.85807 236.000
55.87801 222.000
55.89796 244.000
55.91791 240.000
55.93785 202.000
55.95780 238.000
55.97775 215.000
55.99769 258.000
56.01764 238.000
56.03759 202.000
56.05753 234.000
56.07748 234.000
56.09743 260.000
56.11738 226.000
56.13732 220.000
56.15727 245.000
56.17722 240.000
56.19716 259.000
56.21711 257.000
56.23706 239.000
56.25700 237.000
56.27695 204.000
56.29690 231.000
56.31685 272.000
56.33679 241.000
56.35674 263.000
56.37669 220.000
56.39663 224.000
56.41658 248.000
56.43653 261.000
56.45647 252.000
56.47642 265.000
56.49637 234.000
56.51631 230.000
56.53626 242.000
56.55621 257.000
56.57616 245.000
56.59610 281.000
56.61605 263.000
56.63600 277.000
56.65594 277.000
56.67589 264.000
56.69584 248.000
56.71578 272.000
56.73573 233.000
56.75568 271.000
56.77563 230.000
56.79557 245.000
56.81552 266.000
56.83547 258.000
56.85541 249.000
56.87536 264.000
56.89531 253.000
56.91525 239.000
56.93520 244.000
56.95515 241.000
56.97510 245.000
56.99504 248.000
57.01499 259.000
57.03494 242.000
57.05488 233.000
57.07483 293.000
57.09478 228.000
57.11472 267.000
57.13467 254.000
57.15462 251.000
57.17456 247.000
57.19451 262.000
57.21446 245.000
57.23441 266.000
57.25435 289.000
57.27430 258.000
57.29425 275.000
57.31419 244.000
57.33414 262.000
57.35409 272.000
57.37403 275.000
57.39398 240.000
57.41393 303.000
57.43388 261.000
57.45382 236.000
57.47377 267.000
57.49372 288.000
57.51366 283.000
57.53361 300.000
57.55356 249.000
57.57350 295.000
57.59345 317.000
57.61340 305.000
57.63334 314.000
57.65329 304.000
57.67324 325.000
57.69319 358.000
57.71313 342.000
57.73308 339.000
57.75303 352.000
57.77297 356.000
57.79292 390.000
57.81287 364.000
57.83281 389.000
57.85276 374.000
57.87271 350.000
57.89266 367.000
57.91260 333.000
57.93255 336.000
57.95250 362.000
57.97244 355.000
57.99239 316.000
58.01234 323.000
58.03228 325.000
58.05223 314.000
58.07218 292.000
58.09212 324.000
58.11207 309.000
58.13202 324.000
58.15197 340.000
58.17191 300.000
58.19186 285.000
58.21181 344.000
58.23175 319.000
58.25170 377.000
58.27165 376.000
58.29159 384.000
58.31154 442.000
58.33149 388.000
58.35144 422.000
58.37138 364.000
58.39133 397.000
58.41128 350.000
58.43122 360.000
58.45117 388.000
58.47112 329.000
58.49106 325.000
58.51101 311.000
58.53096 307.000
58.55090 258.000
58.57085 269.000
58.59080 280.000
58.61075 285.000
58.63069 267.000
58.65064 235.000
58.67059 244.000
58.69053 257.000
58.71048 242.000
58.73043 254.000
58.75037 259.000
58.77032 226.000
58.79027 236.000
58.81022 255.000
58.83016 247.000
58.85011 231.000
58.87006 230.000
58.89000 245.000
58.90995 252.000
58.92990 232.000
58.94984 244.000
58.96979 220.000
58.98974 221.000
59.00969 243.000
59.02963 253.000
59.04958 239.000
59.06953 238.000
59.08947 219.000
59.10942 249.000
59.12937 221.000
59.14931 244.000
59.16926 232.000
59.18921 254.000
59.20915 255.000
59.22910 240.000
59.24905 267.000
59.26900 222.000
59.28894 250.000
59.30889 242.000
59.32884 248.000
59.34878 250.000
59.36873 222.000
59.38868 240.000
59.40862 234.000
59.42857 226.000
59.44852 234.000
59.46847 236.000
59.48841 257.000
59.50836 230.000
59.52831 268.000
59.54825 227.000
59.56820 224.000
59.58815 218.000
59.60809 194.000
59.62804 259.000
59.64799 227.000
59.66793 252.000
59.68788 233.000
59.70783 239.000
59.72778 256.000
59.74772 229.000
59.76767 230.000
59.78762 220.000
59.80756 238.000
59.82751 215.000
59.84746 215.000
59.86740 256.000
59.88735 212.000
59.90730 277.000
59.92725 228.000
59.94719 255.000
59.96714 234.000
59.98709 221.000
60.00703 222.000
60.02698 241.000
60.04693 215.000
60.06687 256.000
60.08682 227.000
60.10677 232.000
60.12671 277.000
60.14666 258.000
60.16661 246.000
60.18656 264.000
60.20650 243.000
60.22645 222.000
60.24640 237.000
60.26634 250.000
60.28629 210.000
60.30624 253.000
60.32618 280.000
60.34613 257.000
60.36608 250.000
60.38603 228.000
60.40597 221.000
60.42592 216.000
60.44587 256.000
60.46581 233.000
60.48576 224.000
60.50571 245.000
60.52565 225.000
60.54560 220.000
60.56555 256.000
60.58550 264.000
60.60544 246.000
60.62539 239.000
60.64534 247.000
60.66528 230.000
60.68523 238.000
60.70518 223.000
60.72512 225.000
60.74507 228.000
60.76502 251.000
60.78496 210.000
60.80491 215.000
60.82486 239.000
60.84481 252.000
60.86475 246.000
60.88470 235.000
60.90465 236.000
60.92459 233.000
60.94454 259.000
60.96449 227.000
60.98443 253.000
61.00438 237.000
61.02433 247.000
61.04428 242.000
61.06422 242.000
61.08417 259.000
61.10412 232.000
61.12406 235.000
61.14401 238.000
61.16396 221.000
61.18390 260.000
61.20385 263.000
61.22380 236.000
61.24374 251.000
61.26369 261.000
61.28364 238.000
61.30359 238.000
61.32353 270.000
61.34348 276.000
61.36343 295.000
61.38337 257.000
61.40332 291.000
61.42327 285.000
61.44321 291.000
61.46316 315.000
61.48311 351.000
61.50306 399.000
61.52300 410.000
61.54295 485.000
61.56290 514.000
61.58284 499.000
61.60279 527.000
61.62274 468.000
61.64268 435.000
61.66263 429.000
61.68258 403.000
61.70252 479.000
61.72247 447.000
61.74242 444.000
61.76237 416.000
61.78231 469.000
61.80226 398.000
61.82221 414.000
61.84215 361.000
61.86210 373.000
61.88205 366.000
61.90199 398.000
61.92194 403.000
61.94189 438.000
61.96184 432.000
61.98178 520.000
62.00173 452.000
62.02168 442.000
62.04162 491.000
62.06157 474.000
62.08152 508.000
62.10146 475.000
62.12141 519.000
62.14136 479.000
62.16131 418.000
62.18125 435.000
62.20120 426.000
62.22115 459.000
62.24109 409.000
62.26104 383.000
62.28099 395.000
62.30093 390.000
62.32088 349.000
62.34083 316.000
62.36077 320.000
62.38072 325.000
62.40067 300.000
62.42062 273.000
62.44056 275.000
62.46051 268.000
62.48046 300.000
62.50040 283.000
62.52035 292.000
62.54030 297.000
62.56024 271.000
62.58019 259.000
62.60014 282.000
62.62009 274.000
62.64003 271.000
62.65998 277.000
62.67993 245.000
62.69987 252.000
62.71982 272.000
62.73977 264.000
62.75971 255.000
62.77966 251.000
62.79961 258.000
62.81955 254.000
62.83950 241.000
62.85945 278.000
62.87940 246.000
62.89934 264.000
62.91929 248.000
62.93924 276.000
62.95918 264.000
62.97913 309.000
62.99908 278.000
63.01902 235.000
63.03897 256.000
63.05892 266.000
63.07887 258.000
63.09881 275.000
63.11876 290.000
63.13871 276.000
63.15865 271.000
63.17860 283.000
63.19855 290.000
63.21849 286.000
63.23844 266.000
63.25839 270.000
63.27833 310.000
63.29828 290.000
63.31823 285.000
63.33818 269.000
63.35812 349.000
63.37807 341.000
63.39802 323.000
63.41796 346.000
63.43791 316.000
63.45786 354.000
63.47780 340.000
63.49775 371.000
63.51770 355.000
63.53765 396.000
63.55759 390.000
63.57754 337.000
63.59749 334.000
63.61743 327.000
63.63738 329.000
63.65733 350.000
63.67727 328.000
63.69722 353.000
63.71717 318.000
63.73712 300.000
63.75706 305.000
63.77701 363.000
63.79696 318.000
63.81690 303.000
63.83685 313.000
63.85680 324.000
63.87674 314.000
63.89669 273.000
63.91664 321.000
63.93658 309.000
63.95653 351.000
63.97648 344.000
63.99643 332.000
64.01637 335.000
64.03632 353.000
64.05627 342.000
64.07621 341.000
64.09616 364.000
64.11611 392.000
64.13605 387.000
64.15600 396.000
64.17595 392.000
64.19590 429.000
64.21584 426.000
64.23579 417.000
64.25574 420.000
64.27568 407.000
64.29563 457.000
64.31558 447.000
64.33552 453.000
64.35547 423.000
64.37542 403.000
64.39536 390.000
64.41531 363.000
64.43526 367.000
64.45521 393.000
64.47515 346.000
64.49510 355.000
64.51505 357.000
64.53499 339.000
64.55494 328.000
64.57489 300.000
64.59483 308.000
64.61478 257.000
64.63473 311.000
64.65468 266.000
64.67462 267.000
64.69457 278.000
64.71452 309.000
64.73446 246.000
64.75441 255.000
64.77436 258.000
64.79430 261.000
64.81425 245.000
64.83420 249.000
64.85414 260.000
64.87409 241.000
64.89404 249.000
64.91399 261.000
64.93393 255.000
64.95388 237.000
64.97383 247.000
64.99377 235.000
65.01372 269.000
65.03367 246.000
65.05361 246.000
65.07356 245.000
65.09351 250.000
65.11346 244.000
65.13340 268.000
65.15335 258.000
65.17330 266.000
65.19324 252.000
65.21319 275.000
65.23314 246.000
65.25308 240.000
65.27303 252.000
65.29298 269.000
65.31293 253.000
65.33287 258.000
65.35282 256.000
65.37277 284.000
65.39271 270.000
65.41266 271.000
65.43261 287.000
65.45255 271.000
65.47250 281.000
65.49245 275.000
65.51239 311.000
65.53234 294.000
65.55229 307.000
65.57224 313.000
65.59218 297.000
65.61213 357.000
65.63208 336.000
65.65202 371.000
65.67197 369.000
65.69192 376.000
65.71186 353.000
65.73181 441.000
65.75176 426.000
65.77171 468.000
65.79165 421.000
65.81160 479.000
65.83155 456.000
65.85149 418.000
65.87144 452.000
65.89139 460.000
65.91133 436.000
65.93128 420.000
65.95123 422.000
65.97117 445.000
65.99112 388.000
66.01107 405.000
66.03102 419.000
66.05096 381.000
66.07091 421.000
66.09086 385.000
66.11080 390.000
66.13075 346.000
66.15070 375.000
66.17064 374.000
66.19059 391.000
66.21054 411.000
66.23049 435.000
66.25043 433.000
66.27038 476.000
66.29033 496.000
66.31027 496.000
66.33022 488.000
66.35017 476.000
66.37011 497.000
66.39006 445.000
66.41001 451.000
66.42995 435.000
66.44990 411.000
66.46985 446.000
66.48980 465.000
66.50974 441.000
66.52969 420.000
66.54964 454.000
66.56958 424.000
66.58953 409.000
66.60948 395.000
66.62942 433.000
66.64937 433.000
66.66932 386.000
66.68927 407.000
66.70921 403.000
66.72916 372.000
66.74911 393.000
66.76905 383.000
66.78900 380.000
66.80895 400.000
66.82889 415.000
66.84884 375.000
66.86879 343.000
66.88874 394.000
66.90868 362.000
66.92863 387.000
66.94858 368.000
66.96852 357.000
66.98847 370.000
67.00842 399.000
67.02836 360.000
67.04831 334.000
67.06826 352.000
67.08820 336.000
67.10815 290.000
67.12810 336.000
67.14805 315.000
67.16799 320.000
67.18794 349.000
67.20789 326.000
67.22783 294.000
67.24778 325.000
67.26773 308.000
67.28767 304.000
67.30762 334.000
67.32757 292.000
67.34752 273.000
67.36746 257.000
67.38741 274.000
67.40736 277.000
67.42730 265.000
67.44725 292.000
67.46720 312.000
67.48714 305.000
67.50709 269.000
67.52704 258.000
67.54698 272.000
67.56693 239.000
67.58688 286.000
67.60683 285.000
67.62677 275.000
67.64672 285.000
67.66667 267.000
67.68661 276.000
67.70656 259.000
67.72651 259.000
67.74645 314.000
67.76640 280.000
67.78635 312.000
67.80630 303.000
67.82624 334.000
67.84619 345.000
67.86614 335.000
67.88608 366.000
67.90603 370.000
67.92598 403.000
67.94592 402.000
67.96587 419.000
67.98582 417.000
68.00576 450.000
68.02571 408.000
68.04566 445.000
68.06561 461.000
68.08555 464.000
68.10550 469.000
68.12545 477.000
68.14539 428.000
68.16534 449.000
68.18529 411.000
68.20523 432.000
68.22518 407.000
68.24513 377.000
68.26508 354.000
68.28502 367.000
68.30497 372.000
68.32492 368.000
68.34486 330.000
68.36481 311.000
68.38476 293.000
68.40470 296.000
68.42465 313.000
68.44460 299.000
68.46455 293.000
68.48449 300.000
68.50444 263.000
68.52439 281.000
68.54433 227.000
68.56428 247.000
68.58423 257.000
68.60417 238.000
68.62412 268.000
68.64407 278.000
68.66401 249.000
68.68396 273.000
68.70391 254.000
68.72386 295.000
68.74380 248.000
68.76375 229.000
68.78370 252.000
68.80364 252.000
68.82359 241.000
68.84354 259.000
68.86348 258.000
68.88343 241.000
68.90338 272.000
68.92333 247.000
68.94327 260.000
68.96322 273.000
68.98317 265.000
69.00311 248.000
69.02306 258.000
69.04301 247.000
69.06295 245.000
69.08290 251.000
69.10285 240.000
69.12279 223.000
69.14274 257.000
69.16269 248.000
69.18264 252.000
69.20258 248.000
69.22253 246.000
69.24248 232.000
69.26242 234.000
69.28237 240.000
69.30232 253.000
69.32226 219.000
69.34221 209.000
69.36216 214.000
69.38211 220.000
69.40205 252.000
69.42200 240.000
69.44195 225.000
69.46189 228.000
69.48184 238.000
69.50179 248.000
69.52173 219.000
69.54168 229.000
69.56163 215.000
69.58157 219.000
69.60152 240.000
69.62147 260.000
69.64142 246.000
69.66136 250.000
69.68131 213.000
69.70126 243.000
69.72120 235.000
69.74115 257.000
69.76110 229.000
69.78104 261.000
69.80099 230.000
69.82094 241.000
69.84089 244.000
69.86083 250.000
69.88078 233.000
69.90073 230.000
69.92067 263.000
69.94062 222.000
69.96057 227.000
69.98051 194.000
70.00046 197.000
70.02041 227.000
70.04035 232.000
70.06030 204.000
70.08025 216.000
70.10020 230.000
70.12014 229.000
70.14009 219.000
70.16004 236.000
70.17998 214.000
70.19993 245.000
70.21988 241.000
70.23982 262.000
70.25977 260.000
70.27972 286.000
70.29967 209.000
70.31961 226.000
70.33956 235.000
70.35951 240.000
70.37945 238.000
70.39940 226.000
70.41935 207.000
70.43929 210.000
70.45924 247.000
70.47919 259.000
70.49914 232.000
70.51908 234.000
70.53903 248.000
70.55898 226.000
70.57892 222.000
70.59887 247.000
70.61882 223.000
70.63876 235.000
70.65871 207.000
70.67866 230.000
70.69860 248.000
70.71855 245.000
70.73850 252.000
70.75845 228.000
70.77839 204.000
70.79834 233.000
70.81829 245.000
70.83823 255.000
70.85818 233.000
70.87813 279.000
70.89807 227.000
70.91802 237.000
70.93797 250.000
70.95792 225.000
70.97786 255.000
70.99781 223.000
71.01776 244.000
71.03770 224.000
71.05765 200.000
71.07760 203.000
71.09754 209.000
71.11749 245.000
71.13744 219.000
71.15738 231.000
71.17733 226.000
71.19728 223.000
71.21723 248.000
71.23717 201.000
71.25712 252.000
71.27707 234.000
71.29701 263.000
71.31696 214.000
71.33691 242.000
71.35685 199.000
71.37680 234.000
71.39675 225.000
71.41670 215.000
71.43664 216.000
71.45659 238.000
71.47654 223.000
71.49648 218.000
71.51643 249.000
71.53638 201.000
71.55632 223.000
71.57627 220.000
71.59622 237.000
71.61616 243.000
71.63611 257.000
71.65606 228.000
71.67601 215.000
71.69595 247.000
71.71590 200.000
71.73585 230.000
71.75579 253.000
71.77574 237.000
71.79569 242.000
71.81563 252.000
71.83558 220.000
71.85553 250.000
71.87548 242.000
71.89542 259.000
71.91537 257.000
71.93532 234.000
71.95526 236.000
71.97521 246.000
71.99516 235.000
72.01510 253.000
72.03505 232.000
72.05500 231.000
72.07495 209.000
72.09489 211.000
72.11484 221.000
72.13479 259.000
72.15473 258.000
72.17468 236.000
72.19463 233.000
72.21457 269.000
72.23452 216.000
72.25447 281.000
72.27441 280.000
72.29436 269.000
72.31431 269.000
72.33426 284.000
72.35420 312.000
72.37415 326.000
72.39410 294.000
72.41404 324.000
72.43399 342.000
72.45394 312.000
72.47388 309.000
72.49383 298.000
72.51378 314.000
72.53373 282.000
72.55367 272.000
72.57362 296.000
72.59357 287.000
72.61351 312.000
72.63346 300.000
72.65341 340.000
72.67335 287.000
72.69330 284.000
72.71325 279.000
72.73319 275.000
72.75314 259.000
72.77309 280.000
72.79304 243.000
72.81298 251.000
72.83293 257.000
72.85288 264.000
72.87282 261.000
72.89277 272.000
72.91272 250.000
72.93266 243.000
72.95261 255.000
72.97256 271.000
72.99251 303.000
73.01245 287.000
73.03240 265.000
73.05235 278.000
73.07229 261.000
73.09224 315.000
73.11219 264.000
73.13213 285.000
73.15208 290.000
73.17203 298.000
73.19197 274.000
73.21192 267.000
73.23187 317.000
73.25182 277.000
73.27176 274.000
73.29171 296.000
73.31166 271.000
73.33160 282.000
73.35155 299.000
73.37150 258.000
73.39144 275.000
73.41139 284.000
73.43134 305.000
73.45129 276.000
73.47123 297.000
73.49118 290.000
73.51113 315.000
73.53107 353.000
73.55102 302.000
73.57097 317.000
73.59091 330.000
73.61086 302.000
73.63081 304.000
73.65076 330.000
73.67070 303.000
73.69065 329.000
73.71060 313.000
73.73054 328.000
73.75049 302.000
73.77044 320.000
73.79038 339.000
73.81033 309.000
73.83028 322.000
73.85022 303.000
73.87017 285.000
73.89012 268.000
73.91007 302.000
73.93001 287.000
73.94996 271.000
73.96991 273.000
73.98985 306.000
74.00980 282.000
74.02975 271.000
74.04969 271.000
74.06964 216.000
74.08959 266.000
74.10954 256.000
74.12948 265.000
74.14943 261.000
74.16938 263.000
74.18932 252.000
74.20927 242.000
74.22922 226.000
74.24916 256.000
74.26911 258.000
74.28906 219.000
74.30900 263.000
74.32895 270.000
74.34890 242.000
74.36885 254.000
74.38879 247.000
74.40874 232.000
74.42869 256.000
74.44863 239.000
74.46858 217.000
74.48853 229.000
74.50847 246.000
74.52842 257.000
74.54837 240.000
74.56832 238.000
74.58826 243.000
74.60821 226.000
74.62816 254.000
74.64810 242.000
74.66805 233.000
74.68800 264.000
74.70794 243.000
74.72789 228.000
74.74784 238.000
74.76778 244.000
74.78773 268.000
74.80768 250.000
74.82763 254.000
74.84757 248.000
74.86752 237.000
74.88747 269.000
74.90741 254.000
74.92736 264.000
74.94731 278.000
74.96725 293.000
74.98720 311.000
75.00715 321.000
75.02710 349.000
75.04704 347.000
75.06699 319.000
75.08694 302.000
75.10688 321.000
75.12683 304.000
75.14678 285.000
75.16672 302.000
75.18667 327.000
75.20662 285.000
75.22657 336.000
75.24651 354.000
75.26646 324.000
75.28641 341.000
75.30635 329.000
75.32630 320.000
75.34625 360.000
75.36619 275.000
75.38614 301.000
75.40609 282.000
75.42603 293.000
75.44598 302.000
75.46593 285.000
75.48588 267.000
75.50582 306.000
75.52577 290.000
75.54572 264.000
75.56566 288.000
75.58561 293.000
75.60556 257.000
75.62550 277.000
75.64545 276.000
75.66540 281.000
75.68535 285.000
75.70529 271.000
75.72524 262.000
75.74519 275.000
75.76513 276.000
75.78508 281.000
75.80503 295.000
75.82497 247.000
75.84492 298.000
75.86487 273.000
75.88481 273.000
75.90476 245.000
75.92471 283.000
75.94466 247.000
75.96460 245.000
75.98455 280.000
76.00450 270.000
76.02444 255.000
76.04439 267.000
76.06434 254.000
76.08428 235.000
76.10423 258.000
76.12418 223.000
76.14413 238.000
76.16407 241.000
76.18402 224.000
76.20397 244.000
76.22391 235.000
76.24386 247.000
76.26381 261.000
76.28375 233.000
76.30370 261.000
76.32365 249.000
76.34359 241.000
76.36354 240.000
76.38349 259.000
76.40344 278.000
76.42338 256.000
76.44333 226.000
76.46328 237.000
76.48322 218.000
76.50317 284.000
76.52312 236.000
76.54306 256.000
76.56301 252.000
76.58296 254.000
76.60291 260.000
76.62285 229.000
76.64280 243.000
76.66275 251.000
76.68269 237.000
76.70264 238.000
76.72259 228.000
76.74253 253.000
76.76248 246.000
76.78243 229.000
76.80238 233.000
76.82232 234.000
76.84227 270.000
76.86222 254.000
76.88216 219.000
76.90211 234.000
76.92206 252.000
76.94200 234.000
76.96195 247.000
76.98190 246.000
77.00184 244.000
77.02179 226.000
77.04174 212.000
77.06169 264.000
77.08163 231.000
77.10158 233.000
77.12153 230.000
77.14147 223.000
77.16142 231.000
77.18137 237.000
77.20131 248.000
77.22126 219.000
77.24121 222.000
77.26116 223.000
77.28110 228.000
77.30105 230.000
77.32100 240.000
77.34094 247.000
77.36089 223.000
77.38084 231.000
77.40078 252.000
77.42073 215.000
77.44068 233.000
77.46062 242.000
77.48057 249.000
77.50052 244.000
77.52047 226.000
77.54041 202.000
77.56036 244.000
77.58031 223.000
77.60025 232.000
77.62020 238.000
77.64015 244.000
77.66009 241.000
77.68004 242.000
77.69999 224.000
77.71994 235.000
77.73988 246.000
77.75983 233.000
77.77978 240.000
77.79972 254.000
77.81967 237.000
77.83962 259.000
77.85956 271.000
77.87951 269.000
77.89946 298.000
77.91940 266.000
77.93935 309.000
77.95930 300.000
77.97925 278.000
77.99919 258.000
78.01914 297.000
78.03909 267.000
78.05903 283.000
78.07898 285.000
78.09893 275.000
78.11887 301.000
78.13882 316.000
78.15877 303.000
78.17872 285.000
78.19866 284.000
78.21861 291.000
78.23856 330.000
78.25850 283.000
78.27845 325.000
78.29840 321.000
78.31834 312.000
78.33829 325.000
78.35824 336.000
78.37819 273.000
78.39813 306.000
78.41808 342.000
78.43803 315.000
78.45797 321.000
78.47792 303.000
78.49787 293.000
78.51781 271.000
78.53776 272.000
78.55771 299.000
78.57765 290.000
78.59760 279.000
78.61755 288.000
78.63750 276.000
78.65744 273.000
78.67739 295.000
78.69734 306.000
78.71728 285.000
78.73723 294.000
78.75718 276.000
78.77712 297.000
78.79707 285.000
78.81702 257.000
78.83697 261.000
78.85691 244.000
78.87686 291.000
78.89681 246.000
78.91675 278.000
78.93670 271.000
78.95665 265.000
78.97659 287.000
78.99654 245.000
79.01649 251.000
79.03643 229.000
79.05638 259.000
79.07633 270.000
79.09628 239.000
79.11622 244.000
79.13617 232.000
79.15612 258.000
79.17606 233.000
79.19601 239.000
79.21596 255.000
79.23590 237.000
79.25585 291.000
79.27580 248.000
79.29575 269.000
79.31569 247.000
79.33564 266.000
79.35559 244.000
79.37553 257.000
79.39548 258.000
79.41543 214.000
79.43537 251.000
79.45532 245.000
79.47527 239.000
79.49521 238.000
79.51516 238.000
79.53511 254.000
79.55506 244.000
79.57500 256.000
79.59495 236.000
79.61490 213.000
79.63484 260.000
79.65479 229.000
79.67474 259.000
79.69468 233.000
79.71463 258.000
79.73458 257.000
79.75453 229.000
79.77447 248.000
79.79442 239.000
79.81437 241.000
79.83431 249.000
79.85426 260.000
79.87421 232.000
79.89415 241.000
79.91410 225.000
79.93405 241.000
79.95399 252.000
79.97394 217.000
79.99389 245.000
80.01384 239.000
80.03378 248.000
80.05373 230.000
80.07368 237.000
80.09362 247.000
80.11357 243.000
80.13352 256.000
80.15346 224.000
80.17341 248.000
80.19336 251.000
80.21331 278.000
80.23325 244.000
80.25320 259.000
80.27315 268.000
80.29309 255.000
80.31304 255.000
80.33299 220.000
80.35293 241.000
80.37288 259.000
80.39283 251.000
80.41278 228.000
80.43272 246.000
80.45267 247.000
80.47262 236.000
80.49256 225.000
80.51251 222.000
80.53246 244.000
80.55240 240.000
80.57235 247.000
80.59230 215.000
80.61224 249.000
80.63219 216.000
80.65214 198.000
80.67209 244.000
80.69203 242.000
80.71198 245.000
80.73193 237.000
80.75187 234.000
80.77182 241.000
80.79177 249.000
80.81171 267.000
80.83166 259.000
80.85161 206.000
80.87156 241.000
80.89150 258.000
80.91145 241.000
80.93140 267.000
80.95134 249.000
80.97129 242.000
80.99124 234.000
81.01118 227.000
81.03113 239.000
81.05108 250.000
81.07102 254.000
81.09097 264.000
81.11092 235.000
81.13087 262.000
81.15081 249.000
81.17076 254.000
81.19071 265.000
81.21065 253.000
81.23060 247.000
81.25055 246.000
81.27049 234.000
81.29044 210.000
81.31039 246.000
81.33034 231.000
81.35028 236.000
81.37023 256.000
81.39018 229.000
81.41012 257.000
81.43007 256.000
81.45002 233.000
81.46996 219.000
81.48991 238.000
81.50986 238.000
81.52980 247.000
81.54975 187.000
81.56970 268.000
81.58965 225.000
81.60959 246.000
81.62954 256.000
81.64949 239.000
81.66943 246.000
81.68938 247.000
81.70933 264.000
81.72927 225.000
81.74922 223.000
81.76917 233.000
81.78912 245.000
81.80906 223.000
81.82901 244.000
81.84896 230.000
81.86890 221.000
81.88885 216.000
81.90880 242.000
81.92874 230.000
81.94869 221.000
81.96864 227.000
81.98859 250.000
82.00853 236.000
82.02848 226.000
82.04843 241.000
82.06837 245.000
82.08832 226.000
82.10827 227.000
82.12821 227.000
82.14816 225.000
82.16811 253.000
82.18805 199.000
82.20800 297.000
82.22795 253.000
82.24790 242.000
82.26784 237.000
82.28779 253.000
82.30774 218.000
82.32768 256.000
82.34763 269.000
82.36758 261.000
82.38752 256.000
82.40747 279.000
82.42742 282.000
82.44737 264.000
82.46731 261.000
82.48726 291.000
82.50721 316.000
82.52715 286.000
82.54710 250.000
82.56705 253.000
82.58699 274.000
82.60694 271.000
82.62689 271.000
82.64683 260.000
82.66678 286.000
82.68673 261.000
82.70668 259.000
82.72662 237.000
82.74657 248.000
82.76652 277.000
82.78646 268.000
82.80641 228.000
82.82636 253.000
82.84630 261.000
82.86625 291.000
82.88620 233.000
82.90615 258.000
82.92609 274.000
82.94604 261.000
82.96599 270.000
82.98593 268.000
83.00588 277.000
83.02583 225.000
83.04577 268.000
83.06572 278.000
83.08567 237.000
83.10561 277.000
83.12556 283.000
83.14551 280.000
83.16546 235.000
83.18540 273.000
83.20535 268.000
83.22530 276.000
83.24524 239.000
83.26519 256.000
83.28514 285.000
83.30508 239.000
83.32503 253.000
83.34498 237.000
83.36493 268.000
83.38487 238.000
83.40482 259.000
83.42477 215.000
83.44471 227.000
83.46466 257.000
83.48461 285.000
83.50455 268.000
83.52450 282.000
83.54445 243.000
83.56440 284.000
83.58434 261.000
83.60429 244.000
83.62424 242.000
83.64418 281.000
83.66413 282.000
83.68408 260.000
83.70402 244.000
83.72397 237.000
83.74392 259.000
83.76386 275.000
83.78381 269.000
83.80376 251.000
83.82371 256.000
83.84365 262.000
83.86360 266.000
83.88355 254.000
83.90349 251.000
83.92344 269.000
83.94339 248.000
83.96333 284.000
83.98328 232.000
84.00323 248.000
84.02318 262.000
84.04312 222.000
84.06307 216.000
84.08302 270.000
84.10296 241.000
84.12291 242.000
84.14286 242.000
84.16280 249.000
84.18275 244.000
84.20270 276.000
84.22264 256.000
84.24259 252.000
84.26254 242.000
84.28249 234.000
84.30243 259.000
84.32238 238.000
84.34233 250.000
84.36227 263.000
84.38222 263.000
84.40217 280.000
84.42211 255.000
84.44206 276.000
84.46201 267.000
84.48196 259.000
84.50190 267.000
84.52185 288.000
84.54180 319.000
84.56174 290.000
84.58169 284.000
84.60164 269.000
84.62158 286.000
84.64153 273.000
84.66148 295.000
84.68142 273.000
84.70137 294.000
84.72132 265.000
84.74127 310.000
84.76121 271.000
84.78116 296.000
84.80111 260.000
84.82105 264.000
84.84100 277.000
84.86095 264.000
84.88089 272.000
84.90084 280.000
84.92079 300.000
84.94074 277.000
84.96068 242.000
84.98063 279.000
85.00058 285.000
85.02052 281.000
85.04047 255.000
85.06042 247.000
85.08036 252.000
85.10031 247.000
85.12026 263.000
85.14021 236.000
85.16015 203.000
85.18010 276.000
85.20005 224.000
85.21999 260.000
85.23994 219.000
85.25989 240.000
85.27983 245.000
85.29978 227.000
85.31973 235.000
85.33967 240.000
85.35962 226.000
85.37957 254.000
85.39952 286.000
85.41946 270.000
85.43941 243.000
85.45936 230.000
85.47930 266.000
85.49925 229.000
85.51920 220.000
85.53914 210.000
85.55909 226.000
85.57904 234.000
85.59899 228.000
85.61893 245.000
85.63888 200.000
85.65883 261.000
85.67877 226.000
85.69872 235.000
85.71867 216.000
85.73861 261.000
85.75856 243.000
85.77851 245.000
85.79845 229.000
85.81840 224.000
85.83835 259.000
85.85830 206.000
85.87824 246.000
85.89819 225.000
85.91814 234.000
85.93808 234.000
85.95803 219.000
85.97798 214.000
85.99792 238.000
86.01787 248.000
86.03782 223.000
86.05777 227.000
86.07771 242.000
86.09766 236.000
86.11761 228.000
86.13755 232.000
86.15750 227.000
86.17745 209.000
86.19739 220.000
86.21734 232.000
86.23729 238.000
86.25723 227.000
86.27718 208.000
86.29713 224.000
86.31708 229.000
86.33702 255.000
86.35697 221.000
86.37692 234.000
86.39686 251.000
86.41681 267.000
86.43676 245.000
86.45670 246.000
86.47665 244.000
86.49660 248.000
86.51655 248.000
86.53649 237.000
86.55644 265.000
86.57639 262.000
86.59633 258.000
86.61628 252.000
86.63623 287.000
86.65617 252.000
86.67612 249.000
86.69607 245.000
86.71602 235.000
86.73596 241.000
86.75591 248.000
86.77586 293.000
86.79580 241.000
86.81575 257.000
86.83570 244.000
86.85564 266.000
86.87559 266.000
86.89554 249.000
86.91548 247.000
86.93543 255.000
86.95538 243.000
86.97533 262.000
86.99527 221.000
87.01522 261.000
87.03517 283.000
87.05511 226.000
87.07506 283.000
87.09501 291.000
87.11495 285.000
87.13490 283.000
87.15485 293.000
87.17480 269.000
87.19474 283.000
87.21469 287.000
87.23464 319.000
87.25458 252.000
87.27453 266.000
87.29448 269.000
87.31442 303.000
87.33437 274.000
87.35432 265.000
87.37426 270.000
87.39421 283.000
87.41416 255.000
87.43411 290.000
87.45405 286.000
87.47400 256.000
87.49395 245.000
87.51389 250.000
87.53384 231.000
87.55379 275.000
87.57373 279.000
87.59368 278.000
87.61363 289.000
87.63358 246.000
87.65352 228.000
87.67347 247.000
87.69342 215.000
87.71336 266.000
87.73331 261.000
87.75326 249.000
87.77320 229.000
87.79315 251.000
87.81310 262.000
87.83304 271.000
87.85299 232.000
87.87294 247.000
87.89289 242.000
87.91283 258.000
87.93278 265.000
87.95273 265.000
87.97267 212.000
87.99262 267.000
88.01257 264.000
88.03251 238.000
88.05246 204.000
88.07241 247.000
88.09236 252.000
88.11230 230.000
88.13225 240.000
88.15220 248.000
88.17214 232.000
88.19209 227.000
88.21204 226.000
88.23198 247.000
88.25193 263.000
88.27188 229.000
88.29183 233.000
88.31177 260.000
88.33172 245.000
88.35167 248.000
88.37161 236.000
88.39156 242.000
88.41151 255.000
88.43145 246.000
88.45140 249.000
88.47135 263.000
88.49129 233.000
88.51124 259.000
88.53119 218.000
88.55114 229.000
88.57108 228.000
88.59103 242.000
88.61098 251.000
88.63092 231.000
88.65087 248.000
88.67082 225.000
88.69076 249.000
88.71071 238.000
88.73066 230.000
88.75061 261.000
88.77055 235.000
88.79050 224.000
88.81045 249.000
88.83039 227.000
88.85034 224.000
88.87029 237.000
88.89023 225.000
88.91018 241.000
88.93013 233.000
88.95007 226.000
88.97002 260.000
88.98997 245.000
89.00992 219.000
89.02986 214.000
89.04981 233.000
89.06976 241.000
89.08970 254.000
89.10965 234.000
89.12960 263.000
89.14954 230.000
89.16949 229.000
89.18944 231.000
89.20939 235.000
89.22933 231.000
89.24928 235.000
89.26923 223.000
89.28917 259.000
89.30912 230.000
89.32907 245.000
89.34901 218.000
89.36896 255.000
89.38891 255.000
89.40885 239.000
89.42880 239.000
89.44875 233.000
89.46870 244.000
89.48864 248.000
89.50859 242.000
89.52854 273.000
89.54848 245.000
89.56843 220.000
89.58838 290.000
89.60832 233.000
89.62827 239.000
89.64822 263.000
89.66817 266.000
89.68811 252.000
89.70806 227.000
89.72801 239.000
89.74795 246.000
89.76790 292.000
89.78785 256.000
89.80779 263.000
89.82774 276.000
89.84769 240.000
89.86764 277.000
89.88758 258.000
89.90753 263.000
89.92748 275.000
89.94742 253.000
89.96737 240.000
89.98732 280.000
90.00726 259.000
