10.00000 217.000
10.01995 202.000
10.03989 211.000
10.05984 182.000
10.07979 205.000
10.09973 211.000
10.11968 201.000
10.13963 229.000
10.15958 209.000
10.17952 203.000
10.19947 203.000
10.21942 185.000
10.23936 201.000
10.25931 241.000
10.27926 196.000
10.29920 160.000
10.31915 206.000
10.33910 215.000
10.35905 202.000
10.37899 191.000
10.39894 180.000
10.41889 233.000
10.43883 190.000
10.45878 217.000
10.47873 219.000
10.49867 192.000
10.51862 241.000
10.53857 208.000
10.55851 194.000
10.57846 202.000
10.59841 222.000
10.61836 227.000
10.63830 202.000
10.65825 209.000
10.67820 187.000
10.69814 212.000
10.71809 190.000
10.73804 172.000
10.75798 215.000
10.77793 198.000
10.79788 181.000
10.81783 211.000
10.83777 234.000
10.85772 196.000
10.87767 186.000
10.89761 213.000
10.91756 222.000
10.93751 220.000
10.95745 176.000
10.97740 218.000
10.99735 203.000
11.01730 202.000
11.03724 209.000
11.05719 203.000
11.07714 212.000
11.09708 218.000
11.11703 214.000
11.13698 224.000
11.15692 200.000
11.17687 229.000
11.19682 183.000
11.21676 194.000
11.23671 198.000
11.25666 197.000
11.27661 216.000
11.29655 197.000
11.31650 214.000
11.33645 220.000
11.35639 221.000
11.37634 185.000
11.39629 207.000
11.41623 234.000
11.43618 213.000
11.45613 202.000
11.47608 205.000
11.49602 201.000
11.51597 167.000
11.53592 221.000
11.55586 211.000
11.57581 206.000
11.59576 197.000
11.61570 207.000
11.63565 196.000
11.65560 179.000
11.67554 178.000
11.69549 200.000
11.71544 194.000
11.73539 222.000
11.75533 214.000
11.77528 227.000
11.79523 234.000
11.81517 228.000
11.83512 230.000
11.85507 191.000
11.87501 216.000
11.89496 223.000
11.91491 208.000
11.93486 217.000
11.95480 247.000
11.97475 185.000
11.99470 224.000
12.01464 213.000
12.03459 208.000
12.05454 208.000
12.07448 190.000
12.09443 180.000
12.11438 219.000
12.13432 215.000
12.15427 212.000
12.17422 177.000
12.19417 232.000
12.21411 185.000
12.23406 203.000
12.25401 197.000
12.27395 187.000
12.29390 240.000
12.31385 192.000
12.33379 211.000
12.35374 201.000
12.37369 187.000
12.39364 194.000
12.41358 216.000
12.43353 220.000
12.45348 216.000
12.47342 205.000
12.49337 217.000
12.51332 207.000
12.53326 190.000
12.55321 206.000
12.57316 199.000
12.59311 228.000
12.61305 202.000
12.63300 211.000
12.65295 193.000
12.67289 199.000
12.69284 217.000
12.71279 220.000
12.73273 195.000
12.75268 196.000
12.77263 211.000
12.79257 213.000
12.81252 237.000
12.83247 201.000
12.85242 210.000
12.87236 228.000
12.89231 218.000
12.91226 198.000
12.93220 214.000
12.95215 205.000
12.97210 204.000
12.99204 180.000
13.01199 214.000
13.03194 209.000
13.05189 207.000
13.07183 218.000
13.09178 202.000
13.11173 207.000
13.13167 207.000
13.15162 205.000
13.17157 213.000
13.19151 237.000
13.21146 189.000
13.23141 218.000
13.25135 212.000
13.27130 214.000
13.29125 197.000
13.31120 211.000
13.33114 221.000
13.35109 212.000
13.37104 220.000
13.39098 227.000
13.41093 236.000
13.43088 205.000
13.45082 224.000
13.47077 181.000
13.49072 191.000
13.51067 199.000
13.53061 231.000
13.55056 211.000
13.57051 204.000
13.59045 221.000
13.61040 202.000
13.63035 212.000
13.65029 197.000
13.67024 200.000
13.69019 185.000
13.71013 206.000
13.73008 224.000
13.75003 198.000
13.76998 218.000
13.78992 187.000
13.80987 214.000
13.82982 220.000
13.84976 231.000
13.86971 187.000
13.88966 200.000
13.90960 180.000
13.92955 193.000
13.94950 236.000
13.96945 217.000
13.98939 225.000
14.00934 202.000
14.02929 201.000
14.04923 203.000
14.06918 215.000
14.08913 195.000
14.10907 224.000
14.12902 187.000
14.14897 208.000
14.16892 212.000
14.18886 222.000
14.20881 213.000
14.22876 200.000
14.24870 223.000
14.26865 209.000
14.28860 244.000
14.30854 191.000
14.32849 216.000
14.34844 214.000
14.36838 197.000
14.38833 208.000
14.40828 199.000
14.42823 206.000
14.44817 206.000
14.46812 192.000
14.48807 188.000
14.50801 197.000
14.52796 214.000
14.54791 205.000
14.56785 219.000
14.58780 213.000
14.60775 206.000
14.62770 226.000
14.64764 210.000
14.66759 216.000
14.68754 197.000
14.70748 199.000
14.72743 205.000
14.74738 197.000
14.76732 212.000
14.78727 201.000
14.80722 233.000
14.82716 203.000
14.84711 204.000
14.86706 233.000
14.88701 216.000
14.90695 206.000
14.92690 241.000
14.94685 211.000
14.96679 214.000
14.98674 215.000
15.00669 197.000
15.02663 223.000
15.04658 202.000
15.06653 222.000
15.08648 198.000
15.10642 220.000
15.12637 216.000
15.14632 196.000
15.16626 228.000
15.18621 182.000
15.20616 211.000
15.22610 227.000
15.24605 224.000
15.26600 220.000
15.28594 220.000
15.30589 247.000
15.32584 216.000
15.34579 201.000
15.36573 246.000
15.38568 212.000
15.40563 184.000
15.42557 205.000
15.44552 206.000
15.46547 204.000
15.48541 228.000
15.50536 203.000
15.52531 212.000
15.54526 226.000
15.56520 242.000
15.58515 237.000
15.60510 245.000
15.62504 207.000
15.64499 233.000
15.66494 231.000
15.68488 216.000
15.70483 245.000
15.72478 249.000
15.74472 257.000
15.76467 262.000
15.78462 322.000
15.80457 351.000
15.82451 403.000
15.84446 500.000
15.86441 615.000
15.88435 793.000
15.90430 790.000
15.92425 655.000
15.94419 577.000
15.96414 454.000
15.98409 311.000
16.00404 246.000
16.02398 240.000
16.04393 269.000
16.06388 255.000
16.08382 244.000
16.10377 251.000
16.12372 252.000
16.14366 261.000
16.16361 302.000
16.18356 279.000
16.20351 311.000
16.22345 305.000
16.24340 302.000
16.26335 348.000
16.28329 352.000
16.30324 362.000
16.32319 381.000
16.34313 394.000
16.36308 414.000
16.38303 487.000
16.40297 531.000
16.42292 592.000
16.44287 749.000
16.46282 919.000
16.48276 1136.000
16.50271 1378.000
16.52266 1455.000
16.54260 1689.000
16.56255 1801.000
16.58250 1771.000
16.60244 1762.000
16.62239 1442.000
16.64234 1173.000
16.66229 717.000
16.68223 467.000
16.70218 379.000
16.72213 314.000
16.74207 322.000
16.76202 296.000
16.78197 268.000
16.80191 297.000
16.82186 297.000
16.84181 327.000
16.86175 375.000
16.88170 381.000
16.90165 344.000
16.92160 297.000
16.94154 323.000
16.96149 284.000
16.98144 237.000
17.00138 245.000
17.02133 249.000
17.04128 220.000
17.06122 225.000
17.08117 239.000
17.10112 221.000
17.12107 235.000
17.14101 258.000
17.16096 223.000
17.18091 217.000
17.20085 217.000
17.22080 216.000
17.24075 221.000
17.26069 230.000
17.28064 205.000
17.30059 199.000
17.32053 213.000
17.34048 218.000
17.36043 230.000
17.38038 200.000
17.40032 225.000
17.42027 202.000
17.44022 199.000
17.46016 251.000
17.48011 206.000
17.50006 206.000
17.52000 225.000
17.53995 216.000
17.55990 230.000
17.57985 215.000
17.59979 193.000
17.61974 212.000
17.63969 224.000
17.65963 243.000
17.67958 191.000
17.69953 233.000
17.71947 202.000
17.73942 211.000
17.75937 215.000
17.77932 227.000
17.79926 216.000
17.81921 225.000
17.83916 215.000
17.85910 218.000
17.87905 207.000
17.89900 209.000
17.91894 214.000
17.93889 199.000
17.95884 230.000
17.97878 196.000
17.99873 192.000
18.01868 214.000
18.03863 218.000
18.05857 197.000
18.07852 204.000
18.09847 223.000
18.11841 212.000
18.13836 211.000
18.15831 225.000
18.17825 242.000
18.19820 209.000
18.21815 202.000
18.23810 227.000
18.25804 218.000
18.27799 225.000
18.29794 211.000
18.31788 217.000
18.33783 215.000
18.35778 239.000
18.37772 217.000
18.39767 228.000
18.41762 219.000
18.43756 211.000
18.45751 216.000
18.47746 220.000
18.49741 201.000
18.51735 200.000
18.53730 253.000
18.55725 204.000
18.57719 230.000
18.59714 219.000
18.61709 211.000
18.63703 212.000
18.65698 252.000
18.67693 246.000
18.69688 220.000
18.71682 209.000
18.73677 220.000
18.75672 222.000
18.77666 198.000
18.79661 224.000
18.81656 194.000
18.83650 221.000
18.85645 217.000
18.87640 213.000
18.89634 204.000
18.91629 236.000
18.93624 220.000
18.95619 220.000
18.97613 224.000
18.99608 212.000
19.01603 178.000
19.03597 194.000
19.05592 228.000
19.07587 220.000
19.09581 225.000
19.11576 210.000
19.13571 214.000
19.15566 227.000
19.17560 224.000
19.19555 202.000
19.21550 199.000
19.23544 198.000
19.25539 207.000
19.27534 218.000
19.29528 217.000
19.31523 234.000
19.33518 207.000
19.35513 204.000
19.37507 199.000
19.39502 217.000
19.41497 209.000
19.43491 216.000
19.45486 226.000
19.47481 221.000
19.49475 211.000
19.51470 217.000
19.53465 220.000
19.55459 226.000
19.57454 233.000
19.59449 229.000
19.61444 217.000
19.63438 209.000
19.65433 202.000
19.67428 228.000
19.69422 203.000
19.71417 225.000
19.73412 238.000
19.75406 241.000
19.77401 218.000
19.79396 217.000
19.81391 220.000
19.83385 209.000
19.85380 223.000
19.87375 216.000
19.89369 212.000
19.91364 229.000
19.93359 192.000
19.95353 205.000
19.97348 221.000
19.99343 206.000
20.01337 204.000
20.03332 233.000
20.05327 205.000
20.07322 219.000
20.09316 209.000
20.11311 241.000
20.13306 236.000
20.15300 224.000
20.17295 198.000
20.19290 195.000
20.21284 219.000
20.23279 214.000
20.25274 220.000
20.27269 189.000
20.29263 217.000
20.31258 231.000
20.33253 205.000
20.35247 206.000
20.37242 214.000
20.39237 228.000
20.41231 204.000
20.43226 222.000
20.45221 216.000
20.47215 219.000
20.49210 217.000
20.51205 242.000
20.53200 230.000
20.55194 193.000
20.57189 236.000
20.59184 205.000
20.61178 229.000
20.63173 231.000
20.65168 244.000
20.67162 231.000
20.69157 227.000
20.71152 248.000
20.73147 248.000
20.75141 236.000
20.77136 246.000
20.79131 234.000
20.81125 265.000
20.83120 243.000
20.85115 291.000
20.87109 271.000
20.89104 281.000
20.91099 308.000
20.93094 329.000
20.95088 383.000
20.97083 376.000
20.99078 404.000
21.01072 416.000
21.03067 415.000
21.05062 428.000
21.07056 424.000
21.09051 390.000
21.11046 393.000
21.13040 344.000
21.15035 322.000
21.17030 311.000
21.19025 297.000
21.21019 245.000
21.23014 245.000
21.25009 211.000
21.27003 228.000
21.28998 221.000
21.30993 208.000
21.32987 235.000
21.34982 222.000
21.36977 208.000
21.38972 235.000
21.40966 223.000
21.42961 212.000
21.44956 222.000
21.46950 209.000
21.48945 226.000
21.50940 222.000
21.52934 228.000
21.54929 229.000
21.56924 202.000
21.58918 227.000
21.60913 217.000
21.62908 230.000
21.64903 221.000
21.66897 221.000
21.68892 205.000
21.70887 195.000
21.72881 212.000
21.74876 215.000
21.76871 220.000
21.78865 230.000
21.80860 200.000
21.82855 252.000
21.84850 203.000
21.86844 239.000
21.88839 243.000
21.90834 229.000
21.92828 212.000
21.94823 206.000
21.96818 226.000
21.98812 230.000
22.00807 250.000
22.02802 214.000
22.04796 211.000
22.06791 241.000
22.08786 235.000
22.10781 198.000
22.12775 203.000
22.14770 217.000
22.16765 251.000
22.18759 239.000
22.20754 220.000
22.22749 215.000
22.24743 219.000
22.26738 217.000
22.28733 185.000
22.30728 223.000
22.32722 243.000
22.34717 210.000
22.36712 208.000
22.38706 218.000
22.40701 199.000
22.42696 227.000
22.44690 233.000
22.46685 212.000
22.48680 211.000
22.50675 234.000
22.52669 223.000
22.54664 219.000
22.56659 217.000
22.58653 201.000
22.60648 228.000
22.62643 219.000
22.64637 238.000
22.66632 252.000
22.68627 238.000
22.70621 211.000
22.72616 240.000
22.74611 217.000
22.76606 203.000
22.78600 195.000
22.80595 208.000
22.82590 239.000
22.84584 220.000
22.86579 215.000
22.88574 222.000
22.90568 211.000
22.92563 214.000
22.94558 217.000
22.96553 193.000
22.98547 226.000
23.00542 239.000
23.02537 227.000
23.04531 244.000
23.06526 196.000
23.08521 212.000
23.10515 215.000
23.12510 203.000
23.14505 239.000
23.16499 219.000
23.18494 218.000
23.20489 204.000
23.22484 211.000
23.24478 237.000
23.26473 219.000
23.28468 217.000
23.30462 225.000
23.32457 228.000
23.34452 202.000
23.36446 204.000
23.38441 211.000
23.40436 222.000
23.42431 219.000
23.44425 211.000
23.46420 232.000
23.48415 213.000
23.50409 221.000
23.52404 250.000
23.54399 219.000
23.56393 219.000
23.58388 231.000
23.60383 228.000
23.62377 213.000
23.64372 239.000
23.66367 210.000
23.68362 225.000
23.70356 248.000
23.72351 246.000
23.74346 221.000
23.76340 219.000
23.78335 251.000
23.80330 202.000
23.82324 217.000
23.84319 238.000
23.86314 239.000
23.88309 193.000
23.90303 243.000
23.92298 232.000
23.94293 223.000
23.96287 215.000
23.98282 233.000
24.00277 232.000
24.02271 232.000
24.04266 220.000
24.06261 225.000
24.08256 226.000
24.10250 233.000
24.12245 223.000
24.14240 209.000
24.16234 242.000
24.18229 248.000
24.20224 220.000
24.22218 244.000
24.24213 236.000
24.26208 260.000
24.28202 220.000
24.30197 201.000
24.32192 255.000
24.34187 220.000
24.36181 205.000
24.38176 229.000
24.40171 211.000
24.42165 219.000
24.44160 193.000
24.46155 226.000
24.48149 235.000
24.50144 205.000
24.52139 224.000
24.54134 215.000
24.56128 204.000
24.58123 218.000
24.60118 214.000
24.62112 249.000
24.64107 236.000
24.66102 245.000
24.68096 234.000
24.70091 238.000
24.72086 237.000
24.74080 223.000
24.76075 234.000
24.78070 223.000
24.80065 227.000
24.82059 245.000
24.84054 227.000
24.86049 260.000
24.88043 219.000
24.90038 232.000
24.92033 238.000
24.94027 276.000
24.96022 290.000
24.98017 278.000
25.00012 281.000
25.02006 287.000
25.04001 263.000
25.05996 256.000
25.07990 260.000
25.09985 273.000
25.11980 253.000
25.13974 236.000
25.15969 246.000
25.17964 239.000
25.19958 249.000
25.21953 225.000
25.23948 239.000
25.25943 243.000
25.27937 228.000
25.29932 247.000
25.31927 224.000
25.33921 227.000
25.35916 242.000
25.37911 223.000
25.39905 234.000
25.41900 219.000
25.43895 228.000
25.45890 204.000
25.47884 236.000
25.49879 238.000
25.51874 209.000
25.53868 228.000
25.55863 245.000
25.57858 222.000
25.59852 228.000
25.61847 227.000
25.63842 233.000
25.65837 251.000
25.67831 203.000
25.69826 212.000
25.71821 235.000
25.73815 244.000
25.75810 244.000
25.77805 224.000
25.79799 232.000
25.81794 248.000
25.83789 229.000
25.85783 233.000
25.87778 220.000
25.89773 219.000
25.91768 231.000
25.93762 229.000
25.95757 252.000
25.97752 196.000
25.99746 225.000
26.01741 238.000
26.03736 270.000
26.05730 223.000
26.07725 242.000
26.09720 247.000
26.11715 214.000
26.13709 241.000
26.15704 206.000
26.17699 218.000
26.19693 221.000
26.21688 260.000
26.23683 202.000
26.25677 213.000
26.27672 242.000
26.29667 223.000
26.31661 223.000
26.33656 224.000
26.35651 246.000
26.37646 237.000
26.39640 221.000
26.41635 236.000
26.43630 254.000
26.45624 191.000
26.47619 247.000
26.49614 252.000
26.51608 187.000
26.53603 214.000
26.55598 241.000
26.57593 218.000
26.59587 188.000
26.61582 215.000
26.63577 220.000
26.65571 233.000
26.67566 241.000
26.69561 243.000
26.71555 227.000
26.73550 234.000
26.75545 251.000
26.77539 229.000
26.79534 230.000
26.81529 241.000
26.83524 229.000
26.85518 245.000
26.87513 236.000
26.89508 252.000
26.91502 223.000
26.93497 228.000
26.95492 236.000
26.97486 250.000
26.99481 235.000
27.01476 220.000
27.03471 204.000
27.05465 252.000
27.07460 257.000
27.09455 248.000
27.11449 258.000
27.13444 235.000
27.15439 234.000
27.17433 242.000
27.19428 230.000
27.21423 230.000
27.23417 233.000
27.25412 219.000
27.27407 237.000
27.29402 231.000
27.31396 232.000
27.33391 238.000
27.35386 245.000
27.37380 235.000
27.39375 226.000
27.41370 243.000
27.43364 228.000
27.45359 230.000
27.47354 234.000
27.49349 228.000
27.51343 211.000
27.53338 239.000
27.55333 250.000
27.57327 242.000
27.59322 224.000
27.61317 279.000
27.63311 239.000
27.65306 241.000
27.67301 228.000
27.69296 219.000
27.71290 231.000
27.73285 246.000
27.75280 229.000
27.77274 249.000
27.79269 256.000
27.81264 227.000
27.83258 210.000
27.85253 240.000
27.87248 249.000
27.89242 262.000
27.91237 228.000
27.93232 244.000
27.95227 240.000
27.97221 232.000
27.99216 258.000
28.01211 241.000
28.03205 238.000
28.05200 260.000
28.07195 255.000
28.09189 240.000
28.11184 226.000
28.13179 244.000
28.15174 236.000
28.17168 221.000
28.19163 230.000
28.21158 249.000
28.23152 240.000
28.25147 264.000
28.27142 218.000
28.29136 238.000
28.31131 241.000
28.33126 240.000
28.35120 250.000
28.37115 246.000
28.39110 288.000
28.41105 244.000
28.43099 236.000
28.45094 278.000
28.47089 245.000
28.49083 248.000
28.51078 225.000
28.53073 242.000
28.55067 265.000
28.57062 266.000
28.59057 227.000
28.61052 224.000
28.63046 251.000
28.65041 236.000
28.67036 252.000
28.69030 220.000
28.71025 241.000
28.73020 265.000
28.75014 229.000
28.77009 236.000
28.79004 239.000
28.80998 255.000
28.82993 244.000
28.84988 244.000
28.86983 258.000
28.88977 255.000
28.90972 268.000
28.92967 235.000
28.94961 228.000
28.96956 255.000
28.98951 241.000
29.00945 257.000
29.02940 262.000
29.04935 254.000
29.06930 279.000
29.08924 249.000
29.10919 249.000
29.12914 248.000
29.14908 261.000
29.16903 270.000
29.18898 253.000
29.20892 280.000
29.22887 282.000
29.24882 279.000
29.26877 312.000
29.28871 313.000
29.30866 366.000
29.32861 403.000
29.34855 430.000
29.36850 466.000
29.38845 495.000
29.40839 490.000
29.42834 481.000
29.44829 512.000
29.46823 434.000
29.48818 416.000
29.50813 407.000
29.52808 359.000
29.54802 352.000
29.56797 366.000
29.58792 316.000
29.60786 314.000
29.62781 282.000
29.64776 299.000
29.66770 286.000
29.68765 281.000
29.70760 262.000
29.72755 267.000
29.74749 281.000
29.76744 262.000
29.78739 213.000
29.80733 244.000
29.82728 250.000
29.84723 261.000
29.86717 256.000
29.88712 238.000
29.90707 257.000
29.92701 268.000
29.94696 255.000
29.96691 249.000
29.98686 276.000
30.00680 253.000
30.02675 282.000
30.04670 249.000
30.06664 250.000
30.08659 244.000
30.10654 274.000
30.12648 284.000
30.14643 262.000
30.16638 245.000
30.18633 289.000
30.20627 271.000
30.22622 272.000
30.24617 262.000
30.26611 280.000
30.28606 270.000
30.30601 272.000
30.32595 271.000
30.34590 270.000
30.36585 295.000
30.38579 269.000
30.40574 248.000
30.42569 269.000
30.44564 270.000
30.46558 248.000
30.48553 243.000
30.50548 236.000
30.52542 263.000
30.54537 264.000
30.56532 243.000
30.58526 280.000
30.60521 242.000
30.62516 237.000
30.64511 267.000
30.66505 230.000
30.68500 261.000
30.70495 240.000
30.72489 245.000
30.74484 281.000
30.76479 241.000
30.78473 259.000
30.80468 259.000
30.82463 268.000
30.84458 281.000
30.86452 209.000
30.88447 257.000
30.90442 275.000
30.92436 264.000
30.94431 240.000
30.96426 251.000
30.98420 270.000
31.00415 270.000
31.02410 230.000
31.04404 242.000
31.06399 252.000
31.08394 232.000
31.10389 265.000
31.12383 254.000
31.14378 246.000
31.16373 224.000
31.18367 270.000
31.20362 260.000
31.22357 257.000
31.24351 247.000
31.26346 247.000
31.28341 275.000
31.30336 243.000
31.32330 228.000
31.34325 248.000
31.36320 286.000
31.38314 252.000
31.40309 258.000
31.42304 225.000
31.44298 264.000
31.46293 231.000
31.48288 256.000
31.50282 260.000
31.52277 259.000
31.54272 238.000
31.56267 259.000
31.58261 234.000
31.60256 241.000
31.62251 264.000
31.64245 233.000
31.66240 267.000
31.68235 251.000
31.70229 243.000
31.72224 227.000
31.74219 268.000
31.76214 271.000
31.78208 258.000
31.80203 244.000
31.82198 253.000
31.84192 244.000
31.86187 231.000
31.88182 251.000
31.90176 273.000
31.92171 237.000
31.94166 250.000
31.96160 250.000
31.98155 282.000
32.00150 252.000
32.02145 253.000
32.04139 276.000
32.06134 278.000
32.08129 292.000
32.10123 305.000
32.12118 313.000
32.14113 280.000
32.16107 272.000
32.18102 279.000
32.20097 251.000
32.22092 284.000
32.24086 276.000
32.26081 248.000
32.28076 234.000
32.30070 255.000
32.32065 256.000
32.34060 238.000
32.36054 229.000
32.38049 243.000
32.40044 238.000
32.42039 259.000
32.44033 255.000
32.46028 237.000
32.48023 249.000
32.50017 265.000
32.52012 238.000
32.54007 256.000
32.56001 256.000
32.57996 240.000
32.59991 261.000
32.61985 276.000
32.63980 238.000
32.65975 239.000
32.67970 246.000
32.69964 271.000
32.71959 267.000
32.73954 267.000
32.75948 262.000
32.77943 277.000
32.79938 247.000
32.81932 243.000
32.83927 277.000
32.85922 273.000
32.87917 266.000
32.89911 266.000
32.91906 248.000
32.93901 271.000
32.95895 281.000
32.97890 256.000
32.99885 245.000
33.01879 246.000
33.03874 259.000
33.05869 263.000
33.07863 294.000
33.09858 258.000
33.11853 267.000
33.13848 257.000
33.15842 263.000
33.17837 263.000
33.19832 300.000
33.21826 303.000
33.23821 316.000
33.25816 296.000
33.27810 294.000
33.29805 342.000
33.31800 361.000
33.33795 321.000
33.35789 371.000
33.37784 391.000
33.39779 418.000
33.41773 395.000
33.43768 413.000
33.45763 412.000
33.47757 419.000
33.49752 470.000
33.51747 492.000
33.53741 443.000
33.55736 402.000
33.57731 399.000
33.59726 367.000
33.61720 388.000
33.63715 348.000
33.65710 302.000
33.67704 309.000
33.69699 277.000
33.71694 273.000
33.73688 274.000
33.75683 243.000
33.77678 273.000
33.79673 276.000
33.81667 244.000
33.83662 278.000
33.85657 241.000
33.87651 259.000
33.89646 253.000
33.91641 276.000
33.93635 251.000
33.95630 260.000
33.97625 291.000
33.99620 246.000
34.01614 296.000
34.03609 281.000
34.05604 290.000
34.07598 273.000
34.09593 296.000
34.11588 284.000
34.13582 292.000
34.15577 289.000
34.17572 272.000
34.19566 281.000
34.21561 279.000
34.23556 273.000
34.25551 295.000
34.27545 294.000
34.29540 310.000
34.31535 315.000
34.33529 310.000
34.35524 335.000
34.37519 340.000
34.39513 353.000
34.41508 396.000
34.43503 383.000
34.45498 360.000
34.47492 378.000
34.49487 374.000
34.51482 391.000
34.53476 392.000
34.55471 433.000
34.57466 430.000
34.59460 397.000
34.61455 432.000
34.63450 445.000
34.65444 435.000
34.67439 461.000
34.69434 432.000
34.71429 430.000
34.73423 434.000
34.75418 473.000
34.77413 421.000
34.79407 459.000
34.81402 462.000
34.83397 454.000
34.85391 438.000
34.87386 460.000
34.89381 406.000
34.91376 387.000
34.93370 385.000
34.95365 351.000
34.97360 329.000
34.99354 333.000
35.01349 339.000
35.03344 308.000
35.05338 291.000
35.07333 320.000
35.09328 284.000
35.11322 306.000
35.13317 293.000
35.15312 290.000
35.17307 322.000
35.19301 344.000
35.21296 331.000
35.23291 344.000
35.25285 401.000
35.27280 422.000
35.29275 440.000
35.31269 420.000
35.33264 425.000
35.35259 434.000
35.37254 424.000
35.39248 434.000
35.41243 429.000
35.43238 419.000
35.45232 439.000
35.47227 429.000
35.49222 434.000
35.51216 420.000
35.53211 366.000
35.55206 434.000
35.57201 367.000
35.59195 361.000
35.61190 374.000
35.63185 377.000
35.65179 353.000
35.67174 405.000
35.69169 409.000
35.71163 433.000
35.73158 429.000
35.75153 359.000
35.77147 394.000
35.79142 383.000
35.81137 384.000
35.83132 400.000
35.85126 350.000
35.87121 321.000
35.89116 315.000
35.91110 324.000
35.93105 341.000
35.95100 306.000
35.97094 316.000
35.99089 293.000
36.01084 277.000
36.03079 257.000
36.05073 318.000
36.07068 277.000
36.09063 299.000
36.11057 266.000
36.13052 272.000
36.15047 301.000
36.17041 283.000
36.19036 271.000
36.21031 321.000
36.23025 296.000
36.25020 282.000
36.27015 297.000
36.29010 332.000
36.31004 289.000
36.32999 317.000
36.34994 307.000
36.36988 327.000
36.38983 341.000
36.40978 300.000
36.42972 333.000
36.44967 377.000
36.46962 387.000
36.48957 380.000
36.50951 428.000
36.52946 456.000
36.54941 463.000
36.56935 466.000
36.58930 553.000
36.60925 580.000
36.62919 563.000
36.64914 593.000
36.66909 683.000
36.68903 604.000
36.70898 670.000
36.72893 667.000
36.74888 680.000
36.76882 746.000
36.78877 713.000
36.80872 675.000
36.82866 663.000
36.84861 728.000
36.86856 705.000
36.88850 695.000
36.90845 805.000
36.92840 927.000
36.94835 1173.000
36.96829 1587.000
36.98824 2184.000
37.00819 2816.000
37.02813 3646.000
37.04808 4037.000
37.06803 4016.000
37.08797 3794.000
37.10792 3783.000
37.12787 3567.000
37.14781 3652.000
37.16776 3253.000
37.18771 3031.000
37.20766 2542.000
37.22760 2075.000
37.24755 1728.000
37.26750 1509.000
37.28744 1298.000
37.30739 1117.000
37.32734 879.000
37.34728 758.000
37.36723 594.000
37.38718 465.000
37.40713 423.000
37.42707 422.000
37.44702 337.000
37.46697 324.000
37.48691 336.000
37.50686 358.000
37.52681 334.000
37.54675 321.000
37.56670 294.000
37.58665 310.000
37.60660 260.000
37.62654 284.000
37.64649 279.000
37.66644 278.000
37.68638 293.000
37.70633 260.000
37.72628 318.000
37.74622 314.000
37.76617 274.000
37.78612 257.000
37.80606 283.000
37.82601 246.000
37.84596 285.000
37.86591 250.000
37.88585 294.000
37.90580 277.000
37.92575 298.000
37.94569 275.000
37.96564 299.000
37.98559 276.000
38.00553 297.000
38.02548 321.000
38.04543 295.000
38.06538 292.000
38.08532 284.000
38.10527 262.000
38.12522 253.000
38.14516 285.000
38.16511 280.000
38.18506 276.000
38.20500 260.000
38.22495 288.000
38.24490 288.000
38.26484 279.000
38.28479 262.000
38.30474 253.000
38.32469 254.000
38.34463 253.000
38.36458 265.000
38.38453 250.000
38.40447 240.000
38.42442 262.000
38.44437 275.000
38.46431 265.000
38.48426 268.000
38.50421 279.000
38.52416 289.000
38.54410 259.000
38.56405 257.000
38.58400 268.000
38.60394 280.000
38.62389 281.000
38.64384 276.000
38.66378 269.000
38.68373 270.000
38.70368 273.000
38.72362 262.000
38.74357 282.000
38.76352 256.000
38.78347 252.000
38.80341 263.000
38.82336 261.000
38.84331 288.000
38.86325 274.000
38.88320 260.000
38.90315 293.000
38.92309 306.000
38.94304 253.000
38.96299 287.000
38.98294 277.000
39.00288 271.000
39.02283 291.000
39.04278 276.000
39.06272 290.000
39.08267 260.000
39.10262 301.000
39.12256 279.000
39.14251 304.000
39.16246 291.000
39.18241 289.000
39.20235 285.000
39.22230 260.000
39.24225 296.000
39.26219 337.000
39.28214 320.000
39.30209 348.000
39.32203 374.000
39.34198 343.000
39.36193 350.000
39.38187 356.000
39.40182 377.000
39.42177 360.000
39.44172 382.000
39.46166 362.000
39.48161 327.000
39.50156 294.000
39.52150 303.000
39.54145 275.000
39.56140 280.000
39.58134 271.000
39.60129 289.000
39.62124 250.000
39.64119 245.000
39.66113 239.000
39.68108 245.000
39.70103 252.000
39.72097 249.000
39.74092 288.000
39.76087 238.000
39.78081 278.000
39.80076 248.000
39.82071 244.000
39.84065 257.000
39.86060 258.000
39.88055 244.000
39.90050 261.000
39.92044 242.000
39.94039 248.000
39.96034 261.000
39.98028 258.000
40.00023 263.000
40.02018 269.000
40.04012 274.000
40.06007 240.000
40.08002 243.000
40.09997 260.000
40.11991 254.000
40.13986 264.000
40.15981 253.000
40.17975 244.000
40.19970 242.000
40.21965 249.000
40.23959 258.000
40.25954 243.000
40.27949 239.000
40.29943 248.000
40.31938 252.000
40.33933 249.000
40.35928 260.000
40.37922 238.000
40.39917 255.000
40.41912 275.000
40.43906 237.000
40.45901 266.000
40.47896 241.000
40.49890 283.000
40.51885 286.000
40.53880 272.000
40.55875 238.000
40.57869 274.000
40.59864 242.000
40.61859 259.000
40.63853 271.000
40.65848 258.000
40.67843 247.000
40.69837 294.000
40.71832 270.000
40.73827 275.000
40.75822 247.000
40.77816 266.000
40.79811 237.000
40.81806 272.000
40.83800 254.000
40.85795 261.000
40.87790 291.000
40.89784 280.000
40.91779 259.000
40.93774 259.000
40.95768 301.000
40.97763 298.000
40.99758 305.000
41.01753 296.000
41.03747 281.000
41.05742 319.000
41.07737 316.000
41.09731 275.000
41.11726 262.000
41.13721 293.000
41.15715 322.000
41.17710 295.000
41.19705 324.000
41.21700 295.000
41.23694 329.000
41.25689 271.000
41.27684 276.000
41.29678 301.000
41.31673 305.000
41.33668 317.000
41.35662 325.000
41.37657 321.000
41.39652 343.000
41.41646 369.000
41.43641 440.000
41.45636 418.000
41.47631 423.000
41.49625 476.000
41.51620 546.000
41.53615 634.000
41.55609 724.000
41.57604 830.000
41.59599 882.000
41.61593 1117.000
41.63588 1199.000
41.65583 1303.000
41.67578 1455.000
41.69572 1589.000
41.71567 1672.000
41.73562 1618.000
41.75556 1697.000
41.77551 1627.000
41.79546 1599.000
41.81540 1395.000
41.83535 1233.000
41.85530 1108.000
41.87524 955.000
41.89519 877.000
41.91514 734.000
41.93509 642.000
41.95503 554.000
41.97498 475.000
41.99493 366.000
42.01487 381.000
42.03482 350.000
42.05477 333.000
42.07471 328.000
42.09466 315.000
42.11461 329.000
42.13456 309.000
42.15450 326.000
42.17445 295.000
42.19440 310.000
42.21434 322.000
42.23429 313.000
42.25424 331.000
42.27418 352.000
42.29413 299.000
42.31408 315.000
42.33403 368.000
42.35397 328.000
42.37392 322.000
42.39387 364.000
42.41381 354.000
42.43376 326.000
42.45371 360.000
42.47365 411.000
42.49360 350.000
42.51355 406.000
42.53349 370.000
42.55344 385.000
42.57339 398.000
42.59334 398.000
42.61328 418.000
42.63323 425.000
42.65318 405.000
42.67312 433.000
42.69307 444.000
42.71302 516.000
42.73296 502.000
42.75291 492.000
42.77286 550.000
42.79281 577.000
42.81275 646.000
42.83270 712.000
42.85265 767.000
42.87259 937.000
42.89254 1055.000
42.91249 1343.000
42.93243 1728.000
42.95238 2362.000
42.97233 3076.000
42.99227 3894.000
43.01222 4660.000
43.03217 5223.000
43.05212 5164.000
43.07206 5203.000
43.09201 5081.000
43.11196 5034.000
43.13190 4969.000
43.15185 4570.000
43.17180 4468.000
43.19174 4047.000
43.21169 3631.000
43.23164 3313.000
43.25159 2845.000
43.27153 2400.000
43.29148 2001.000
43.31143 1825.000
43.33137 1550.000
43.35132 1377.000
43.37127 1131.000
43.39121 986.000
43.41116 782.000
43.43111 676.000
43.45105 560.000
43.47100 518.000
43.49095 503.000
43.51090 487.000
43.53084 452.000
43.55079 396.000
43.57074 375.000
43.59068 388.000
43.61063 353.000
43.63058 384.000
43.65052 339.000
43.67047 305.000
43.69042 302.000
43.71037 319.000
43.73031 311.000
43.75026 304.000
43.77021 308.000
43.79015 306.000
43.81010 277.000
43.83005 266.000
43.84999 302.000
43.86994 288.000
43.88989 296.000
43.90984 292.000
43.92978 276.000
43.94973 314.000
43.96968 277.000
43.98962 261.000
44.00957 311.000
44.02952 257.000
44.04946 281.000
44.06941 276.000
44.08936 288.000
44.10930 296.000
44.12925 288.000
44.14920 275.000
44.16915 261.000
44.18909 256.000
44.20904 271.000
44.22899 272.000
44.24893 265.000
44.26888 288.000
44.28883 271.000
44.30877 294.000
44.32872 257.000
44.34867 254.000
44.36862 274.000
44.38856 235.000
44.40851 300.000
44.42846 267.000
44.44840 282.000
44.46835 264.000
44.48830 275.000
44.50824 262.000
44.52819 260.000
44.54814 251.000
44.56808 249.000
44.58803 287.000
44.60798 282.000
44.62793 255.000
44.64787 271.000
44.66782 266.000
44.68777 301.000
44.70771 256.000
44.72766 242.000
44.74761 263.000
44.76755 277.000
44.78750 242.000
44.80745 245.000
44.82740 267.000
44.84734 277.000
44.86729 262.000
44.88724 269.000
44.90718 249.000
44.92713 272.000
44.94708 245.000
44.96702 292.000
44.98697 261.000
45.00692 268.000
45.02686 268.000
45.04681 258.000
45.06676 292.000
45.08671 289.000
45.10665 290.000
45.12660 286.000
45.14655 270.000
45.16649 286.000
45.18644 321.000
45.20639 312.000
45.22633 295.000
45.24628 270.000
45.26623 337.000
45.28618 252.000
45.30612 276.000
45.32607 266.000
45.34602 260.000
45.36596 280.000
45.38591 263.000
45.40586 247.000
45.42580 283.000
45.44575 260.000
45.46570 258.000
45.48565 267.000
45.50559 258.000
45.52554 212.000
45.54549 242.000
45.56543 270.000
45.58538 255.000
45.60533 241.000
45.62527 271.000
45.64522 250.000
45.66517 250.000
45.68511 265.000
45.70506 263.000
45.72501 244.000
45.74496 278.000
45.76490 250.000
45.78485 264.000
45.80480 252.000
45.82474 250.000
45.84469 255.000
45.86464 266.000
45.88458 235.000
45.90453 256.000
45.92448 258.000
45.94443 230.000
45.96437 239.000
45.98432 252.000
46.00427 240.000
46.02421 269.000
46.04416 280.000
46.06411 241.000
46.08405 228.000
46.10400 242.000
46.12395 253.000
46.14389 249.000
46.16384 215.000
46.18379 216.000
46.20374 262.000
46.22368 251.000
46.24363 264.000
46.26358 237.000
46.28352 249.000
46.30347 215.000
46.32342 234.000
46.34336 231.000
46.36331 225.000
46.38326 236.000
46.40321 236.000
46.42315 232.000
46.44310 231.000
46.46305 231.000
46.48299 239.000
46.50294 245.000
46.52289 244.000
46.54283 213.000
46.56278 240.000
46.58273 232.000
46.60267 249.000
46.62262 261.000
46.64257 258.000
46.66252 229.000
46.68246 267.000
46.70241 257.000
46.72236 250.000
46.74230 232.000
46.76225 246.000
46.78220 276.000
46.80214 232.000
46.82209 234.000
46.84204 242.000
46.86199 239.000
46.88193 242.000
46.90188 210.000
46.92183 265.000
46.94177 248.000
46.96172 226.000
46.98167 236.000
47.00161 272.000
47.02156 236.000
47.04151 254.000
47.06146 249.000
47.08140 238.000
47.10135 240.000
47.12130 236.000
47.14124 250.000
47.16119 231.000
47.18114 249.000
47.20108 230.000
47.22103 244.000
47.24098 251.000
47.26092 229.000
47.28087 232.000
47.30082 241.000
47.32077 218.000
47.34071 241.000
47.36066 221.000
47.38061 222.000
47.40055 221.000
47.42050 249.000
47.44045 259.000
47.46039 250.000
47.48034 233.000
47.50029 217.000
47.52024 232.000
47.54018 268.000
47.56013 210.000
47.58008 252.000
47.60002 251.000
47.61997 240.000
47.63992 259.000
47.65986 232.000
47.67981 247.000
47.69976 228.000
47.71970 253.000
47.73965 271.000
47.75960 226.000
47.77955 243.000
47.79949 245.000
47.81944 268.000
47.83939 236.000
47.85933 263.000
47.87928 223.000
47.89923 274.000
47.91917 263.000
47.93912 257.000
47.95907 227.000
47.97902 251.000
47.99896 261.000
48.01891 255.000
48.03886 274.000
48.05880 260.000
48.07875 278.000
48.09870 290.000
48.11864 310.000
48.13859 287.000
48.15854 292.000
48.17848 272.000
48.19843 291.000
48.21838 295.000
48.23833 270.000
48.25827 242.000
48.27822 282.000
48.29817 260.000
48.31811 246.000
48.33806 239.000
48.35801 260.000
48.37795 285.000
48.39790 250.000
48.41785 228.000
48.43780 243.000
48.45774 252.000
48.47769 240.000
48.49764 286.000
48.51758 228.000
48.53753 260.000
48.55748 233.000
48.57742 260.000
48.59737 231.000
48.61732 259.000
48.63726 287.000
48.65721 290.000
48.67716 266.000
48.69711 272.000
48.71705 312.000
48.73700 311.000
48.75695 317.000
48.77689 353.000
48.79684 360.000
48.81679 347.000
48.83673 328.000
48.85668 340.000
48.87663 310.000
48.89658 349.000
48.91652 323.000
48.93647 278.000
48.95642 295.000
48.97636 289.000
48.99631 269.000
49.01626 272.000
49.03620 302.000
49.05615 253.000
49.07610 244.000
49.09605 237.000
49.11599 238.000
49.13594 260.000
49.15589 217.000
49.17583 239.000
49.19578 253.000
49.21573 241.000
49.23567 229.000
49.25562 231.000
49.27557 246.000
49.29551 230.000
49.31546 232.000
49.33541 265.000
49.35536 249.000
49.37530 251.000
49.39525 251.000
49.41520 251.000
49.43514 267.000
49.45509 260.000
49.47504 275.000
49.49498 244.000
49.51493 252.000
49.53488 259.000
49.55483 259.000
49.57477 242.000
49.59472 287.000
49.61467 270.000
49.63461 264.000
49.65456 283.000
49.67451 251.000
49.69445 273.000
49.71440 277.000
49.73435 251.000
49.75429 266.000
49.77424 228.000
49.79419 248.000
49.81414 246.000
49.83408 257.000
49.85403 252.000
49.87398 258.000
49.89392 258.000
49.91387 250.000
49.93382 293.000
49.95376 249.000
49.97371 237.000
49.99366 272.000
50.01361 266.000
50.03355 213.000
50.05350 252.000
50.07345 257.000
50.09339 243.000
50.11334 252.000
50.13329 237.000
50.15323 275.000
50.17318 266.000
50.19313 260.000
50.21307 250.000
50.23302 235.000
50.25297 238.000
50.27292 244.000
50.29286 236.000
50.31281 229.000
50.33276 226.000
50.35270 219.000
50.37265 230.000
50.39260 245.000
50.41254 229.000
50.43249 244.000
50.45244 232.000
50.47239 236.000
50.49233 240.000
50.51228 235.000
50.53223 235.000
50.55217 244.000
50.57212 246.000
50.59207 250.000
50.61201 252.000
50.63196 237.000
50.65191 252.000
50.67186 221.000
50.69180 230.000
50.71175 221.000
50.73170 243.000
50.75164 207.000
50.77159 258.000
50.79154 247.000
50.81148 253.000
50.83143 233.000
50.85138 224.000
50.87132 230.000
50.89127 222.000
50.91122 228.000
50.93117 247.000
50.95111 233.000
50.97106 241.000
50.99101 239.000
51.01095 218.000
51.03090 248.000
51.05085 232.000
51.07079 244.000
51.09074 234.000
51.11069 244.000
51.13064 218.000
51.15058 236.000
51.17053 222.000
51.19048 269.000
51.21042 263.000
51.23037 263.000
51.25032 216.000
51.27026 256.000
51.29021 252.000
51.31016 257.000
51.33010 227.000
51.35005 269.000
51.37000 227.000
51.38995 236.000
51.40989 263.000
51.42984 209.000
51.44979 254.000
51.46973 258.000
51.48968 248.000
51.50963 230.000
51.52957 235.000
51.54952 195.000
51.56947 247.000
51.58942 232.000
51.60936 231.000
51.62931 260.000
51.64926 232.000
51.66920 226.000
51.68915 239.000
51.70910 221.000
51.72904 225.000
51.74899 207.000
51.76894 227.000
51.78888 228.000
51.80883 237.000
51.82878 248.000
51.84873 246.000
51.86867 243.000
51.88862 258.000
51.90857 261.000
51.92851 240.000
51.94846 252.000
51.96841 242.000
51.98835 276.000
52.00830 278.000
52.02825 304.000
52.04820 255.000
52.06814 285.000
52.08809 314.000
52.10804 257.000
52.12798 297.000
52.14793 311.000
52.16788 309.000
52.18782 265.000
52.20777 337.000
52.22772 285.000
52.24767 274.000
52.26761 282.000
52.28756 289.000
52.30751 282.000
52.32745 268.000
52.34740 254.000
52.36735 238.000
52.38729 251.000
52.40724 280.000
52.42719 257.000
52.44713 242.000
52.46708 260.000
52.48703 241.000
52.50698 232.000
52.52692 257.000
52.54687 233.000
52.56682 241.000
52.58676 242.000
52.60671 237.000
52.62666 238.000
52.64660 230.000
52.66655 211.000
52.68650 246.000
52.70645 229.000
52.72639 256.000
52.74634 254.000
52.76629 232.000
52.78623 237.000
52.80618 245.000
52.82613 226.000
52.84607 257.000
52.86602 266.000
52.88597 245.000
52.90591 248.000
52.92586 241.000
52.94581 241.000
52.96576 270.000
52.98570 251.000
53.00565 267.000
53.02560 246.000
53.04554 280.000
53.06549 232.000
53.08544 248.000
53.10538 245.000
53.12533 235.000
53.14528 274.000
53.16523 246.000
53.18517 244.000
53.20512 259.000
53.22507 262.000
53.24501 233.000
53.26496 239.000
53.28491 278.000
53.30485 300.000
53.32480 333.000
53.34475 304.000
53.36469 307.000
53.38464 351.000
53.40459 345.000
53.42454 328.000
53.44448 358.000
53.46443 366.000
53.48438 387.000
53.50432 396.000
53.52427 445.000
53.54422 379.000
53.56416 393.000
53.58411 380.000
53.60406 367.000
53.62401 362.000
53.64395 357.000
53.66390 306.000
53.68385 295.000
53.70379 277.000
53.72374 264.000
53.74369 284.000
53.76363 265.000
53.78358 278.000
53.80353 297.000
53.82348 276.000
53.84342 217.000
53.86337 261.000
53.88332 267.000
53.90326 284.000
53.92321 262.000
53.94316 238.000
53.96310 253.000
53.98305 236.000
54.00300 218.000
54.02294 227.000
54.04289 248.000
54.06284 271.000
54.08279 249.000
54.10273 261.000
54.12268 251.000
54.14263 254.000
54.16257 223.000
54.18252 270.000
54.20247 261.000
54.22241 228.000
54.24236 263.000
54.26231 259.000
54.28226 267.000
54.30220 237.000
54.32215 252.000
54.34210 244.000
54.36204 234.000
54.38199 211.000
54.40194 233.000
54.42188 232.000
54.44183 236.000
54.46178 254.000
54.48172 253.000
54.50167 270.000
54.52162 249.000
54.54157 218.000
54.56151 240.000
54.58146 286.000
54.60141 231.000
54.62135 245.000
54.64130 238.000
54.66125 279.000
54.68119 268.000
54.70114 271.000
54.72109 236.000
54.74104 248.000
54.76098 226.000
54.78093 266.000
54.80088 255.000
54.82082 226.000
54.84077 265.000
54.86072 232.000
54.88066 238.000
54.90061 225.000
54.92056 269.000
54.94050 221.000
54.96045 246.000
54.98040 228.000
55.00035 266.000
55.02029 237.000
55.04024 240.000
55.06019 237.000
55.08013 248.000
55.10008 260.000
55.12003 266.000
55.13997 236.000
55.15992 230.000
55.17987 255.000
55.19982 265.000
55.21976 232.000
55.23971 220.000
55.25966 226.000
55.27960 245.000
55.29955 244.000
55.31950 240.000
55.33944 218.000
55.35939 236.000
55.37934 224.000
55.39929 243.000
55.41923 244.000
55.43918 231.000
55.45913 241.000
55.47907 221.000
55.49902 221.000
55.51897 235.000
55.53891 240.000
55.55886 257.000
55.57881 231.000
55.59875 232.000
55.61870 239.000
55.63865 261.000
55.65860 224.000
55.67854 251.000
55.69849 224.000
55.71844 264.000
55.73838 250.000
55.75833 227.000
55.77828 246.000
55.79822 252.000
55.81817 254.000
55.83812 221.000
55.85807 237.000
55.87801 215.000
55.89796 239.000
55.91791 242.000
55.93785 254.000
55.95780 260.000
55.97775 225.000
55.99769 269.000
56.01764 234.000
56.03759 227.000
56.05753 247.000
56.07748 238.000
56.09743 247.000
56.11738 235.000
56.13732 244.000
56.15727 255.000
56.17722 221.000
56.19716 267.000
56.21711 251.000
56.23706 261.000
56.25700 225.000
56.27695 272.000
56.29690 253.000
56.31685 250.000
56.33679 214.000
56.35674 253.000
56.37669 246.000
56.39663 233.000
56.41658 276.000
56.43653 241.000
56.45647 261.000
56.47642 268.000
56.49637 251.000
56.51631 264.000
56.53626 237.000
56.55621 241.000
56.57616 238.000
56.59610 222.000
56.61605 244.000
56.63600 243.000
56.65594 244.000
56.67589 213.000
56.69584 232.000
56.71578 234.000
56.73573 233.000
56.75568 249.000
56.77563 239.000
56.79557 246.000
56.81552 261.000
56.83547 231.000
56.85541 221.000
56.87536 247.000
56.89531 261.000
56.91525 248.000
56.93520 216.000
56.95515 259.000
56.97510 243.000
56.99504 251.000
57.01499 243.000
57.03494 232.000
57.05488 243.000
57.07483 251.000
57.09478 233.000
57.11472 268.000
57.13467 246.000
57.15462 246.000
57.17456 250.000
57.19451 228.000
57.21446 260.000
57.23441 239.000
57.25435 245.000
57.27430 243.000
57.29425 243.000
57.31419 235.000
57.33414 266.000
57.35409 276.000
57.37403 250.000
57.39398 245.000
57.41393 247.000
57.43388 276.000
57.45382 273.000
57.47377 292.000
57.49372 242.000
57.51366 260.000
57.53361 254.000
57.55356 243.000
57.57350 274.000
57.59345 258.000
57.61340 272.000
57.63334 259.000
57.65329 217.000
57.67324 268.000
57.69319 269.000
57.71313 279.000
57.73308 292.000
57.75303 234.000
57.77297 247.000
57.79292 258.000
57.81287 265.000
57.83281 287.000
57.85276 271.000
57.87271 271.000
57.89266 286.000
57.91260 264.000
57.93255 273.000
57.95250 284.000
57.97244 268.000
57.99239 278.000
58.01234 310.000
58.03228 312.000
58.05223 341.000
58.07218 319.000
58.09212 342.000
58.11207 350.000
58.13202 379.000
58.15197 378.000
58.17191 440.000
58.19186 483.000
58.21181 496.000
58.23175 500.000
58.25170 546.000
58.27165 556.000
58.29159 574.000
58.31154 537.000
58.33149 561.000
58.35144 516.000
58.37138 500.000
58.39133 469.000
58.41128 474.000
58.43122 409.000
58.45117 378.000
58.47112 400.000
58.49106 359.000
58.51101 390.000
58.53096 336.000
58.55090 283.000
58.57085 282.000
58.59080 294.000
58.61075 278.000
58.63069 268.000
58.65064 257.000
58.67059 234.000
58.69053 251.000
58.71048 251.000
58.73043 261.000
58.75037 235.000
58.77032 251.000
58.79027 257.000
58.81022 227.000
58.83016 255.000
58.85011 201.000
58.87006 288.000
58.89000 265.000
58.90995 260.000
58.92990 254.000
58.94984 276.000
58.96979 234.000
58.98974 251.000
59.00969 231.000
59.02963 213.000
59.04958 236.000
59.06953 246.000
59.08947 243.000
59.10942 260.000
59.12937 232.000
59.14931 237.000
59.16926 230.000
59.18921 240.000
59.20915 231.000
59.22910 244.000
59.24905 230.000
59.26900 241.000
59.28894 255.000
59.30889 285.000
59.32884 234.000
59.34878 242.000
59.36873 246.000
59.38868 249.000
59.40862 247.000
59.42857 210.000
59.44852 244.000
59.46847 258.000
59.48841 249.000
59.50836 267.000
59.52831 255.000
59.54825 225.000
59.56820 261.000
59.58815 244.000
59.60809 252.000
59.62804 264.000
59.64799 269.000
59.66793 267.000
59.68788 233.000
59.70783 215.000
59.72778 238.000
59.74772 245.000
59.76767 232.000
59.78762 246.000
59.80756 266.000
59.82751 243.000
59.84746 257.000
59.86740 246.000
59.88735 260.000
59.90730 216.000
59.92725 257.000
59.94719 264.000
59.96714 245.000
59.98709 220.000
60.00703 262.000
60.02698 227.000
60.04693 246.000
60.06687 234.000
60.08682 223.000
60.10677 267.000
60.12671 239.000
60.14666 255.000
60.16661 265.000
60.18656 229.000
60.20650 260.000
60.22645 258.000
60.24640 275.000
60.26634 260.000
60.28629 219.000
60.30624 240.000
60.32618 246.000
60.34613 238.000
60.36608 246.000
60.38603 233.000
60.40597 231.000
60.42592 240.000
60.44587 260.000
60.46581 228.000
60.48576 212.000
60.50571 259.000
60.52565 264.000
60.54560 250.000
60.56555 253.000
60.58550 267.000
60.60544 223.000
60.62539 265.000
60.64534 243.000
60.66528 257.000
60.68523 276.000
60.70518 258.000
60.72512 266.000
60.74507 242.000
60.76502 265.000
60.78496 245.000
60.80491 261.000
60.82486 265.000
60.84481 263.000
60.86475 262.000
60.88470 224.000
60.90465 247.000
60.92459 252.000
60.94454 254.000
60.96449 237.000
60.98443 268.000
61.00438 258.000
61.02433 263.000
61.04428 281.000
61.06422 257.000
61.08417 265.000
61.10412 242.000
61.12406 261.000
61.14401 269.000
61.16396 262.000
61.18390 247.000
61.20385 260.000
61.22380 258.000
61.24374 255.000
61.26369 257.000
61.28364 290.000
61.30359 267.000
61.32353 256.000
61.34348 266.000
61.36343 260.000
61.38337 270.000
61.40332 271.000
61.42327 271.000
61.44321 266.000
61.46316 265.000
61.48311 287.000
61.50306 269.000
61.52300 304.000
61.54295 258.000
61.56290 288.000
61.58284 248.000
61.60279 282.000
61.62274 273.000
61.64268 259.000
61.66263 290.000
61.68258 289.000
61.70252 334.000
61.72247 304.000
61.74242 287.000
61.76237 303.000
61.78231 294.000
61.80226 315.000
61.82221 277.000
61.84215 267.000
61.86210 297.000
61.88205 322.000
61.90199 315.000
61.92194 359.000
61.94189 352.000
61.96184 349.000
61.98178 345.000
62.00173 393.000
62.02168 396.000
62.04162 404.000
62.06157 406.000
62.08152 444.000
62.10146 454.000
62.12141 453.000
62.14136 471.000
62.16131 517.000
62.18125 510.000
62.20120 530.000
62.22115 564.000
62.24109 593.000
62.26104 571.000
62.28099 691.000
62.30093 716.000
62.32088 835.000
62.34083 1006.000
62.36077 1098.000
62.38072 1322.000
62.40067 1466.000
62.42062 1797.000
62.44056 1957.000
62.46051 2104.000
62.48046 2118.000
62.50040 2334.000
62.52035 2162.000
62.54030 2127.000
62.56024 2120.000
62.58019 2054.000
62.60014 2002.000
62.62009 2040.000
62.64003 1989.000
62.65998 1938.000
62.67993 2030.000
62.69987 1867.000
62.71982 1713.000
62.73977 1695.000
62.75971 1524.000
62.77966 1447.000
62.79961 1341.000
62.81955 1218.000
62.83950 1032.000
62.85945 1022.000
62.87940 978.000
62.89934 887.000
62.91929 856.000
62.93924 720.000
62.95918 730.000
62.97913 671.000
62.99908 614.000
63.01902 498.000
63.03897 544.000
63.05892 452.000
63.07887 452.000
63.09881 413.000
63.11876 360.000
63.13871 340.000
63.15865 348.000
63.17860 350.000
63.19855 309.000
63.21849 346.000
63.23844 318.000
63.25839 312.000
63.27833 293.000
63.29828 303.000
63.31823 318.000
63.33818 305.000
63.35812 330.000
63.37807 281.000
63.39802 298.000
63.41796 275.000
63.43791 263.000
63.45786 292.000
63.47780 296.000
63.49775 287.000
63.51770 266.000
63.53765 259.000
63.55759 278.000
63.57754 272.000
63.59749 275.000
63.61743 246.000
63.63738 253.000
63.65733 273.000
63.67727 265.000
63.69722 245.000
63.71717 252.000
63.73712 271.000
63.75706 283.000
63.77701 254.000
63.79696 248.000
63.81690 280.000
63.83685 259.000
63.85680 286.000
63.87674 269.000
63.89669 289.000
63.91664 278.000
63.93658 256.000
63.95653 255.000
63.97648 251.000
63.99643 271.000
64.01637 253.000
64.03632 286.000
64.05627 287.000
64.07621 282.000
64.09616 313.000
64.11611 263.000
64.13605 270.000
64.15600 285.000
64.17595 311.000
64.19590 307.000
64.21584 273.000
64.23579 306.000
64.25574 262.000
64.27568 292.000
64.29563 277.000
64.31558 283.000
64.33552 281.000
64.35547 299.000
64.37542 291.000
64.39536 292.000
64.41531 312.000
64.43526 306.000
64.45521 255.000
64.47515 278.000
64.49510 268.000
64.51505 260.000
64.53499 252.000
64.55494 261.000
64.57489 264.000
64.59483 275.000
64.61478 278.000
64.63473 266.000
64.65468 268.000
64.67462 271.000
64.69457 304.000
64.71452 261.000
64.73446 264.000
64.75441 257.000
64.77436 237.000
64.79430 298.000
64.81425 265.000
64.83420 300.000
64.85414 268.000
64.87409 274.000
64.89404 290.000
64.91399 277.000
64.93393 291.000
64.95388 298.000
64.97383 258.000
64.99377 287.000
65.01372 263.000
65.03367 282.000
65.05361 301.000
65.07356 270.000
65.09351 269.000
65.11346 276.000
65.13340 288.000
65.15335 289.000
65.17330 310.000
65.19324 321.000
65.21319 298.000
65.23314 280.000
65.25308 298.000
65.27303 303.000
65.29298 302.000
65.31293 311.000
65.33287 299.000
65.35282 292.000
65.37277 280.000
65.39271 313.000
65.41266 332.000
65.43261 301.000
65.45255 295.000
65.47250 311.000
65.49245 285.000
65.51239 293.000
65.53234 266.000
65.55229 310.000
65.57224 302.000
65.59218 317.000
65.61213 281.000
65.63208 294.000
65.65202 303.000
65.67197 306.000
65.69192 298.000
65.71186 326.000
65.73181 276.000
65.75176 310.000
65.77171 307.000
65.79165 325.000
65.81160 315.000
65.83155 291.000
65.85149 277.000
65.87144 287.000
65.89139 263.000
65.91133 292.000
65.93128 278.000
65.95123 276.000
65.97117 272.000
65.99112 252.000
66.01107 275.000
66.03102 283.000
66.05096 260.000
66.07091 266.000
66.09086 251.000
66.11080 247.000
66.13075 263.000
66.15070 258.000
66.17064 285.000
66.19059 236.000
66.21054 263.000
66.23049 268.000
66.25043 287.000
66.27038 267.000
66.29033 264.000
66.31027 239.000
66.33022 235.000
66.35017 237.000
66.37011 256.000
66.39006 225.000
66.41001 226.000
66.42995 214.000
66.44990 242.000
66.46985 266.000
66.48980 269.000
66.50974 266.000
66.52969 281.000
66.54964 253.000
66.56958 269.000
66.58953 259.000
66.60948 249.000
66.62942 260.000
66.64937 275.000
66.66932 269.000
66.68927 263.000
66.70921 274.000
66.72916 293.000
66.74911 284.000
66.76905 262.000
66.78900 280.000
66.80895 269.000
66.82889 268.000
66.84884 253.000
66.86879 254.000
66.88874 245.000
66.90868 268.000
66.92863 273.000
66.94858 248.000
66.96852 276.000
66.98847 249.000
67.00842 278.000
67.02836 265.000
67.04831 298.000
67.06826 281.000
67.08820 243.000
67.10815 247.000
67.12810 262.000
67.14805 238.000
67.16799 240.000
67.18794 258.000
67.20789 251.000
67.22783 248.000
67.24778 246.000
67.26773 223.000
67.28767 239.000
67.30762 239.000
67.32757 248.000
67.34752 239.000
67.36746 254.000
67.38741 251.000
67.40736 216.000
67.42730 267.000
67.44725 241.000
67.46720 216.000
67.48714 258.000
67.50709 225.000
67.52704 238.000
67.54698 250.000
67.56693 233.000
67.58688 244.000
67.60683 282.000
67.62677 240.000
67.64672 245.000
67.66667 257.000
67.68661 252.000
67.70656 239.000
67.72651 246.000
67.74645 228.000
67.76640 240.000
67.78635 234.000
67.80630 216.000
67.82624 235.000
67.84619 223.000
67.86614 243.000
67.88608 245.000
67.90603 267.000
67.92598 260.000
67.94592 254.000
67.96587 263.000
67.98582 246.000
68.00576 229.000
68.02571 252.000
68.04566 249.000
68.06561 231.000
68.08555 232.000
68.10550 222.000
68.12545 244.000
68.14539 241.000
68.16534 257.000
68.18529 244.000
68.20523 260.000
68.22518 249.000
68.24513 271.000
68.26508 267.000
68.28502 251.000
68.30497 242.000
68.32492 215.000
68.34486 263.000
68.36481 230.000
68.38476 284.000
68.40470 278.000
68.42465 248.000
68.44460 249.000
68.46455 305.000
68.48449 270.000
68.50444 244.000
68.52439 249.000
68.54433 278.000
68.56428 288.000
68.58423 251.000
68.60417 250.000
68.62412 262.000
68.64407 277.000
68.66401 277.000
68.68396 257.000
68.70391 298.000
68.72386 300.000
68.74380 295.000
68.76375 282.000
68.78370 238.000
68.80364 266.000
68.82359 291.000
68.84354 317.000
68.86348 277.000
68.88343 310.000
68.90338 333.000
68.92333 317.000
68.94327 280.000
68.96322 275.000
68.98317 297.000
69.00311 291.000
69.02306 322.000
69.04301 267.000
69.06295 292.000
69.08290 279.000
69.10285 298.000
69.12279 264.000
69.14274 303.000
69.16269 273.000
69.18264 280.000
69.20258 270.000
69.22253 244.000
69.24248 258.000
69.26242 242.000
69.28237 234.000
69.30232 271.000
69.32226 239.000
69.34221 223.000
69.36216 241.000
69.38211 261.000
69.40205 251.000
69.42200 216.000
69.44195 251.000
69.46189 261.000
69.48184 257.000
69.50179 253.000
69.52173 255.000
69.54168 242.000
69.56163 246.000
69.58157 230.000
69.60152 240.000
69.62147 247.000
69.64142 244.000
69.66136 238.000
69.68131 239.000
69.70126 255.000
69.72120 252.000
69.74115 255.000
69.76110 251.000
69.78104 226.000
69.80099 234.000
69.82094 279.000
69.84089 247.000
69.86083 224.000
69.88078 237.000
69.90073 262.000
69.92067 251.000
69.94062 243.000
69.96057 262.000
69.98051 232.000
70.00046 257.000
70.02041 271.000
70.04035 266.000
70.06030 260.000
70.08025 224.000
70.10020 269.000
70.12014 253.000
70.14009 263.000
70.16004 291.000
70.17998 270.000
70.19993 271.000
70.21988 281.000
70.23982 236.000
70.25977 261.000
70.27972 247.000
70.29967 252.000
70.31961 279.000
70.33956 292.000
70.35951 244.000
70.37945 270.000
70.39940 272.000
70.41935 269.000
70.43929 250.000
70.45924 243.000
70.47919 271.000
70.49914 236.000
70.51908 268.000
70.53903 269.000
70.55898 259.000
70.57892 274.000
70.59887 249.000
70.61882 238.000
70.63876 237.000
70.65871 256.000
70.67866 266.000
70.69860 258.000
70.71855 240.000
70.73850 253.000
70.75845 273.000
70.77839 249.000
70.79834 240.000
70.81829 240.000
70.83823 240.000
70.85818 233.000
70.87813 240.000
70.89807 264.000
70.91802 269.000
70.93797 230.000
70.95792 220.000
70.97786 266.000
70.99781 216.000
71.01776 229.000
71.03770 239.000
71.05765 260.000
71.07760 222.000
71.09754 234.000
71.11749 230.000
71.13744 251.000
71.15738 217.000
71.17733 246.000
71.19728 230.000
71.21723 243.000
71.23717 233.000
71.25712 260.000
71.27707 232.000
71.29701 252.000
71.31696 227.000
71.33691 231.000
71.35685 242.000
71.37680 248.000
71.39675 256.000
71.41670 246.000
71.43664 246.000
71.45659 231.000
71.47654 235.000
71.49648 248.000
71.51643 211.000
71.53638 244.000
71.55632 256.000
71.57627 253.000
71.59622 242.000
71.61616 230.000
71.63611 257.000
71.65606 257.000
71.67601 259.000
71.69595 250.000
71.71590 254.000
71.73585 249.000
71.75579 223.000
71.77574 250.000
71.79569 245.000
71.81563 209.000
71.83558 218.000
71.85553 237.000
71.87548 255.000
71.89542 255.000
71.91537 265.000
71.93532 224.000
71.95526 247.000
71.97521 268.000
71.99516 234.000
72.01510 215.000
72.03505 259.000
72.05500 234.000
72.07495 245.000
72.09489 207.000
72.11484 252.000
72.13479 244.000
72.15473 228.000
72.17468 270.000
72.19463 229.000
72.21457 265.000
72.23452 268.000
72.25447 245.000
72.27441 227.000
72.29436 246.000
72.31431 239.000
72.33426 282.000
72.35420 235.000
72.37415 226.000
72.39410 251.000
72.41404 230.000
72.43399 284.000
72.45394 260.000
72.47388 256.000
72.49383 256.000
72.51378 235.000
72.53373 265.000
72.55367 282.000
72.57362 272.000
72.59357 290.000
72.61351 287.000
72.63346 251.000
72.65341 261.000
72.67335 283.000
72.69330 292.000
72.71325 293.000
72.73319 275.000
72.75314 306.000
72.77309 274.000
72.79304 310.000
72.81298 324.000
72.83293 288.000
72.85288 306.000
72.87282 273.000
72.89277 295.000
72.91272 297.000
72.93266 294.000
72.95261 311.000
72.97256 314.000
72.99251 295.000
73.01245 286.000
73.03240 277.000
73.05235 303.000
73.07229 293.000
73.09224 299.000
73.11219 270.000
73.13213 293.000
73.15208 274.000
73.17203 274.000
73.19197 296.000
73.21192 306.000
73.23187 276.000
73.25182 285.000
73.27176 265.000
73.29171 266.000
73.31166 273.000
73.33160 255.000
73.35155 255.000
73.37150 280.000
73.39144 265.000
73.41139 224.000
73.43134 258.000
73.45129 248.000
73.47123 234.000
73.49118 263.000
73.51113 262.000
73.53107 275.000
73.55102 250.000
73.57097 264.000
73.59091 273.000
73.61086 262.000
73.63081 283.000
73.65076 222.000
73.67070 269.000
73.69065 280.000
73.71060 271.000
73.73054 269.000
73.75049 271.000
73.77044 257.000
73.79038 248.000
73.81033 272.000
73.83028 273.000
73.85022 248.000
73.87017 278.000
73.89012 281.000
73.91007 257.000
73.93001 289.000
73.94996 274.000
73.96991 240.000
73.98985 248.000
74.00980 263.000
74.02975 261.000
74.04969 273.000
74.06964 268.000
74.08959 261.000
74.10954 253.000
74.12948 254.000
74.14943 270.000
74.16938 269.000
74.18932 271.000
74.20927 277.000
74.22922 296.000
74.24916 296.000
74.26911 300.000
74.28906 262.000
74.30900 271.000
74.32895 268.000
74.34890 279.000
74.36885 277.000
74.38879 292.000
74.40874 290.000
74.42869 274.000
74.44863 308.000
74.46858 306.000
74.48853 304.000
74.50847 358.000
74.52842 321.000
74.54837 372.000
74.56832 368.000
74.58826 344.000
74.60821 356.000
74.62816 443.000
74.64810 384.000
74.66805 397.000
74.68800 417.000
74.70794 447.000
74.72789 457.000
74.74784 566.000
74.76778 579.000
74.78773 638.000
74.80768 615.000
74.82763 715.000
74.84757 764.000
74.86752 787.000
74.88747 895.000
74.90741 878.000
74.92736 842.000
74.94731 867.000
74.96725 824.000
74.98720 833.000
75.00715 807.000
75.02710 827.000
75.04704 823.000
75.06699 807.000
75.08694 777.000
75.10688 766.000
75.12683 764.000
75.14678 764.000
75.16672 775.000
75.18667 680.000
75.20662 669.000
75.22657 668.000
75.24651 599.000
75.26646 633.000
75.28641 592.000
75.30635 546.000
75.32630 514.000
75.34625 496.000
75.36619 451.000
75.38614 436.000
75.40609 413.000
75.42603 409.000
75.44598 403.000
75.46593 412.000
75.48588 383.000
75.50582 353.000
75.52577 347.000
75.54572 347.000
75.56566 344.000
75.58561 323.000
75.60556 329.000
75.62550 308.000
75.64545 322.000
75.66540 276.000
75.68535 300.000
75.70529 260.000
75.72524 281.000
75.74519 251.000
75.76513 274.000
75.78508 256.000
75.80503 283.000
75.82497 274.000
75.84492 262.000
75.86487 244.000
75.88481 264.000
75.90476 257.000
75.92471 279.000
75.94466 259.000
75.96460 268.000
75.98455 272.000
76.00450 269.000
76.02444 264.000
76.04439 246.000
76.06434 239.000
76.08428 246.000
76.10423 224.000
76.12418 254.000
76.14413 262.000
76.16407 250.000
76.18402 237.000
76.20397 249.000
76.22391 245.000
76.24386 252.000
76.26381 232.000
76.28375 268.000
76.30370 235.000
76.32365 240.000
76.34359 249.000
76.36354 225.000
76.38349 258.000
76.40344 278.000
76.42338 256.000
76.44333 252.000
76.46328 245.000
76.48322 225.000
76.50317 222.000
76.52312 267.000
76.54306 216.000
76.56301 250.000
76.58296 256.000
76.60291 239.000
76.62285 244.000
76.64280 227.000
76.66275 257.000
76.68269 247.000
76.70264 251.000
76.72259 271.000
76.74253 229.000
76.76248 268.000
76.78243 235.000
76.80238 262.000
76.82232 246.000
76.84227 255.000
76.86222 256.000
76.88216 263.000
76.90211 239.000
76.92206 228.000
76.94200 235.000
76.96195 247.000
76.98190 238.000
77.00184 243.000
77.02179 219.000
77.04174 264.000
77.06169 252.000
77.08163 234.000
77.10158 254.000
77.12153 281.000
77.14147 270.000
77.16142 235.000
77.18137 208.000
77.20131 254.000
77.22126 241.000
77.24121 236.000
77.26116 241.000
77.28110 224.000
77.30105 248.000
77.32100 233.000
77.34094 250.000
77.36089 256.000
77.38084 238.000
77.40078 263.000
77.42073 246.000
77.44068 227.000
77.46062 260.000
77.48057 263.000
77.50052 238.000
77.52047 262.000
77.54041 243.000
77.56036 233.000
77.58031 257.000
77.60025 263.000
77.62020 253.000
77.64015 254.000
77.66009 270.000
77.68004 259.000
77.69999 305.000
77.71994 267.000
77.73988 266.000
77.75983 262.000
77.77978 266.000
77.79972 288.000
77.81967 319.000
77.83962 289.000
77.85956 298.000
77.87951 289.000
77.89946 299.000
77.91940 305.000
77.93935 292.000
77.95930 278.000
77.97925 289.000
77.99919 293.000
78.01914 279.000
78.03909 329.000
78.05903 309.000
78.07898 302.000
78.09893 302.000
78.11887 307.000
78.13882 294.000
78.15877 282.000
78.17872 308.000
78.19866 308.000
78.21861 319.000
78.23856 335.000
78.25850 309.000
78.27845 313.000
78.29840 303.000
78.31834 293.000
78.33829 304.000
78.35824 301.000
78.37819 300.000
78.39813 292.000
78.41808 304.000
78.43803 297.000
78.45797 309.000
78.47792 314.000
78.49787 308.000
78.51781 293.000
78.53776 300.000
78.55771 338.000
78.57765 323.000
78.59760 329.000
78.61755 341.000
78.63750 353.000
78.65744 386.000
78.67739 385.000
78.69734 420.000
78.71728 438.000
78.73723 448.000
78.75718 460.000
78.77712 564.000
78.79707 608.000
78.81702 547.000
78.83697 642.000
78.85691 622.000
78.87686 649.000
78.89681 650.000
78.91675 629.000
78.93670 602.000
78.95665 600.000
78.97659 599.000
78.99654 586.000
79.01649 571.000
79.03643 587.000
79.05638 623.000
79.07633 586.000
79.09628 642.000
79.11622 612.000
79.13617 602.000
79.15612 573.000
79.17606 561.000
79.19601 549.000
79.21596 520.000
79.23590 514.000
79.25585 499.000
79.27580 448.000
79.29575 402.000
79.31569 425.000
79.33564 442.000
79.35559 405.000
79.37553 380.000
79.39548 385.000
79.41543 376.000
79.43537 378.000
79.45532 366.000
79.47527 316.000
79.49521 321.000
79.51516 336.000
79.53511 326.000
79.55506 319.000
79.57500 326.000
79.59495 268.000
79.61490 284.000
79.63484 260.000
79.65479 268.000
79.67474 269.000
79.69468 275.000
79.71463 259.000
79.73458 246.000
79.75453 268.000
79.77447 255.000
79.79442 303.000
79.81437 234.000
79.83431 286.000
79.85426 230.000
79.87421 258.000
79.89415 260.000
79.91410 267.000
79.93405 232.000
79.95399 264.000
79.97394 230.000
79.99389 234.000
80.01384 263.000
80.03378 219.000
80.05373 250.000
80.07368 257.000
80.09362 240.000
80.11357 252.000
80.13352 262.000
80.15346 240.000
80.17341 230.000
80.19336 231.000
80.21331 235.000
80.23325 234.000
80.25320 251.000
80.27315 240.000
80.29309 237.000
80.31304 251.000
80.33299 262.000
80.35293 244.000
80.37288 226.000
80.39283 214.000
80.41278 266.000
80.43272 253.000
80.45267 259.000
80.47262 236.000
80.49256 228.000
80.51251 239.000
80.53246 271.000
80.55240 262.000
80.57235 256.000
80.59230 244.000
80.61224 277.000
80.63219 230.000
80.65214 227.000
80.67209 226.000
80.69203 246.000
80.71198 260.000
80.73193 244.000
80.75187 283.000
80.77182 210.000
80.79177 245.000
80.81171 265.000
80.83166 225.000
80.85161 226.000
80.87156 242.000
80.89150 249.000
80.91145 262.000
80.93140 220.000
80.95134 223.000
80.97129 247.000
80.99124 234.000
81.01118 215.000
81.03113 243.000
81.05108 239.000
81.07102 239.000
81.09097 242.000
81.11092 221.000
81.13087 261.000
81.15081 240.000
81.17076 228.000
81.19071 209.000
81.21065 251.000
81.23060 255.000
81.25055 247.000
81.27049 265.000
81.29044 253.000
81.31039 259.000
81.33034 238.000
81.35028 248.000
81.37023 268.000
81.39018 264.000
81.41012 231.000
81.43007 216.000
81.45002 245.000
81.46996 228.000
81.48991 231.000
81.50986 237.000
81.52980 252.000
81.54975 226.000
81.56970 254.000
81.58965 228.000
81.60959 241.000
81.62954 267.000
81.64949 250.000
81.66943 231.000
81.68938 234.000
81.70933 233.000
81.72927 257.000
81.74922 222.000
81.76917 234.000
81.78912 210.000
81.80906 261.000
81.82901 236.000
81.84896 236.000
81.86890 244.000
81.88885 224.000
81.90880 250.000
81.92874 243.000
81.94869 245.000
81.96864 246.000
81.98859 248.000
82.00853 243.000
82.02848 237.000
82.04843 245.000
82.06837 242.000
82.08832 247.000
82.10827 251.000
82.12821 247.000
82.14816 244.000
82.16811 247.000
82.18805 229.000
82.20800 247.000
82.22795 234.000
82.24790 258.000
82.26784 230.000
82.28779 250.000
82.30774 252.000
82.32768 235.000
82.34763 243.000
82.36758 244.000
82.38752 211.000
82.40747 246.000
82.42742 223.000
82.44737 240.000
82.46731 233.000
82.48726 229.000
82.50721 234.000
82.52715 237.000
82.54710 255.000
82.56705 260.000
82.58699 234.000
82.60694 233.000
82.62689 240.000
82.64683 216.000
82.66678 240.000
82.68673 248.000
82.70668 216.000
82.72662 277.000
82.74657 245.000
82.76652 223.000
82.78646 241.000
82.80641 253.000
82.82636 219.000
82.84630 260.000
82.86625 242.000
82.88620 248.000
82.90615 241.000
82.92609 272.000
82.94604 244.000
82.96599 215.000
82.98593 253.000
83.00588 273.000
83.02583 248.000
83.04577 246.000
83.06572 249.000
83.08567 234.000
83.10561 243.000
83.12556 227.000
83.14551 229.000
83.16546 273.000
83.18540 268.000
83.20535 272.000
83.22530 251.000
83.24524 259.000
83.26519 253.000
83.28514 226.000
83.30508 221.000
83.32503 237.000
83.34498 246.000
83.36493 224.000
83.38487 214.000
83.40482 233.000
83.42477 262.000
83.44471 248.000
83.46466 223.000
83.48461 269.000
83.50455 236.000
83.52450 237.000
83.54445 241.000
83.56440 241.000
83.58434 232.000
83.60429 250.000
83.62424 237.000
83.64418 276.000
83.66413 241.000
83.68408 235.000
83.70402 237.000
83.72397 231.000
83.74392 246.000
83.76386 252.000
83.78381 260.000
83.80376 246.000
83.82371 254.000
83.84365 226.000
83.86360 250.000
83.88355 246.000
83.90349 244.000
83.92344 240.000
83.94339 228.000
83.96333 234.000
83.98328 274.000
84.00323 245.000
84.02318 243.000
84.04312 266.000
84.06307 253.000
84.08302 236.000
84.10296 263.000
84.12291 218.000
84.14286 234.000
84.16280 237.000
84.18275 233.000
84.20270 246.000
84.22264 214.000
84.24259 243.000
84.26254 255.000
84.28249 242.000
84.30243 235.000
84.32238 226.000
84.34233 262.000
84.36227 248.000
84.38222 248.000
84.40217 269.000
84.42211 228.000
84.44206 268.000
84.46201 237.000
84.48196 230.000
84.50190 262.000
84.52185 265.000
84.54180 255.000
84.56174 255.000
84.58169 243.000
84.60164 256.000
84.62158 254.000
84.64153 287.000
84.66148 242.000
84.68142 246.000
84.70137 229.000
84.72132 261.000
84.74127 248.000
84.76121 220.000
84.78116 249.000
84.80111 265.000
84.82105 246.000
84.84100 245.000
84.86095 234.000
84.88089 277.000
84.90084 247.000
84.92079 227.000
84.94074 281.000
84.96068 241.000
84.98063 256.000
85.00058 243.000
85.02052 268.000
85.04047 235.000
85.06042 220.000
85.08036 228.000
85.10031 262.000
85.12026 263.000
85.14021 256.000
85.16015 227.000
85.18010 236.000
85.20005 272.000
85.21999 240.000
85.23994 224.000
85.25989 214.000
85.27983 243.000
85.29978 246.000
85.31973 208.000
85.33967 255.000
85.35962 235.000
85.37957 255.000
85.39952 238.000
85.41946 214.000
85.43941 207.000
85.45936 233.000
85.47930 221.000
85.49925 241.000
85.51920 243.000
85.53914 224.000
85.55909 251.000
85.57904 241.000
85.59899 264.000
85.61893 236.000
85.63888 219.000
85.65883 238.000
85.67877 251.000
85.69872 251.000
85.71867 235.000
85.73861 243.000
85.75856 239.000
85.77851 232.000
85.79845 247.000
85.81840 229.000
85.83835 246.000
85.85830 232.000
85.87824 265.000
85.89819 233.000
85.91814 247.000
85.93808 232.000
85.95803 255.000
85.97798 237.000
85.99792 242.000
86.01787 231.000
86.03782 236.000
86.05777 244.000
86.07771 220.000
86.09766 238.000
86.11761 244.000
86.13755 233.000
86.15750 233.000
86.17745 237.000
86.19739 245.000
86.21734 232.000
86.23729 226.000
86.25723 213.000
86.27718 257.000
86.29713 241.000
86.31708 231.000
86.33702 247.000
86.35697 243.000
86.37692 204.000
86.39686 255.000
86.41681 249.000
86.43676 247.000
86.45670 231.000
86.47665 248.000
86.49660 275.000
86.51655 248.000
86.53649 227.000
86.55644 260.000
86.57639 275.000
86.59633 245.000
86.61628 246.000
86.63623 266.000
86.65617 247.000
86.67612 241.000
86.69607 267.000
86.71602 259.000
86.73596 261.000
86.75591 251.000
86.77586 242.000
86.79580 271.000
86.81575 277.000
86.83570 249.000
86.85564 287.000
86.87559 233.000
86.89554 236.000
86.91548 253.000
86.93543 250.000
86.95538 264.000
86.97533 279.000
86.99527 258.000
87.01522 267.000
87.03517 293.000
87.05511 246.000
87.07506 233.000
87.09501 278.000
87.11495 265.000
87.13490 245.000
87.15485 290.000
87.17480 271.000
87.19474 262.000
87.21469 254.000
87.23464 281.000
87.25458 284.000
87.27453 255.000
87.29448 249.000
87.31442 246.000
87.33437 242.000
87.35432 237.000
87.37426 238.000
87.39421 282.000
87.41416 250.000
87.43411 259.000
87.45405 245.000
87.47400 270.000
87.49395 245.000
87.51389 253.000
87.53384 265.000
87.55379 273.000
87.57373 254.000
87.59368 275.000
87.61363 248.000
87.63358 235.000
87.65352 247.000
87.67347 215.000
87.69342 251.000
87.71336 248.000
87.73331 227.000
87.75326 253.000
87.77320 238.000
87.79315 251.000
87.81310 241.000
87.83304 232.000
87.85299 250.000
87.87294 247.000
87.89289 253.000
87.91283 240.000
87.93278 260.000
87.95273 239.000
87.97267 219.000
87.99262 250.000
88.01257 237.000
88.03251 236.000
88.05246 225.000
88.07241 232.000
88.09236 265.000
88.11230 229.000
88.13225 247.000
88.15220 232.000
88.17214 235.000
88.19209 234.000
88.21204 254.000
88.23198 219.000
88.25193 211.000
88.27188 227.000
88.29183 258.000
88.31177 259.000
88.33172 259.000
88.35167 239.000
88.37161 243.000
88.39156 251.000
88.41151 251.000
88.43145 247.000
88.45140 224.000
88.47135 265.000
88.49129 245.000
88.51124 243.000
88.53119 251.000
88.55114 260.000
88.57108 217.000
88.59103 223.000
88.61098 243.000
88.63092 235.000
88.65087 243.000
88.67082 233.000
88.69076 247.000
88.71071 222.000
88.73066 249.000
88.75061 243.000
88.77055 205.000
88.79050 244.000
88.81045 269.000
88.83039 239.000
88.85034 237.000
88.87029 242.000
88.89023 235.000
88.91018 224.000
88.93013 261.000
88.95007 248.000
88.97002 210.000
88.98997 239.000
89.00992 254.000
89.02986 236.000
89.04981 248.000
89.06976 208.000
89.08970 248.000
89.10965 228.000
89.12960 246.000
89.14954 231.000
89.16949 246.000
89.18944 240.000
89.20939 225.000
89.22933 251.000
89.24928 241.000
89.26923 250.000
89.28917 227.000
89.30912 242.000
89.32907 210.000
89.34901 254.000
89.36896 239.000
89.38891 251.000
89.40885 241.000
89.42880 215.000
89.44875 245.000
89.46870 225.000
89.48864 223.000
89.50859 238.000
89.52854 236.000
89.54848 252.000
89.56843 239.000
89.58838 237.000
89.60832 241.000
89.62827 246.000
89.64822 250.000
89.66817 237.000
89.68811 243.000
89.70806 229.000
89.72801 252.000
89.74795 234.000
89.76790 233.000
89.78785 233.000
89.80779 254.000
89.82774 243.000
89.84769 269.000
89.86764 254.000
89.88758 232.000
89.90753 267.000
89.92748 214.000
89.94742 237.000
89.96737 259.000
89.98732 249.000
90.00726 222.000
