10.00000 46.000
10.01995 54.000
10.03989 47.000
10.05984 58.000
10.07979 56.000
10.09973 50.000
10.11968 73.000
10.13963 68.000
10.15958 40.000
10.17952 65.000
10.19947 70.000
10.21942 52.000
10.23936 50.000
10.25931 67.000
10.27926 59.000
10.29920 41.000
10.31915 56.000
10.33910 47.000
10.35905 56.000
10.37899 53.000
10.39894 52.000
10.41889 62.000
10.43883 58.000
10.45878 52.000
10.47873 58.000
10.49867 35.000
10.51862 69.000
10.53857 63.000
10.55851 54.000
10.57846 51.000
10.59841 59.000
10.61836 52.000
10.63830 50.000
10.65825 59.000
10.67820 48.000
10.69814 57.000
10.71809 58.000
10.73804 51.000
10.75798 69.000
10.77793 58.000
10.79788 42.000
10.81783 58.000
10.83777 50.000
10.85772 55.000
10.87767 50.000
10.89761 65.000
10.91756 49.000
10.93751 69.000
10.95745 58.000
10.97740 57.000
10.99735 46.000
11.01730 60.000
11.03724 60.000
11.05719 52.000
11.07714 65.000
11.09708 58.000
11.11703 52.000
11.13698 61.000
11.15692 54.000
11.17687 63.000
11.19682 54.000
11.21676 48.000
11.23671 53.000
11.25666 47.000
11.27661 60.000
11.29655 56.000
11.31650 48.000
11.33645 50.000
11.35639 55.000
11.37634 53.000
11.39629 56.000
11.41623 59.000
11.43618 52.000
11.45613 52.000
11.47608 54.000
11.49602 59.000
11.51597 61.000
11.53592 51.000
11.55586 40.000
11.57581 40.000
11.59576 47.000
11.61570 56.000
11.63565 51.000
11.65560 56.000
11.67554 58.000
11.69549 53.000
11.71544 58.000
11.73539 57.000
11.75533 44.000
11.77528 38.000
11.79523 55.000
11.81517 56.000
11.83512 58.000
11.85507 56.000
11.87501 47.000
11.89496 67.000
11.91491 58.000
11.93486 52.000
11.95480 58.000
11.97475 52.000
11.99470 56.000
12.01464 41.000
12.03459 67.000
12.05454 64.000
12.07448 51.000
12.09443 61.000
12.11438 46.000
12.13432 58.000
12.15427 59.000
12.17422 61.000
12.19417 48.000
12.21411 62.000
12.23406 65.000
12.25401 69.000
12.27395 62.000
12.29390 66.000
12.31385 74.000
12.33379 62.000
12.35374 51.000
12.37369 54.000
12.39364 56.000
12.41358 47.000
12.43353 59.000
12.45348 67.000
12.47342 61.000
12.49337 63.000
12.51332 59.000
12.53326 55.000
12.55321 61.000
12.57316 54.000
12.59311 51.000
12.61305 57.000
12.63300 57.000
12.65295 70.000
12.67289 63.000
12.69284 49.000
12.71279 62.000
12.73273 58.000
12.75268 59.000
12.77263 56.000
12.79257 57.000
12.81252 58.000
12.83247 58.000
12.85242 55.000
12.87236 60.000
12.89231 59.000
12.91226 54.000
12.93220 53.000
12.95215 63.000
12.97210 74.000
12.99204 63.000
13.01199 62.000
13.03194 60.000
13.05189 57.000
13.07183 60.000
13.09178 50.000
13.11173 57.000
13.13167 69.000
13.15162 59.000
13.17157 60.000
13.19151 56.000
13.21146 53.000
13.23141 61.000
13.25135 81.000
13.27130 57.000
13.29125 49.000
13.31120 69.000
13.33114 60.000
13.35109 61.000
13.37104 60.000
13.39098 59.000
13.41093 63.000
13.43088 49.000
13.45082 62.000
13.47077 62.000
13.49072 59.000
13.51067 57.000
13.53061 68.000
13.55056 54.000
13.57051 71.000
13.59045 55.000
13.61040 63.000
13.63035 72.000
13.65029 70.000
13.67024 67.000
13.69019 75.000
13.71013 67.000
13.73008 80.000
13.75003 78.000
13.76998 72.000
13.78992 49.000
13.80987 60.000
13.82982 64.000
13.84976 68.000
13.86971 66.000
13.88966 78.000
13.90960 60.000
13.92955 71.000
13.94950 73.000
13.96945 81.000
13.98939 77.000
14.00934 61.000
14.02929 60.000
14.04923 64.000
14.06918 67.000
14.08913 65.000
14.10907 56.000
14.12902 80.000
14.14897 72.000
14.16892 114.000
14.18886 72.000
14.20881 93.000
14.22876 87.000
14.24870 76.000
14.26865 81.000
14.28860 84.000
14.30854 87.000
14.32849 71.000
14.34844 79.000
14.36838 88.000
14.38833 73.000
14.40828 80.000
14.42823 91.000
14.44817 67.000
14.46812 76.000
14.48807 108.000
14.50801 84.000
14.52796 88.000
14.54791 99.000
14.56785 112.000
14.58780 78.000
14.60775 91.000
14.62770 97.000
14.64764 78.000
14.66759 85.000
14.68754 93.000
14.70748 88.000
14.72743 91.000
14.74738 102.000
14.76732 97.000
14.78727 94.000
14.80722 118.000
14.82716 106.000
14.84711 99.000
14.86706 122.000
14.88701 91.000
14.90695 116.000
14.92690 111.000
14.94685 101.000
14.96679 103.000
14.98674 131.000
15.00669 145.000
15.02663 141.000
15.04658 161.000
15.06653 156.000
15.08648 153.000
15.10642 147.000
15.12637 147.000
15.14632 151.000
15.16626 145.000
15.18621 177.000
15.20616 182.000
15.22610 179.000
15.24605 184.000
15.26600 190.000
15.28594 198.000
15.30589 205.000
15.32584 230.000
15.34579 213.000
15.36573 222.000
15.38568 269.000
15.40563 260.000
15.42557 276.000
15.44552 330.000
15.46547 330.000
15.48541 375.000
15.50536 412.000
15.52531 505.000
15.54526 631.000
15.56520 797.000
15.58515 1112.000
15.60510 1652.000
15.62504 2533.000
15.64499 4080.000
15.66494 6637.000
15.68488 10347.000
15.70483 13971.000
15.72478 13798.000
15.74472 10629.000
15.76467 7096.000
15.78462 3904.000
15.80457 1967.000
15.82451 1174.000
15.84446 766.000
15.86441 585.000
15.88435 420.000
15.90430 397.000
15.92425 337.000
15.94419 260.000
15.96414 252.000
15.98409 203.000
16.00404 196.000
16.02398 207.000
16.04393 165.000
16.06388 168.000
16.08382 203.000
16.10377 146.000
16.12372 162.000
16.14366 140.000
16.16361 138.000
16.18356 122.000
16.20351 119.000
16.22345 132.000
16.24340 111.000
16.26335 136.000
16.28329 121.000
16.30324 117.000
16.32319 108.000
16.34313 119.000
16.36308 87.000
16.38303 115.000
16.40297 102.000
16.42292 86.000
16.44287 87.000
16.46282 80.000
16.48276 86.000
16.50271 77.000
16.52266 82.000
16.54260 87.000
16.56255 85.000
16.58250 77.000
16.60244 76.000
16.62239 81.000
16.64234 75.000
16.66229 72.000
16.68223 70.000
16.70218 57.000
16.72213 65.000
16.74207 66.000
16.76202 58.000
16.78197 57.000
16.80191 57.000
16.82186 65.000
16.84181 67.000
16.86175 75.000
16.88170 67.000
16.90165 59.000
16.92160 55.000
16.94154 52.000
16.96149 60.000
16.98144 52.000
17.00138 63.000
17.02133 62.000
17.04128 62.000
17.06122 68.000
17.08117 65.000
17.10112 60.000
17.12107 45.000
17.14101 49.000
17.16096 60.000
17.18091 63.000
17.20085 49.000
17.22080 63.000
17.24075 62.000
17.26069 60.000
17.28064 51.000
17.30059 59.000
17.32053 74.000
17.34048 68.000
17.36043 56.000
17.38038 44.000
17.40032 56.000
17.42027 49.000
17.44022 65.000
17.46016 56.000
17.48011 51.000
17.50006 63.000
17.52000 55.000
17.53995 51.000
17.55990 51.000
17.57985 58.000
17.59979 47.000
17.61974 60.000
17.63969 45.000
17.65963 57.000
17.67958 48.000
17.69953 49.000
17.71947 59.000
17.73942 41.000
17.75937 38.000
17.77932 53.000
17.79926 51.000
17.81921 59.000
17.83916 57.000
17.85910 65.000
17.87905 58.000
17.89900 56.000
17.91894 60.000
17.93889 59.000
17.95884 50.000
17.97878 43.000
17.99873 54.000
18.01868 52.000
18.03863 52.000
18.05857 52.000
18.07852 46.000
18.09847 56.000
18.11841 57.000
18.13836 65.000
18.15831 67.000
18.17825 63.000
18.19820 75.000
18.21815 74.000
18.23810 67.000
18.25804 82.000
18.27799 104.000
18.29794 127.000
18.31788 118.000
18.33783 145.000
18.35778 149.000
18.37772 132.000
18.39767 135.000
18.41762 117.000
18.43756 89.000
18.45751 65.000
18.47746 66.000
18.49741 63.000
18.51735 43.000
18.53730 47.000
18.55725 64.000
18.57719 48.000
18.59714 55.000
18.61709 51.000
18.63703 54.000
18.65698 55.000
18.67693 53.000
18.69688 48.000
18.71682 36.000
18.73677 50.000
18.75672 48.000
18.77666 49.000
18.79661 41.000
18.81656 48.000
18.83650 39.000
18.85645 54.000
18.87640 50.000
18.89634 60.000
18.91629 48.000
18.93624 49.000
18.95619 56.000
18.97613 50.000
18.99608 45.000
19.01603 49.000
19.03597 41.000
19.05592 47.000
19.07587 48.000
19.09581 42.000
19.11576 50.000
19.13571 50.000
19.15566 55.000
19.17560 60.000
19.19555 47.000
19.21550 47.000
19.23544 54.000
19.25539 63.000
19.27534 36.000
19.29528 49.000
19.31523 44.000
19.33518 42.000
19.35513 51.000
19.37507 39.000
19.39502 54.000
19.41497 50.000
19.43491 51.000
19.45486 53.000
19.47481 54.000
19.49475 53.000
19.51470 54.000
19.53465 42.000
19.55459 52.000
19.57454 52.000
19.59449 59.000
19.61444 36.000
19.63438 44.000
19.65433 51.000
19.67428 47.000
19.69422 55.000
19.71417 39.000
19.73412 42.000
19.75406 54.000
19.77401 48.000
19.79396 52.000
19.81391 44.000
19.83385 63.000
19.85380 52.000
19.87375 48.000
19.89369 47.000
19.91364 49.000
19.93359 32.000
19.95353 51.000
19.97348 50.000
19.99343 44.000
20.01337 38.000
20.03332 40.000
20.05327 49.000
20.07322 48.000
20.09316 54.000
20.11311 46.000
20.13306 50.000
20.15300 54.000
20.17295 61.000
20.19290 28.000
20.21284 54.000
20.23279 40.000
20.25274 56.000
20.27269 46.000
20.29263 51.000
20.31258 50.000
20.33253 39.000
20.35247 54.000
20.37242 41.000
20.39237 62.000
20.41231 54.000
20.43226 56.000
20.45221 47.000
20.47215 55.000
20.49210 52.000
20.51205 56.000
20.53200 50.000
20.55194 54.000
20.57189 51.000
20.59184 45.000
20.61178 49.000
20.63173 60.000
20.65168 52.000
20.67162 59.000
20.69157 62.000
20.71152 35.000
20.73147 46.000
20.75141 41.000
20.77136 42.000
20.79131 48.000
20.81125 50.000
20.83120 53.000
20.85115 39.000
20.87109 56.000
20.89104 59.000
20.91099 55.000
20.93094 58.000
20.95088 52.000
20.97083 50.000
20.99078 63.000
21.01072 58.000
21.03067 53.000
21.05062 61.000
21.07056 43.000
21.09051 57.000
21.11046 62.000
21.13040 64.000
21.15035 52.000
21.17030 47.000
21.19025 52.000
21.21019 51.000
21.23014 39.000
21.25009 50.000
21.27003 49.000
21.28998 61.000
21.30993 52.000
21.32987 54.000
21.34982 50.000
21.36977 50.000
21.38972 43.000
21.40966 59.000
21.42961 51.000
21.44956 59.000
21.46950 50.000
21.48945 46.000
21.50940 62.000
21.52934 52.000
21.54929 33.000
21.56924 61.000
21.58918 48.000
21.60913 59.000
21.62908 53.000
21.64903 46.000
21.66897 40.000
21.68892 56.000
21.70887 53.000
21.72881 58.000
21.74876 55.000
21.76871 56.000
21.78865 49.000
21.80860 55.000
21.82855 58.000
21.84850 50.000
21.86844 46.000
21.88839 42.000
21.90834 51.000
21.92828 47.000
21.94823 43.000
21.96818 50.000
21.98812 40.000
22.00807 51.000
22.02802 56.000
22.04796 49.000
22.06791 71.000
22.08786 47.000
22.10781 50.000
22.12775 43.000
22.14770 60.000
22.16765 56.000
22.18759 52.000
22.20754 49.000
22.22749 49.000
22.24743 41.000
22.26738 37.000
22.28733 60.000
22.30728 62.000
22.32722 57.000
22.34717 44.000
22.36712 48.000
22.38706 47.000
22.40701 52.000
22.42696 66.000
22.44690 63.000
22.46685 56.000
22.48680 57.000
22.50675 32.000
22.52669 40.000
22.54664 60.000
22.56659 48.000
22.58653 62.000
22.60648 62.000
22.62643 55.000
22.64637 53.000
22.66632 49.000
22.68627 51.000
22.70621 59.000
22.72616 53.000
22.74611 48.000
22.76606 52.000
22.78600 44.000
22.80595 48.000
22.82590 62.000
22.84584 50.000
22.86579 55.000
22.88574 51.000
22.90568 58.000
22.92563 57.000
22.94558 40.000
22.96553 48.000
22.98547 52.000
23.00542 49.000
23.02537 54.000
23.04531 63.000
23.06526 54.000
23.08521 50.000
23.10515 68.000
23.12510 51.000
23.14505 60.000
23.16499 51.000
23.18494 48.000
23.20489 58.000
23.22484 53.000
23.24478 61.000
23.26473 56.000
23.28468 72.000
23.30462 56.000
23.32457 55.000
23.34452 56.000
23.36446 60.000
23.38441 54.000
23.40436 50.000
23.42431 51.000
23.44425 51.000
23.46420 52.000
23.48415 51.000
23.50409 64.000
23.52404 53.000
23.54399 50.000
23.56393 63.000
23.58388 57.000
23.60383 51.000
23.62377 64.000
23.64372 68.000
23.66367 77.000
23.68362 52.000
23.70356 50.000
23.72351 57.000
23.74346 56.000
23.76340 55.000
23.78335 58.000
23.80330 57.000
23.82324 66.000
23.84319 69.000
23.86314 44.000
23.88309 58.000
23.90303 53.000
23.92298 56.000
23.94293 53.000
23.96287 51.000
23.98282 59.000
24.00277 58.000
24.02271 46.000
24.04266 53.000
24.06261 56.000
24.08256 60.000
24.10250 54.000
24.12245 72.000
24.14240 52.000
24.16234 48.000
24.18229 51.000
24.20224 67.000
24.22218 47.000
24.24213 59.000
24.26208 64.000
24.28202 57.000
24.30197 50.000
24.32192 53.000
24.34187 63.000
24.36181 61.000
24.38176 60.000
24.40171 53.000
24.42165 63.000
24.44160 46.000
24.46155 54.000
24.48149 64.000
24.50144 44.000
24.52139 56.000
24.54134 45.000
24.56128 53.000
24.58123 52.000
24.60118 66.000
24.62112 44.000
24.64107 64.000
24.66102 55.000
24.68096 47.000
24.70091 61.000
24.72086 46.000
24.74080 54.000
24.76075 54.000
24.78070 59.000
24.80065 61.000
24.82059 51.000
24.84054 58.000
24.86049 63.000
24.88043 52.000
24.90038 60.000
24.92033 58.000
24.94027 50.000
24.96022 67.000
24.98017 48.000
25.00012 64.000
25.02006 59.000
25.04001 63.000
25.05996 55.000
25.07990 68.000
25.09985 48.000
25.11980 72.000
25.13974 67.000
25.15969 60.000
25.17964 50.000
25.19958 62.000
25.21953 51.000
25.23948 62.000
25.25943 62.000
25.27937 52.000
25.29932 72.000
25.31927 52.000
25.33921 56.000
25.35916 44.000
25.37911 54.000
25.39905 76.000
25.41900 69.000
25.43895 47.000
25.45890 47.000
25.47884 55.000
25.49879 56.000
25.51874 61.000
25.53868 58.000
25.55863 57.000
25.57858 46.000
25.59852 66.000
25.61847 57.000
25.63842 47.000
25.65837 53.000
25.67831 64.000
25.69826 65.000
25.71821 69.000
25.73815 70.000
25.75810 61.000
25.77805 59.000
25.79799 60.000
25.81794 62.000
25.83789 47.000
25.85783 57.000
25.87778 64.000
25.89773 50.000
25.91768 60.000
25.93762 50.000
25.95757 55.000
25.97752 60.000
25.99746 66.000
26.01741 49.000
26.03736 60.000
26.05730 59.000
26.07725 44.000
26.09720 52.000
26.11715 53.000
26.13709 70.000
26.15704 59.000
26.17699 46.000
26.19693 62.000
26.21688 55.000
26.23683 57.000
26.25677 59.000
26.27672 60.000
26.29667 46.000
26.31661 67.000
26.33656 49.000
26.35651 49.000
26.37646 64.000
26.39640 77.000
26.41635 61.000
26.43630 64.000
26.45624 53.000
26.47619 41.000
26.49614 67.000
26.51608 61.000
26.53603 58.000
26.55598 60.000
26.57593 55.000
26.59587 43.000
26.61582 61.000
26.63577 50.000
26.65571 61.000
26.67566 51.000
26.69561 51.000
26.71555 59.000
26.73550 51.000
26.75545 52.000
26.77539 64.000
26.79534 59.000
26.81529 51.000
26.83524 59.000
26.85518 53.000
26.87513 53.000
26.89508 46.000
26.91502 52.000
26.93497 56.000
26.95492 59.000
26.97486 47.000
26.99481 64.000
27.01476 48.000
27.03471 62.000
27.05465 42.000
27.07460 56.000
27.09455 58.000
27.11449 54.000
27.13444 55.000
27.15439 49.000
27.17433 62.000
27.19428 73.000
27.21423 55.000
27.23417 68.000
27.25412 55.000
27.27407 66.000
27.29402 64.000
27.31396 60.000
27.33391 74.000
27.35386 57.000
27.37380 58.000
27.39375 52.000
27.41370 53.000
27.43364 63.000
27.45359 50.000
27.47354 58.000
27.49349 71.000
27.51343 54.000
27.53338 70.000
27.55333 55.000
27.57327 61.000
27.59322 59.000
27.61317 61.000
27.63311 63.000
27.65306 61.000
27.67301 66.000
27.69296 59.000
27.71290 76.000
27.73285 60.000
27.75280 71.000
27.77274 59.000
27.79269 58.000
27.81264 57.000
27.83258 65.000
27.85253 46.000
27.87248 54.000
27.89242 53.000
27.91237 57.000
27.93232 68.000
27.95227 69.000
27.97221 52.000
27.99216 49.000
28.01211 60.000
28.03205 54.000
28.05200 54.000
28.07195 56.000
28.09189 57.000
28.11184 62.000
28.13179 49.000
28.15174 58.000
28.17168 56.000
28.19163 63.000
28.21158 68.000
28.23152 63.000
28.25147 56.000
28.27142 59.000
28.29136 64.000
28.31131 51.000
28.33126 68.000
28.35120 52.000
28.37115 65.000
28.39110 55.000
28.41105 63.000
28.43099 61.000
28.45094 68.000
28.47089 61.000
28.49083 77.000
28.51078 53.000
28.53073 53.000
28.55067 51.000
28.57062 56.000
28.59057 57.000
28.61052 64.000
28.63046 61.000
28.65041 62.000
28.67036 59.000
28.69030 47.000
28.71025 56.000
28.73020 54.000
28.75014 55.000
28.77009 67.000
28.79004 56.000
28.80998 55.000
28.82993 43.000
28.84988 66.000
28.86983 62.000
28.88977 57.000
28.90972 54.000
28.92967 61.000
28.94961 50.000
28.96956 54.000
28.98951 55.000
29.00945 69.000
29.02940 46.000
29.04935 58.000
29.06930 53.000
29.08924 62.000
29.10919 65.000
29.12914 68.000
29.14908 57.000
29.16903 46.000
29.18898 56.000
29.20892 69.000
29.22887 58.000
29.24882 58.000
29.26877 45.000
29.28871 66.000
29.30866 75.000
29.32861 62.000
29.34855 56.000
29.36850 66.000
29.38845 65.000
29.40839 61.000
29.42834 64.000
29.44829 70.000
29.46823 55.000
29.48818 49.000
29.50813 60.000
29.52808 63.000
29.54802 71.000
29.56797 65.000
29.58792 80.000
29.60786 55.000
29.62781 59.000
29.64776 57.000
29.66770 59.000
29.68765 75.000
29.70760 61.000
29.72755 59.000
29.74749 67.000
29.76744 61.000
29.78739 57.000
29.80733 67.000
29.82728 64.000
29.84723 54.000
29.86717 64.000
29.88712 71.000
29.90707 79.000
29.92701 64.000
29.94696 85.000
29.96691 66.000
29.98686 105.000
30.00680 108.000
30.02675 123.000
30.04670 118.000
30.06664 112.000
30.08659 153.000
30.10654 165.000
30.12648 165.000
30.14643 167.000
30.16638 171.000
30.18633 202.000
30.20627 186.000
30.22622 212.000
30.24617 229.000
30.26611 199.000
30.28606 168.000
30.30601 153.000
30.32595 126.000
30.34590 108.000
30.36585 82.000
30.38579 82.000
30.40574 75.000
30.42569 68.000
30.44564 63.000
30.46558 60.000
30.48553 78.000
30.50548 61.000
30.52542 64.000
30.54537 68.000
30.56532 64.000
30.58526 58.000
30.60521 67.000
30.62516 72.000
30.64511 54.000
30.66505 60.000
30.68500 64.000
30.70495 74.000
30.72489 67.000
30.74484 45.000
30.76479 64.000
30.78473 75.000
30.80468 60.000
30.82463 71.000
30.84458 65.000
30.86452 62.000
30.88447 53.000
30.90442 81.000
30.92436 64.000
30.94431 58.000
30.96426 70.000
30.98420 67.000
31.00415 76.000
31.02410 63.000
31.04404 59.000
31.06399 82.000
31.08394 67.000
31.10389 57.000
31.12383 61.000
31.14378 76.000
31.16373 65.000
31.18367 80.000
31.20362 66.000
31.22357 81.000
31.24351 73.000
31.26346 78.000
31.28341 81.000
31.30336 68.000
31.32330 77.000
31.34325 76.000
31.36320 75.000
31.38314 82.000
31.40309 73.000
31.42304 75.000
31.44298 78.000
31.46293 91.000
31.48288 78.000
31.50282 80.000
31.52277 108.000
31.54272 102.000
31.56267 144.000
31.58261 144.000
31.60256 167.000
31.62251 247.000
31.64245 339.000
31.66240 419.000
31.68235 613.000
31.70229 726.000
31.72224 911.000
31.74219 879.000
31.76214 791.000
31.78208 746.000
31.80203 647.000
31.82198 545.000
31.84192 434.000
31.86187 291.000
31.88182 242.000
31.90176 171.000
31.92171 157.000
31.94166 105.000
31.96160 108.000
31.98155 101.000
32.00150 101.000
32.02145 84.000
32.04139 64.000
32.06134 73.000
32.08129 76.000
32.10123 73.000
32.12118 65.000
32.14113 61.000
32.16107 65.000
32.18102 77.000
32.20097 60.000
32.22092 63.000
32.24086 82.000
32.26081 75.000
32.28076 78.000
32.30070 63.000
32.32065 70.000
32.34060 68.000
32.36054 78.000
32.38049 59.000
32.40044 59.000
32.42039 65.000
32.44033 64.000
32.46028 71.000
32.48023 74.000
32.50017 68.000
32.52012 56.000
32.54007 77.000
32.56001 71.000
32.57996 68.000
32.59991 64.000
32.61985 64.000
32.63980 61.000
32.65975 64.000
32.67970 62.000
32.69964 63.000
32.71959 66.000
32.73954 54.000
32.75948 70.000
32.77943 56.000
32.79938 57.000
32.81932 69.000
32.83927 59.000
32.85922 61.000
32.87917 74.000
32.89911 54.000
32.91906 64.000
32.93901 70.000
32.95895 68.000
32.97890 67.000
32.99885 56.000
33.01879 73.000
33.03874 79.000
33.05869 66.000
33.07863 60.000
33.09858 66.000
33.11853 73.000
33.13848 77.000
33.15842 61.000
33.17837 63.000
33.19832 51.000
33.21826 53.000
33.23821 62.000
33.25816 62.000
33.27810 57.000
33.29805 67.000
33.31800 67.000
33.33795 66.000
33.35789 53.000
33.37784 52.000
33.39779 50.000
33.41773 61.000
33.43768 57.000
33.45763 66.000
33.47757 73.000
33.49752 57.000
33.51747 65.000
33.53741 55.000
33.55736 50.000
33.57731 73.000
33.59726 71.000
33.61720 59.000
33.63715 66.000
33.65710 55.000
33.67704 64.000
33.69699 73.000
33.71694 59.000
33.73688 71.000
33.75683 59.000
33.77678 66.000
33.79673 66.000
33.81667 56.000
33.83662 70.000
33.85657 58.000
33.87651 54.000
33.89646 53.000
33.91641 74.000
33.93635 66.000
33.95630 53.000
33.97625 68.000
33.99620 65.000
34.01614 60.000
34.03609 70.000
34.05604 57.000
34.07598 67.000
34.09593 75.000
34.11588 62.000
34.13582 59.000
34.15577 82.000
34.17572 66.000
34.19566 68.000
34.21561 91.000
34.23556 75.000
34.25551 69.000
34.27545 71.000
34.29540 71.000
34.31535 73.000
34.33529 54.000
34.35524 69.000
34.37519 79.000
34.39513 59.000
34.41508 94.000
34.43503 74.000
34.45498 78.000
34.47492 72.000
34.49487 67.000
34.51482 64.000
34.53476 74.000
34.55471 67.000
34.57466 65.000
34.59460 71.000
34.61455 63.000
34.63450 58.000
34.65444 69.000
34.67439 68.000
34.69434 69.000
34.71429 67.000
34.73423 79.000
34.75418 78.000
34.77413 74.000
34.79407 75.000
34.81402 64.000
34.83397 59.000
34.85391 72.000
34.87386 82.000
34.89381 55.000
34.91376 61.000
34.93370 61.000
34.95365 54.000
34.97360 71.000
34.99354 64.000
35.01349 69.000
35.03344 71.000
35.05338 79.000
35.07333 72.000
35.09328 81.000
35.11322 75.000
35.13317 74.000
35.15312 100.000
35.17307 112.000
35.19301 123.000
35.21296 110.000
35.23291 111.000
35.25285 101.000
35.27280 89.000
35.29275 138.000
35.31269 151.000
35.33264 132.000
35.35259 172.000
35.37254 174.000
35.39248 229.000
35.41243 254.000
35.43238 241.000
35.45232 280.000
35.47227 310.000
35.49222 347.000
35.51216 327.000
35.53211 386.000
35.55206 422.000
35.57201 480.000
35.59195 540.000
35.61190 568.000
35.63185 529.000
35.65179 501.000
35.67174 430.000
35.69169 416.000
35.71163 369.000
35.73158 375.000
35.75153 356.000
35.77147 399.000
35.79142 480.000
35.81137 696.000
35.83132 881.000
35.85126 1088.000
35.87121 1135.000
35.89116 1088.000
35.91110 988.000
35.93105 937.000
35.95100 836.000
35.97094 684.000
35.99089 565.000
36.01084 434.000
36.03079 353.000
36.05073 257.000
36.07068 214.000
36.09063 140.000
36.11057 128.000
36.13052 122.000
36.15047 116.000
36.17041 100.000
36.19036 103.000
36.21031 107.000
36.23025 95.000
36.25020 90.000
36.27015 76.000
36.29010 89.000
36.31004 93.000
36.32999 87.000
36.34994 78.000
36.36988 68.000
36.38983 97.000
36.40978 92.000
36.42972 82.000
36.44967 88.000
36.46962 71.000
36.48957 88.000
36.50951 79.000
36.52946 57.000
36.54941 81.000
36.56935 72.000
36.58930 85.000
36.60925 87.000
36.62919 89.000
36.64914 68.000
36.66909 91.000
36.68903 112.000
36.70898 136.000
36.72893 150.000
36.74888 168.000
36.76882 177.000
36.78877 207.000
36.80872 166.000
36.82866 159.000
36.84861 146.000
36.86856 137.000
36.88850 144.000
36.90845 108.000
36.92840 102.000
36.94835 114.000
36.96829 102.000
36.98824 91.000
37.00819 83.000
37.02813 82.000
37.04808 81.000
37.06803 95.000
37.08797 97.000
37.10792 99.000
37.12787 98.000
37.14781 86.000
37.16776 98.000
37.18771 97.000
37.20766 110.000
37.22760 110.000
37.24755 113.000
37.26750 109.000
37.28744 104.000
37.30739 101.000
37.32734 101.000
37.34728 101.000
37.36723 91.000
37.38718 78.000
37.40713 73.000
37.42707 74.000
37.44702 73.000
37.46697 70.000
37.48691 63.000
37.50686 68.000
37.52681 82.000
37.54675 85.000
37.56670 78.000
37.58665 75.000
37.60660 79.000
37.62654 78.000
37.64649 70.000
37.66644 84.000
37.68638 78.000
37.70633 74.000
37.72628 69.000
37.74622 85.000
37.76617 78.000
37.78612 81.000
37.80606 79.000
37.82601 73.000
37.84596 66.000
37.86591 77.000
37.88585 99.000
37.90580 83.000
37.92575 75.000
37.94569 84.000
37.96564 79.000
37.98559 85.000
38.00553 73.000
38.02548 97.000
38.04543 85.000
38.06538 82.000
38.08532 74.000
38.10527 77.000
38.12522 83.000
38.14516 74.000
38.16511 62.000
38.18506 65.000
38.20500 71.000
38.22495 83.000
38.24490 63.000
38.26484 70.000
38.28479 78.000
38.30474 72.000
38.32469 77.000
38.34463 95.000
38.36458 90.000
38.38453 76.000
38.40447 80.000
38.42442 102.000
38.44437 86.000
38.46431 57.000
38.48426 77.000
38.50421 94.000
38.52416 87.000
38.54410 101.000
38.56405 86.000
38.58400 91.000
38.60394 80.000
38.62389 107.000
38.64384 82.000
38.66378 94.000
38.68373 78.000
38.70368 85.000
38.72362 85.000
38.74357 97.000
38.76352 94.000
38.78347 102.000
38.80341 98.000
38.82336 106.000
38.84331 90.000
38.86325 96.000
38.88320 93.000
38.90315 115.000
38.92309 104.000
38.94304 122.000
38.96299 126.000
38.98294 145.000
39.00288 121.000
39.02283 139.000
39.04278 139.000
39.06272 176.000
39.08267 187.000
39.10262 162.000
39.12256 215.000
39.14251 214.000
39.16246 255.000
39.18241 251.000
39.20235 362.000
39.22230 341.000
39.24225 420.000
39.26219 551.000
39.28214 703.000
39.30209 992.000
39.32203 1301.000
39.34198 1510.000
39.36193 1777.000
39.38187 1819.000
39.40182 1719.000
39.42177 1643.000
39.44172 1511.000
39.46166 1348.000
39.48161 1215.000
39.50156 1078.000
39.52150 810.000
39.54145 685.000
39.56140 504.000
39.58134 418.000
39.60129 362.000
39.62124 290.000
39.64119 253.000
39.66113 241.000
39.68108 220.000
39.70103 158.000
39.72097 149.000
39.74092 169.000
39.76087 169.000
39.78081 112.000
39.80076 134.000
39.82071 125.000
39.84065 136.000
39.86060 113.000
39.88055 126.000
39.90050 113.000
39.92044 118.000
39.94039 90.000
39.96034 106.000
39.98028 90.000
40.00023 95.000
40.02018 94.000
40.04012 96.000
40.06007 89.000
40.08002 75.000
40.09997 105.000
40.11991 76.000
40.13986 81.000
40.15981 61.000
40.17975 84.000
40.19970 88.000
40.21965 81.000
40.23959 67.000
40.25954 63.000
40.27949 47.000
40.29943 69.000
40.31938 69.000
40.33933 75.000
40.35928 48.000
40.37922 73.000
40.39917 70.000
40.41912 83.000
40.43906 74.000
40.45901 62.000
40.47896 74.000
40.49890 67.000
40.51885 69.000
40.53880 85.000
40.55875 75.000
40.57869 59.000
40.59864 69.000
40.61859 75.000
40.63853 56.000
40.65848 77.000
40.67843 58.000
40.69837 71.000
40.71832 57.000
40.73827 60.000
40.75822 74.000
40.77816 61.000
40.79811 52.000
40.81806 57.000
40.83800 57.000
40.85795 51.000
40.87790 71.000
40.89784 57.000
40.91779 66.000
40.93774 48.000
40.95768 57.000
40.97763 61.000
40.99758 65.000
41.01753 60.000
41.03747 67.000
41.05742 54.000
41.07737 54.000
41.09731 76.000
41.11726 62.000
41.13721 56.000
41.15715 64.000
41.17710 61.000
41.19705 61.000
41.21700 78.000
41.23694 62.000
41.25689 79.000
41.27684 59.000
41.29678 61.000
41.31673 67.000
41.33668 61.000
41.35662 69.000
41.37657 75.000
41.39652 62.000
41.41646 57.000
41.43641 82.000
41.45636 71.000
41.47631 80.000
41.49625 66.000
41.51620 68.000
41.53615 73.000
41.55609 56.000
41.57604 47.000
41.59599 70.000
41.61593 52.000
41.63588 67.000
41.65583 59.000
41.67578 59.000
41.69572 62.000
41.71567 65.000
41.73562 73.000
41.75556 73.000
41.77551 53.000
41.79546 61.000
41.81540 57.000
41.83535 63.000
41.85530 65.000
41.87524 59.000
41.89519 61.000
41.91514 66.000
41.93509 49.000
41.95503 63.000
41.97498 67.000
41.99493 52.000
42.01487 64.000
42.03482 67.000
42.05477 45.000
42.07471 47.000
42.09466 70.000
42.11461 55.000
42.13456 54.000
42.15450 48.000
42.17445 66.000
42.19440 57.000
42.21434 70.000
42.23429 69.000
42.25424 57.000
42.27418 64.000
42.29413 46.000
42.31408 74.000
42.33403 53.000
42.35397 69.000
42.37392 59.000
42.39387 60.000
42.41381 63.000
42.43376 62.000
42.45371 63.000
42.47365 62.000
42.49360 64.000
42.51355 58.000
42.53349 65.000
42.55344 53.000
42.57339 62.000
42.59334 47.000
42.61328 64.000
42.63323 63.000
42.65318 69.000
42.67312 85.000
42.69307 60.000
42.71302 73.000
42.73296 68.000
42.75291 62.000
42.77286 59.000
42.79281 88.000
42.81275 80.000
42.83270 88.000
42.85265 80.000
42.87259 82.000
42.89254 88.000
42.91249 90.000
42.93243 81.000
42.95238 84.000
42.97233 105.000
42.99227 106.000
43.01222 109.000
43.03217 124.000
43.05212 121.000
43.07206 116.000
43.09201 132.000
43.11196 121.000
43.13190 112.000
43.15185 162.000
43.17180 191.000
43.19174 202.000
43.21169 198.000
43.23164 209.000
43.25159 257.000
43.27153 266.000
43.29148 300.000
43.31143 365.000
43.33137 437.000
43.35132 480.000
43.37127 568.000
43.39121 623.000
43.41116 749.000
43.43111 734.000
43.45105 695.000
43.47100 643.000
43.49095 600.000
43.51090 528.000
43.53084 503.000
43.55079 467.000
43.57074 423.000
43.59068 314.000
43.61063 281.000
43.63058 236.000
43.65052 190.000
43.67047 150.000
43.69042 162.000
43.71037 146.000
43.73031 107.000
43.75026 123.000
43.77021 132.000
43.79015 106.000
43.81010 92.000
43.83005 87.000
43.84999 89.000
43.86994 65.000
43.88989 77.000
43.90984 80.000
43.92978 72.000
43.94973 68.000
43.96968 69.000
43.98962 62.000
44.00957 68.000
44.02952 74.000
44.04946 77.000
44.06941 66.000
44.08936 77.000
44.10930 67.000
44.12925 48.000
44.14920 67.000
44.16915 63.000
44.18909 74.000
44.20904 81.000
44.22899 59.000
44.24893 73.000
44.26888 73.000
44.28883 60.000
44.30877 58.000
44.32872 48.000
44.34867 75.000
44.36862 89.000
44.38856 49.000
44.40851 74.000
44.42846 51.000
44.44840 55.000
44.46835 67.000
44.48830 69.000
44.50824 63.000
44.52819 47.000
44.54814 63.000
44.56808 68.000
44.58803 67.000
44.60798 75.000
44.62793 58.000
44.64787 58.000
44.66782 46.000
44.68777 56.000
44.70771 61.000
44.72766 65.000
44.74761 53.000
44.76755 56.000
44.78750 60.000
44.80745 61.000
44.82740 54.000
44.84734 55.000
44.86729 50.000
44.88724 62.000
44.90718 74.000
44.92713 52.000
44.94708 68.000
44.96702 52.000
44.98697 60.000
45.00692 71.000
45.02686 51.000
45.04681 42.000
45.06676 63.000
45.08671 49.000
45.10665 53.000
45.12660 55.000
45.14655 57.000
45.16649 57.000
45.18644 50.000
45.20639 66.000
45.22633 65.000
45.24628 58.000
45.26623 54.000
45.28618 59.000
45.30612 41.000
45.32607 62.000
45.34602 65.000
45.36596 49.000
45.38591 51.000
45.40586 52.000
45.42580 77.000
45.44575 66.000
45.46570 76.000
45.48565 55.000
45.50559 65.000
45.52554 60.000
45.54549 52.000
45.56543 49.000
45.58538 65.000
45.60533 64.000
45.62527 49.000
45.64522 53.000
45.66517 58.000
45.68511 55.000
45.70506 67.000
45.72501 62.000
45.74496 61.000
45.76490 52.000
45.78485 61.000
45.80480 52.000
45.82474 54.000
45.84469 48.000
45.86464 60.000
45.88458 64.000
45.90453 59.000
45.92448 70.000
45.94443 49.000
45.96437 53.000
45.98432 65.000
46.00427 69.000
46.02421 57.000
46.04416 57.000
46.06411 57.000
46.08405 63.000
46.10400 56.000
46.12395 67.000
46.14389 53.000
46.16384 59.000
46.18379 55.000
46.20374 49.000
46.22368 60.000
46.24363 71.000
46.26358 64.000
46.28352 64.000
46.30347 65.000
46.32342 61.000
46.34336 77.000
46.36331 62.000
46.38326 67.000
46.40321 67.000
46.42315 63.000
46.44310 65.000
46.46305 61.000
46.48299 62.000
46.50294 84.000
46.52289 70.000
46.54283 69.000
46.56278 87.000
46.58273 59.000
46.60267 69.000
46.62262 66.000
46.64257 71.000
46.66252 58.000
46.68246 74.000
46.70241 52.000
46.72236 62.000
46.74230 67.000
46.76225 49.000
46.78220 56.000
46.80214 63.000
46.82209 73.000
46.84204 64.000
46.86199 64.000
46.88193 67.000
46.90188 82.000
46.92183 60.000
46.94177 60.000
46.96172 49.000
46.98167 49.000
47.00161 65.000
47.02156 70.000
47.04151 58.000
47.06146 73.000
47.08140 67.000
47.10135 76.000
47.12130 71.000
47.14124 58.000
47.16119 59.000
47.18114 61.000
47.20108 78.000
47.22103 70.000
47.24098 59.000
47.26092 63.000
47.28087 56.000
47.30082 86.000
47.32077 61.000
47.34071 60.000
47.36066 56.000
47.38061 63.000
47.40055 76.000
47.42050 72.000
47.44045 69.000
47.46039 72.000
47.48034 61.000
47.50029 85.000
47.52024 79.000
47.54018 75.000
47.56013 78.000
47.58008 79.000
47.60002 68.000
47.61997 100.000
47.63992 77.000
47.65986 70.000
47.67981 75.000
47.69976 73.000
47.71970 73.000
47.73965 81.000
47.75960 69.000
47.77955 76.000
47.79949 61.000
47.81944 75.000
47.83939 86.000
47.85933 90.000
47.87928 80.000
47.89923 88.000
47.91917 96.000
47.93912 89.000
47.95907 109.000
47.97902 85.000
47.99896 103.000
48.01891 108.000
48.03886 89.000
48.05880 116.000
48.07875 101.000
48.09870 120.000
48.11864 83.000
48.13859 112.000
48.15854 139.000
48.17848 139.000
48.19843 146.000
48.21838 154.000
48.23833 152.000
48.25827 176.000
48.27822 163.000
48.29817 183.000
48.31811 168.000
48.33806 224.000
48.35801 230.000
48.37795 224.000
48.39790 260.000
48.41785 278.000
48.43780 316.000
48.45774 334.000
48.47769 402.000
48.49764 501.000
48.51758 607.000
48.53753 733.000
48.55748 873.000
48.57742 1074.000
48.59737 1245.000
48.61732 1441.000
48.63726 1379.000
48.65721 1317.000
48.67716 1317.000
48.69711 1206.000
48.71705 1127.000
48.73700 1121.000
48.75695 1066.000
48.77689 855.000
48.79684 793.000
48.81679 673.000
48.83673 586.000
48.85668 471.000
48.87663 387.000
48.89658 375.000
48.91652 296.000
48.93647 268.000
48.95642 233.000
48.97636 241.000
48.99631 201.000
49.01626 204.000
49.03620 167.000
49.05615 156.000
49.07610 135.000
49.09605 129.000
49.11599 136.000
49.13594 141.000
49.15589 121.000
49.17583 113.000
49.19578 111.000
49.21573 108.000
49.23567 100.000
49.25562 120.000
49.27557 103.000
49.29551 97.000
49.31546 77.000
49.33541 103.000
49.35536 98.000
49.37530 91.000
49.39525 93.000
49.41520 76.000
49.43514 88.000
49.45509 88.000
49.47504 81.000
49.49498 81.000
49.51493 76.000
49.53488 83.000
49.55483 84.000
49.57477 73.000
49.59472 83.000
49.61467 81.000
49.63461 76.000
49.65456 61.000
49.67451 72.000
49.69445 68.000
49.71440 75.000
49.73435 78.000
49.75429 55.000
49.77424 62.000
49.79419 65.000
49.81414 82.000
49.83408 67.000
49.85403 61.000
49.87398 74.000
49.89392 56.000
49.91387 58.000
49.93382 69.000
49.95376 62.000
49.97371 54.000
49.99366 67.000
50.01361 54.000
50.03355 82.000
50.05350 66.000
50.07345 76.000
50.09339 43.000
50.11334 74.000
50.13329 54.000
50.15323 54.000
50.17318 55.000
50.19313 70.000
50.21307 47.000
50.23302 50.000
50.25297 52.000
50.27292 59.000
50.29286 61.000
50.31281 75.000
50.33276 49.000
50.35270 53.000
50.37265 46.000
50.39260 54.000
50.41254 62.000
50.43249 40.000
50.45244 73.000
50.47239 60.000
50.49233 67.000
50.51228 59.000
50.53223 61.000
50.55217 62.000
50.57212 76.000
50.59207 47.000
50.61201 55.000
50.63196 61.000
50.65191 60.000
50.67186 54.000
50.69180 44.000
50.71175 49.000
50.73170 54.000
50.75164 63.000
50.77159 55.000
50.79154 55.000
50.81148 68.000
50.83143 56.000
50.85138 59.000
50.87132 56.000
50.89127 61.000
50.91122 55.000
50.93117 44.000
50.95111 54.000
50.97106 51.000
50.99101 60.000
51.01095 47.000
51.03090 45.000
51.05085 56.000
51.07079 54.000
51.09074 44.000
51.11069 65.000
51.13064 62.000
51.15058 51.000
51.17053 55.000
51.19048 67.000
51.21042 39.000
51.23037 44.000
51.25032 54.000
51.27026 57.000
51.29021 55.000
51.31016 49.000
51.33010 57.000
51.35005 52.000
51.37000 69.000
51.38995 40.000
51.40989 50.000
51.42984 57.000
51.44979 59.000
51.46973 47.000
51.48968 53.000
51.50963 46.000
51.52957 63.000
51.54952 51.000
51.56947 58.000
51.58942 41.000
51.60936 50.000
51.62931 48.000
51.64926 40.000
51.66920 56.000
51.68915 52.000
51.70910 42.000
51.72904 41.000
51.74899 48.000
51.76894 51.000
51.78888 51.000
51.80883 57.000
51.82878 51.000
51.84873 73.000
51.86867 60.000
51.88862 57.000
51.90857 49.000
51.92851 40.000
51.94846 55.000
51.96841 48.000
51.98835 48.000
52.00830 61.000
52.02825 50.000
52.04820 44.000
52.06814 54.000
52.08809 59.000
52.10804 49.000
52.12798 55.000
52.14793 48.000
52.16788 41.000
52.18782 49.000
52.20777 54.000
52.22772 41.000
52.24767 46.000
52.26761 48.000
52.28756 56.000
52.30751 51.000
52.32745 52.000
52.34740 49.000
52.36735 56.000
52.38729 64.000
52.40724 45.000
52.42719 56.000
52.44713 50.000
52.46708 56.000
52.48703 54.000
52.50698 54.000
52.52692 64.000
52.54687 47.000
52.56682 54.000
52.58676 59.000
52.60671 50.000
52.62666 54.000
52.64660 49.000
52.66655 40.000
52.68650 47.000
52.70645 55.000
52.72639 43.000
52.74634 64.000
52.76629 47.000
52.78623 50.000
52.80618 57.000
52.82613 40.000
52.84607 48.000
52.86602 64.000
52.88597 52.000
52.90591 44.000
52.92586 57.000
52.94581 45.000
52.96576 45.000
52.98570 50.000
53.00565 42.000
53.02560 54.000
53.04554 48.000
53.06549 58.000
53.08544 58.000
53.10538 56.000
53.12533 51.000
53.14528 50.000
53.16523 54.000
53.18517 39.000
53.20512 54.000
53.22507 49.000
53.24501 47.000
53.26496 47.000
53.28491 53.000
53.30485 46.000
53.32480 60.000
53.34475 55.000
53.36469 54.000
53.38464 71.000
53.40459 50.000
53.42454 52.000
53.44448 68.000
53.46443 57.000
53.48438 70.000
53.50432 57.000
53.52427 68.000
53.54422 58.000
53.56416 81.000
53.58411 57.000
53.60406 77.000
53.62401 88.000
53.64395 77.000
53.66390 74.000
53.68385 74.000
53.70379 77.000
53.72374 74.000
53.74369 80.000
53.76363 97.000
53.78358 63.000
53.80353 66.000
53.82348 81.000
53.84342 56.000
53.86337 62.000
53.88332 62.000
53.90326 43.000
53.92321 59.000
53.94316 45.000
53.96310 57.000
53.98305 60.000
54.00300 52.000
54.02294 64.000
54.04289 50.000
54.06284 52.000
54.08279 49.000
54.10273 54.000
54.12268 43.000
54.14263 52.000
54.16257 62.000
54.18252 46.000
54.20247 54.000
54.22241 51.000
54.24236 47.000
54.26231 49.000
54.28226 45.000
54.30220 47.000
54.32215 59.000
54.34210 45.000
54.36204 40.000
54.38199 50.000
54.40194 65.000
54.42188 45.000
54.44183 55.000
54.46178 48.000
54.48172 67.000
54.50167 50.000
54.52162 50.000
54.54157 51.000
54.56151 53.000
54.58146 51.000
54.60141 49.000
54.62135 53.000
54.64130 50.000
54.66125 43.000
54.68119 50.000
54.70114 60.000
54.72109 58.000
54.74104 44.000
54.76098 58.000
54.78093 51.000
54.80088 43.000
54.82082 54.000
54.84077 53.000
54.86072 50.000
54.88066 34.000
54.90061 50.000
54.92056 48.000
54.94050 47.000
54.96045 45.000
54.98040 67.000
55.00035 50.000
55.02029 40.000
55.04024 34.000
55.06019 51.000
55.08013 60.000
55.10008 49.000
55.12003 49.000
55.13997 50.000
55.15992 52.000
55.17987 47.000
55.19982 44.000
55.21976 58.000
55.23971 43.000
55.25966 47.000
55.27960 56.000
55.29955 47.000
55.31950 47.000
55.33944 54.000
55.35939 51.000
55.37934 67.000
55.39929 55.000
55.41923 51.000
55.43918 57.000
55.45913 53.000
55.47907 44.000
55.49902 45.000
55.51897 50.000
55.53891 50.000
55.55886 56.000
55.57881 44.000
55.59875 55.000
55.61870 44.000
55.63865 35.000
55.65860 48.000
55.67854 50.000
55.69849 50.000
55.71844 55.000
55.73838 46.000
55.75833 68.000
55.77828 46.000
55.79822 57.000
55.81817 51.000
55.83812 34.000
55.85807 52.000
55.87801 44.000
55.89796 62.000
55.91791 46.000
55.93785 55.000
55.95780 57.000
55.97775 41.000
55.99769 65.000
56.01764 62.000
56.03759 53.000
56.05753 52.000
56.07748 56.000
56.09743 55.000
56.11738 39.000
56.13732 59.000
56.15727 48.000
56.17722 49.000
56.19716 51.000
56.21711 59.000
56.23706 61.000
56.25700 53.000
56.27695 46.000
56.29690 53.000
56.31685 53.000
56.33679 65.000
56.35674 43.000
56.37669 55.000
56.39663 62.000
56.41658 51.000
56.43653 61.000
56.45647 66.000
56.47642 45.000
56.49637 64.000
56.51631 52.000
56.53626 63.000
56.55621 52.000
56.57616 65.000
56.59610 51.000
56.61605 60.000
56.63600 68.000
56.65594 63.000
56.67589 58.000
56.69584 37.000
56.71578 55.000
56.73573 65.000
56.75568 62.000
56.77563 58.000
56.79557 57.000
56.81552 64.000
56.83547 53.000
56.85541 78.000
56.87536 70.000
56.89531 95.000
56.91525 90.000
56.93520 76.000
56.95515 88.000
56.97510 78.000
56.99504 104.000
57.01499 90.000
57.03494 80.000
57.05488 106.000
57.07483 97.000
57.09478 111.000
57.11472 100.000
57.13467 124.000
57.15462 123.000
57.17456 131.000
57.19451 127.000
57.21446 117.000
57.23441 130.000
57.25435 116.000
57.27430 148.000
57.29425 146.000
57.31419 113.000
57.33414 108.000
57.35409 112.000
57.37403 94.000
57.39398 111.000
57.41393 88.000
57.43388 94.000
57.45382 73.000
57.47377 64.000
57.49372 95.000
57.51366 62.000
57.53361 55.000
57.55356 61.000
57.57350 65.000
57.59345 60.000
57.61340 51.000
57.63334 46.000
57.65329 57.000
57.67324 59.000
57.69319 62.000
57.71313 50.000
57.73308 73.000
57.75303 55.000
57.77297 56.000
57.79292 52.000
57.81287 61.000
57.83281 46.000
57.85276 49.000
57.87271 41.000
57.89266 65.000
57.91260 50.000
57.93255 44.000
57.95250 44.000
57.97244 48.000
57.99239 65.000
58.01234 62.000
58.03228 49.000
58.05223 51.000
58.07218 59.000
58.09212 55.000
58.11207 45.000
58.13202 52.000
58.15197 50.000
58.17191 57.000
58.19186 41.000
58.21181 58.000
58.23175 56.000
58.25170 53.000
58.27165 49.000
58.29159 45.000
58.31154 39.000
58.33149 56.000
58.35144 65.000
58.37138 45.000
58.39133 50.000
58.41128 42.000
58.43122 67.000
58.45117 54.000
58.47112 39.000
58.49106 58.000
58.51101 61.000
58.53096 48.000
58.55090 57.000
58.57085 45.000
58.59080 47.000
58.61075 46.000
58.63069 63.000
58.65064 46.000
58.67059 46.000
58.69053 52.000
58.71048 54.000
58.73043 47.000
58.75037 49.000
58.77032 66.000
58.79027 66.000
58.81022 55.000
58.83016 50.000
58.85011 53.000
58.87006 53.000
58.89000 60.000
58.90995 67.000
58.92990 45.000
58.94984 54.000
58.96979 49.000
58.98974 47.000
59.00969 60.000
59.02963 47.000
59.04958 49.000
59.06953 48.000
59.08947 59.000
59.10942 53.000
59.12937 56.000
59.14931 56.000
59.16926 62.000
59.18921 56.000
59.20915 56.000
59.22910 44.000
59.24905 50.000
59.26900 52.000
59.28894 60.000
59.30889 50.000
59.32884 50.000
59.34878 56.000
59.36873 57.000
59.38868 65.000
59.40862 48.000
59.42857 57.000
59.44852 51.000
59.46847 41.000
59.48841 51.000
59.50836 45.000
59.52831 60.000
59.54825 55.000
59.56820 46.000
59.58815 53.000
59.60809 59.000
59.62804 54.000
59.64799 45.000
59.66793 60.000
59.68788 39.000
59.70783 63.000
59.72778 54.000
59.74772 50.000
59.76767 56.000
59.78762 52.000
59.80756 52.000
59.82751 45.000
59.84746 61.000
59.86740 57.000
59.88735 61.000
59.90730 45.000
59.92725 46.000
59.94719 46.000
59.96714 57.000
59.98709 55.000
60.00703 51.000
60.02698 57.000
60.04693 72.000
60.06687 53.000
60.08682 58.000
60.10677 54.000
60.12671 66.000
60.14666 60.000
60.16661 51.000
60.18656 64.000
60.20650 66.000
60.22645 65.000
60.24640 42.000
60.26634 49.000
60.28629 69.000
60.30624 57.000
60.32618 66.000
60.34613 55.000
60.36608 57.000
60.38603 41.000
60.40597 63.000
60.42592 64.000
60.44587 65.000
60.46581 59.000
60.48576 68.000
60.50571 63.000
60.52565 65.000
60.54560 46.000
60.56555 74.000
60.58550 58.000
60.60544 62.000
60.62539 69.000
60.64534 54.000
60.66528 65.000
60.68523 63.000
60.70518 49.000
60.72512 53.000
60.74507 69.000
60.76502 81.000
60.78496 72.000
60.80491 51.000
60.82486 64.000
60.84481 66.000
60.86475 72.000
60.88470 53.000
60.90465 60.000
60.92459 64.000
60.94454 76.000
60.96449 78.000
60.98443 74.000
61.00438 67.000
61.02433 75.000
61.04428 67.000
61.06422 57.000
61.08417 71.000
61.10412 69.000
61.12406 71.000
61.14401 72.000
61.16396 82.000
61.18390 61.000
61.20385 94.000
61.22380 76.000
61.24374 104.000
61.26369 109.000
61.28364 85.000
61.30359 89.000
61.32353 98.000
61.34348 98.000
61.36343 130.000
61.38337 136.000
61.40332 129.000
61.42327 134.000
61.44321 133.000
61.46316 157.000
61.48311 173.000
61.50306 149.000
61.52300 204.000
61.54295 259.000
61.56290 270.000
61.58284 319.000
61.60279 330.000
61.62274 390.000
61.64268 467.000
61.66263 453.000
61.68258 509.000
61.70252 532.000
61.72247 513.000
61.74242 516.000
61.76237 537.000
61.78231 480.000
61.80226 432.000
61.82221 484.000
61.84215 439.000
61.86210 405.000
61.88205 370.000
61.90199 354.000
61.92194 331.000
61.94189 307.000
61.96184 245.000
61.98178 214.000
62.00173 209.000
62.02168 195.000
62.04162 167.000
62.06157 168.000
62.08152 155.000
62.10146 111.000
62.12141 138.000
62.14136 103.000
62.16131 119.000
62.18125 122.000
62.20120 90.000
62.22115 109.000
62.24109 106.000
62.26104 93.000
62.28099 102.000
62.30093 113.000
62.32088 99.000
62.34083 96.000
62.36077 107.000
62.38072 108.000
62.40067 104.000
62.42062 101.000
62.44056 77.000
62.46051 97.000
62.48046 95.000
62.50040 120.000
62.52035 97.000
62.54030 116.000
62.56024 118.000
62.58019 125.000
62.60014 122.000
62.62009 123.000
62.64003 118.000
62.65998 133.000
62.67993 137.000
62.69987 123.000
62.71982 148.000
62.73977 139.000
62.75971 148.000
62.77966 170.000
62.79961 166.000
62.81955 145.000
62.83950 149.000
62.85945 166.000
62.87940 193.000
62.89934 175.000
62.91929 161.000
62.93924 155.000
62.95918 159.000
62.97913 143.000
62.99908 131.000
63.01902 120.000
63.03897 127.000
63.05892 126.000
63.07887 116.000
63.09881 109.000
63.11876 110.000
63.13871 100.000
63.15865 93.000
63.17860 76.000
63.19855 58.000
63.21849 74.000
63.23844 67.000
63.25839 71.000
63.27833 66.000
63.29828 56.000
63.31823 52.000
63.33818 54.000
63.35812 61.000
63.37807 47.000
63.39802 65.000
63.41796 50.000
63.43791 65.000
63.45786 64.000
63.47780 55.000
63.49775 74.000
63.51770 64.000
63.53765 61.000
63.55759 49.000
63.57754 53.000
63.59749 69.000
63.61743 52.000
63.63738 62.000
63.65733 59.000
63.67727 71.000
63.69722 48.000
63.71717 60.000
63.73712 60.000
63.75706 62.000
63.77701 66.000
63.79696 57.000
63.81690 67.000
63.83685 55.000
63.85680 73.000
63.87674 78.000
63.89669 62.000
63.91664 72.000
63.93658 65.000
63.95653 62.000
63.97648 61.000
63.99643 74.000
64.01637 61.000
64.03632 69.000
64.05627 72.000
64.07621 86.000
64.09616 73.000
64.11611 79.000
64.13605 73.000
64.15600 84.000
64.17595 107.000
64.19590 103.000
64.21584 117.000
64.23579 103.000
64.25574 157.000
64.27568 153.000
64.29563 189.000
64.31558 157.000
64.33552 223.000
64.35547 287.000
64.37542 347.000
64.39536 383.000
64.41531 467.000
64.43526 470.000
64.45521 538.000
64.47515 507.000
64.49510 525.000
64.51505 491.000
64.53499 410.000
64.55494 401.000
64.57489 409.000
64.59483 415.000
64.61478 359.000
64.63473 367.000
64.65468 329.000
64.67462 266.000
64.69457 255.000
64.71452 237.000
64.73446 174.000
64.75441 178.000
64.77436 160.000
64.79430 114.000
64.81425 113.000
64.83420 118.000
64.85414 88.000
64.87409 88.000
64.89404 79.000
64.91399 66.000
64.93393 69.000
64.95388 74.000
64.97383 70.000
64.99377 79.000
65.01372 56.000
65.03367 69.000
65.05361 76.000
65.07356 72.000
65.09351 62.000
65.11346 72.000
65.13340 65.000
65.15335 74.000
65.17330 53.000
65.19324 55.000
65.21319 61.000
65.23314 57.000
65.25308 68.000
65.27303 53.000
65.29298 46.000
65.31293 42.000
65.33287 72.000
65.35282 60.000
65.37277 67.000
65.39271 62.000
65.41266 61.000
65.43261 72.000
65.45255 49.000
65.47250 62.000
65.49245 67.000
65.51239 61.000
65.53234 55.000
65.55229 54.000
65.57224 65.000
65.59218 62.000
65.61213 73.000
65.63208 50.000
65.65202 76.000
65.67197 61.000
65.69192 61.000
65.71186 50.000
65.73181 61.000
65.75176 69.000
65.77171 60.000
65.79165 69.000
65.81160 47.000
65.83155 68.000
65.85149 53.000
65.87144 63.000
65.89139 70.000
65.91133 57.000
65.93128 69.000
65.95123 56.000
65.97117 67.000
65.99112 57.000
66.01107 71.000
66.03102 75.000
66.05096 88.000
66.07091 71.000
66.09086 65.000
66.11080 106.000
66.13075 82.000
66.15070 96.000
66.17064 98.000
66.19059 112.000
66.21054 107.000
66.23049 93.000
66.25043 143.000
66.27038 148.000
66.29033 127.000
66.31027 120.000
66.33022 153.000
66.35017 111.000
66.37011 136.000
66.39006 121.000
66.41001 131.000
66.42995 121.000
66.44990 122.000
66.46985 103.000
66.48980 113.000
66.50974 117.000
66.52969 120.000
66.54964 115.000
66.56958 140.000
66.58953 134.000
66.60948 152.000
66.62942 132.000
66.64937 148.000
66.66932 192.000
66.68927 215.000
66.70921 249.000
66.72916 248.000
66.74911 298.000
66.76905 324.000
66.78900 348.000
66.80895 316.000
66.82889 322.000
66.84884 378.000
66.86879 364.000
66.88874 330.000
66.90868 274.000
66.92863 280.000
66.94858 289.000
66.96852 282.000
66.98847 264.000
67.00842 256.000
67.02836 229.000
67.04831 219.000
67.06826 184.000
67.08820 167.000
67.10815 152.000
67.12810 134.000
67.14805 129.000
67.16799 103.000
67.18794 94.000
67.20789 90.000
67.22783 79.000
67.24778 72.000
67.26773 79.000
67.28767 74.000
67.30762 61.000
67.32757 89.000
67.34752 72.000
67.36746 63.000
67.38741 66.000
67.40736 80.000
67.42730 61.000
67.44725 52.000
67.46720 58.000
67.48714 65.000
67.50709 49.000
67.52704 65.000
67.54698 54.000
67.56693 44.000
67.58688 49.000
67.60683 64.000
67.62677 60.000
67.64672 55.000
67.66667 63.000
67.68661 49.000
67.70656 48.000
67.72651 57.000
67.74645 60.000
67.76640 47.000
67.78635 56.000
67.80630 44.000
67.82624 51.000
67.84619 37.000
67.86614 50.000
67.88608 51.000
67.90603 52.000
67.92598 55.000
67.94592 56.000
67.96587 44.000
67.98582 46.000
68.00576 56.000
68.02571 56.000
68.04566 50.000
68.06561 43.000
68.08555 45.000
68.10550 56.000
68.12545 45.000
68.14539 58.000
68.16534 45.000
68.18529 39.000
68.20523 42.000
68.22518 54.000
68.24513 55.000
68.26508 48.000
68.28502 53.000
68.30497 37.000
68.32492 37.000
68.34486 55.000
68.36481 54.000
68.38476 51.000
68.40470 43.000
68.42465 55.000
68.44460 49.000
68.46455 48.000
68.48449 42.000
68.50444 53.000
68.52439 66.000
68.54433 47.000
68.56428 52.000
68.58423 56.000
68.60417 50.000
68.62412 46.000
68.64407 47.000
68.66401 31.000
68.68396 45.000
68.70391 43.000
68.72386 39.000
68.74380 41.000
68.76375 57.000
68.78370 58.000
68.80364 36.000
68.82359 49.000
68.84354 59.000
68.86348 43.000
68.88343 42.000
68.90338 51.000
68.92333 47.000
68.94327 61.000
68.96322 49.000
68.98317 50.000
69.00311 54.000
69.02306 53.000
69.04301 48.000
69.06295 42.000
69.08290 42.000
69.10285 45.000
69.12279 41.000
69.14274 54.000
69.16269 51.000
69.18264 45.000
69.20258 52.000
69.22253 50.000
69.24248 51.000
69.26242 56.000
69.28237 71.000
69.30232 59.000
69.32226 52.000
69.34221 44.000
69.36216 56.000
69.38211 46.000
69.40205 53.000
69.42200 55.000
69.44195 58.000
69.46189 63.000
69.48184 41.000
69.50179 49.000
69.52173 49.000
69.54168 53.000
69.56163 47.000
69.58157 56.000
69.60152 42.000
69.62147 36.000
69.64142 49.000
69.66136 45.000
69.68131 62.000
69.70126 58.000
69.72120 65.000
69.74115 42.000
69.76110 52.000
69.78104 51.000
69.80099 54.000
69.82094 56.000
69.84089 69.000
69.86083 52.000
69.88078 59.000
69.90073 52.000
69.92067 51.000
69.94062 52.000
69.96057 51.000
69.98051 46.000
70.00046 57.000
70.02041 41.000
70.04035 55.000
70.06030 49.000
70.08025 50.000
70.10020 45.000
70.12014 56.000
70.14009 41.000
70.16004 47.000
70.17998 41.000
70.19993 54.000
70.21988 42.000
70.23982 47.000
70.25977 67.000
70.27972 42.000
70.29967 59.000
70.31961 45.000
70.33956 42.000
70.35951 44.000
70.37945 45.000
70.39940 40.000
70.41935 43.000
70.43929 46.000
70.45924 53.000
70.47919 55.000
70.49914 43.000
70.51908 49.000
70.53903 36.000
70.55898 46.000
70.57892 43.000
70.59887 48.000
70.61882 40.000
70.63876 31.000
70.65871 37.000
70.67866 39.000
70.69860 45.000
70.71855 41.000
70.73850 42.000
70.75845 52.000
70.77839 43.000
70.79834 50.000
70.81829 52.000
70.83823 41.000
70.85818 44.000
70.87813 37.000
70.89807 47.000
70.91802 41.000
70.93797 67.000
70.95792 49.000
70.97786 56.000
70.99781 53.000
71.01776 53.000
71.03770 47.000
71.05765 43.000
71.07760 57.000
71.09754 42.000
71.11749 45.000
71.13744 59.000
71.15738 27.000
71.17733 53.000
71.19728 65.000
71.21723 46.000
71.23717 38.000
71.25712 52.000
71.27707 47.000
71.29701 56.000
71.31696 51.000
71.33691 51.000
71.35685 57.000
71.37680 47.000
71.39675 59.000
71.41670 58.000
71.43664 48.000
71.45659 64.000
71.47654 53.000
71.49648 46.000
71.51643 41.000
71.53638 52.000
71.55632 51.000
71.57627 42.000
71.59622 48.000
71.61616 68.000
71.63611 66.000
71.65606 51.000
71.67601 54.000
71.69595 46.000
71.71590 45.000
71.73585 37.000
71.75579 49.000
71.77574 38.000
71.79569 30.000
71.81563 45.000
71.83558 45.000
71.85553 52.000
71.87548 54.000
71.89542 54.000
71.91537 48.000
71.93532 54.000
71.95526 48.000
71.97521 37.000
71.99516 61.000
72.01510 46.000
72.03505 45.000
72.05500 49.000
72.07495 46.000
72.09489 44.000
72.11484 40.000
72.13479 48.000
72.15473 53.000
72.17468 53.000
72.19463 39.000
72.21457 47.000
72.23452 53.000
72.25447 38.000
72.27441 51.000
72.29436 45.000
72.31431 41.000
72.33426 43.000
72.35420 44.000
72.37415 54.000
72.39410 51.000
72.41404 47.000
72.43399 54.000
72.45394 45.000
72.47388 39.000
72.49383 32.000
72.51378 47.000
72.53373 53.000
72.55367 47.000
72.57362 46.000
72.59357 44.000
72.61351 50.000
72.63346 35.000
72.65341 56.000
72.67335 44.000
72.69330 43.000
72.71325 46.000
72.73319 48.000
72.75314 45.000
72.77309 42.000
72.79304 42.000
72.81298 46.000
72.83293 47.000
72.85288 55.000
72.87282 60.000
72.89277 53.000
72.91272 50.000
72.93266 46.000
72.95261 43.000
72.97256 58.000
72.99251 52.000
73.01245 53.000
73.03240 52.000
73.05235 39.000
73.07229 47.000
73.09224 64.000
73.11219 62.000
73.13213 36.000
73.15208 42.000
73.17203 56.000
73.19197 55.000
73.21192 46.000
73.23187 59.000
73.25182 63.000
73.27176 65.000
73.29171 53.000
73.31166 59.000
73.33160 45.000
73.35155 62.000
73.37150 65.000
73.39144 77.000
73.41139 88.000
73.43134 64.000
73.45129 94.000
73.47123 94.000
73.49118 96.000
73.51113 117.000
73.53107 130.000
73.55102 139.000
73.57097 152.000
73.59091 141.000
73.61086 152.000
73.63081 163.000
73.65076 177.000
73.67070 186.000
73.69065 144.000
73.71060 155.000
73.73054 147.000
73.75049 144.000
73.77044 138.000
73.79038 139.000
73.81033 132.000
73.83028 127.000
73.85022 127.000
73.87017 117.000
73.89012 125.000
73.91007 103.000
73.93001 114.000
73.94996 99.000
73.96991 100.000
73.98985 85.000
74.00980 74.000
74.02975 72.000
74.04969 65.000
74.06964 74.000
74.08959 66.000
74.10954 72.000
74.12948 65.000
74.14943 58.000
74.16938 67.000
74.18932 76.000
74.20927 61.000
74.22922 55.000
74.24916 64.000
74.26911 71.000
74.28906 63.000
74.30900 56.000
74.32895 72.000
74.34890 59.000
74.36885 65.000
74.38879 70.000
74.40874 70.000
74.42869 62.000
74.44863 73.000
74.46858 65.000
74.48853 64.000
74.50847 77.000
74.52842 60.000
74.54837 51.000
74.56832 60.000
74.58826 60.000
74.60821 62.000
74.62816 72.000
74.64810 62.000
74.66805 47.000
74.68800 53.000
74.70794 52.000
74.72789 46.000
74.74784 39.000
74.76778 57.000
74.78773 42.000
74.80768 48.000
74.82763 45.000
74.84757 46.000
74.86752 48.000
74.88747 56.000
74.90741 40.000
74.92736 52.000
74.94731 50.000
74.96725 44.000
74.98720 56.000
75.00715 49.000
75.02710 56.000
75.04704 62.000
75.06699 57.000
75.08694 54.000
75.10688 42.000
75.12683 55.000
75.14678 42.000
75.16672 60.000
75.18667 48.000
75.20662 52.000
75.22657 65.000
75.24651 48.000
75.26646 69.000
75.28641 61.000
75.30635 55.000
75.32630 60.000
75.34625 55.000
75.36619 56.000
75.38614 60.000
75.40609 62.000
75.42603 61.000
75.44598 57.000
75.46593 70.000
75.48588 51.000
75.50582 51.000
75.52577 44.000
75.54572 64.000
75.56566 65.000
75.58561 55.000
75.60556 61.000
75.62550 59.000
75.64545 53.000
75.66540 58.000
75.68535 55.000
75.70529 58.000
75.72524 46.000
75.74519 68.000
75.76513 46.000
75.78508 65.000
75.80503 56.000
75.82497 78.000
75.84492 78.000
75.86487 73.000
75.88481 73.000
75.90476 66.000
75.92471 68.000
75.94466 76.000
75.96460 81.000
75.98455 114.000
76.00450 91.000
76.02444 93.000
76.04439 94.000
76.06434 94.000
76.08428 88.000
76.10423 105.000
76.12418 94.000
76.14413 72.000
76.16407 76.000
76.18402 86.000
76.20397 95.000
76.22391 77.000
76.24386 81.000
76.26381 71.000
76.28375 74.000
76.30370 88.000
76.32365 84.000
76.34359 80.000
76.36354 63.000
76.38349 71.000
76.40344 59.000
76.42338 69.000
76.44333 63.000
76.46328 53.000
76.48322 63.000
76.50317 51.000
76.52312 54.000
76.54306 50.000
76.56301 49.000
76.58296 61.000
76.60291 51.000
76.62285 54.000
76.64280 54.000
76.66275 55.000
76.68269 69.000
76.70264 53.000
76.72259 44.000
76.74253 56.000
76.76248 55.000
76.78243 64.000
76.80238 54.000
76.82232 67.000
76.84227 59.000
76.86222 50.000
76.88216 54.000
76.90211 54.000
76.92206 41.000
76.94200 58.000
76.96195 55.000
76.98190 45.000
77.00184 52.000
77.02179 44.000
77.04174 52.000
77.06169 61.000
77.08163 57.000
77.10158 58.000
77.12153 46.000
77.14147 47.000
77.16142 52.000
77.18137 48.000
77.20131 54.000
77.22126 64.000
77.24121 54.000
77.26116 54.000
77.28110 53.000
77.30105 72.000
77.32100 78.000
77.34094 72.000
77.36089 71.000
77.38084 69.000
77.40078 64.000
77.42073 66.000
77.44068 73.000
77.46062 82.000
77.48057 88.000
77.50052 97.000
77.52047 104.000
77.54041 86.000
77.56036 102.000
77.58031 119.000
77.60025 139.000
77.62020 117.000
77.64015 144.000
77.66009 175.000
77.68004 153.000
77.69999 148.000
77.71994 174.000
77.73988 166.000
77.75983 154.000
77.77978 167.000
77.79972 170.000
77.81967 177.000
77.83962 164.000
77.85956 148.000
77.87951 153.000
77.89946 154.000
77.91940 164.000
77.93935 157.000
77.95930 151.000
77.97925 163.000
77.99919 142.000
78.01914 160.000
78.03909 143.000
78.05903 179.000
78.07898 162.000
78.09893 140.000
78.11887 166.000
78.13882 172.000
78.15877 147.000
78.17872 175.000
78.19866 187.000
78.21861 176.000
78.23856 185.000
78.25850 186.000
78.27845 151.000
78.29840 138.000
78.31834 148.000
78.33829 158.000
78.35824 155.000
78.37819 136.000
78.39813 140.000
78.41808 126.000
78.43803 141.000
78.45797 127.000
78.47792 111.000
78.49787 95.000
78.51781 115.000
78.53776 111.000
78.55771 76.000
78.57765 87.000
78.59760 84.000
78.61755 90.000
78.63750 71.000
78.65744 71.000
78.67739 81.000
78.69734 70.000
78.71728 69.000
78.73723 58.000
78.75718 67.000
78.77712 57.000
78.79707 46.000
78.81702 65.000
78.83697 57.000
78.85691 56.000
78.87686 55.000
78.89681 64.000
78.91675 51.000
78.93670 63.000
78.95665 54.000
78.97659 61.000
78.99654 55.000
79.01649 53.000
79.03643 50.000
79.05638 57.000
79.07633 52.000
79.09628 62.000
79.11622 56.000
79.13617 46.000
79.15612 51.000
79.17606 43.000
79.19601 47.000
79.21596 54.000
79.23590 57.000
79.25585 42.000
79.27580 60.000
79.29575 54.000
79.31569 52.000
79.33564 61.000
79.35559 50.000
79.37553 63.000
79.39548 59.000
79.41543 62.000
79.43537 42.000
79.45532 64.000
79.47527 53.000
79.49521 48.000
79.51516 50.000
79.53511 54.000
79.55506 67.000
79.57500 51.000
79.59495 52.000
79.61490 46.000
79.63484 50.000
79.65479 54.000
79.67474 49.000
79.69468 43.000
79.71463 34.000
79.73458 49.000
79.75453 42.000
79.77447 43.000
79.79442 51.000
79.81437 42.000
79.83431 50.000
79.85426 52.000
79.87421 48.000
79.89415 39.000
79.91410 64.000
79.93405 45.000
79.95399 58.000
79.97394 30.000
79.99389 38.000
80.01384 41.000
80.03378 45.000
80.05373 43.000
80.07368 48.000
80.09362 50.000
80.11357 47.000
80.13352 39.000
80.15346 38.000
80.17341 54.000
80.19336 44.000
80.21331 52.000
80.23325 54.000
80.25320 47.000
80.27315 56.000
80.29309 54.000
80.31304 42.000
80.33299 42.000
80.35293 52.000
80.37288 46.000
80.39283 36.000
80.41278 43.000
80.43272 39.000
80.45267 42.000
80.47262 44.000
80.49256 43.000
80.51251 52.000
80.53246 44.000
80.55240 51.000
80.57235 47.000
80.59230 45.000
80.61224 43.000
80.63219 45.000
80.65214 35.000
80.67209 56.000
80.69203 48.000
80.71198 39.000
80.73193 58.000
80.75187 41.000
80.77182 45.000
80.79177 54.000
80.81171 38.000
80.83166 41.000
80.85161 64.000
80.87156 63.000
80.89150 58.000
80.91145 68.000
80.93140 65.000
80.95134 61.000
80.97129 59.000
80.99124 68.000
81.01118 61.000
81.03113 51.000
81.05108 62.000
81.07102 62.000
81.09097 50.000
81.11092 50.000
81.13087 56.000
81.15081 55.000
81.17076 63.000
81.19071 47.000
81.21065 49.000
81.23060 52.000
81.25055 70.000
81.27049 59.000
81.29044 52.000
81.31039 64.000
81.33034 35.000
81.35028 51.000
81.37023 50.000
81.39018 50.000
81.41012 41.000
81.43007 52.000
81.45002 44.000
81.46996 50.000
81.48991 43.000
81.50986 38.000
81.52980 41.000
81.54975 48.000
81.56970 42.000
81.58965 48.000
81.60959 32.000
81.62954 36.000
81.64949 53.000
81.66943 39.000
81.68938 53.000
81.70933 51.000
81.72927 49.000
81.74922 52.000
81.76917 64.000
81.78912 61.000
81.80906 51.000
81.82901 51.000
81.84896 44.000
81.86890 54.000
81.88885 54.000
81.90880 42.000
81.92874 40.000
81.94869 41.000
81.96864 34.000
81.98859 43.000
82.00853 40.000
82.02848 46.000
82.04843 48.000
82.06837 63.000
82.08832 44.000
82.10827 52.000
82.12821 49.000
82.14816 36.000
82.16811 48.000
82.18805 52.000
82.20800 47.000
82.22795 41.000
82.24790 48.000
82.26784 49.000
82.28779 42.000
82.30774 65.000
82.32768 57.000
82.34763 48.000
82.36758 30.000
82.38752 44.000
82.40747 48.000
82.42742 51.000
82.44737 42.000
82.46731 50.000
82.48726 37.000
82.50721 58.000
82.52715 34.000
82.54710 43.000
82.56705 41.000
82.58699 45.000
82.60694 36.000
82.62689 54.000
82.64683 57.000
82.66678 37.000
82.68673 43.000
82.70668 46.000
82.72662 41.000
82.74657 51.000
82.76652 44.000
82.78646 53.000
82.80641 48.000
82.82636 27.000
82.84630 45.000
82.86625 40.000
82.88620 40.000
82.90615 41.000
82.92609 47.000
82.94604 50.000
82.96599 40.000
82.98593 46.000
83.00588 47.000
83.02583 47.000
83.04577 42.000
83.06572 47.000
83.08567 39.000
83.10561 49.000
83.12556 47.000
83.14551 48.000
83.16546 51.000
83.18540 45.000
83.20535 48.000
83.22530 45.000
83.24524 40.000
83.26519 36.000
83.28514 42.000
83.30508 60.000
83.32503 54.000
83.34498 47.000
83.36493 44.000
83.38487 44.000
83.40482 49.000
83.42477 47.000
83.44471 43.000
83.46466 40.000
83.48461 60.000
83.50455 49.000
83.52450 53.000
83.54445 40.000
83.56440 53.000
83.58434 55.000
83.60429 52.000
83.62424 35.000
83.64418 37.000
83.66413 54.000
83.68408 45.000
83.70402 45.000
83.72397 53.000
83.74392 54.000
83.76386 46.000
83.78381 50.000
83.80376 35.000
83.82371 40.000
83.84365 41.000
83.86360 50.000
83.88355 42.000
83.90349 41.000
83.92344 46.000
83.94339 57.000
83.96333 40.000
83.98328 54.000
84.00323 52.000
84.02318 50.000
84.04312 54.000
84.06307 59.000
84.08302 51.000
84.10296 48.000
84.12291 53.000
84.14286 66.000
84.16280 41.000
84.18275 54.000
84.20270 55.000
84.22264 54.000
84.24259 61.000
84.26254 50.000
84.28249 65.000
84.30243 54.000
84.32238 77.000
84.34233 63.000
84.36227 81.000
84.38222 87.000
84.40217 73.000
84.42211 84.000
84.44206 102.000
84.46201 76.000
84.48196 92.000
84.50190 115.000
84.52185 106.000
84.54180 121.000
84.56174 113.000
84.58169 131.000
84.60164 127.000
84.62158 147.000
84.64153 153.000
84.66148 157.000
84.68142 158.000
84.70137 168.000
84.72132 168.000
84.74127 167.000
84.76121 188.000
84.78116 177.000
84.80111 139.000
84.82105 151.000
84.84100 138.000
84.86095 148.000
84.88089 164.000
84.90084 129.000
84.92079 136.000
84.94074 127.000
84.96068 143.000
84.98063 140.000
85.00058 118.000
85.02052 124.000
85.04047 87.000
85.06042 95.000
85.08036 104.000
85.10031 83.000
85.12026 87.000
85.14021 73.000
85.16015 89.000
85.18010 78.000
85.20005 70.000
85.21999 78.000
85.23994 85.000
85.25989 80.000
85.27983 53.000
85.29978 66.000
85.31973 62.000
85.33967 69.000
85.35962 62.000
85.37957 42.000
85.39952 54.000
85.41946 67.000
85.43941 50.000
85.45936 60.000
85.47930 57.000
85.49925 58.000
85.51920 50.000
85.53914 58.000
85.55909 44.000
85.57904 55.000
85.59899 51.000
85.61893 57.000
85.63888 48.000
85.65883 52.000
85.67877 53.000
85.69872 39.000
85.71867 43.000
85.73861 53.000
85.75856 68.000
85.77851 52.000
85.79845 46.000
85.81840 56.000
85.83835 48.000
85.85830 54.000
85.87824 52.000
85.89819 54.000
85.91814 52.000
85.93808 55.000
85.95803 38.000
85.97798 66.000
85.99792 60.000
86.01787 39.000
86.03782 64.000
86.05777 60.000
86.07771 65.000
86.09766 52.000
86.11761 61.000
86.13755 57.000
86.15750 51.000
86.17745 71.000
86.19739 83.000
86.21734 72.000
86.23729 59.000
86.25723 64.000
86.27718 74.000
86.29713 80.000
86.31708 58.000
86.33702 69.000
86.35697 45.000
86.37692 66.000
86.39686 47.000
86.41681 76.000
86.43676 58.000
86.45670 59.000
86.47665 72.000
86.49660 48.000
86.51655 49.000
86.53649 51.000
86.55644 72.000
86.57639 54.000
86.59633 56.000
86.61628 50.000
86.63623 58.000
86.65617 65.000
86.67612 52.000
86.69607 63.000
86.71602 54.000
86.73596 61.000
86.75591 58.000
86.77586 43.000
86.79580 64.000
86.81575 58.000
86.83570 59.000
86.85564 63.000
86.87559 52.000
86.89554 59.000
86.91548 60.000
86.93543 61.000
86.95538 62.000
86.97533 65.000
86.99527 70.000
87.01522 46.000
87.03517 54.000
87.05511 58.000
87.07506 64.000
87.09501 69.000
87.11495 81.000
87.13490 52.000
87.15485 60.000
87.17480 57.000
87.19474 57.000
87.21469 59.000
87.23464 58.000
87.25458 60.000
87.27453 57.000
87.29448 77.000
87.31442 54.000
87.33437 62.000
87.35432 59.000
87.37426 44.000
87.39421 45.000
87.41416 54.000
87.43411 51.000
87.45405 49.000
87.47400 42.000
87.49395 39.000
87.51389 40.000
87.53384 62.000
87.55379 39.000
87.57373 40.000
87.59368 52.000
87.61363 53.000
87.63358 45.000
87.65352 46.000
87.67347 45.000
87.69342 44.000
87.71336 36.000
87.73331 48.000
87.75326 35.000
87.77320 41.000
87.79315 41.000
87.81310 46.000
87.83304 38.000
87.85299 34.000
87.87294 38.000
87.89289 39.000
87.91283 40.000
87.93278 37.000
87.95273 51.000
87.97267 41.000
87.99262 36.000
88.01257 47.000
88.03251 55.000
88.05246 56.000
88.07241 39.000
88.09236 47.000
88.11230 41.000
88.13225 43.000
88.15220 36.000
88.17214 50.000
88.19209 45.000
88.21204 33.000
88.23198 43.000
88.25193 37.000
88.27188 48.000
88.29183 44.000
88.31177 36.000
88.33172 43.000
88.35167 51.000
88.37161 47.000
88.39156 31.000
88.41151 40.000
88.43145 47.000
88.45140 40.000
88.47135 54.000
88.49129 42.000
88.51124 50.000
88.53119 44.000
88.55114 34.000
88.57108 39.000
88.59103 51.000
88.61098 49.000
88.63092 36.000
88.65087 42.000
88.67082 32.000
88.69076 53.000
88.71071 44.000
88.73066 47.000
88.75061 40.000
88.77055 49.000
88.79050 43.000
88.81045 31.000
88.83039 46.000
88.85034 48.000
88.87029 52.000
88.89023 55.000
88.91018 35.000
88.93013 42.000
88.95007 37.000
88.97002 51.000
88.98997 41.000
89.00992 41.000
89.02986 45.000
89.04981 41.000
89.06976 43.000
89.08970 40.000
89.10965 49.000
89.12960 49.000
89.14954 41.000
89.16949 51.000
89.18944 49.000
89.20939 50.000
89.22933 49.000
89.24928 46.000
89.26923 47.000
89.28917 63.000
89.30912 55.000
89.32907 59.000
89.34901 41.000
89.36896 53.000
89.38891 58.000
89.40885 47.000
89.42880 54.000
89.44875 38.000
89.46870 49.000
89.48864 34.000
89.50859 58.000
89.52854 51.000
89.54848 49.000
89.56843 43.000
89.58838 49.000
89.60832 52.000
89.62827 46.000
89.64822 54.000
89.66817 44.000
89.68811 55.000
89.70806 49.000
89.72801 55.000
89.74795 37.000
89.76790 61.000
89.78785 56.000
89.80779 63.000
89.82774 41.000
89.84769 56.000
89.86764 55.000
89.88758 57.000
89.90753 62.000
89.92748 43.000
89.94742 49.000
89.96737 63.000
89.98732 50.000
90.00726 60.000
