10.00000 425.000
10.01995 392.000
10.03989 449.000
10.05984 452.000
10.07979 410.000
10.09973 399.000
10.11968 391.000
10.13963 407.000
10.15958 406.000
10.17952 409.000
10.19947 410.000
10.21942 417.000
10.23936 413.000
10.25931 401.000
10.27926 400.000
10.29920 418.000
10.31915 388.000
10.33910 378.000
10.35905 416.000
10.37899 415.000
10.39894 416.000
10.41889 400.000
10.43883 389.000
10.45878 376.000
10.47873 407.000
10.49867 395.000
10.51862 399.000
10.53857 443.000
10.55851 403.000
10.57846 382.000
10.59841 414.000
10.61836 409.000
10.63830 402.000
10.65825 420.000
10.67820 378.000
10.69814 428.000
10.71809 392.000
10.73804 403.000
10.75798 453.000
10.77793 372.000
10.79788 401.000
10.81783 451.000
10.83777 424.000
10.85772 373.000
10.87767 430.000
10.89761 381.000
10.91756 392.000
10.93751 432.000
10.95745 405.000
10.97740 383.000
10.99735 387.000
11.01730 438.000
11.03724 393.000
11.05719 375.000
11.07714 409.000
11.09708 397.000
11.11703 426.000
11.13698 416.000
11.15692 415.000
11.17687 456.000
11.19682 405.000
11.21676 401.000
11.23671 417.000
11.25666 413.000
11.27661 440.000
11.29655 406.000
11.31650 438.000
11.33645 441.000
11.35639 402.000
11.37634 417.000
11.39629 368.000
11.41623 389.000
11.43618 378.000
11.45613 418.000
11.47608 413.000
11.49602 409.000
11.51597 398.000
11.53592 414.000
11.55586 412.000
11.57581 417.000
11.59576 421.000
11.61570 408.000
11.63565 423.000
11.65560 422.000
11.67554 392.000
11.69549 426.000
11.71544 450.000
11.73539 432.000
11.75533 436.000
11.77528 376.000
11.79523 412.000
11.81517 477.000
11.83512 399.000
11.85507 454.000
11.87501 398.000
11.89496 400.000
11.91491 413.000
11.93486 427.000
11.95480 426.000
11.97475 405.000
11.99470 415.000
12.01464 415.000
12.03459 466.000
12.05454 346.000
12.07448 388.000
12.09443 414.000
12.11438 375.000
12.13432 405.000
12.15427 375.000
12.17422 387.000
12.19417 422.000
12.21411 426.000
12.23406 430.000
12.25401 395.000
12.27395 369.000
12.29390 379.000
12.31385 411.000
12.33379 425.000
12.35374 402.000
12.37369 427.000
12.39364 401.000
12.41358 414.000
12.43353 395.000
12.45348 374.000
12.47342 386.000
12.49337 412.000
12.51332 374.000
12.53326 387.000
12.55321 405.000
12.57316 385.000
12.59311 440.000
12.61305 417.000
12.63300 454.000
12.65295 397.000
12.67289 404.000
12.69284 382.000
12.71279 416.000
12.73273 409.000
12.75268 422.000
12.77263 377.000
12.79257 372.000
12.81252 381.000
12.83247 458.000
12.85242 408.000
12.87236 398.000
12.89231 421.000
12.91226 384.000
12.93220 328.000
12.95215 437.000
12.97210 383.000
12.99204 401.000
13.01199 399.000
13.03194 402.000
13.05189 408.000
13.07183 372.000
13.09178 396.000
13.11173 403.000
13.13167 411.000
13.15162 376.000
13.17157 416.000
13.19151 399.000
13.21146 395.000
13.23141 429.000
13.25135 419.000
13.27130 382.000
13.29125 413.000
13.31120 414.000
13.33114 415.000
13.35109 386.000
13.37104 390.000
13.39098 394.000
13.41093 385.000
13.43088 418.000
13.45082 400.000
13.47077 400.000
13.49072 426.000
13.51067 410.000
13.53061 402.000
13.55056 406.000
13.57051 390.000
13.59045 386.000
13.61040 405.000
13.63035 407.000
13.65029 384.000
13.67024 429.000
13.69019 421.000
13.71013 399.000
13.73008 398.000
13.75003 422.000
13.76998 429.000
13.78992 394.000
13.80987 409.000
13.82982 413.000
13.84976 390.000
13.86971 420.000
13.88966 422.000
13.90960 449.000
13.92955 397.000
13.94950 370.000
13.96945 401.000
13.98939 407.000
14.00934 395.000
14.02929 439.000
14.04923 405.000
14.06918 390.000
14.08913 398.000
14.10907 398.000
14.12902 415.000
14.14897 386.000
14.16892 448.000
14.18886 389.000
14.20881 398.000
14.22876 396.000
14.24870 403.000
14.26865 421.000
14.28860 372.000
14.30854 428.000
14.32849 417.000
14.34844 382.000
14.36838 405.000
14.38833 420.000
14.40828 379.000
14.42823 427.000
14.44817 411.000
14.46812 427.000
14.48807 423.000
14.50801 410.000
14.52796 419.000
14.54791 439.000
14.56785 445.000
14.58780 440.000
14.60775 406.000
14.62770 403.000
14.64764 412.000
14.66759 432.000
14.68754 437.000
14.70748 440.000
14.72743 441.000
14.74738 417.000
14.76732 400.000
14.78727 410.000
14.80722 444.000
14.82716 447.000
14.84711 413.000
14.86706 435.000
14.88701 444.000
14.90695 433.000
14.92690 436.000
14.94685 451.000
14.96679 426.000
14.98674 439.000
15.00669 412.000
15.02663 453.000
15.04658 424.000
15.06653 509.000
15.08648 456.000
15.10642 459.000
15.12637 480.000
15.14632 452.000
15.16626 462.000
15.18621 449.000
15.20616 478.000
15.22610 442.000
15.24605 451.000
15.26600 470.000
15.28594 523.000
15.30589 515.000
15.32584 466.000
15.34579 499.000
15.36573 518.000
15.38568 524.000
15.40563 547.000
15.42557 472.000
15.44552 508.000
15.46547 510.000
15.48541 542.000
15.50536 568.000
15.52531 571.000
15.54526 613.000
15.56520 584.000
15.58515 686.000
15.60510 730.000
15.62504 829.000
15.64499 976.000
15.66494 1324.000
15.68488 1665.000
15.70483 2682.000
15.72478 4047.000
15.74472 6333.000
15.76467 8410.000
15.78462 8400.000
15.80457 6654.000
15.82451 4464.000
15.84446 2663.000
15.86441 1758.000
15.88435 1362.000
15.90430 1170.000
15.92425 1157.000
15.94419 1199.000
15.96414 1377.000
15.98409 1612.000
16.00404 1774.000
16.02398 1769.000
16.04393 1576.000
16.06388 1477.000
16.08382 1298.000
16.10377 1093.000
16.12372 881.000
16.14366 752.000
16.16361 670.000
16.18356 554.000
16.20351 561.000
16.22345 528.000
16.24340 502.000
16.26335 505.000
16.28329 486.000
16.30324 494.000
16.32319 488.000
16.34313 463.000
16.36308 457.000
16.38303 448.000
16.40297 444.000
16.42292 487.000
16.44287 437.000
16.46282 482.000
16.48276 452.000
16.50271 457.000
16.52266 415.000
16.54260 414.000
16.56255 427.000
16.58250 464.000
16.60244 396.000
16.62239 387.000
16.64234 433.000
16.66229 447.000
16.68223 431.000
16.70218 443.000
16.72213 448.000
16.74207 464.000
16.76202 410.000
16.78197 446.000
16.80191 472.000
16.82186 447.000
16.84181 476.000
16.86175 453.000
16.88170 456.000
16.90165 469.000
16.92160 455.000
16.94154 429.000
16.96149 429.000
16.98144 417.000
17.00138 448.000
17.02133 427.000
17.04128 411.000
17.06122 419.000
17.08117 433.000
17.10112 390.000
17.12107 426.000
17.14101 445.000
17.16096 414.000
17.18091 437.000
17.20085 395.000
17.22080 412.000
17.24075 425.000
17.26069 410.000
17.28064 385.000
17.30059 424.000
17.32053 408.000
17.34048 418.000
17.36043 376.000
17.38038 372.000
17.40032 430.000
17.42027 372.000
17.44022 417.000
17.46016 440.000
17.48011 442.000
17.50006 386.000
17.52000 385.000
17.53995 401.000
17.55990 379.000
17.57985 443.000
17.59979 395.000
17.61974 373.000
17.63969 427.000
17.65963 406.000
17.67958 389.000
17.69953 414.000
17.71947 399.000
17.73942 407.000
17.75937 395.000
17.77932 416.000
17.79926 411.000
17.81921 422.000
17.83916 420.000
17.85910 434.000
17.87905 407.000
17.89900 394.000
17.91894 426.000
17.93889 388.000
17.95884 367.000
17.97878 416.000
17.99873 454.000
18.01868 388.000
18.03863 413.000
18.05857 420.000
18.07852 395.000
18.09847 417.000
18.11841 408.000
18.13836 434.000
18.15831 407.000
18.17825 440.000
18.19820 448.000
18.21815 407.000
18.23810 437.000
18.25804 424.000
18.27799 406.000
18.29794 432.000
18.31788 409.000
18.33783 402.000
18.35778 431.000
18.37772 395.000
18.39767 385.000
18.41762 401.000
18.43756 404.000
18.45751 396.000
18.47746 404.000
18.49741 374.000
18.51735 430.000
18.53730 388.000
18.55725 412.000
18.57719 419.000
18.59714 378.000
18.61709 400.000
18.63703 405.000
18.65698 414.000
18.67693 400.000
18.69688 414.000
18.71682 416.000
18.73677 417.000
18.75672 448.000
18.77666 376.000
18.79661 398.000
18.81656 386.000
18.83650 433.000
18.85645 392.000
18.87640 432.000
18.89634 417.000
18.91629 391.000
18.93624 413.000
18.95619 421.000
18.97613 441.000
18.99608 412.000
19.01603 416.000
19.03597 420.000
19.05592 433.000
19.07587 384.000
19.09581 459.000
19.11576 400.000
19.13571 405.000
19.15566 364.000
19.17560 405.000
19.19555 411.000
19.21550 412.000
19.23544 368.000
19.25539 390.000
19.27534 445.000
19.29528 370.000
19.31523 382.000
19.33518 381.000
19.35513 400.000
19.37507 433.000
19.39502 402.000
19.41497 406.000
19.43491 398.000
19.45486 385.000
19.47481 436.000
19.49475 389.000
19.51470 391.000
19.53465 401.000
19.55459 408.000
19.57454 419.000
19.59449 395.000
19.61444 389.000
19.63438 410.000
19.65433 451.000
19.67428 435.000
19.69422 400.000
19.71417 403.000
19.73412 391.000
19.75406 376.000
19.77401 381.000
19.79396 385.000
19.81391 377.000
19.83385 417.000
19.85380 433.000
19.87375 419.000
19.89369 412.000
19.91364 405.000
19.93359 382.000
19.95353 405.000
19.97348 396.000
19.99343 386.000
20.01337 406.000
20.03332 408.000
20.05327 380.000
20.07322 387.000
20.09316 390.000
20.11311 421.000
20.13306 414.000
20.15300 420.000
20.17295 409.000
20.19290 402.000
20.21284 479.000
20.23279 452.000
20.25274 383.000
20.27269 402.000
20.29263 374.000
20.31258 384.000
20.33253 382.000
20.35247 398.000
20.37242 406.000
20.39237 407.000
20.41231 379.000
20.43226 429.000
20.45221 456.000
20.47215 446.000
20.49210 411.000
20.51205 421.000
20.53200 414.000
20.55194 415.000
20.57189 421.000
20.59184 411.000
20.61178 413.000
20.63173 453.000
20.65168 457.000
20.67162 408.000
20.69157 434.000
20.71152 474.000
20.73147 490.000
20.75141 490.000
20.77136 546.000
20.79131 558.000
20.81125 698.000
20.83120 805.000
20.85115 931.000
20.87109 920.000
20.89104 970.000
20.91099 876.000
20.93094 805.000
20.95088 743.000
20.97083 604.000
20.99078 595.000
21.01072 583.000
21.03067 587.000
21.05062 565.000
21.07056 545.000
21.09051 520.000
21.11046 491.000
21.13040 489.000
21.15035 452.000
21.17030 449.000
21.19025 414.000
21.21019 420.000
21.23014 410.000
21.25009 443.000
21.27003 407.000
21.28998 383.000
21.30993 438.000
21.32987 395.000
21.34982 406.000
21.36977 392.000
21.38972 433.000
21.40966 405.000
21.42961 371.000
21.44956 410.000
21.46950 371.000
21.48945 423.000
21.50940 431.000
21.52934 392.000
21.54929 418.000
21.56924 418.000
21.58918 414.000
21.60913 402.000
21.62908 385.000
21.64903 385.000
21.66897 421.000
21.68892 399.000
21.70887 394.000
21.72881 414.000
21.74876 387.000
21.76871 423.000
21.78865 429.000
21.80860 374.000
21.82855 414.000
21.84850 389.000
21.86844 374.000
21.88839 451.000
21.90834 396.000
21.92828 427.000
21.94823 415.000
21.96818 431.000
21.98812 417.000
22.00807 412.000
22.02802 389.000
22.04796 403.000
22.06791 390.000
22.08786 462.000
22.10781 396.000
22.12775 394.000
22.14770 400.000
22.16765 403.000
22.18759 398.000
22.20754 416.000
22.22749 408.000
22.24743 412.000
22.26738 467.000
22.28733 390.000
22.30728 410.000
22.32722 389.000
22.34717 377.000
22.36712 418.000
22.38706 447.000
22.40701 439.000
22.42696 368.000
22.44690 393.000
22.46685 402.000
22.48680 426.000
22.50675 431.000
22.52669 401.000
22.54664 399.000
22.56659 406.000
22.58653 386.000
22.60648 424.000
22.62643 419.000
22.64637 395.000
22.66632 404.000
22.68627 442.000
22.70621 431.000
22.72616 433.000
22.74611 391.000
22.76606 421.000
22.78600 396.000
22.80595 392.000
22.82590 415.000
22.84584 386.000
22.86579 428.000
22.88574 412.000
22.90568 383.000
22.92563 404.000
22.94558 417.000
22.96553 400.000
22.98547 404.000
23.00542 414.000
23.02537 399.000
23.04531 398.000
23.06526 433.000
23.08521 408.000
23.10515 408.000
23.12510 425.000
23.14505 413.000
23.16499 399.000
23.18494 435.000
23.20489 380.000
23.22484 424.000
23.24478 361.000
23.26473 402.000
23.28468 399.000
23.30462 421.000
23.32457 414.000
23.34452 438.000
23.36446 431.000
23.38441 438.000
23.40436 396.000
23.42431 439.000
23.44425 379.000
23.46420 395.000
23.48415 396.000
23.50409 408.000
23.52404 386.000
23.54399 428.000
23.56393 363.000
23.58388 418.000
23.60383 391.000
23.62377 395.000
23.64372 403.000
23.66367 410.000
23.68362 379.000
23.70356 381.000
23.72351 398.000
23.74346 429.000
23.76340 395.000
23.78335 406.000
23.80330 387.000
23.82324 416.000
23.84319 395.000
23.86314 406.000
23.88309 418.000
23.90303 419.000
23.92298 411.000
23.94293 439.000
23.96287 391.000
23.98282 411.000
24.00277 442.000
24.02271 389.000
24.04266 382.000
24.06261 404.000
24.08256 420.000
24.10250 396.000
24.12245 394.000
24.14240 440.000
24.16234 428.000
24.18229 425.000
24.20224 438.000
24.22218 435.000
24.24213 433.000
24.26208 427.000
24.28202 400.000
24.30197 399.000
24.32192 484.000
24.34187 398.000
24.36181 397.000
24.38176 394.000
24.40171 425.000
24.42165 375.000
24.44160 421.000
24.46155 419.000
24.48149 417.000
24.50144 406.000
24.52139 391.000
24.54134 433.000
24.56128 432.000
24.58123 412.000
24.60118 439.000
24.62112 391.000
24.64107 429.000
24.66102 406.000
24.68096 366.000
24.70091 422.000
24.72086 426.000
24.74080 426.000
24.76075 422.000
24.78070 429.000
24.80065 403.000
24.82059 405.000
24.84054 387.000
24.86049 414.000
24.88043 399.000
24.90038 422.000
24.92033 434.000
24.94027 468.000
24.96022 409.000
24.98017 466.000
25.00012 431.000
25.02006 461.000
25.04001 468.000
25.05996 425.000
25.07990 430.000
25.09985 429.000
25.11980 409.000
25.13974 397.000
25.15969 436.000
25.17964 427.000
25.19958 441.000
25.21953 450.000
25.23948 386.000
25.25943 400.000
25.27937 422.000
25.29932 416.000
25.31927 410.000
25.33921 421.000
25.35916 442.000
25.37911 419.000
25.39905 409.000
25.41900 416.000
25.43895 405.000
25.45890 440.000
25.47884 401.000
25.49879 428.000
25.51874 418.000
25.53868 374.000
25.55863 412.000
25.57858 444.000
25.59852 384.000
25.61847 400.000
25.63842 396.000
25.65837 416.000
25.67831 423.000
25.69826 436.000
25.71821 435.000
25.73815 406.000
25.75810 437.000
25.77805 380.000
25.79799 427.000
25.81794 402.000
25.83789 430.000
25.85783 420.000
25.87778 400.000
25.89773 399.000
25.91768 408.000
25.93762 389.000
25.95757 410.000
25.97752 409.000
25.99746 413.000
26.01741 375.000
26.03736 378.000
26.05730 417.000
26.07725 405.000
26.09720 401.000
26.11715 403.000
26.13709 406.000
26.15704 393.000
26.17699 419.000
26.19693 415.000
26.21688 413.000
26.23683 431.000
26.25677 387.000
26.27672 376.000
26.29667 422.000
26.31661 421.000
26.33656 399.000
26.35651 408.000
26.37646 401.000
26.39640 365.000
26.41635 422.000
26.43630 393.000
26.45624 400.000
26.47619 420.000
26.49614 425.000
26.51608 429.000
26.53603 407.000
26.55598 399.000
26.57593 381.000
26.59587 394.000
26.61582 427.000
26.63577 428.000
26.65571 386.000
26.67566 395.000
26.69561 430.000
26.71555 420.000
26.73550 389.000
26.75545 435.000
26.77539 437.000
26.79534 417.000
26.81529 410.000
26.83524 430.000
26.85518 375.000
26.87513 441.000
26.89508 398.000
26.91502 439.000
26.93497 424.000
26.95492 399.000
26.97486 422.000
26.99481 389.000
27.01476 459.000
27.03471 420.000
27.05465 429.000
27.07460 398.000
27.09455 417.000
27.11449 461.000
27.13444 397.000
27.15439 427.000
27.17433 408.000
27.19428 413.000
27.21423 414.000
27.23417 395.000
27.25412 392.000
27.27407 425.000
27.29402 445.000
27.31396 404.000
27.33391 435.000
27.35386 422.000
27.37380 440.000
27.39375 462.000
27.41370 417.000
27.43364 386.000
27.45359 429.000
27.47354 415.000
27.49349 442.000
27.51343 412.000
27.53338 440.000
27.55333 443.000
27.57327 406.000
27.59322 442.000
27.61317 438.000
27.63311 441.000
27.65306 430.000
27.67301 417.000
27.69296 456.000
27.71290 403.000
27.73285 448.000
27.75280 397.000
27.77274 422.000
27.79269 434.000
27.81264 402.000
27.83258 420.000
27.85253 481.000
27.87248 437.000
27.89242 443.000
27.91237 384.000
27.93232 428.000
27.95227 412.000
27.97221 403.000
27.99216 396.000
28.01211 411.000
28.03205 420.000
28.05200 428.000
28.07195 371.000
28.09189 417.000
28.11184 381.000
28.13179 433.000
28.15174 412.000
28.17168 397.000
28.19163 408.000
28.21158 456.000
28.23152 405.000
28.25147 398.000
28.27142 426.000
28.29136 421.000
28.31131 444.000
28.33126 426.000
28.35120 447.000
28.37115 367.000
28.39110 383.000
28.41105 424.000
28.43099 407.000
28.45094 412.000
28.47089 433.000
28.49083 399.000
28.51078 419.000
28.53073 464.000
28.55067 434.000
28.57062 397.000
28.59057 453.000
28.61052 393.000
28.63046 416.000
28.65041 487.000
28.67036 393.000
28.69030 435.000
28.71025 438.000
28.73020 428.000
28.75014 385.000
28.77009 418.000
28.79004 389.000
28.80998 437.000
28.82993 443.000
28.84988 472.000
28.86983 455.000
28.88977 408.000
28.90972 399.000
28.92967 419.000
28.94961 414.000
28.96956 392.000
28.98951 418.000
29.00945 397.000
29.02940 388.000
29.04935 470.000
29.06930 374.000
29.08924 433.000
29.10919 422.000
29.12914 400.000
29.14908 421.000
29.16903 446.000
29.18898 429.000
29.20892 431.000
29.22887 449.000
29.24882 468.000
29.26877 465.000
29.28871 475.000
29.30866 503.000
29.32861 513.000
29.34855 497.000
29.36850 537.000
29.38845 491.000
29.40839 530.000
29.42834 503.000
29.44829 525.000
29.46823 492.000
29.48818 485.000
29.50813 460.000
29.52808 453.000
29.54802 489.000
29.56797 474.000
29.58792 461.000
29.60786 412.000
29.62781 430.000
29.64776 399.000
29.66770 477.000
29.68765 432.000
29.70760 392.000
29.72755 435.000
29.74749 420.000
29.76744 414.000
29.78739 398.000
29.80733 431.000
29.82728 441.000
29.84723 450.000
29.86717 421.000
29.88712 445.000
29.90707 455.000
29.92701 451.000
29.94696 454.000
29.96691 458.000
29.98686 476.000
30.00680 454.000
30.02675 473.000
30.04670 412.000
30.06664 446.000
30.08659 391.000
30.10654 448.000
30.12648 414.000
30.14643 437.000
30.16638 437.000
30.18633 464.000
30.20627 448.000
30.22622 435.000
30.24617 432.000
30.26611 430.000
30.28606 428.000
30.30601 376.000
30.32595 426.000
30.34590 437.000
30.36585 415.000
30.38579 401.000
30.40574 483.000
30.42569 440.000
30.44564 422.000
30.46558 415.000
30.48553 408.000
30.50548 463.000
30.52542 438.000
30.54537 428.000
30.56532 410.000
30.58526 429.000
30.60521 455.000
30.62516 472.000
30.64511 424.000
30.66505 430.000
30.68500 386.000
30.70495 460.000
30.72489 433.000
30.74484 410.000
30.76479 436.000
30.78473 415.000
30.80468 474.000
30.82463 455.000
30.84458 396.000
30.86452 451.000
30.88447 385.000
30.90442 428.000
30.92436 434.000
30.94431 443.000
30.96426 422.000
30.98420 467.000
31.00415 469.000
31.02410 438.000
31.04404 417.000
31.06399 432.000
31.08394 399.000
31.10389 424.000
31.12383 404.000
31.14378 429.000
31.16373 423.000
31.18367 419.000
31.20362 429.000
31.22357 429.000
31.24351 442.000
31.26346 406.000
31.28341 428.000
31.30336 426.000
31.32330 427.000
31.34325 412.000
31.36320 419.000
31.38314 406.000
31.40309 402.000
31.42304 485.000
31.44298 425.000
31.46293 447.000
31.48288 427.000
31.50282 447.000
31.52277 415.000
31.54272 451.000
31.56267 426.000
31.58261 434.000
31.60256 451.000
31.62251 445.000
31.64245 412.000
31.66240 468.000
31.68235 491.000
31.70229 511.000
31.72224 518.000
31.74219 488.000
31.76214 544.000
31.78208 620.000
31.80203 755.000
31.82198 878.000
31.84192 994.000
31.86187 914.000
31.88182 888.000
31.90176 908.000
31.92171 831.000
31.94166 737.000
31.96160 650.000
31.98155 648.000
32.00150 570.000
32.02145 505.000
32.04139 521.000
32.06134 502.000
32.08129 471.000
32.10123 464.000
32.12118 484.000
32.14113 456.000
32.16107 497.000
32.18102 497.000
32.20097 503.000
32.22092 470.000
32.24086 527.000
32.26081 513.000
32.28076 510.000
32.30070 522.000
32.32065 542.000
32.34060 525.000
32.36054 543.000
32.38049 591.000
32.40044 573.000
32.42039 602.000
32.44033 616.000
32.46028 715.000
32.48023 730.000
32.50017 869.000
32.52012 1009.000
32.54007 983.000
32.56001 823.000
32.57996 732.000
32.59991 811.000
32.61985 673.000
32.63980 643.000
32.65975 617.000
32.67970 502.000
32.69964 453.000
32.71959 496.000
32.73954 450.000
32.75948 429.000
32.77943 439.000
32.79938 458.000
32.81932 442.000
32.83927 449.000
32.85922 432.000
32.87917 465.000
32.89911 461.000
32.91906 468.000
32.93901 439.000
32.95895 427.000
32.97890 461.000
32.99885 429.000
33.01879 447.000
33.03874 441.000
33.05869 404.000
33.07863 444.000
33.09858 427.000
33.11853 427.000
33.13848 461.000
33.15842 426.000
33.17837 458.000
33.19832 463.000
33.21826 440.000
33.23821 457.000
33.25816 444.000
33.27810 443.000
33.29805 436.000
33.31800 457.000
33.33795 445.000
33.35789 445.000
33.37784 414.000
33.39779 444.000
33.41773 402.000
33.43768 415.000
33.45763 460.000
33.47757 411.000
33.49752 430.000
33.51747 428.000
33.53741 420.000
33.55736 427.000
33.57731 412.000
33.59726 456.000
33.61720 467.000
33.63715 441.000
33.65710 446.000
33.67704 426.000
33.69699 420.000
33.71694 490.000
33.73688 456.000
33.75683 420.000
33.77678 470.000
33.79673 478.000
33.81667 472.000
33.83662 475.000
33.85657 475.000
33.87651 424.000
33.89646 451.000
33.91641 465.000
33.93635 443.000
33.95630 446.000
33.97625 510.000
33.99620 473.000
34.01614 449.000
34.03609 416.000
34.05604 481.000
34.07598 451.000
34.09593 472.000
34.11588 474.000
34.13582 491.000
34.15577 519.000
34.17572 549.000
34.19566 529.000
34.21561 541.000
34.23556 541.000
34.25551 586.000
34.27545 598.000
34.29540 673.000
34.31535 742.000
34.33529 755.000
34.35524 822.000
34.37519 918.000
34.39513 903.000
34.41508 852.000
34.43503 934.000
34.45498 864.000
34.47492 807.000
34.49487 740.000
34.51482 747.000
34.53476 759.000
34.55471 722.000
34.57466 671.000
34.59460 642.000
34.61455 639.000
34.63450 592.000
34.65444 623.000
34.67439 591.000
34.69434 561.000
34.71429 551.000
34.73423 589.000
34.75418 594.000
34.77413 550.000
34.79407 559.000
34.81402 561.000
34.83397 571.000
34.85391 578.000
34.87386 571.000
34.89381 591.000
34.91376 580.000
34.93370 560.000
34.95365 573.000
34.97360 565.000
34.99354 528.000
35.01349 557.000
35.03344 520.000
35.05338 567.000
35.07333 593.000
35.09328 549.000
35.11322 584.000
35.13317 578.000
35.15312 625.000
35.17307 633.000
35.19301 695.000
35.21296 697.000
35.23291 756.000
35.25285 817.000
35.27280 908.000
35.29275 944.000
35.31269 937.000
35.33264 1102.000
35.35259 1260.000
35.37254 1329.000
35.39248 1674.000
35.41243 2109.000
35.43238 2815.000
35.45232 3110.000
35.47227 3139.000
35.49222 3429.000
35.51216 4462.000
35.53211 5720.000
35.55206 5698.000
35.57201 4544.000
35.59195 3646.000
35.61190 3429.000
35.63185 3603.000
35.65179 2997.000
35.67174 2242.000
35.69169 1702.000
35.71163 1394.000
35.73158 1215.000
35.75153 1029.000
35.77147 943.000
35.79142 801.000
35.81137 853.000
35.83132 818.000
35.85126 777.000
35.87121 702.000
35.89116 748.000
35.91110 636.000
35.93105 703.000
35.95100 707.000
35.97094 695.000
35.99089 632.000
36.01084 602.000
36.03079 655.000
36.05073 611.000
36.07068 574.000
36.09063 549.000
36.11057 563.000
36.13052 576.000
36.15047 539.000
36.17041 524.000
36.19036 512.000
36.21031 526.000
36.23025 520.000
36.25020 492.000
36.27015 535.000
36.29010 515.000
36.31004 488.000
36.32999 498.000
36.34994 466.000
36.36988 497.000
36.38983 511.000
36.40978 481.000
36.42972 497.000
36.44967 494.000
36.46962 508.000
36.48957 548.000
36.50951 511.000
36.52946 485.000
36.54941 534.000
36.56935 465.000
36.58930 476.000
36.60925 495.000
36.62919 503.000
36.64914 514.000
36.66909 537.000
36.68903 530.000
36.70898 505.000
36.72893 549.000
36.74888 560.000
36.76882 511.000
36.78877 509.000
36.80872 541.000
36.82866 537.000
36.84861 598.000
36.86856 607.000
36.88850 550.000
36.90845 586.000
36.92840 516.000
36.94835 567.000
36.96829 594.000
36.98824 607.000
37.00819 637.000
37.02813 610.000
37.04808 633.000
37.06803 676.000
37.08797 656.000
37.10792 650.000
37.12787 669.000
37.14781 622.000
37.16776 638.000
37.18771 620.000
37.20766 627.000
37.22760 581.000
37.24755 578.000
37.26750 561.000
37.28744 541.000
37.30739 523.000
37.32734 548.000
37.34728 488.000
37.36723 514.000
37.38718 510.000
37.40713 528.000
37.42707 493.000
37.44702 469.000
37.46697 461.000
37.48691 497.000
37.50686 499.000
37.52681 505.000
37.54675 490.000
37.56670 504.000
37.58665 474.000
37.60660 498.000
37.62654 463.000
37.64649 506.000
37.66644 490.000
37.68638 484.000
37.70633 497.000
37.72628 492.000
37.74622 525.000
37.76617 468.000
37.78612 465.000
37.80606 488.000
37.82601 474.000
37.84596 501.000
37.86591 499.000
37.88585 478.000
37.90580 481.000
37.92575 501.000
37.94569 582.000
37.96564 517.000
37.98559 500.000
38.00553 581.000
38.02548 528.000
38.04543 546.000
38.06538 495.000
38.08532 531.000
38.10527 510.000
38.12522 564.000
38.14516 508.000
38.16511 555.000
38.18506 544.000
38.20500 574.000
38.22495 548.000
38.24490 593.000
38.26484 617.000
38.28479 631.000
38.30474 637.000
38.32469 626.000
38.34463 613.000
38.36458 678.000
38.38453 696.000
38.40447 706.000
38.42442 701.000
38.44437 744.000
38.46431 786.000
38.48426 849.000
38.50421 924.000
38.52416 940.000
38.54410 1061.000
38.56405 1067.000
38.58400 1211.000
38.60394 1334.000
38.62389 1550.000
38.64384 1680.000
38.66378 2123.000
38.68373 2624.000
38.70368 3374.000
38.72362 4082.000
38.74357 4678.000
38.76352 4561.000
38.78347 3970.000
38.80341 3584.000
38.82336 3685.000
38.84331 3521.000
38.86325 3347.000
38.88320 2914.000
38.90315 2648.000
38.92309 2287.000
38.94304 1952.000
38.96299 1696.000
38.98294 1564.000
39.00288 1532.000
39.02283 1522.000
39.04278 1288.000
39.06272 1140.000
39.08267 1099.000
39.10262 1037.000
39.12256 963.000
39.14251 948.000
39.16246 900.000
39.18241 906.000
39.20235 803.000
39.22230 772.000
39.24225 721.000
39.26219 758.000
39.28214 737.000
39.30209 723.000
39.32203 685.000
39.34198 629.000
39.36193 652.000
39.38187 622.000
39.40182 570.000
39.42177 558.000
39.44172 553.000
39.46166 564.000
39.48161 556.000
39.50156 558.000
39.52150 522.000
39.54145 565.000
39.56140 528.000
39.58134 477.000
39.60129 482.000
39.62124 522.000
39.64119 477.000
39.66113 516.000
39.68108 476.000
39.70103 510.000
39.72097 490.000
39.74092 484.000
39.76087 447.000
39.78081 441.000
39.80076 484.000
39.82071 461.000
39.84065 452.000
39.86060 499.000
39.88055 460.000
39.90050 470.000
39.92044 456.000
39.94039 456.000
39.96034 498.000
39.98028 436.000
40.00023 471.000
40.02018 453.000
40.04012 433.000
40.06007 444.000
40.08002 473.000
40.09997 467.000
40.11991 440.000
40.13986 439.000
40.15981 444.000
40.17975 457.000
40.19970 433.000
40.21965 455.000
40.23959 454.000
40.25954 444.000
40.27949 447.000
40.29943 423.000
40.31938 443.000
40.33933 441.000
40.35928 450.000
40.37922 422.000
40.39917 476.000
40.41912 422.000
40.43906 427.000
40.45901 464.000
40.47896 426.000
40.49890 432.000
40.51885 447.000
40.53880 464.000
40.55875 426.000
40.57869 455.000
40.59864 467.000
40.61859 425.000
40.63853 421.000
40.65848 457.000
40.67843 454.000
40.69837 443.000
40.71832 440.000
40.73827 465.000
40.75822 420.000
40.77816 423.000
40.79811 461.000
40.81806 457.000
40.83800 451.000
40.85795 485.000
40.87790 435.000
40.89784 493.000
40.91779 406.000
40.93774 431.000
40.95768 453.000
40.97763 409.000
40.99758 407.000
41.01753 442.000
41.03747 491.000
41.05742 419.000
41.07737 475.000
41.09731 455.000
41.11726 417.000
41.13721 465.000
41.15715 492.000
41.17710 444.000
41.19705 494.000
41.21700 468.000
41.23694 444.000
41.25689 458.000
41.27684 509.000
41.29678 510.000
41.31673 491.000
41.33668 484.000
41.35662 496.000
41.37657 488.000
41.39652 508.000
41.41646 545.000
41.43641 556.000
41.45636 616.000
41.47631 661.000
41.49625 705.000
41.51620 782.000
41.53615 793.000
41.55609 810.000
41.57604 766.000
41.59599 782.000
41.61593 752.000
41.63588 724.000
41.65583 691.000
41.67578 670.000
41.69572 623.000
41.71567 640.000
41.73562 612.000
41.75556 540.000
41.77551 517.000
41.79546 514.000
41.81540 471.000
41.83535 512.000
41.85530 472.000
41.87524 482.000
41.89519 446.000
41.91514 520.000
41.93509 479.000
41.95503 465.000
41.97498 458.000
41.99493 448.000
42.01487 453.000
42.03482 471.000
42.05477 481.000
42.07471 477.000
42.09466 438.000
42.11461 457.000
42.13456 444.000
42.15450 415.000
42.17445 446.000
42.19440 456.000
42.21434 431.000
42.23429 468.000
42.25424 429.000
42.27418 435.000
42.29413 457.000
42.31408 463.000
42.33403 427.000
42.35397 451.000
42.37392 449.000
42.39387 477.000
42.41381 491.000
42.43376 459.000
42.45371 462.000
42.47365 464.000
42.49360 449.000
42.51355 481.000
42.53349 453.000
42.55344 480.000
42.57339 470.000
42.59334 448.000
42.61328 443.000
42.63323 478.000
42.65318 398.000
42.67312 457.000
42.69307 414.000
42.71302 500.000
42.73296 422.000
42.75291 431.000
42.77286 447.000
42.79281 457.000
42.81275 450.000
42.83270 484.000
42.85265 482.000
42.87259 444.000
42.89254 466.000
42.91249 449.000
42.93243 463.000
42.95238 487.000
42.97233 446.000
42.99227 460.000
43.01222 502.000
43.03217 494.000
43.05212 482.000
43.07206 517.000
43.09201 475.000
43.11196 542.000
43.13190 516.000
43.15185 518.000
43.17180 554.000
43.19174 525.000
43.21169 514.000
43.23164 485.000
43.25159 566.000
43.27153 544.000
43.29148 517.000
43.31143 513.000
43.33137 541.000
43.35132 499.000
43.37127 541.000
43.39121 484.000
43.41116 481.000
43.43111 460.000
43.45105 468.000
43.47100 447.000
43.49095 477.000
43.51090 449.000
43.53084 468.000
43.55079 488.000
43.57074 493.000
43.59068 448.000
43.61063 453.000
43.63058 430.000
43.65052 489.000
43.67047 447.000
43.69042 440.000
43.71037 448.000
43.73031 416.000
43.75026 450.000
43.77021 435.000
43.79015 487.000
43.81010 459.000
43.83005 437.000
43.84999 456.000
43.86994 426.000
43.88989 420.000
43.90984 429.000
43.92978 445.000
43.94973 435.000
43.96968 447.000
43.98962 420.000
44.00957 416.000
44.02952 440.000
44.04946 412.000
44.06941 428.000
44.08936 452.000
44.10930 437.000
44.12925 443.000
44.14920 479.000
44.16915 459.000
44.18909 420.000
44.20904 436.000
44.22899 443.000
44.24893 457.000
44.26888 435.000
44.28883 424.000
44.30877 459.000
44.32872 449.000
44.34867 461.000
44.36862 465.000
44.38856 446.000
44.40851 462.000
44.42846 472.000
44.44840 465.000
44.46835 456.000
44.48830 460.000
44.50824 459.000
44.52819 501.000
44.54814 470.000
44.56808 522.000
44.58803 504.000
44.60798 476.000
44.62793 479.000
44.64787 491.000
44.66782 522.000
44.68777 588.000
44.70771 526.000
44.72766 584.000
44.74761 499.000
44.76755 605.000
44.78750 589.000
44.80745 564.000
44.82740 596.000
44.84734 604.000
44.86729 546.000
44.88724 552.000
44.90718 523.000
44.92713 517.000
44.94708 561.000
44.96702 491.000
44.98697 528.000
45.00692 499.000
45.02686 482.000
45.04681 443.000
45.06676 493.000
45.08671 491.000
45.10665 452.000
45.12660 494.000
45.14655 477.000
45.16649 474.000
45.18644 419.000
45.20639 482.000
45.22633 453.000
45.24628 430.000
45.26623 496.000
45.28618 447.000
45.30612 444.000
45.32607 403.000
45.34602 477.000
45.36596 493.000
45.38591 430.000
45.40586 484.000
45.42580 433.000
45.44575 452.000
45.46570 438.000
45.48565 419.000
45.50559 428.000
45.52554 405.000
45.54549 418.000
45.56543 456.000
45.58538 395.000
45.60533 429.000
45.62527 469.000
45.64522 406.000
45.66517 420.000
45.68511 408.000
45.70506 420.000
45.72501 429.000
45.74496 419.000
45.76490 430.000
45.78485 436.000
45.80480 444.000
45.82474 435.000
45.84469 455.000
45.86464 431.000
45.88458 437.000
45.90453 410.000
45.92448 435.000
45.94443 401.000
45.96437 435.000
45.98432 426.000
46.00427 414.000
46.02421 404.000
46.04416 475.000
46.06411 444.000
46.08405 422.000
46.10400 453.000
46.12395 483.000
46.14389 409.000
46.16384 460.000
46.18379 460.000
46.20374 465.000
46.22368 486.000
46.24363 496.000
46.26358 481.000
46.28352 541.000
46.30347 500.000
46.32342 508.000
46.34336 463.000
46.36331 457.000
46.38326 485.000
46.40321 451.000
46.42315 446.000
46.44310 437.000
46.46305 454.000
46.48299 475.000
46.50294 468.000
46.52289 479.000
46.54283 464.000
46.56278 459.000
46.58273 440.000
46.60267 433.000
46.62262 462.000
46.64257 426.000
46.66252 432.000
46.68246 442.000
46.70241 441.000
46.72236 442.000
46.74230 433.000
46.76225 419.000
46.78220 404.000
46.80214 436.000
46.82209 393.000
46.84204 418.000
46.86199 409.000
46.88193 439.000
46.90188 422.000
46.92183 404.000
46.94177 443.000
46.96172 402.000
46.98167 414.000
47.00161 410.000
47.02156 403.000
47.04151 447.000
47.06146 434.000
47.08140 414.000
47.10135 408.000
47.12130 430.000
47.14124 430.000
47.16119 401.000
47.18114 406.000
47.20108 442.000
47.22103 430.000
47.24098 408.000
47.26092 484.000
47.28087 428.000
47.30082 423.000
47.32077 451.000
47.34071 445.000
47.36066 399.000
47.38061 420.000
47.40055 456.000
47.42050 413.000
47.44045 390.000
47.46039 433.000
47.48034 430.000
47.50029 435.000
47.52024 414.000
47.54018 440.000
47.56013 409.000
47.58008 415.000
47.60002 484.000
47.61997 443.000
47.63992 440.000
47.65986 411.000
47.67981 472.000
47.69976 410.000
47.71970 463.000
47.73965 458.000
47.75960 427.000
47.77955 389.000
47.79949 438.000
47.81944 407.000
47.83939 442.000
47.85933 434.000
47.87928 456.000
47.89923 439.000
47.91917 448.000
47.93912 431.000
47.95907 432.000
47.97902 470.000
47.99896 504.000
48.01891 481.000
48.03886 450.000
48.05880 437.000
48.07875 496.000
48.09870 471.000
48.11864 472.000
48.13859 462.000
48.15854 490.000
48.17848 524.000
48.19843 510.000
48.21838 550.000
48.23833 509.000
48.25827 541.000
48.27822 590.000
48.29817 510.000
48.31811 564.000
48.33806 652.000
48.35801 567.000
48.37795 650.000
48.39790 732.000
48.41785 767.000
48.43780 739.000
48.45774 791.000
48.47769 845.000
48.49764 839.000
48.51758 787.000
48.53753 905.000
48.55748 877.000
48.57742 991.000
48.59737 1060.000
48.61732 1139.000
48.63726 1286.000
48.65721 1588.000
48.67716 1685.000
48.69711 1750.000
48.71705 1605.000
48.73700 1426.000
48.75695 1333.000
48.77689 1269.000
48.79684 1220.000
48.81679 1234.000
48.83673 1062.000
48.85668 1001.000
48.87663 884.000
48.89658 760.000
48.91652 689.000
48.93647 664.000
48.95642 624.000
48.97636 598.000
48.99631 550.000
49.01626 548.000
49.03620 506.000
49.05615 549.000
49.07610 490.000
49.09605 518.000
49.11599 477.000
49.13594 496.000
49.15589 491.000
49.17583 485.000
49.19578 473.000
49.21573 498.000
49.23567 481.000
49.25562 461.000
49.27557 468.000
49.29551 478.000
49.31546 450.000
49.33541 472.000
49.35536 544.000
49.37530 501.000
49.39525 467.000
49.41520 504.000
49.43514 528.000
49.45509 479.000
49.47504 458.000
49.49498 484.000
49.51493 450.000
49.53488 504.000
49.55483 501.000
49.57477 537.000
49.59472 494.000
49.61467 466.000
49.63461 473.000
49.65456 471.000
49.67451 455.000
49.69445 457.000
49.71440 476.000
49.73435 476.000
49.75429 434.000
49.77424 425.000
49.79419 463.000
49.81414 455.000
49.83408 456.000
49.85403 451.000
49.87398 408.000
49.89392 406.000
49.91387 444.000
49.93382 487.000
49.95376 432.000
49.97371 428.000
49.99366 418.000
50.01361 454.000
50.03355 445.000
50.05350 480.000
50.07345 436.000
50.09339 419.000
50.11334 422.000
50.13329 471.000
50.15323 442.000
50.17318 416.000
50.19313 423.000
50.21307 395.000
50.23302 449.000
50.25297 489.000
50.27292 427.000
50.29286 425.000
50.31281 433.000
50.33276 414.000
50.35270 417.000
50.37265 409.000
50.39260 429.000
50.41254 427.000
50.43249 449.000
50.45244 408.000
50.47239 429.000
50.49233 433.000
50.51228 417.000
50.53223 435.000
50.55217 453.000
50.57212 415.000
50.59207 406.000
50.61201 424.000
50.63196 435.000
50.65191 407.000
50.67186 409.000
50.69180 413.000
50.71175 467.000
50.73170 420.000
50.75164 415.000
50.77159 458.000
50.79154 418.000
50.81148 441.000
50.83143 449.000
50.85138 430.000
50.87132 420.000
50.89127 419.000
50.91122 407.000
50.93117 394.000
50.95111 430.000
50.97106 458.000
50.99101 427.000
51.01095 399.000
51.03090 421.000
51.05085 453.000
51.07079 459.000
51.09074 428.000
51.11069 437.000
51.13064 429.000
51.15058 453.000
51.17053 442.000
51.19048 433.000
51.21042 467.000
51.23037 446.000
51.25032 446.000
51.27026 452.000
51.29021 453.000
51.31016 437.000
51.33010 437.000
51.35005 450.000
51.37000 454.000
51.38995 494.000
51.40989 484.000
51.42984 474.000
51.44979 462.000
51.46973 445.000
51.48968 462.000
51.50963 472.000
51.52957 461.000
51.54952 474.000
51.56947 462.000
51.58942 452.000
51.60936 445.000
51.62931 501.000
51.64926 412.000
51.66920 435.000
51.68915 426.000
51.70910 465.000
51.72904 459.000
51.74899 393.000
51.76894 409.000
51.78888 385.000
51.80883 441.000
51.82878 430.000
51.84873 428.000
51.86867 440.000
51.88862 470.000
51.90857 460.000
51.92851 440.000
51.94846 441.000
51.96841 427.000
51.98835 475.000
52.00830 438.000
52.02825 469.000
52.04820 470.000
52.06814 452.000
52.08809 439.000
52.10804 425.000
52.12798 476.000
52.14793 524.000
52.16788 425.000
52.18782 463.000
52.20777 452.000
52.22772 451.000
52.24767 469.000
52.26761 508.000
52.28756 434.000
52.30751 432.000
52.32745 488.000
52.34740 484.000
52.36735 392.000
52.38729 462.000
52.40724 483.000
52.42719 487.000
52.44713 495.000
52.46708 477.000
52.48703 467.000
52.50698 458.000
52.52692 530.000
52.54687 451.000
52.56682 483.000
52.58676 460.000
52.60671 442.000
52.62666 492.000
52.64660 489.000
52.66655 524.000
52.68650 484.000
52.70645 551.000
52.72639 519.000
52.74634 510.000
52.76629 508.000
52.78623 446.000
52.80618 497.000
52.82613 493.000
52.84607 470.000
52.86602 482.000
52.88597 512.000
52.90591 482.000
52.92586 441.000
52.94581 514.000
52.96576 430.000
52.98570 447.000
53.00565 434.000
53.02560 442.000
53.04554 452.000
53.06549 443.000
53.08544 474.000
53.10538 459.000
53.12533 483.000
53.14528 469.000
53.16523 502.000
53.18517 480.000
53.20512 477.000
53.22507 510.000
53.24501 483.000
53.26496 469.000
53.28491 484.000
53.30485 494.000
53.32480 490.000
53.34475 529.000
53.36469 529.000
53.38464 540.000
53.40459 593.000
53.42454 574.000
53.44448 585.000
53.46443 591.000
53.48438 645.000
53.50432 721.000
53.52427 635.000
53.54422 677.000
53.56416 663.000
53.58411 624.000
53.60406 622.000
53.62401 636.000
53.64395 647.000
53.66390 667.000
53.68385 607.000
53.70379 576.000
53.72374 579.000
53.74369 536.000
53.76363 534.000
53.78358 496.000
53.80353 482.000
53.82348 484.000
53.84342 534.000
53.86337 525.000
53.88332 464.000
53.90326 479.000
53.92321 470.000
53.94316 490.000
53.96310 480.000
53.98305 457.000
54.00300 458.000
54.02294 466.000
54.04289 488.000
54.06284 477.000
54.08279 442.000
54.10273 505.000
54.12268 473.000
54.14263 429.000
54.16257 500.000
54.18252 482.000
54.20247 482.000
54.22241 466.000
54.24236 416.000
54.26231 439.000
54.28226 432.000
54.30220 454.000
54.32215 460.000
54.34210 454.000
54.36204 459.000
54.38199 446.000
54.40194 460.000
54.42188 424.000
54.44183 416.000
54.46178 430.000
54.48172 434.000
54.50167 443.000
54.52162 431.000
54.54157 447.000
54.56151 435.000
54.58146 451.000
54.60141 444.000
54.62135 434.000
54.64130 424.000
54.66125 369.000
54.68119 420.000
54.70114 419.000
54.72109 443.000
54.74104 437.000
54.76098 475.000
54.78093 452.000
54.80088 432.000
54.82082 429.000
54.84077 397.000
54.86072 454.000
54.88066 404.000
54.90061 451.000
54.92056 408.000
54.94050 452.000
54.96045 404.000
54.98040 440.000
55.00035 430.000
55.02029 431.000
55.04024 417.000
55.06019 449.000
55.08013 422.000
55.10008 434.000
55.12003 405.000
55.13997 430.000
55.15992 438.000
55.17987 416.000
55.19982 416.000
55.21976 422.000
55.23971 427.000
55.25966 462.000
55.27960 375.000
55.29955 435.000
55.31950 483.000
55.33944 400.000
55.35939 452.000
55.37934 440.000
55.39929 428.000
55.41923 414.000
55.43918 442.000
55.45913 455.000
55.47907 411.000
55.49902 434.000
55.51897 440.000
55.53891 474.000
55.55886 422.000
55.57881 428.000
55.59875 440.000
55.61870 423.000
55.63865 438.000
55.65860 445.000
55.67854 411.000
55.69849 444.000
55.71844 409.000
55.73838 449.000
55.75833 416.000
55.77828 444.000
55.79822 442.000
55.81817 436.000
55.83812 453.000
55.85807 425.000
55.87801 447.000
55.89796 438.000
55.91791 450.000
55.93785 444.000
55.95780 466.000
55.97775 411.000
55.99769 406.000
56.01764 448.000
56.03759 462.000
56.05753 423.000
56.07748 443.000
56.09743 410.000
56.11738 377.000
56.13732 444.000
56.15727 405.000
56.17722 452.000
56.19716 413.000
56.21711 387.000
56.23706 449.000
56.25700 442.000
56.27695 426.000
56.29690 433.000
56.31685 403.000
56.33679 445.000
56.35674 402.000
56.37669 411.000
56.39663 474.000
56.41658 435.000
56.43653 464.000
56.45647 419.000
56.47642 448.000
56.49637 447.000
56.51631 449.000
56.53626 457.000
56.55621 455.000
56.57616 414.000
56.59610 448.000
56.61605 494.000
56.63600 465.000
56.65594 474.000
56.67589 445.000
56.69584 450.000
56.71578 496.000
56.73573 476.000
56.75568 474.000
56.77563 456.000
56.79557 449.000
56.81552 484.000
56.83547 479.000
56.85541 486.000
56.87536 494.000
56.89531 497.000
56.91525 451.000
56.93520 511.000
56.95515 486.000
56.97510 480.000
56.99504 477.000
57.01499 500.000
57.03494 496.000
57.05488 464.000
57.07483 476.000
57.09478 486.000
57.11472 467.000
57.13467 448.000
57.15462 484.000
57.17456 452.000
57.19451 478.000
57.21446 501.000
57.23441 468.000
57.25435 479.000
57.27430 522.000
57.29425 491.000
57.31419 497.000
57.33414 484.000
57.35409 502.000
57.37403 475.000
57.39398 511.000
57.41393 513.000
57.43388 453.000
57.45382 463.000
57.47377 477.000
57.49372 480.000
57.51366 500.000
57.53361 459.000
57.55356 447.000
57.57350 420.000
57.59345 426.000
57.61340 438.000
57.63334 448.000
57.65329 469.000
57.67324 428.000
57.69319 446.000
57.71313 446.000
57.73308 434.000
57.75303 481.000
57.77297 466.000
57.79292 453.000
57.81287 445.000
57.83281 433.000
57.85276 437.000
57.87271 480.000
57.89266 453.000
57.91260 475.000
57.93255 471.000
57.95250 450.000
57.97244 487.000
57.99239 484.000
58.01234 457.000
58.03228 485.000
58.05223 526.000
58.07218 496.000
58.09212 464.000
58.11207 519.000
58.13202 516.000
58.15197 494.000
58.17191 582.000
58.19186 556.000
58.21181 639.000
58.23175 648.000
58.25170 654.000
58.27165 774.000
58.29159 813.000
58.31154 852.000
58.33149 801.000
58.35144 800.000
58.37138 727.000
58.39133 744.000
58.41128 622.000
58.43122 645.000
58.45117 692.000
58.47112 717.000
58.49106 727.000
58.51101 642.000
58.53096 566.000
58.55090 556.000
58.57085 538.000
58.59080 519.000
58.61075 530.000
58.63069 506.000
58.65064 479.000
58.67059 495.000
58.69053 474.000
58.71048 468.000
58.73043 480.000
58.75037 460.000
58.77032 472.000
58.79027 469.000
58.81022 437.000
58.83016 433.000
58.85011 459.000
58.87006 447.000
58.89000 442.000
58.90995 418.000
58.92990 433.000
58.94984 438.000
58.96979 407.000
58.98974 440.000
59.00969 451.000
59.02963 435.000
59.04958 394.000
59.06953 451.000
59.08947 475.000
59.10942 435.000
59.12937 427.000
59.14931 439.000
59.16926 456.000
59.18921 405.000
59.20915 438.000
59.22910 465.000
59.24905 418.000
59.26900 437.000
59.28894 438.000
59.30889 457.000
59.32884 459.000
59.34878 429.000
59.36873 390.000
59.38868 401.000
59.40862 431.000
59.42857 411.000
59.44852 450.000
59.46847 478.000
59.48841 481.000
59.50836 452.000
59.52831 426.000
59.54825 444.000
59.56820 462.000
59.58815 432.000
59.60809 442.000
59.62804 431.000
59.64799 426.000
59.66793 444.000
59.68788 458.000
59.70783 417.000
59.72778 452.000
59.74772 398.000
59.76767 439.000
59.78762 417.000
59.80756 388.000
59.82751 446.000
59.84746 423.000
59.86740 441.000
59.88735 425.000
59.90730 397.000
59.92725 418.000
59.94719 447.000
59.96714 435.000
59.98709 457.000
60.00703 461.000
60.02698 384.000
60.04693 421.000
60.06687 437.000
60.08682 473.000
60.10677 421.000
60.12671 453.000
60.14666 428.000
60.16661 443.000
60.18656 454.000
60.20650 437.000
60.22645 469.000
60.24640 403.000
60.26634 396.000
60.28629 450.000
60.30624 426.000
60.32618 440.000
60.34613 447.000
60.36608 449.000
60.38603 420.000
60.40597 465.000
60.42592 404.000
60.44587 457.000
60.46581 445.000
60.48576 450.000
60.50571 417.000
60.52565 460.000
60.54560 443.000
60.56555 430.000
60.58550 448.000
60.60544 427.000
60.62539 464.000
60.64534 387.000
60.66528 426.000
60.68523 435.000
60.70518 421.000
60.72512 438.000
60.74507 443.000
60.76502 460.000
60.78496 441.000
60.80491 458.000
60.82486 426.000
60.84481 446.000
60.86475 431.000
60.88470 458.000
60.90465 499.000
60.92459 400.000
60.94454 446.000
60.96449 462.000
60.98443 464.000
61.00438 459.000
61.02433 443.000
61.04428 463.000
61.06422 480.000
61.08417 439.000
61.10412 443.000
61.12406 500.000
61.14401 520.000
61.16396 485.000
61.18390 498.000
61.20385 486.000
61.22380 490.000
61.24374 517.000
61.26369 580.000
61.28364 546.000
61.30359 565.000
61.32353 573.000
61.34348 617.000
61.36343 599.000
61.38337 614.000
61.40332 639.000
61.42327 697.000
61.44321 758.000
61.46316 817.000
61.48311 992.000
61.50306 1168.000
61.52300 1243.000
61.54295 1264.000
61.56290 1188.000
61.58284 1107.000
61.60279 1060.000
61.62274 946.000
61.64268 973.000
61.66263 982.000
61.68258 1064.000
61.70252 1042.000
61.72247 1032.000
61.74242 859.000
61.76237 827.000
61.78231 775.000
61.80226 740.000
61.82221 739.000
61.84215 700.000
61.86210 692.000
61.88205 590.000
61.90199 556.000
61.92194 602.000
61.94189 574.000
61.96184 561.000
61.98178 571.000
62.00173 528.000
62.02168 562.000
62.04162 518.000
62.06157 541.000
62.08152 547.000
62.10146 512.000
62.12141 497.000
62.14136 513.000
62.16131 531.000
62.18125 457.000
62.20120 479.000
62.22115 488.000
62.24109 476.000
62.26104 498.000
62.28099 484.000
62.30093 477.000
62.32088 513.000
62.34083 497.000
62.36077 482.000
62.38072 438.000
62.40067 467.000
62.42062 501.000
62.44056 498.000
62.46051 505.000
62.48046 458.000
62.50040 489.000
62.52035 469.000
62.54030 444.000
62.56024 383.000
62.58019 470.000
62.60014 477.000
62.62009 490.000
62.64003 429.000
62.65998 424.000
62.67993 462.000
62.69987 443.000
62.71982 479.000
62.73977 476.000
62.75971 423.000
62.77966 421.000
62.79961 474.000
62.81955 461.000
62.83950 449.000
62.85945 480.000
62.87940 437.000
62.89934 489.000
62.91929 466.000
62.93924 466.000
62.95918 473.000
62.97913 447.000
62.99908 472.000
63.01902 481.000
63.03897 502.000
63.05892 488.000
63.07887 493.000
63.09881 514.000
63.11876 498.000
63.13871 525.000
63.15865 489.000
63.17860 510.000
63.19855 539.000
63.21849 505.000
63.23844 440.000
63.25839 506.000
63.27833 499.000
63.29828 516.000
63.31823 562.000
63.33818 526.000
63.35812 508.000
63.37807 506.000
63.39802 518.000
63.41796 490.000
63.43791 459.000
63.45786 484.000
63.47780 475.000
63.49775 447.000
63.51770 471.000
63.53765 427.000
63.55759 490.000
63.57754 451.000
63.59749 466.000
63.61743 519.000
63.63738 469.000
63.65733 474.000
63.67727 492.000
63.69722 534.000
63.71717 568.000
63.73712 556.000
63.75706 534.000
63.77701 552.000
63.79696 521.000
63.81690 508.000
63.83685 497.000
63.85680 496.000
63.87674 511.000
63.89669 492.000
63.91664 506.000
63.93658 507.000
63.95653 530.000
63.97648 479.000
63.99643 527.000
64.01637 482.000
64.03632 476.000
64.05627 482.000
64.07621 467.000
64.09616 506.000
64.11611 467.000
64.13605 476.000
64.15600 469.000
64.17595 466.000
64.19590 505.000
64.21584 461.000
64.23579 478.000
64.25574 477.000
64.27568 438.000
64.29563 442.000
64.31558 495.000
64.33552 468.000
64.35547 487.000
64.37542 465.000
64.39536 456.000
64.41531 448.000
64.43526 426.000
64.45521 442.000
64.47515 509.000
64.49510 471.000
64.51505 480.000
64.53499 441.000
64.55494 464.000
64.57489 486.000
64.59483 460.000
64.61478 431.000
64.63473 446.000
64.65468 488.000
64.67462 438.000
64.69457 447.000
64.71452 449.000
64.73446 452.000
64.75441 441.000
64.77436 475.000
64.79430 472.000
64.81425 483.000
64.83420 469.000
64.85414 451.000
64.87409 467.000
64.89404 460.000
64.91399 462.000
64.93393 461.000
64.95388 451.000
64.97383 444.000
64.99377 440.000
65.01372 471.000
65.03367 441.000
65.05361 458.000
65.07356 438.000
65.09351 447.000
65.11346 428.000
65.13340 456.000
65.15335 464.000
65.17330 467.000
65.19324 457.000
65.21319 439.000
65.23314 481.000
65.25308 474.000
65.27303 504.000
65.29298 429.000
65.31293 497.000
65.33287 480.000
65.35282 504.000
65.37277 523.000
65.39271 484.000
65.41266 511.000
65.43261 487.000
65.45255 523.000
65.47250 496.000
65.49245 583.000
65.51239 521.000
65.53234 582.000
65.55229 561.000
65.57224 622.000
65.59218 595.000
65.61213 561.000
65.63208 622.000
65.65202 608.000
65.67197 624.000
65.69192 678.000
65.71186 642.000
65.73181 668.000
65.75176 702.000
65.77171 748.000
65.79165 804.000
65.81160 769.000
65.83155 767.000
65.85149 846.000
65.87144 863.000
65.89139 911.000
65.91133 862.000
65.93128 800.000
65.95123 844.000
65.97117 774.000
65.99112 860.000
66.01107 753.000
66.03102 827.000
66.05096 849.000
66.07091 801.000
66.09086 841.000
66.11080 828.000
66.13075 938.000
66.15070 932.000
66.17064 1028.000
66.19059 1112.000
66.21054 1131.000
66.23049 1056.000
66.25043 993.000
66.27038 845.000
66.29033 820.000
66.31027 845.000
66.33022 846.000
66.35017 835.000
66.37011 825.000
66.39006 843.000
66.41001 832.000
66.42995 722.000
66.44990 749.000
66.46985 698.000
66.48980 623.000
66.50974 678.000
66.52969 617.000
66.54964 580.000
66.56958 612.000
66.58953 616.000
66.60948 619.000
66.62942 572.000
66.64937 563.000
66.66932 532.000
66.68927 523.000
66.70921 556.000
66.72916 550.000
66.74911 549.000
66.76905 531.000
66.78900 492.000
66.80895 484.000
66.82889 543.000
66.84884 470.000
66.86879 531.000
66.88874 515.000
66.90868 538.000
66.92863 490.000
66.94858 481.000
66.96852 450.000
66.98847 511.000
67.00842 464.000
67.02836 484.000
67.04831 460.000
67.06826 465.000
67.08820 442.000
67.10815 450.000
67.12810 507.000
67.14805 484.000
67.16799 459.000
67.18794 451.000
67.20789 450.000
67.22783 461.000
67.24778 474.000
67.26773 461.000
67.28767 494.000
67.30762 492.000
67.32757 461.000
67.34752 490.000
67.36746 466.000
67.38741 458.000
67.40736 480.000
67.42730 460.000
67.44725 483.000
67.46720 478.000
67.48714 444.000
67.50709 488.000
67.52704 467.000
67.54698 470.000
67.56693 530.000
67.58688 520.000
67.60683 452.000
67.62677 498.000
67.64672 515.000
67.66667 517.000
67.68661 544.000
67.70656 513.000
67.72651 525.000
67.74645 575.000
67.76640 513.000
67.78635 537.000
67.80630 570.000
67.82624 604.000
67.84619 640.000
67.86614 593.000
67.88608 637.000
67.90603 708.000
67.92598 752.000
67.94592 772.000
67.96587 773.000
67.98582 782.000
68.00576 796.000
68.02571 773.000
68.04566 812.000
68.06561 843.000
68.08555 912.000
68.10550 978.000
68.12545 1018.000
68.14539 1024.000
68.16534 889.000
68.18529 822.000
68.20523 749.000
68.22518 750.000
68.24513 770.000
68.26508 720.000
68.28502 688.000
68.30497 772.000
68.32492 730.000
68.34486 690.000
68.36481 665.000
68.38476 653.000
68.40470 618.000
68.42465 561.000
68.44460 543.000
68.46455 529.000
68.48449 480.000
68.50444 491.000
68.52439 466.000
68.54433 449.000
68.56428 470.000
68.58423 452.000
68.60417 470.000
68.62412 473.000
68.64407 494.000
68.66401 438.000
68.68396 436.000
68.70391 477.000
68.72386 485.000
68.74380 492.000
68.76375 471.000
68.78370 454.000
68.80364 448.000
68.82359 462.000
68.84354 460.000
68.86348 462.000
68.88343 501.000
68.90338 448.000
68.92333 438.000
68.94327 468.000
68.96322 413.000
68.98317 452.000
69.00311 463.000
69.02306 462.000
69.04301 424.000
69.06295 463.000
69.08290 456.000
69.10285 456.000
69.12279 448.000
69.14274 406.000
69.16269 417.000
69.18264 438.000
69.20258 414.000
69.22253 454.000
69.24248 407.000
69.26242 471.000
69.28237 442.000
69.30232 411.000
69.32226 443.000
69.34221 439.000
69.36216 461.000
69.38211 454.000
69.40205 429.000
69.42200 431.000
69.44195 467.000
69.46189 430.000
69.48184 466.000
69.50179 441.000
69.52173 432.000
69.54168 448.000
69.56163 456.000
69.58157 430.000
69.60152 442.000
69.62147 405.000
69.64142 432.000
69.66136 439.000
69.68131 425.000
69.70126 445.000
69.72120 419.000
69.74115 461.000
69.76110 419.000
69.78104 474.000
69.80099 427.000
69.82094 460.000
69.84089 448.000
69.86083 457.000
69.88078 447.000
69.90073 439.000
69.92067 443.000
69.94062 395.000
69.96057 440.000
69.98051 477.000
70.00046 443.000
70.02041 422.000
70.04035 410.000
70.06030 414.000
70.08025 444.000
70.10020 440.000
70.12014 440.000
70.14009 411.000
70.16004 425.000
70.17998 417.000
70.19993 409.000
70.21988 467.000
70.23982 420.000
70.25977 455.000
70.27972 434.000
70.29967 436.000
70.31961 387.000
70.33956 410.000
70.35951 417.000
70.37945 389.000
70.39940 421.000
70.41935 413.000
70.43929 385.000
70.45924 415.000
70.47919 437.000
70.49914 432.000
70.51908 438.000
70.53903 420.000
70.55898 430.000
70.57892 453.000
70.59887 424.000
70.61882 421.000
70.63876 430.000
70.65871 446.000
70.67866 435.000
70.69860 400.000
70.71855 428.000
70.73850 381.000
70.75845 417.000
70.77839 436.000
70.79834 399.000
70.81829 416.000
70.83823 417.000
70.85818 425.000
70.87813 439.000
70.89807 457.000
70.91802 414.000
70.93797 421.000
70.95792 416.000
70.97786 454.000
70.99781 423.000
71.01776 399.000
71.03770 437.000
71.05765 456.000
71.07760 408.000
71.09754 422.000
71.11749 404.000
71.13744 484.000
71.15738 419.000
71.17733 430.000
71.19728 446.000
71.21723 460.000
71.23717 448.000
71.25712 453.000
71.27707 418.000
71.29701 387.000
71.31696 439.000
71.33691 436.000
71.35685 456.000
71.37680 439.000
71.39675 392.000
71.41670 424.000
71.43664 446.000
71.45659 423.000
71.47654 413.000
71.49648 453.000
71.51643 479.000
71.53638 440.000
71.55632 441.000
71.57627 445.000
71.59622 417.000
71.61616 416.000
71.63611 426.000
71.65606 455.000
71.67601 444.000
71.69595 476.000
71.71590 469.000
71.73585 452.000
71.75579 466.000
71.77574 466.000
71.79569 426.000
71.81563 435.000
71.83558 418.000
71.85553 436.000
71.87548 427.000
71.89542 467.000
71.91537 435.000
71.93532 481.000
71.95526 458.000
71.97521 398.000
71.99516 454.000
72.01510 459.000
72.03505 456.000
72.05500 473.000
72.07495 454.000
72.09489 421.000
72.11484 445.000
72.13479 439.000
72.15473 461.000
72.17468 475.000
72.19463 523.000
72.21457 468.000
72.23452 463.000
72.25447 496.000
72.27441 509.000
72.29436 554.000
72.31431 571.000
72.33426 580.000
72.35420 620.000
72.37415 590.000
72.39410 708.000
72.41404 616.000
72.43399 608.000
72.45394 562.000
72.47388 574.000
72.49383 542.000
72.51378 571.000
72.53373 527.000
72.55367 544.000
72.57362 534.000
72.59357 539.000
72.61351 579.000
72.63346 514.000
72.65341 577.000
72.67335 531.000
72.69330 528.000
72.71325 563.000
72.73319 494.000
72.75314 528.000
72.77309 500.000
72.79304 516.000
72.81298 512.000
72.83293 527.000
72.85288 454.000
72.87282 484.000
72.89277 488.000
72.91272 441.000
72.93266 549.000
72.95261 479.000
72.97256 471.000
72.99251 518.000
73.01245 507.000
73.03240 493.000
73.05235 513.000
73.07229 476.000
73.09224 459.000
73.11219 498.000
73.13213 488.000
73.15208 475.000
73.17203 524.000
73.19197 486.000
73.21192 477.000
73.23187 450.000
73.25182 471.000
73.27176 492.000
73.29171 474.000
73.31166 458.000
73.33160 460.000
73.35155 454.000
73.37150 457.000
73.39144 461.000
73.41139 470.000
73.43134 449.000
73.45129 442.000
73.47123 489.000
73.49118 451.000
73.51113 446.000
73.53107 445.000
73.55102 437.000
73.57097 421.000
73.59091 496.000
73.61086 432.000
73.63081 429.000
73.65076 432.000
73.67070 430.000
73.69065 425.000
73.71060 449.000
73.73054 432.000
73.75049 409.000
73.77044 441.000
73.79038 476.000
73.81033 422.000
73.83028 426.000
73.85022 415.000
73.87017 417.000
73.89012 412.000
73.91007 447.000
73.93001 461.000
73.94996 461.000
73.96991 394.000
73.98985 432.000
74.00980 414.000
74.02975 455.000
74.04969 470.000
74.06964 443.000
74.08959 436.000
74.10954 425.000
74.12948 439.000
74.14943 454.000
74.16938 426.000
74.18932 459.000
74.20927 438.000
74.22922 417.000
74.24916 473.000
74.26911 395.000
74.28906 391.000
74.30900 410.000
74.32895 394.000
74.34890 441.000
74.36885 449.000
74.38879 445.000
74.40874 484.000
74.42869 420.000
74.44863 448.000
74.46858 427.000
74.48853 437.000
74.50847 455.000
74.52842 477.000
74.54837 455.000
74.56832 450.000
74.58826 442.000
74.60821 398.000
74.62816 456.000
74.64810 447.000
74.66805 445.000
74.68800 443.000
74.70794 478.000
74.72789 433.000
74.74784 467.000
74.76778 480.000
74.78773 447.000
74.80768 475.000
74.82763 509.000
74.84757 507.000
74.86752 496.000
74.88747 496.000
74.90741 551.000
74.92736 510.000
74.94731 520.000
74.96725 595.000
74.98720 595.000
75.00715 649.000
75.02710 651.000
75.04704 638.000
75.06699 618.000
75.08694 566.000
75.10688 603.000
75.12683 571.000
75.14678 601.000
75.16672 615.000
75.18667 600.000
75.20662 691.000
75.22657 721.000
75.24651 732.000
75.26646 742.000
75.28641 687.000
75.30635 676.000
75.32630 588.000
75.34625 608.000
75.36619 552.000
75.38614 583.000
75.40609 557.000
75.42603 523.000
75.44598 588.000
75.46593 576.000
75.48588 546.000
75.50582 557.000
75.52577 522.000
75.54572 485.000
75.56566 498.000
75.58561 502.000
75.60556 446.000
75.62550 457.000
75.64545 486.000
75.66540 446.000
75.68535 492.000
75.70529 468.000
75.72524 411.000
75.74519 429.000
75.76513 509.000
75.78508 418.000
75.80503 457.000
75.82497 440.000
75.84492 425.000
75.86487 481.000
75.88481 465.000
75.90476 462.000
75.92471 456.000
75.94466 430.000
75.96460 456.000
75.98455 459.000
76.00450 435.000
76.02444 424.000
76.04439 462.000
76.06434 439.000
76.08428 419.000
76.10423 437.000
76.12418 395.000
76.14413 434.000
76.16407 406.000
76.18402 421.000
76.20397 450.000
76.22391 483.000
76.24386 419.000
76.26381 437.000
76.28375 466.000
76.30370 454.000
76.32365 473.000
76.34359 440.000
76.36354 418.000
76.38349 387.000
76.40344 437.000
76.42338 413.000
76.44333 446.000
76.46328 430.000
76.48322 437.000
76.50317 451.000
76.52312 424.000
76.54306 409.000
76.56301 446.000
76.58296 417.000
76.60291 484.000
76.62285 417.000
76.64280 425.000
76.66275 464.000
76.68269 402.000
76.70264 439.000
76.72259 424.000
76.74253 406.000
76.76248 464.000
76.78243 417.000
76.80238 445.000
76.82232 393.000
76.84227 442.000
76.86222 425.000
76.88216 425.000
76.90211 406.000
76.92206 415.000
76.94200 435.000
76.96195 408.000
76.98190 404.000
77.00184 436.000
77.02179 476.000
77.04174 459.000
77.06169 425.000
77.08163 478.000
77.10158 400.000
77.12153 464.000
77.14147 455.000
77.16142 437.000
77.18137 426.000
77.20131 454.000
77.22126 421.000
77.24121 428.000
77.26116 446.000
77.28110 473.000
77.30105 423.000
77.32100 446.000
77.34094 405.000
77.36089 423.000
77.38084 392.000
77.40078 411.000
77.42073 432.000
77.44068 435.000
77.46062 406.000
77.48057 448.000
77.50052 408.000
77.52047 435.000
77.54041 429.000
77.56036 429.000
77.58031 410.000
77.60025 427.000
77.62020 449.000
77.64015 478.000
77.66009 440.000
77.68004 424.000
77.69999 424.000
77.71994 465.000
77.73988 458.000
77.75983 465.000
77.77978 466.000
77.79972 494.000
77.81967 521.000
77.83962 482.000
77.85956 465.000
77.87951 515.000
77.89946 486.000
77.91940 469.000
77.93935 448.000
77.95930 499.000
77.97925 455.000
77.99919 463.000
78.01914 430.000
78.03909 462.000
78.05903 429.000
78.07898 469.000
78.09893 475.000
78.11887 466.000
78.13882 400.000
78.15877 457.000
78.17872 442.000
78.19866 485.000
78.21861 452.000
78.23856 463.000
78.25850 451.000
78.27845 450.000
78.29840 467.000
78.31834 447.000
78.33829 435.000
78.35824 467.000
78.37819 482.000
78.39813 437.000
78.41808 419.000
78.43803 431.000
78.45797 436.000
78.47792 466.000
78.49787 448.000
78.51781 459.000
78.53776 447.000
78.55771 467.000
78.57765 407.000
78.59760 426.000
78.61755 417.000
78.63750 426.000
78.65744 430.000
78.67739 414.000
78.69734 458.000
78.71728 446.000
78.73723 447.000
78.75718 443.000
78.77712 424.000
78.79707 436.000
78.81702 405.000
78.83697 443.000
78.85691 452.000
78.87686 438.000
78.89681 432.000
78.91675 422.000
78.93670 427.000
78.95665 431.000
78.97659 451.000
78.99654 429.000
79.01649 450.000
79.03643 444.000
79.05638 456.000
79.07633 515.000
79.09628 395.000
79.11622 401.000
79.13617 473.000
79.15612 412.000
79.17606 447.000
79.19601 410.000
79.21596 431.000
79.23590 460.000
79.25585 445.000
79.27580 408.000
79.29575 433.000
79.31569 405.000
79.33564 467.000
79.35559 453.000
79.37553 419.000
79.39548 431.000
79.41543 447.000
79.43537 416.000
79.45532 418.000
79.47527 441.000
79.49521 425.000
79.51516 472.000
79.53511 452.000
79.55506 445.000
79.57500 414.000
79.59495 421.000
79.61490 433.000
79.63484 438.000
79.65479 428.000
79.67474 455.000
79.69468 396.000
79.71463 453.000
79.73458 415.000
79.75453 441.000
79.77447 465.000
79.79442 449.000
79.81437 436.000
79.83431 466.000
79.85426 435.000
79.87421 443.000
79.89415 400.000
79.91410 390.000
79.93405 464.000
79.95399 435.000
79.97394 477.000
79.99389 457.000
80.01384 464.000
80.03378 473.000
80.05373 486.000
80.07368 510.000
80.09362 470.000
80.11357 512.000
80.13352 497.000
80.15346 491.000
80.17341 458.000
80.19336 482.000
80.21331 493.000
80.23325 453.000
80.25320 475.000
80.27315 464.000
80.29309 456.000
80.31304 490.000
80.33299 453.000
80.35293 508.000
80.37288 447.000
80.39283 462.000
80.41278 471.000
80.43272 465.000
80.45267 477.000
80.47262 416.000
80.49256 478.000
80.51251 453.000
80.53246 443.000
80.55240 458.000
80.57235 410.000
80.59230 462.000
80.61224 469.000
80.63219 447.000
80.65214 428.000
80.67209 451.000
80.69203 492.000
80.71198 457.000
80.73193 476.000
80.75187 429.000
80.77182 441.000
80.79177 432.000
80.81171 422.000
80.83166 411.000
80.85161 437.000
80.87156 435.000
80.89150 423.000
80.91145 441.000
80.93140 410.000
80.95134 440.000
80.97129 465.000
80.99124 487.000
81.01118 472.000
81.03113 448.000
81.05108 435.000
81.07102 427.000
81.09097 468.000
81.11092 430.000
81.13087 460.000
81.15081 421.000
81.17076 455.000
81.19071 426.000
81.21065 470.000
81.23060 439.000
81.25055 421.000
81.27049 407.000
81.29044 435.000
81.31039 442.000
81.33034 424.000
81.35028 443.000
81.37023 442.000
81.39018 429.000
81.41012 438.000
81.43007 443.000
81.45002 426.000
81.46996 478.000
81.48991 415.000
81.50986 475.000
81.52980 438.000
81.54975 455.000
81.56970 409.000
81.58965 436.000
81.60959 422.000
81.62954 434.000
81.64949 420.000
81.66943 450.000
81.68938 409.000
81.70933 450.000
81.72927 443.000
81.74922 436.000
81.76917 412.000
81.78912 426.000
81.80906 429.000
81.82901 440.000
81.84896 462.000
81.86890 421.000
81.88885 426.000
81.90880 462.000
81.92874 443.000
81.94869 456.000
81.96864 423.000
81.98859 414.000
82.00853 438.000
82.02848 475.000
82.04843 432.000
82.06837 454.000
82.08832 434.000
82.10827 452.000
82.12821 524.000
82.14816 476.000
82.16811 480.000
82.18805 501.000
82.20800 500.000
82.22795 477.000
82.24790 558.000
82.26784 511.000
82.28779 581.000
82.30774 596.000
82.32768 554.000
82.34763 539.000
82.36758 521.000
82.38752 533.000
82.40747 510.000
82.42742 542.000
82.44737 499.000
82.46731 477.000
82.48726 549.000
82.50721 531.000
82.52715 537.000
82.54710 580.000
82.56705 500.000
82.58699 519.000
82.60694 510.000
82.62689 487.000
82.64683 470.000
82.66678 491.000
82.68673 485.000
82.70668 472.000
82.72662 496.000
82.74657 442.000
82.76652 457.000
82.78646 543.000
82.80641 520.000
82.82636 483.000
82.84630 483.000
82.86625 456.000
82.88620 442.000
82.90615 493.000
82.92609 489.000
82.94604 482.000
82.96599 499.000
82.98593 507.000
83.00588 467.000
83.02583 508.000
83.04577 528.000
83.06572 498.000
83.08567 527.000
83.10561 512.000
83.12556 551.000
83.14551 562.000
83.16546 560.000
83.18540 515.000
83.20535 500.000
83.22530 528.000
83.24524 510.000
83.26519 493.000
83.28514 493.000
83.30508 549.000
83.32503 529.000
83.34498 512.000
83.36493 516.000
83.38487 532.000
83.40482 520.000
83.42477 520.000
83.44471 496.000
83.46466 533.000
83.48461 542.000
83.50455 542.000
83.52450 552.000
83.54445 523.000
83.56440 554.000
83.58434 548.000
83.60429 483.000
83.62424 575.000
83.64418 537.000
83.66413 520.000
83.68408 525.000
83.70402 505.000
83.72397 516.000
83.74392 507.000
83.76386 500.000
83.78381 549.000
83.80376 502.000
83.82371 499.000
83.84365 540.000
83.86360 492.000
83.88355 511.000
83.90349 463.000
83.92344 458.000
83.94339 470.000
83.96333 508.000
83.98328 514.000
84.00323 466.000
84.02318 455.000
84.04312 475.000
84.06307 487.000
84.08302 457.000
84.10296 520.000
84.12291 423.000
84.14286 499.000
84.16280 450.000
84.18275 439.000
84.20270 481.000
84.22264 476.000
84.24259 482.000
84.26254 475.000
84.28249 437.000
84.30243 448.000
84.32238 475.000
84.34233 435.000
84.36227 455.000
84.38222 474.000
84.40217 445.000
84.42211 449.000
84.44206 454.000
84.46201 434.000
84.48196 453.000
84.50190 436.000
84.52185 471.000
84.54180 467.000
84.56174 452.000
84.58169 421.000
84.60164 443.000
84.62158 460.000
84.64153 419.000
84.66148 433.000
84.68142 416.000
84.70137 467.000
84.72132 467.000
84.74127 482.000
84.76121 435.000
84.78116 413.000
84.80111 450.000
84.82105 454.000
84.84100 423.000
84.86095 460.000
84.88089 452.000
84.90084 419.000
84.92079 428.000
84.94074 492.000
84.96068 444.000
84.98063 423.000
85.00058 408.000
85.02052 393.000
85.04047 439.000
85.06042 458.000
85.08036 481.000
85.10031 445.000
85.12026 420.000
85.14021 410.000
85.16015 426.000
85.18010 413.000
85.20005 460.000
85.21999 440.000
85.23994 430.000
85.25989 421.000
85.27983 416.000
85.29978 422.000
85.31973 402.000
85.33967 444.000
85.35962 417.000
85.37957 427.000
85.39952 455.000
85.41946 421.000
85.43941 400.000
85.45936 475.000
85.47930 390.000
85.49925 423.000
85.51920 418.000
85.53914 475.000
85.55909 445.000
85.57904 421.000
85.59899 449.000
85.61893 394.000
85.63888 443.000
85.65883 452.000
85.67877 425.000
85.69872 458.000
85.71867 453.000
85.73861 411.000
85.75856 430.000
85.77851 402.000
85.79845 435.000
85.81840 450.000
85.83835 436.000
85.85830 447.000
85.87824 455.000
85.89819 453.000
85.91814 438.000
85.93808 420.000
85.95803 437.000
85.97798 415.000
85.99792 387.000
86.01787 429.000
86.03782 431.000
86.05777 454.000
86.07771 397.000
86.09766 451.000
86.11761 431.000
86.13755 460.000
86.15750 394.000
86.17745 412.000
86.19739 435.000
86.21734 433.000
86.23729 426.000
86.25723 475.000
86.27718 452.000
86.29713 458.000
86.31708 458.000
86.33702 464.000
86.35697 454.000
86.37692 471.000
86.39686 492.000
86.41681 478.000
86.43676 447.000
86.45670 498.000
86.47665 455.000
86.49660 443.000
86.51655 473.000
86.53649 465.000
86.55644 491.000
86.57639 427.000
86.59633 469.000
86.61628 486.000
86.63623 502.000
86.65617 534.000
86.67612 443.000
86.69607 453.000
86.71602 489.000
86.73596 440.000
86.75591 498.000
86.77586 460.000
86.79580 448.000
86.81575 436.000
86.83570 452.000
86.85564 466.000
86.87559 446.000
86.89554 455.000
86.91548 435.000
86.93543 438.000
86.95538 445.000
86.97533 433.000
86.99527 488.000
87.01522 459.000
87.03517 418.000
87.05511 453.000
87.07506 489.000
87.09501 471.000
87.11495 421.000
87.13490 472.000
87.15485 454.000
87.17480 432.000
87.19474 467.000
87.21469 475.000
87.23464 449.000
87.25458 476.000
87.27453 445.000
87.29448 468.000
87.31442 420.000
87.33437 464.000
87.35432 426.000
87.37426 441.000
87.39421 437.000
87.41416 454.000
87.43411 480.000
87.45405 409.000
87.47400 451.000
87.49395 407.000
87.51389 425.000
87.53384 448.000
87.55379 386.000
87.57373 398.000
87.59368 412.000
87.61363 447.000
87.63358 440.000
87.65352 462.000
87.67347 424.000
87.69342 450.000
87.71336 429.000
87.73331 424.000
87.75326 430.000
87.77320 441.000
87.79315 421.000
87.81310 432.000
87.83304 419.000
87.85299 421.000
87.87294 403.000
87.89289 432.000
87.91283 460.000
87.93278 449.000
87.95273 423.000
87.97267 427.000
87.99262 411.000
88.01257 428.000
88.03251 456.000
88.05246 434.000
88.07241 428.000
88.09236 425.000
88.11230 388.000
88.13225 434.000
88.15220 412.000
88.17214 479.000
88.19209 437.000
88.21204 402.000
88.23198 414.000
88.25193 440.000
88.27188 449.000
88.29183 432.000
88.31177 439.000
88.33172 431.000
88.35167 417.000
88.37161 425.000
88.39156 465.000
88.41151 442.000
88.43145 434.000
88.45140 466.000
88.47135 409.000
88.49129 407.000
88.51124 447.000
88.53119 443.000
88.55114 499.000
88.57108 429.000
88.59103 416.000
88.61098 406.000
88.63092 449.000
88.65087 418.000
88.67082 422.000
88.69076 405.000
88.71071 425.000
88.73066 446.000
88.75061 442.000
88.77055 402.000
88.79050 486.000
88.81045 424.000
88.83039 430.000
88.85034 441.000
88.87029 466.000
88.89023 429.000
88.91018 421.000
88.93013 411.000
88.95007 386.000
88.97002 441.000
88.98997 409.000
89.00992 443.000
89.02986 425.000
89.04981 458.000
89.06976 445.000
89.08970 451.000
89.10965 412.000
89.12960 450.000
89.14954 456.000
89.16949 434.000
89.18944 444.000
89.20939 487.000
89.22933 444.000
89.24928 425.000
89.26923 413.000
89.28917 433.000
89.30912 451.000
89.32907 416.000
89.34901 435.000
89.36896 441.000
89.38891 415.000
89.40885 433.000
89.42880 432.000
89.44875 447.000
89.46870 477.000
89.48864 422.000
89.50859 424.000
89.52854 489.000
89.54848 415.000
89.56843 454.000
89.58838 476.000
89.60832 444.000
89.62827 492.000
89.64822 460.000
89.66817 503.000
89.68811 481.000
89.70806 454.000
89.72801 490.000
89.74795 486.000
89.76790 514.000
89.78785 514.000
89.80779 498.000
89.82774 483.000
89.84769 506.000
89.86764 522.000
89.88758 543.000
89.90753 520.000
89.92748 486.000
89.94742 454.000
89.96737 487.000
89.98732 541.000
90.00726 478.000
