10.00000 91.000
10.01995 105.000
10.03989 79.000
10.05984 103.000
10.07979 114.000
10.09973 90.000
10.11968 94.000
10.13963 111.000
10.15958 116.000
10.17952 99.000
10.19947 107.000
10.21942 97.000
10.23936 117.000
10.25931 116.000
10.27926 92.000
10.29920 102.000
10.31915 100.000
10.33910 108.000
10.35905 110.000
10.37899 115.000
10.39894 117.000
10.41889 102.000
10.43883 88.000
10.45878 94.000
10.47873 109.000
10.49867 98.000
10.51862 94.000
10.53857 93.000
10.55851 103.000
10.57846 109.000
10.59841 119.000
10.61836 92.000
10.63830 104.000
10.65825 127.000
10.67820 113.000
10.69814 107.000
10.71809 103.000
10.73804 100.000
10.75798 100.000
10.77793 114.000
10.79788 104.000
10.81783 115.000
10.83777 104.000
10.85772 97.000
10.87767 122.000
10.89761 116.000
10.91756 102.000
10.93751 103.000
10.95745 111.000
10.97740 118.000
10.99735 106.000
11.01730 110.000
11.03724 101.000
11.05719 123.000
11.07714 123.000
11.09708 99.000
11.11703 105.000
11.13698 123.000
11.15692 118.000
11.17687 95.000
11.19682 112.000
11.21676 118.000
11.23671 104.000
11.25666 93.000
11.27661 112.000
11.29655 122.000
11.31650 93.000
11.33645 110.000
11.35639 95.000
11.37634 94.000
11.39629 86.000
11.41623 117.000
11.43618 96.000
11.45613 119.000
11.47608 102.000
11.49602 120.000
11.51597 129.000
11.53592 105.000
11.55586 106.000
11.57581 112.000
11.59576 100.000
11.61570 100.000
11.63565 120.000
11.65560 121.000
11.67554 104.000
11.69549 120.000
11.71544 92.000
11.73539 95.000
11.75533 118.000
11.77528 113.000
11.79523 112.000
11.81517 114.000
11.83512 116.000
11.85507 96.000
11.87501 98.000
11.89496 113.000
11.91491 109.000
11.93486 90.000
11.95480 118.000
11.97475 111.000
11.99470 110.000
12.01464 99.000
12.03459 91.000
12.05454 118.000
12.07448 105.000
12.09443 104.000
12.11438 123.000
12.13432 110.000
12.15427 134.000
12.17422 118.000
12.19417 122.000
12.21411 112.000
12.23406 108.000
12.25401 106.000
12.27395 117.000
12.29390 113.000
12.31385 120.000
12.33379 116.000
12.35374 110.000
12.37369 111.000
12.39364 109.000
12.41358 109.000
12.43353 111.000
12.45348 93.000
12.47342 119.000
12.49337 98.000
12.51332 129.000
12.53326 105.000
12.55321 108.000
12.57316 102.000
12.59311 101.000
12.61305 126.000
12.63300 105.000
12.65295 113.000
12.67289 108.000
12.69284 101.000
12.71279 95.000
12.73273 120.000
12.75268 109.000
12.77263 104.000
12.79257 101.000
12.81252 106.000
12.83247 96.000
12.85242 113.000
12.87236 119.000
12.89231 93.000
12.91226 125.000
12.93220 123.000
12.95215 110.000
12.97210 94.000
12.99204 114.000
13.01199 111.000
13.03194 125.000
13.05189 114.000
13.07183 129.000
13.09178 122.000
13.11173 110.000
13.13167 85.000
13.15162 116.000
13.17157 109.000
13.19151 112.000
13.21146 112.000
13.23141 118.000
13.25135 143.000
13.27130 120.000
13.29125 99.000
13.31120 105.000
13.33114 132.000
13.35109 110.000
13.37104 141.000
13.39098 120.000
13.41093 111.000
13.43088 127.000
13.45082 122.000
13.47077 106.000
13.49072 108.000
13.51067 118.000
13.53061 115.000
13.55056 114.000
13.57051 136.000
13.59045 125.000
13.61040 114.000
13.63035 139.000
13.65029 133.000
13.67024 93.000
13.69019 114.000
13.71013 108.000
13.73008 104.000
13.75003 100.000
13.76998 130.000
13.78992 132.000
13.80987 116.000
13.82982 120.000
13.84976 123.000
13.86971 123.000
13.88966 114.000
13.90960 131.000
13.92955 124.000
13.94950 122.000
13.96945 141.000
13.98939 120.000
14.00934 128.000
14.02929 111.000
14.04923 137.000
14.06918 138.000
14.08913 114.000
14.10907 108.000
14.12902 113.000
14.14897 113.000
14.16892 118.000
14.18886 131.000
14.20881 98.000
14.22876 115.000
14.24870 128.000
14.26865 124.000
14.28860 125.000
14.30854 103.000
14.32849 108.000
14.34844 130.000
14.36838 128.000
14.38833 134.000
14.40828 127.000
14.42823 123.000
14.44817 119.000
14.46812 125.000
14.48807 111.000
14.50801 119.000
14.52796 113.000
14.54791 123.000
14.56785 116.000
14.58780 128.000
14.60775 133.000
14.62770 109.000
14.64764 127.000
14.66759 117.000
14.68754 132.000
14.70748 131.000
14.72743 114.000
14.74738 137.000
14.76732 122.000
14.78727 128.000
14.80722 128.000
14.82716 138.000
14.84711 124.000
14.86706 139.000
14.88701 125.000
14.90695 121.000
14.92690 107.000
14.94685 122.000
14.96679 146.000
14.98674 138.000
15.00669 116.000
15.02663 130.000
15.04658 145.000
15.06653 129.000
15.08648 129.000
15.10642 120.000
15.12637 135.000
15.14632 142.000
15.16626 157.000
15.18621 131.000
15.20616 141.000
15.22610 147.000
15.24605 176.000
15.26600 173.000
15.28594 146.000
15.30589 158.000
15.32584 161.000
15.34579 160.000
15.36573 169.000
15.38568 155.000
15.40563 164.000
15.42557 166.000
15.44552 180.000
15.46547 190.000
15.48541 177.000
15.50536 175.000
15.52531 189.000
15.54526 195.000
15.56520 188.000
15.58515 190.000
15.60510 199.000
15.62504 226.000
15.64499 242.000
15.66494 223.000
15.68488 263.000
15.70483 294.000
15.72478 340.000
15.74472 382.000
15.76467 505.000
15.78462 726.000
15.80457 923.000
15.82451 1433.000
15.84446 2313.000
15.86441 3591.000
15.88435 5081.000
15.90430 5878.000
15.92425 5598.000
15.94419 4086.000
15.96414 2703.000
15.98409 1512.000
16.00404 829.000
16.02398 547.000
16.04393 445.000
16.06388 379.000
16.08382 307.000
16.10377 239.000
16.12372 217.000
16.14366 234.000
16.16361 202.000
16.18356 200.000
16.20351 194.000
16.22345 201.000
16.24340 175.000
16.26335 163.000
16.28329 155.000
16.30324 156.000
16.32319 140.000
16.34313 170.000
16.36308 175.000
16.38303 148.000
16.40297 147.000
16.42292 158.000
16.44287 155.000
16.46282 162.000
16.48276 170.000
16.50271 154.000
16.52266 155.000
16.54260 132.000
16.56255 137.000
16.58250 141.000
16.60244 124.000
16.62239 127.000
16.64234 131.000
16.66229 130.000
16.68223 136.000
16.70218 148.000
16.72213 134.000
16.74207 122.000
16.76202 141.000
16.78197 137.000
16.80191 137.000
16.82186 133.000
16.84181 131.000
16.86175 121.000
16.88170 138.000
16.90165 114.000
16.92160 124.000
16.94154 130.000
16.96149 125.000
16.98144 124.000
17.00138 140.000
17.02133 117.000
17.04128 125.000
17.06122 128.000
17.08117 132.000
17.10112 144.000
17.12107 109.000
17.14101 121.000
17.16096 127.000
17.18091 142.000
17.20085 123.000
17.22080 117.000
17.24075 121.000
17.26069 152.000
17.28064 134.000
17.30059 122.000
17.32053 135.000
17.34048 128.000
17.36043 143.000
17.38038 120.000
17.40032 133.000
17.42027 134.000
17.44022 149.000
17.46016 121.000
17.48011 116.000
17.50006 121.000
17.52000 123.000
17.53995 140.000
17.55990 118.000
17.57985 116.000
17.59979 132.000
17.61974 154.000
17.63969 122.000
17.65963 120.000
17.67958 153.000
17.69953 139.000
17.71947 125.000
17.73942 137.000
17.75937 135.000
17.77932 131.000
17.79926 140.000
17.81921 131.000
17.83916 124.000
17.85910 124.000
17.87905 101.000
17.89900 140.000
17.91894 122.000
17.93889 129.000
17.95884 108.000
17.97878 129.000
17.99873 124.000
18.01868 120.000
18.03863 128.000
18.05857 132.000
18.07852 149.000
18.09847 123.000
18.11841 134.000
18.13836 141.000
18.15831 130.000
18.17825 97.000
18.19820 144.000
18.21815 133.000
18.23810 109.000
18.25804 112.000
18.27799 139.000
18.29794 138.000
18.31788 151.000
18.33783 143.000
18.35778 143.000
18.37772 154.000
18.39767 138.000
18.41762 140.000
18.43756 178.000
18.45751 214.000
18.47746 298.000
18.49741 337.000
18.51735 446.000
18.53730 507.000
18.55725 523.000
18.57719 533.000
18.59714 441.000
18.61709 315.000
18.63703 261.000
18.65698 202.000
18.67693 172.000
18.69688 155.000
18.71682 159.000
18.73677 122.000
18.75672 165.000
18.77666 150.000
18.79661 138.000
18.81656 140.000
18.83650 139.000
18.85645 116.000
18.87640 157.000
18.89634 155.000
18.91629 143.000
18.93624 131.000
18.95619 113.000
18.97613 101.000
18.99608 143.000
19.01603 145.000
19.03597 132.000
19.05592 146.000
19.07587 122.000
19.09581 120.000
19.11576 130.000
19.13571 140.000
19.15566 130.000
19.17560 120.000
19.19555 121.000
19.21550 136.000
19.23544 126.000
19.25539 126.000
19.27534 136.000
19.29528 126.000
19.31523 140.000
19.33518 124.000
19.35513 136.000
19.37507 146.000
19.39502 138.000
19.41497 134.000
19.43491 142.000
19.45486 130.000
19.47481 118.000
19.49475 132.000
19.51470 128.000
19.53465 151.000
19.55459 133.000
19.57454 136.000
19.59449 138.000
19.61444 124.000
19.63438 154.000
19.65433 143.000
19.67428 138.000
19.69422 135.000
19.71417 142.000
19.73412 127.000
19.75406 132.000
19.77401 147.000
19.79396 123.000
19.81391 128.000
19.83385 125.000
19.85380 118.000
19.87375 118.000
19.89369 127.000
19.91364 152.000
19.93359 115.000
19.95353 122.000
19.97348 125.000
19.99343 141.000
20.01337 135.000
20.03332 140.000
20.05327 144.000
20.07322 127.000
20.09316 124.000
20.11311 126.000
20.13306 131.000
20.15300 148.000
20.17295 118.000
20.19290 124.000
20.21284 143.000
20.23279 114.000
20.25274 120.000
20.27269 141.000
20.29263 151.000
20.31258 142.000
20.33253 128.000
20.35247 139.000
20.37242 131.000
20.39237 124.000
20.41231 132.000
20.43226 136.000
20.45221 117.000
20.47215 135.000
20.49210 130.000
20.51205 146.000
20.53200 140.000
20.55194 143.000
20.57189 150.000
20.59184 172.000
20.61178 137.000
20.63173 132.000
20.65168 150.000
20.67162 140.000
20.69157 142.000
20.71152 125.000
20.73147 123.000
20.75141 143.000
20.77136 135.000
20.79131 143.000
20.81125 149.000
20.83120 143.000
20.85115 145.000
20.87109 144.000
20.89104 122.000
20.91099 136.000
20.93094 120.000
20.95088 152.000
20.97083 125.000
20.99078 124.000
21.01072 126.000
21.03067 135.000
21.05062 136.000
21.07056 148.000
21.09051 126.000
21.11046 132.000
21.13040 138.000
21.15035 152.000
21.17030 148.000
21.19025 149.000
21.21019 143.000
21.23014 138.000
21.25009 161.000
21.27003 153.000
21.28998 127.000
21.30993 135.000
21.32987 151.000
21.34982 145.000
21.36977 136.000
21.38972 123.000
21.40966 165.000
21.42961 137.000
21.44956 132.000
21.46950 156.000
21.48945 132.000
21.50940 142.000
21.52934 145.000
21.54929 138.000
21.56924 163.000
21.58918 152.000
21.60913 147.000
21.62908 126.000
21.64903 134.000
21.66897 152.000
21.68892 143.000
21.70887 141.000
21.72881 145.000
21.74876 137.000
21.76871 125.000
21.78865 145.000
21.80860 140.000
21.82855 138.000
21.84850 129.000
21.86844 128.000
21.88839 135.000
21.90834 148.000
21.92828 149.000
21.94823 140.000
21.96818 140.000
21.98812 136.000
22.00807 147.000
22.02802 158.000
22.04796 127.000
22.06791 164.000
22.08786 130.000
22.10781 157.000
22.12775 155.000
22.14770 140.000
22.16765 146.000
22.18759 150.000
22.20754 122.000
22.22749 149.000
22.24743 127.000
22.26738 142.000
22.28733 133.000
22.30728 124.000
22.32722 140.000
22.34717 164.000
22.36712 135.000
22.38706 144.000
22.40701 169.000
22.42696 150.000
22.44690 138.000
22.46685 159.000
22.48680 154.000
22.50675 139.000
22.52669 143.000
22.54664 152.000
22.56659 132.000
22.58653 154.000
22.60648 136.000
22.62643 133.000
22.64637 125.000
22.66632 122.000
22.68627 137.000
22.70621 152.000
22.72616 143.000
22.74611 150.000
22.76606 159.000
22.78600 123.000
22.80595 130.000
22.82590 151.000
22.84584 127.000
22.86579 136.000
22.88574 142.000
22.90568 127.000
22.92563 134.000
22.94558 143.000
22.96553 132.000
22.98547 139.000
23.00542 127.000
23.02537 156.000
23.04531 147.000
23.06526 142.000
23.08521 140.000
23.10515 139.000
23.12510 140.000
23.14505 131.000
23.16499 147.000
23.18494 145.000
23.20489 130.000
23.22484 125.000
23.24478 141.000
23.26473 160.000
23.28468 136.000
23.30462 136.000
23.32457 133.000
23.34452 133.000
23.36446 144.000
23.38441 150.000
23.40436 137.000
23.42431 129.000
23.44425 146.000
23.46420 133.000
23.48415 126.000
23.50409 166.000
23.52404 141.000
23.54399 140.000
23.56393 146.000
23.58388 131.000
23.60383 141.000
23.62377 125.000
23.64372 127.000
23.66367 137.000
23.68362 135.000
23.70356 154.000
23.72351 158.000
23.74346 144.000
23.76340 144.000
23.78335 110.000
23.80330 155.000
23.82324 118.000
23.84319 129.000
23.86314 144.000
23.88309 154.000
23.90303 147.000
23.92298 138.000
23.94293 142.000
23.96287 166.000
23.98282 132.000
24.00277 145.000
24.02271 128.000
24.04266 130.000
24.06261 129.000
24.08256 157.000
24.10250 149.000
24.12245 132.000
24.14240 171.000
24.16234 163.000
24.18229 140.000
24.20224 133.000
24.22218 145.000
24.24213 146.000
24.26208 141.000
24.28202 147.000
24.30197 134.000
24.32192 134.000
24.34187 167.000
24.36181 129.000
24.38176 131.000
24.40171 149.000
24.42165 146.000
24.44160 137.000
24.46155 149.000
24.48149 155.000
24.50144 165.000
24.52139 133.000
24.54134 160.000
24.56128 133.000
24.58123 147.000
24.60118 136.000
24.62112 127.000
24.64107 140.000
24.66102 143.000
24.68096 150.000
24.70091 135.000
24.72086 143.000
24.74080 152.000
24.76075 139.000
24.78070 148.000
24.80065 140.000
24.82059 143.000
24.84054 172.000
24.86049 133.000
24.88043 135.000
24.90038 174.000
24.92033 144.000
24.94027 175.000
24.96022 144.000
24.98017 137.000
25.00012 146.000
25.02006 159.000
25.04001 134.000
25.05996 136.000
25.07990 142.000
25.09985 157.000
25.11980 150.000
25.13974 158.000
25.15969 155.000
25.17964 132.000
25.19958 140.000
25.21953 142.000
25.23948 157.000
25.25943 156.000
25.27937 163.000
25.29932 152.000
25.31927 133.000
25.33921 132.000
25.35916 129.000
25.37911 153.000
25.39905 152.000
25.41900 154.000
25.43895 153.000
25.45890 144.000
25.47884 145.000
25.49879 141.000
25.51874 140.000
25.53868 149.000
25.55863 145.000
25.57858 145.000
25.59852 144.000
25.61847 142.000
25.63842 142.000
25.65837 128.000
25.67831 157.000
25.69826 156.000
25.71821 152.000
25.73815 148.000
25.75810 147.000
25.77805 128.000
25.79799 154.000
25.81794 147.000
25.83789 150.000
25.85783 143.000
25.87778 164.000
25.89773 146.000
25.91768 154.000
25.93762 151.000
25.95757 141.000
25.97752 176.000
25.99746 153.000
26.01741 165.000
26.03736 140.000
26.05730 169.000
26.07725 168.000
26.09720 160.000
26.11715 172.000
26.13709 165.000
26.15704 142.000
26.17699 156.000
26.19693 154.000
26.21688 155.000
26.23683 137.000
26.25677 151.000
26.27672 142.000
26.29667 137.000
26.31661 166.000
26.33656 176.000
26.35651 138.000
26.37646 142.000
26.39640 153.000
26.41635 171.000
26.43630 147.000
26.45624 153.000
26.47619 178.000
26.49614 130.000
26.51608 138.000
26.53603 146.000
26.55598 137.000
26.57593 156.000
26.59587 157.000
26.61582 145.000
26.63577 173.000
26.65571 142.000
26.67566 163.000
26.69561 157.000
26.71555 164.000
26.73550 137.000
26.75545 190.000
26.77539 139.000
26.79534 150.000
26.81529 178.000
26.83524 132.000
26.85518 154.000
26.87513 153.000
26.89508 127.000
26.91502 149.000
26.93497 161.000
26.95492 143.000
26.97486 151.000
26.99481 169.000
27.01476 157.000
27.03471 146.000
27.05465 167.000
27.07460 154.000
27.09455 157.000
27.11449 154.000
27.13444 171.000
27.15439 151.000
27.17433 147.000
27.19428 163.000
27.21423 142.000
27.23417 148.000
27.25412 174.000
27.27407 188.000
27.29402 160.000
27.31396 166.000
27.33391 154.000
27.35386 158.000
27.37380 172.000
27.39375 161.000
27.41370 175.000
27.43364 191.000
27.45359 140.000
27.47354 150.000
27.49349 151.000
27.51343 180.000
27.53338 152.000
27.55333 174.000
27.57327 172.000
27.59322 168.000
27.61317 163.000
27.63311 173.000
27.65306 161.000
27.67301 171.000
27.69296 133.000
27.71290 170.000
27.73285 170.000
27.75280 125.000
27.77274 158.000
27.79269 157.000
27.81264 146.000
27.83258 156.000
27.85253 137.000
27.87248 165.000
27.89242 149.000
27.91237 182.000
27.93232 157.000
27.95227 160.000
27.97221 154.000
27.99216 156.000
28.01211 169.000
28.03205 154.000
28.05200 162.000
28.07195 159.000
28.09189 158.000
28.11184 154.000
28.13179 164.000
28.15174 157.000
28.17168 163.000
28.19163 152.000
28.21158 145.000
28.23152 168.000
28.25147 158.000
28.27142 135.000
28.29136 136.000
28.31131 171.000
28.33126 147.000
28.35120 153.000
28.37115 163.000
28.39110 175.000
28.41105 160.000
28.43099 154.000
28.45094 157.000
28.47089 171.000
28.49083 154.000
28.51078 133.000
28.53073 148.000
28.55067 155.000
28.57062 163.000
28.59057 156.000
28.61052 140.000
28.63046 176.000
28.65041 167.000
28.67036 172.000
28.69030 154.000
28.71025 150.000
28.73020 167.000
28.75014 155.000
28.77009 170.000
28.79004 163.000
28.80998 150.000
28.82993 148.000
28.84988 159.000
28.86983 167.000
28.88977 137.000
28.90972 174.000
28.92967 146.000
28.94961 174.000
28.96956 150.000
28.98951 153.000
29.00945 153.000
29.02940 168.000
29.04935 168.000
29.06930 169.000
29.08924 171.000
29.10919 166.000
29.12914 159.000
29.14908 175.000
29.16903 175.000
29.18898 149.000
29.20892 158.000
29.22887 181.000
29.24882 156.000
29.26877 170.000
29.28871 154.000
29.30866 157.000
29.32861 148.000
29.34855 151.000
29.36850 162.000
29.38845 141.000
29.40839 161.000
29.42834 161.000
29.44829 140.000
29.46823 141.000
29.48818 159.000
29.50813 165.000
29.52808 166.000
29.54802 166.000
29.56797 174.000
29.58792 152.000
29.60786 161.000
29.62781 170.000
29.64776 165.000
29.66770 183.000
29.68765 142.000
29.70760 172.000
29.72755 160.000
29.74749 172.000
29.76744 158.000
29.78739 191.000
29.80733 165.000
29.82728 177.000
29.84723 182.000
29.86717 179.000
29.88712 153.000
29.90707 173.000
29.92701 163.000
29.94696 165.000
29.96691 172.000
29.98686 188.000
30.00680 171.000
30.02675 181.000
30.04670 220.000
30.06664 151.000
30.08659 181.000
30.10654 167.000
30.12648 158.000
30.14643 185.000
30.16638 181.000
30.18633 156.000
30.20627 168.000
30.22622 199.000
30.24617 200.000
30.26611 190.000
30.28606 228.000
30.30601 231.000
30.32595 289.000
30.34590 346.000
30.36585 467.000
30.38579 595.000
30.40574 746.000
30.42569 899.000
30.44564 928.000
30.46558 958.000
30.48553 965.000
30.50548 825.000
30.52542 725.000
30.54537 585.000
30.56532 538.000
30.58526 406.000
30.60521 374.000
30.62516 282.000
30.64511 251.000
30.66505 219.000
30.68500 191.000
30.70495 196.000
30.72489 191.000
30.74484 173.000
30.76479 196.000
30.78473 164.000
30.80468 195.000
30.82463 190.000
30.84458 169.000
30.86452 195.000
30.88447 180.000
30.90442 143.000
30.92436 157.000
30.94431 166.000
30.96426 165.000
30.98420 185.000
31.00415 158.000
31.02410 166.000
31.04404 179.000
31.06399 147.000
31.08394 174.000
31.10389 150.000
31.12383 150.000
31.14378 175.000
31.16373 158.000
31.18367 205.000
31.20362 144.000
31.22357 157.000
31.24351 161.000
31.26346 162.000
31.28341 147.000
31.30336 155.000
31.32330 159.000
31.34325 187.000
31.36320 160.000
31.38314 165.000
31.40309 157.000
31.42304 166.000
31.44298 164.000
31.46293 168.000
31.48288 206.000
31.50282 171.000
31.52277 146.000
31.54272 169.000
31.56267 176.000
31.58261 173.000
31.60256 180.000
31.62251 164.000
31.64245 184.000
31.66240 164.000
31.68235 171.000
31.70229 187.000
31.72224 157.000
31.74219 189.000
31.76214 189.000
31.78208 173.000
31.80203 183.000
31.82198 179.000
31.84192 210.000
31.86187 207.000
31.88182 221.000
31.90176 231.000
31.92171 232.000
31.94166 294.000
31.96160 432.000
31.98155 458.000
32.00150 519.000
32.02145 622.000
32.04139 652.000
32.06134 655.000
32.08129 571.000
32.10123 520.000
32.12118 486.000
32.14113 410.000
32.16107 331.000
32.18102 255.000
32.20097 205.000
32.22092 200.000
32.24086 202.000
32.26081 188.000
32.28076 175.000
32.30070 156.000
32.32065 187.000
32.34060 175.000
32.36054 197.000
32.38049 176.000
32.40044 173.000
32.42039 145.000
32.44033 183.000
32.46028 180.000
32.48023 173.000
32.50017 172.000
32.52012 164.000
32.54007 167.000
32.56001 165.000
32.57996 160.000
32.59991 183.000
32.61985 175.000
32.63980 121.000
32.65975 166.000
32.67970 174.000
32.69964 162.000
32.71959 155.000
32.73954 170.000
32.75948 152.000
32.77943 161.000
32.79938 134.000
32.81932 176.000
32.83927 156.000
32.85922 155.000
32.87917 157.000
32.89911 186.000
32.91906 176.000
32.93901 157.000
32.95895 174.000
32.97890 150.000
32.99885 159.000
33.01879 161.000
33.03874 141.000
33.05869 150.000
33.07863 158.000
33.09858 164.000
33.11853 169.000
33.13848 152.000
33.15842 160.000
33.17837 155.000
33.19832 150.000
33.21826 131.000
33.23821 159.000
33.25816 170.000
33.27810 168.000
33.29805 170.000
33.31800 147.000
33.33795 174.000
33.35789 169.000
33.37784 185.000
33.39779 147.000
33.41773 165.000
33.43768 142.000
33.45763 177.000
33.47757 171.000
33.49752 152.000
33.51747 151.000
33.53741 169.000
33.55736 151.000
33.57731 172.000
33.59726 162.000
33.61720 176.000
33.63715 162.000
33.65710 152.000
33.67704 172.000
33.69699 147.000
33.71694 169.000
33.73688 169.000
33.75683 152.000
33.77678 175.000
33.79673 159.000
33.81667 155.000
33.83662 154.000
33.85657 162.000
33.87651 157.000
33.89646 155.000
33.91641 170.000
33.93635 157.000
33.95630 199.000
33.97625 190.000
33.99620 144.000
34.01614 151.000
34.03609 159.000
34.05604 172.000
34.07598 164.000
34.09593 158.000
34.11588 164.000
34.13582 182.000
34.15577 157.000
34.17572 176.000
34.19566 163.000
34.21561 158.000
34.23556 161.000
34.25551 178.000
34.27545 151.000
34.29540 152.000
34.31535 172.000
34.33529 154.000
34.35524 189.000
34.37519 169.000
34.39513 173.000
34.41508 151.000
34.43503 163.000
34.45498 153.000
34.47492 163.000
34.49487 136.000
34.51482 187.000
34.53476 169.000
34.55471 176.000
34.57466 193.000
34.59460 180.000
34.61455 158.000
34.63450 173.000
34.65444 181.000
34.67439 164.000
34.69434 168.000
34.71429 166.000
34.73423 167.000
34.75418 181.000
34.77413 174.000
34.79407 187.000
34.81402 178.000
34.83397 167.000
34.85391 180.000
34.87386 202.000
34.89381 185.000
34.91376 185.000
34.93370 191.000
34.95365 205.000
34.97360 161.000
34.99354 174.000
35.01349 179.000
35.03344 184.000
35.05338 157.000
35.07333 158.000
35.09328 187.000
35.11322 177.000
35.13317 190.000
35.15312 193.000
35.17307 184.000
35.19301 181.000
35.21296 188.000
35.23291 202.000
35.25285 191.000
35.27280 200.000
35.29275 189.000
35.31269 211.000
35.33264 172.000
35.35259 198.000
35.37254 225.000
35.39248 176.000
35.41243 213.000
35.43238 235.000
35.45232 214.000
35.47227 231.000
35.49222 233.000
35.51216 244.000
35.53211 267.000
35.55206 259.000
35.57201 295.000
35.59195 285.000
35.61190 307.000
35.63185 332.000
35.65179 381.000
35.67174 450.000
35.69169 502.000
35.71163 674.000
35.73158 913.000
35.75153 1154.000
35.77147 1357.000
35.79142 1809.000
35.81137 2115.000
35.83132 2378.000
35.85126 2498.000
35.87121 2514.000
35.89116 2534.000
35.91110 2468.000
35.93105 2286.000
35.95100 2349.000
35.97094 2189.000
35.99089 1983.000
36.01084 1632.000
36.03079 1347.000
36.05073 1121.000
36.07068 1019.000
36.09063 777.000
36.11057 610.000
36.13052 459.000
36.15047 390.000
36.17041 348.000
36.19036 333.000
36.21031 274.000
36.23025 252.000
36.25020 227.000
36.27015 247.000
36.29010 237.000
36.31004 235.000
36.32999 242.000
36.34994 228.000
36.36988 207.000
36.38983 217.000
36.40978 199.000
36.42972 225.000
36.44967 219.000
36.46962 191.000
36.48957 205.000
36.50951 205.000
36.52946 190.000
36.54941 201.000
36.56935 208.000
36.58930 169.000
36.60925 218.000
36.62919 202.000
36.64914 174.000
36.66909 205.000
36.68903 180.000
36.70898 185.000
36.72893 182.000
36.74888 201.000
36.76882 193.000
36.78877 196.000
36.80872 212.000
36.82866 221.000
36.84861 235.000
36.86856 245.000
36.88850 265.000
36.90845 286.000
36.92840 254.000
36.94835 233.000
36.96829 239.000
36.98824 233.000
37.00819 278.000
37.02813 215.000
37.04808 239.000
37.06803 293.000
37.08797 287.000
37.10792 315.000
37.12787 368.000
37.14781 444.000
37.16776 626.000
37.18771 739.000
37.20766 974.000
37.22760 1110.000
37.24755 1128.000
37.26750 1214.000
37.28744 1066.000
37.30739 1075.000
37.32734 948.000
37.34728 842.000
37.36723 737.000
37.38718 670.000
37.40713 577.000
37.42707 497.000
37.44702 436.000
37.46697 451.000
37.48691 410.000
37.50686 396.000
37.52681 388.000
37.54675 350.000
37.56670 342.000
37.58665 351.000
37.60660 301.000
37.62654 249.000
37.64649 295.000
37.66644 246.000
37.68638 230.000
37.70633 210.000
37.72628 218.000
37.74622 191.000
37.76617 170.000
37.78612 196.000
37.80606 195.000
37.82601 190.000
37.84596 192.000
37.86591 173.000
37.88585 175.000
37.90580 178.000
37.92575 185.000
37.94569 189.000
37.96564 176.000
37.98559 163.000
38.00553 206.000
38.02548 169.000
38.04543 172.000
38.06538 171.000
38.08532 169.000
38.10527 168.000
38.12522 179.000
38.14516 173.000
38.16511 156.000
38.18506 165.000
38.20500 149.000
38.22495 183.000
38.24490 183.000
38.26484 173.000
38.28479 141.000
38.30474 185.000
38.32469 190.000
38.34463 188.000
38.36458 178.000
38.38453 187.000
38.40447 188.000
38.42442 146.000
38.44437 184.000
38.46431 172.000
38.48426 201.000
38.50421 197.000
38.52416 191.000
38.54410 170.000
38.56405 195.000
38.58400 182.000
38.60394 189.000
38.62389 189.000
38.64384 197.000
38.66378 188.000
38.68373 185.000
38.70368 216.000
38.72362 214.000
38.74357 221.000
38.76352 210.000
38.78347 228.000
38.80341 200.000
38.82336 201.000
38.84331 225.000
38.86325 250.000
38.88320 221.000
38.90315 213.000
38.92309 208.000
38.94304 208.000
38.96299 214.000
38.98294 205.000
39.00288 249.000
39.02283 248.000
39.04278 199.000
39.06272 201.000
39.08267 196.000
39.10262 205.000
39.12256 227.000
39.14251 204.000
39.16246 212.000
39.18241 254.000
39.20235 225.000
39.22230 209.000
39.24225 230.000
39.26219 233.000
39.28214 222.000
39.30209 252.000
39.32203 249.000
39.34198 318.000
39.36193 345.000
39.38187 368.000
39.40182 338.000
39.42177 478.000
39.44172 587.000
39.46166 759.000
39.48161 1037.000
39.50156 1299.000
39.52150 1556.000
39.54145 1424.000
39.56140 1289.000
39.58134 1126.000
39.60129 1038.000
39.62124 984.000
39.64119 857.000
39.66113 799.000
39.68108 596.000
39.70103 468.000
39.72097 392.000
39.74092 337.000
39.76087 287.000
39.78081 257.000
39.80076 265.000
39.82071 229.000
39.84065 237.000
39.86060 230.000
39.88055 213.000
39.90050 225.000
39.92044 180.000
39.94039 193.000
39.96034 198.000
39.98028 183.000
40.00023 180.000
40.02018 184.000
40.04012 199.000
40.06007 201.000
40.08002 167.000
40.09997 188.000
40.11991 180.000
40.13986 159.000
40.15981 159.000
40.17975 182.000
40.19970 183.000
40.21965 173.000
40.23959 182.000
40.25954 162.000
40.27949 148.000
40.29943 157.000
40.31938 152.000
40.33933 160.000
40.35928 183.000
40.37922 177.000
40.39917 171.000
40.41912 155.000
40.43906 175.000
40.45901 166.000
40.47896 173.000
40.49890 175.000
40.51885 155.000
40.53880 159.000
40.55875 161.000
40.57869 152.000
40.59864 177.000
40.61859 173.000
40.63853 170.000
40.65848 172.000
40.67843 167.000
40.69837 177.000
40.71832 132.000
40.73827 174.000
40.75822 154.000
40.77816 157.000
40.79811 160.000
40.81806 154.000
40.83800 177.000
40.85795 149.000
40.87790 156.000
40.89784 149.000
40.91779 163.000
40.93774 180.000
40.95768 165.000
40.97763 187.000
40.99758 148.000
41.01753 152.000
41.03747 174.000
41.05742 171.000
41.07737 167.000
41.09731 159.000
41.11726 174.000
41.13721 151.000
41.15715 163.000
41.17710 186.000
41.19705 171.000
41.21700 177.000
41.23694 161.000
41.25689 162.000
41.27684 180.000
41.29678 149.000
41.31673 166.000
41.33668 170.000
41.35662 170.000
41.37657 166.000
41.39652 143.000
41.41646 166.000
41.43641 155.000
41.45636 168.000
41.47631 163.000
41.49625 149.000
41.51620 147.000
41.53615 172.000
41.55609 159.000
41.57604 196.000
41.59599 168.000
41.61593 161.000
41.63588 150.000
41.65583 154.000
41.67578 162.000
41.69572 177.000
41.71567 153.000
41.73562 186.000
41.75556 135.000
41.77551 176.000
41.79546 162.000
41.81540 159.000
41.83535 175.000
41.85530 175.000
41.87524 164.000
41.89519 182.000
41.91514 157.000
41.93509 160.000
41.95503 147.000
41.97498 171.000
41.99493 153.000
42.01487 172.000
42.03482 166.000
42.05477 143.000
42.07471 160.000
42.09466 156.000
42.11461 163.000
42.13456 163.000
42.15450 195.000
42.17445 194.000
42.19440 175.000
42.21434 165.000
42.23429 179.000
42.25424 165.000
42.27418 171.000
42.29413 167.000
42.31408 194.000
42.33403 151.000
42.35397 192.000
42.37392 176.000
42.39387 187.000
42.41381 189.000
42.43376 158.000
42.45371 143.000
42.47365 174.000
42.49360 179.000
42.51355 206.000
42.53349 181.000
42.55344 180.000
42.57339 220.000
42.59334 181.000
42.61328 183.000
42.63323 169.000
42.65318 161.000
42.67312 185.000
42.69307 186.000
42.71302 178.000
42.73296 181.000
42.75291 189.000
42.77286 199.000
42.79281 159.000
42.81275 195.000
42.83270 186.000
42.85265 227.000
42.87259 202.000
42.89254 204.000
42.91249 211.000
42.93243 226.000
42.95238 263.000
42.97233 250.000
42.99227 276.000
43.01222 310.000
43.03217 333.000
43.05212 384.000
43.07206 426.000
43.09201 422.000
43.11196 520.000
43.13190 628.000
43.15185 689.000
43.17180 688.000
43.19174 868.000
43.21169 956.000
43.23164 1055.000
43.25159 1101.000
43.27153 1329.000
43.29148 1281.000
43.31143 1344.000
43.33137 1329.000
43.35132 1211.000
43.37127 1190.000
43.39121 1098.000
43.41116 1043.000
43.43111 1036.000
43.45105 940.000
43.47100 910.000
43.49095 865.000
43.51090 864.000
43.53084 905.000
43.55079 950.000
43.57074 1006.000
43.59068 991.000
43.61063 994.000
43.63058 972.000
43.65052 1020.000
43.67047 904.000
43.69042 791.000
43.71037 714.000
43.73031 655.000
43.75026 582.000
43.77021 543.000
43.79015 478.000
43.81010 355.000
43.83005 303.000
43.84999 296.000
43.86994 267.000
43.88989 247.000
43.90984 239.000
43.92978 212.000
43.94973 225.000
43.96968 239.000
43.98962 173.000
44.00957 206.000
44.02952 201.000
44.04946 187.000
44.06941 188.000
44.08936 181.000
44.10930 200.000
44.12925 170.000
44.14920 179.000
44.16915 183.000
44.18909 189.000
44.20904 186.000
44.22899 179.000
44.24893 176.000
44.26888 180.000
44.28883 208.000
44.30877 178.000
44.32872 180.000
44.34867 178.000
44.36862 160.000
44.38856 172.000
44.40851 161.000
44.42846 188.000
44.44840 160.000
44.46835 165.000
44.48830 182.000
44.50824 170.000
44.52819 179.000
44.54814 165.000
44.56808 153.000
44.58803 151.000
44.60798 179.000
44.62793 181.000
44.64787 146.000
44.66782 153.000
44.68777 155.000
44.70771 153.000
44.72766 174.000
44.74761 167.000
44.76755 166.000
44.78750 167.000
44.80745 181.000
44.82740 185.000
44.84734 187.000
44.86729 158.000
44.88724 150.000
44.90718 174.000
44.92713 166.000
44.94708 163.000
44.96702 181.000
44.98697 174.000
45.00692 160.000
45.02686 166.000
45.04681 160.000
45.06676 184.000
45.08671 145.000
45.10665 168.000
45.12660 156.000
45.14655 165.000
45.16649 185.000
45.18644 161.000
45.20639 163.000
45.22633 189.000
45.24628 176.000
45.26623 180.000
45.28618 189.000
45.30612 189.000
45.32607 215.000
45.34602 189.000
45.36596 169.000
45.38591 181.000
45.40586 144.000
45.42580 165.000
45.44575 172.000
45.46570 170.000
45.48565 186.000
45.50559 159.000
45.52554 172.000
45.54549 171.000
45.56543 162.000
45.58538 174.000
45.60533 194.000
45.62527 151.000
45.64522 147.000
45.66517 153.000
45.68511 175.000
45.70506 176.000
45.72501 140.000
45.74496 159.000
45.76490 162.000
45.78485 156.000
45.80480 142.000
45.82474 150.000
45.84469 158.000
45.86464 177.000
45.88458 172.000
45.90453 173.000
45.92448 152.000
45.94443 142.000
45.96437 159.000
45.98432 140.000
46.00427 175.000
46.02421 155.000
46.04416 165.000
46.06411 169.000
46.08405 156.000
46.10400 164.000
46.12395 150.000
46.14389 157.000
46.16384 136.000
46.18379 159.000
46.20374 166.000
46.22368 147.000
46.24363 175.000
46.26358 156.000
46.28352 147.000
46.30347 181.000
46.32342 161.000
46.34336 166.000
46.36331 184.000
46.38326 128.000
46.40321 160.000
46.42315 194.000
46.44310 159.000
46.46305 166.000
46.48299 149.000
46.50294 175.000
46.52289 140.000
46.54283 153.000
46.56278 152.000
46.58273 168.000
46.60267 163.000
46.62262 134.000
46.64257 163.000
46.66252 156.000
46.68246 150.000
46.70241 151.000
46.72236 142.000
46.74230 173.000
46.76225 139.000
46.78220 152.000
46.80214 146.000
46.82209 144.000
46.84204 151.000
46.86199 162.000
46.88193 153.000
46.90188 145.000
46.92183 150.000
46.94177 136.000
46.96172 162.000
46.98167 156.000
47.00161 145.000
47.02156 166.000
47.04151 163.000
47.06146 167.000
47.08140 168.000
47.10135 141.000
47.12130 142.000
47.14124 177.000
47.16119 155.000
47.18114 168.000
47.20108 135.000
47.22103 155.000
47.24098 169.000
47.26092 147.000
47.28087 153.000
47.30082 127.000
47.32077 139.000
47.34071 157.000
47.36066 152.000
47.38061 159.000
47.40055 148.000
47.42050 177.000
47.44045 167.000
47.46039 137.000
47.48034 166.000
47.50029 172.000
47.52024 149.000
47.54018 175.000
47.56013 150.000
47.58008 147.000
47.60002 182.000
47.61997 163.000
47.63992 177.000
47.65986 143.000
47.67981 154.000
47.69976 161.000
47.71970 161.000
47.73965 162.000
47.75960 140.000
47.77955 165.000
47.79949 166.000
47.81944 161.000
47.83939 174.000
47.85933 170.000
47.87928 168.000
47.89923 161.000
47.91917 154.000
47.93912 168.000
47.95907 153.000
47.97902 151.000
47.99896 173.000
48.01891 158.000
48.03886 174.000
48.05880 177.000
48.07875 153.000
48.09870 196.000
48.11864 153.000
48.13859 173.000
48.15854 170.000
48.17848 166.000
48.19843 157.000
48.21838 156.000
48.23833 164.000
48.25827 172.000
48.27822 179.000
48.29817 205.000
48.31811 180.000
48.33806 197.000
48.35801 185.000
48.37795 200.000
48.39790 197.000
48.41785 162.000
48.43780 189.000
48.45774 157.000
48.47769 186.000
48.49764 208.000
48.51758 235.000
48.53753 197.000
48.55748 217.000
48.57742 222.000
48.59737 244.000
48.61732 234.000
48.63726 258.000
48.65721 252.000
48.67716 308.000
48.69711 303.000
48.71705 357.000
48.73700 368.000
48.75695 422.000
48.77689 528.000
48.79684 606.000
48.81679 738.000
48.83673 950.000
48.85668 1078.000
48.87663 1117.000
48.89658 1075.000
48.91652 1069.000
48.93647 997.000
48.95642 898.000
48.97636 853.000
48.99631 818.000
49.01626 735.000
49.03620 683.000
49.05615 575.000
49.07610 519.000
49.09605 436.000
49.11599 378.000
49.13594 333.000
49.15589 288.000
49.17583 291.000
49.19578 248.000
49.21573 245.000
49.23567 235.000
49.25562 232.000
49.27557 208.000
49.29551 183.000
49.31546 196.000
49.33541 201.000
49.35536 209.000
49.37530 156.000
49.39525 168.000
49.41520 186.000
49.43514 182.000
49.45509 190.000
49.47504 160.000
49.49498 172.000
49.51493 166.000
49.53488 165.000
49.55483 176.000
49.57477 163.000
49.59472 174.000
49.61467 165.000
49.63461 183.000
49.65456 159.000
49.67451 182.000
49.69445 179.000
49.71440 163.000
49.73435 159.000
49.75429 173.000
49.77424 165.000
49.79419 165.000
49.81414 178.000
49.83408 166.000
49.85403 166.000
49.87398 161.000
49.89392 160.000
49.91387 138.000
49.93382 184.000
49.95376 180.000
49.97371 169.000
49.99366 146.000
50.01361 178.000
50.03355 153.000
50.05350 155.000
50.07345 165.000
50.09339 150.000
50.11334 159.000
50.13329 148.000
50.15323 144.000
50.17318 166.000
50.19313 161.000
50.21307 164.000
50.23302 144.000
50.25297 146.000
50.27292 165.000
50.29286 162.000
50.31281 147.000
50.33276 142.000
50.35270 166.000
50.37265 149.000
50.39260 168.000
50.41254 159.000
50.43249 153.000
50.45244 152.000
50.47239 172.000
50.49233 156.000
50.51228 183.000
50.53223 150.000
50.55217 163.000
50.57212 176.000
50.59207 167.000
50.61201 148.000
50.63196 173.000
50.65191 163.000
50.67186 146.000
50.69180 178.000
50.71175 177.000
50.73170 144.000
50.75164 134.000
50.77159 171.000
50.79154 164.000
50.81148 155.000
50.83143 163.000
50.85138 170.000
50.87132 160.000
50.89127 167.000
50.91122 140.000
50.93117 149.000
50.95111 142.000
50.97106 158.000
50.99101 144.000
51.01095 151.000
51.03090 163.000
51.05085 149.000
51.07079 155.000
51.09074 168.000
51.11069 150.000
51.13064 154.000
51.15058 145.000
51.17053 144.000
51.19048 160.000
51.21042 141.000
51.23037 154.000
51.25032 135.000
51.27026 156.000
51.29021 149.000
51.31016 157.000
51.33010 149.000
51.35005 154.000
51.37000 148.000
51.38995 158.000
51.40989 148.000
51.42984 147.000
51.44979 162.000
51.46973 160.000
51.48968 152.000
51.50963 155.000
51.52957 164.000
51.54952 135.000
51.56947 152.000
51.58942 163.000
51.60936 152.000
51.62931 174.000
51.64926 173.000
51.66920 167.000
51.68915 139.000
51.70910 167.000
51.72904 161.000
51.74899 142.000
51.76894 160.000
51.78888 156.000
51.80883 151.000
51.82878 152.000
51.84873 132.000
51.86867 135.000
51.88862 130.000
51.90857 142.000
51.92851 140.000
51.94846 161.000
51.96841 143.000
51.98835 163.000
52.00830 139.000
52.02825 171.000
52.04820 187.000
52.06814 144.000
52.08809 163.000
52.10804 160.000
52.12798 168.000
52.14793 139.000
52.16788 153.000
52.18782 143.000
52.20777 159.000
52.22772 146.000
52.24767 160.000
52.26761 157.000
52.28756 161.000
52.30751 157.000
52.32745 152.000
52.34740 150.000
52.36735 159.000
52.38729 131.000
52.40724 158.000
52.42719 190.000
52.44713 148.000
52.46708 169.000
52.48703 159.000
52.50698 130.000
52.52692 149.000
52.54687 160.000
52.56682 153.000
52.58676 153.000
52.60671 134.000
52.62666 143.000
52.64660 173.000
52.66655 115.000
52.68650 148.000
52.70645 169.000
52.72639 152.000
52.74634 152.000
52.76629 155.000
52.78623 159.000
52.80618 143.000
52.82613 151.000
52.84607 161.000
52.86602 174.000
52.88597 161.000
52.90591 152.000
52.92586 182.000
52.94581 164.000
52.96576 177.000
52.98570 173.000
53.00565 156.000
53.02560 190.000
53.04554 169.000
53.06549 173.000
53.08544 149.000
53.10538 144.000
53.12533 163.000
53.14528 149.000
53.16523 156.000
53.18517 154.000
53.20512 154.000
53.22507 141.000
53.24501 161.000
53.26496 147.000
53.28491 164.000
53.30485 182.000
53.32480 132.000
53.34475 150.000
53.36469 162.000
53.38464 152.000
53.40459 123.000
53.42454 152.000
53.44448 161.000
53.46443 140.000
53.48438 140.000
53.50432 144.000
53.52427 162.000
53.54422 155.000
53.56416 149.000
53.58411 174.000
53.60406 154.000
53.62401 125.000
53.64395 154.000
53.66390 189.000
53.68385 160.000
53.70379 137.000
53.72374 171.000
53.74369 161.000
53.76363 147.000
53.78358 184.000
53.80353 184.000
53.82348 168.000
53.84342 188.000
53.86337 203.000
53.88332 196.000
53.90326 254.000
53.92321 237.000
53.94316 242.000
53.96310 240.000
53.98305 284.000
54.00300 271.000
54.02294 316.000
54.04289 309.000
54.06284 286.000
54.08279 278.000
54.10273 267.000
54.12268 305.000
54.14263 281.000
54.16257 263.000
54.18252 270.000
54.20247 248.000
54.22241 210.000
54.24236 214.000
54.26231 214.000
54.28226 229.000
54.30220 198.000
54.32215 194.000
54.34210 171.000
54.36204 152.000
54.38199 157.000
54.40194 170.000
54.42188 164.000
54.44183 166.000
54.46178 165.000
54.48172 140.000
54.50167 167.000
54.52162 162.000
54.54157 171.000
54.56151 152.000
54.58146 156.000
54.60141 147.000
54.62135 151.000
54.64130 169.000
54.66125 145.000
54.68119 140.000
54.70114 148.000
54.72109 143.000
54.74104 158.000
54.76098 172.000
54.78093 141.000
54.80088 170.000
54.82082 145.000
54.84077 141.000
54.86072 157.000
54.88066 150.000
54.90061 146.000
54.92056 130.000
54.94050 148.000
54.96045 172.000
54.98040 161.000
55.00035 156.000
55.02029 154.000
55.04024 140.000
55.06019 141.000
55.08013 150.000
55.10008 150.000
55.12003 160.000
55.13997 166.000
55.15992 164.000
55.17987 159.000
55.19982 159.000
55.21976 147.000
55.23971 162.000
55.25966 155.000
55.27960 158.000
55.29955 151.000
55.31950 182.000
55.33944 156.000
55.35939 150.000
55.37934 144.000
55.39929 143.000
55.41923 160.000
55.43918 148.000
55.45913 159.000
55.47907 141.000
55.49902 152.000
55.51897 140.000
55.53891 156.000
55.55886 165.000
55.57881 146.000
55.59875 138.000
55.61870 177.000
55.63865 138.000
55.65860 156.000
55.67854 142.000
55.69849 181.000
55.71844 160.000
55.73838 162.000
55.75833 156.000
55.77828 143.000
55.79822 187.000
55.81817 151.000
55.83812 169.000
55.85807 154.000
55.87801 155.000
55.89796 149.000
55.91791 164.000
55.93785 163.000
55.95780 140.000
55.97775 157.000
55.99769 163.000
56.01764 158.000
56.03759 178.000
56.05753 163.000
56.07748 157.000
56.09743 162.000
56.11738 166.000
56.13732 165.000
56.15727 167.000
56.17722 175.000
56.19716 139.000
56.21711 155.000
56.23706 172.000
56.25700 130.000
56.27695 165.000
56.29690 139.000
56.31685 161.000
56.33679 175.000
56.35674 165.000
56.37669 165.000
56.39663 137.000
56.41658 152.000
56.43653 156.000
56.45647 165.000
56.47642 163.000
56.49637 165.000
56.51631 154.000
56.53626 165.000
56.55621 154.000
56.57616 167.000
56.59610 159.000
56.61605 146.000
56.63600 148.000
56.65594 149.000
56.67589 136.000
56.69584 171.000
56.71578 161.000
56.73573 157.000
56.75568 154.000
56.77563 165.000
56.79557 152.000
56.81552 156.000
56.83547 177.000
56.85541 174.000
56.87536 161.000
56.89531 163.000
56.91525 164.000
56.93520 149.000
56.95515 179.000
56.97510 163.000
56.99504 186.000
57.01499 172.000
57.03494 165.000
57.05488 170.000
57.07483 159.000
57.09478 168.000
57.11472 152.000
57.13467 183.000
57.15462 184.000
57.17456 183.000
57.19451 195.000
57.21446 187.000
57.23441 187.000
57.25435 201.000
57.27430 207.000
57.29425 212.000
57.31419 204.000
57.33414 208.000
57.35409 234.000
57.37403 255.000
57.39398 265.000
57.41393 307.000
57.43388 342.000
57.45382 368.000
57.47377 415.000
57.49372 426.000
57.51366 492.000
57.53361 507.000
57.55356 570.000
57.57350 590.000
57.59345 639.000
57.61340 629.000
57.63334 604.000
57.65329 626.000
57.67324 558.000
57.69319 555.000
57.71313 570.000
57.73308 494.000
57.75303 559.000
57.77297 436.000
57.79292 453.000
57.81287 385.000
57.83281 348.000
57.85276 302.000
57.87271 329.000
57.89266 268.000
57.91260 259.000
57.93255 239.000
57.95250 239.000
57.97244 187.000
57.99239 214.000
58.01234 209.000
58.03228 199.000
58.05223 164.000
58.07218 186.000
58.09212 199.000
58.11207 191.000
58.13202 176.000
58.15197 171.000
58.17191 176.000
58.19186 161.000
58.21181 142.000
58.23175 169.000
58.25170 171.000
58.27165 156.000
58.29159 152.000
58.31154 187.000
58.33149 150.000
58.35144 149.000
58.37138 167.000
58.39133 160.000
58.41128 159.000
58.43122 155.000
58.45117 187.000
58.47112 173.000
58.49106 168.000
58.51101 165.000
58.53096 143.000
58.55090 153.000
58.57085 145.000
58.59080 157.000
58.61075 156.000
58.63069 155.000
58.65064 154.000
58.67059 163.000
58.69053 165.000
58.71048 142.000
58.73043 153.000
58.75037 159.000
58.77032 157.000
58.79027 164.000
58.81022 151.000
58.83016 148.000
58.85011 182.000
58.87006 169.000
58.89000 159.000
58.90995 141.000
58.92990 151.000
58.94984 169.000
58.96979 179.000
58.98974 139.000
59.00969 142.000
59.02963 149.000
59.04958 159.000
59.06953 159.000
59.08947 157.000
59.10942 171.000
59.12937 151.000
59.14931 160.000
59.16926 158.000
59.18921 157.000
59.20915 167.000
59.22910 175.000
59.24905 142.000
59.26900 189.000
59.28894 155.000
59.30889 158.000
59.32884 163.000
59.34878 150.000
59.36873 148.000
59.38868 141.000
59.40862 167.000
59.42857 134.000
59.44852 154.000
59.46847 164.000
59.48841 135.000
59.50836 142.000
59.52831 155.000
59.54825 170.000
59.56820 160.000
59.58815 157.000
59.60809 151.000
59.62804 153.000
59.64799 146.000
59.66793 163.000
59.68788 161.000
59.70783 148.000
59.72778 173.000
59.74772 136.000
59.76767 138.000
59.78762 167.000
59.80756 157.000
59.82751 137.000
59.84746 144.000
59.86740 165.000
59.88735 149.000
59.90730 157.000
59.92725 137.000
59.94719 143.000
59.96714 147.000
59.98709 176.000
60.00703 145.000
60.02698 151.000
60.04693 161.000
60.06687 155.000
60.08682 152.000
60.10677 155.000
60.12671 139.000
60.14666 145.000
60.16661 163.000
60.18656 155.000
60.20650 156.000
60.22645 173.000
60.24640 138.000
60.26634 157.000
60.28629 147.000
60.30624 158.000
60.32618 167.000
60.34613 152.000
60.36608 155.000
60.38603 148.000
60.40597 185.000
60.42592 160.000
60.44587 162.000
60.46581 154.000
60.48576 139.000
60.50571 139.000
60.52565 162.000
60.54560 164.000
60.56555 148.000
60.58550 135.000
60.60544 146.000
60.62539 164.000
60.64534 154.000
60.66528 162.000
60.68523 173.000
60.70518 189.000
60.72512 193.000
60.74507 159.000
60.76502 182.000
60.78496 159.000
60.80491 154.000
60.82486 159.000
60.84481 153.000
60.86475 146.000
60.88470 171.000
60.90465 155.000
60.92459 167.000
60.94454 163.000
60.96449 139.000
60.98443 173.000
61.00438 154.000
61.02433 156.000
61.04428 198.000
61.06422 157.000
61.08417 166.000
61.10412 170.000
61.12406 187.000
61.14401 172.000
61.16396 143.000
61.18390 160.000
61.20385 153.000
61.22380 177.000
61.24374 157.000
61.26369 164.000
61.28364 164.000
61.30359 180.000
61.32353 146.000
61.34348 171.000
61.36343 172.000
61.38337 184.000
61.40332 167.000
61.42327 184.000
61.44321 195.000
61.46316 183.000
61.48311 175.000
61.50306 183.000
61.52300 167.000
61.54295 193.000
61.56290 188.000
61.58284 181.000
61.60279 202.000
61.62274 181.000
61.64268 190.000
61.66263 172.000
61.68258 184.000
61.70252 163.000
61.72247 186.000
61.74242 174.000
61.76237 227.000
61.78231 203.000
61.80226 211.000
61.82221 210.000
61.84215 204.000
61.86210 214.000
61.88205 238.000
61.90199 244.000
61.92194 277.000
61.94189 324.000
61.96184 336.000
61.98178 374.000
62.00173 390.000
62.02168 454.000
62.04162 478.000
62.06157 499.000
62.08152 416.000
62.10146 456.000
62.12141 459.000
62.14136 479.000
62.16131 476.000
62.18125 454.000
62.20120 445.000
62.22115 435.000
62.24109 394.000
62.26104 376.000
62.28099 368.000
62.30093 324.000
62.32088 344.000
62.34083 318.000
62.36077 268.000
62.38072 274.000
62.40067 250.000
62.42062 260.000
62.44056 231.000
62.46051 280.000
62.48046 257.000
62.50040 255.000
62.52035 239.000
62.54030 264.000
62.56024 287.000
62.58019 291.000
62.60014 279.000
62.62009 329.000
62.64003 382.000
62.65998 399.000
62.67993 443.000
62.69987 466.000
62.71982 537.000
62.73977 578.000
62.75971 607.000
62.77966 609.000
62.79961 601.000
62.81955 636.000
62.83950 647.000
62.85945 663.000
62.87940 645.000
62.89934 585.000
62.91929 573.000
62.93924 560.000
62.95918 545.000
62.97913 591.000
62.99908 576.000
63.01902 513.000
63.03897 543.000
63.05892 533.000
63.07887 516.000
63.09881 592.000
63.11876 590.000
63.13871 639.000
63.15865 637.000
63.17860 669.000
63.19855 780.000
63.21849 710.000
63.23844 769.000
63.25839 717.000
63.27833 751.000
63.29828 774.000
63.31823 677.000
63.33818 641.000
63.35812 687.000
63.37807 608.000
63.39802 599.000
63.41796 592.000
63.43791 541.000
63.45786 549.000
63.47780 441.000
63.49775 448.000
63.51770 382.000
63.53765 371.000
63.55759 364.000
63.57754 317.000
63.59749 302.000
63.61743 259.000
63.63738 261.000
63.65733 253.000
63.67727 231.000
63.69722 243.000
63.71717 194.000
63.73712 183.000
63.75706 184.000
63.77701 189.000
63.79696 188.000
63.81690 177.000
63.83685 183.000
63.85680 153.000
63.87674 157.000
63.89669 158.000
63.91664 200.000
63.93658 176.000
63.95653 160.000
63.97648 151.000
63.99643 179.000
64.01637 170.000
64.03632 175.000
64.05627 168.000
64.07621 166.000
64.09616 155.000
64.11611 204.000
64.13605 177.000
64.15600 181.000
64.17595 188.000
64.19590 201.000
64.21584 171.000
64.23579 197.000
64.25574 174.000
64.27568 165.000
64.29563 185.000
64.31558 161.000
64.33552 217.000
64.35547 196.000
64.37542 227.000
64.39536 232.000
64.41531 195.000
64.43526 223.000
64.45521 266.000
64.47515 280.000
64.49510 331.000
64.51505 367.000
64.53499 439.000
64.55494 505.000
64.57489 513.000
64.59483 486.000
64.61478 495.000
64.63473 427.000
64.65468 393.000
64.67462 409.000
64.69457 380.000
64.71452 405.000
64.73446 390.000
64.75441 363.000
64.77436 345.000
64.79430 339.000
64.81425 286.000
64.83420 260.000
64.85414 257.000
64.87409 260.000
64.89404 226.000
64.91399 177.000
64.93393 201.000
64.95388 200.000
64.97383 173.000
64.99377 176.000
65.01372 194.000
65.03367 187.000
65.05361 182.000
65.07356 170.000
65.09351 185.000
65.11346 171.000
65.13340 161.000
65.15335 153.000
65.17330 179.000
65.19324 198.000
65.21319 180.000
65.23314 173.000
65.25308 177.000
65.27303 181.000
65.29298 174.000
65.31293 173.000
65.33287 165.000
65.35282 152.000
65.37277 167.000
65.39271 173.000
65.41266 182.000
65.43261 142.000
65.45255 147.000
65.47250 177.000
65.49245 179.000
65.51239 173.000
65.53234 156.000
65.55229 164.000
65.57224 188.000
65.59218 186.000
65.61213 173.000
65.63208 178.000
65.65202 164.000
65.67197 184.000
65.69192 177.000
65.71186 152.000
65.73181 160.000
65.75176 153.000
65.77171 163.000
65.79165 176.000
65.81160 152.000
65.83155 189.000
65.85149 157.000
65.87144 152.000
65.89139 151.000
65.91133 183.000
65.93128 160.000
65.95123 186.000
65.97117 167.000
65.99112 165.000
66.01107 181.000
66.03102 177.000
66.05096 152.000
66.07091 169.000
66.09086 184.000
66.11080 169.000
66.13075 144.000
66.15070 187.000
66.17064 154.000
66.19059 181.000
66.21054 168.000
66.23049 157.000
66.25043 168.000
66.27038 190.000
66.29033 153.000
66.31027 187.000
66.33022 178.000
66.35017 193.000
66.37011 194.000
66.39006 160.000
66.41001 169.000
66.42995 182.000
66.44990 201.000
66.46985 196.000
66.48980 197.000
66.50974 172.000
66.52969 173.000
66.54964 214.000
66.56958 190.000
66.58953 194.000
66.60948 185.000
66.62942 210.000
66.64937 200.000
66.66932 233.000
66.68927 184.000
66.70921 215.000
66.72916 224.000
66.74911 217.000
66.76905 252.000
66.78900 280.000
66.80895 237.000
66.82889 268.000
66.84884 270.000
66.86879 321.000
66.88874 351.000
66.90868 360.000
66.92863 323.000
66.94858 428.000
66.96852 386.000
66.98847 431.000
67.00842 435.000
67.02836 321.000
67.04831 312.000
67.06826 320.000
67.08820 310.000
67.10815 317.000
67.12810 331.000
67.14805 295.000
67.16799 308.000
67.18794 275.000
67.20789 270.000
67.22783 267.000
67.24778 200.000
67.26773 199.000
67.28767 214.000
67.30762 175.000
67.32757 198.000
67.34752 187.000
67.36746 174.000
67.38741 176.000
67.40736 182.000
67.42730 151.000
67.44725 176.000
67.46720 189.000
67.48714 168.000
67.50709 178.000
67.52704 161.000
67.54698 158.000
67.56693 166.000
67.58688 159.000
67.60683 162.000
67.62677 141.000
67.64672 177.000
67.66667 139.000
67.68661 155.000
67.70656 163.000
67.72651 163.000
67.74645 148.000
67.76640 145.000
67.78635 163.000
67.80630 171.000
67.82624 146.000
67.84619 173.000
67.86614 156.000
67.88608 153.000
67.90603 169.000
67.92598 155.000
67.94592 154.000
67.96587 188.000
67.98582 141.000
68.00576 155.000
68.02571 165.000
68.04566 165.000
68.06561 130.000
68.08555 139.000
68.10550 159.000
68.12545 140.000
68.14539 172.000
68.16534 158.000
68.18529 136.000
68.20523 154.000
68.22518 166.000
68.24513 139.000
68.26508 175.000
68.28502 158.000
68.30497 165.000
68.32492 142.000
68.34486 143.000
68.36481 170.000
68.38476 157.000
68.40470 177.000
68.42465 173.000
68.44460 169.000
68.46455 166.000
68.48449 153.000
68.50444 162.000
68.52439 138.000
68.54433 133.000
68.56428 161.000
68.58423 146.000
68.60417 171.000
68.62412 178.000
68.64407 162.000
68.66401 162.000
68.68396 153.000
68.70391 164.000
68.72386 146.000
68.74380 162.000
68.76375 155.000
68.78370 169.000
68.80364 155.000
68.82359 130.000
68.84354 148.000
68.86348 149.000
68.88343 157.000
68.90338 160.000
68.92333 180.000
68.94327 159.000
68.96322 143.000
68.98317 155.000
69.00311 155.000
69.02306 152.000
69.04301 155.000
69.06295 166.000
69.08290 139.000
69.10285 136.000
69.12279 157.000
69.14274 156.000
69.16269 169.000
69.18264 165.000
69.20258 140.000
69.22253 141.000
69.24248 145.000
69.26242 145.000
69.28237 166.000
69.30232 142.000
69.32226 158.000
69.34221 153.000
69.36216 171.000
69.38211 154.000
69.40205 159.000
69.42200 153.000
69.44195 142.000
69.46189 150.000
69.48184 176.000
69.50179 159.000
69.52173 169.000
69.54168 169.000
69.56163 155.000
69.58157 162.000
69.60152 156.000
69.62147 151.000
69.64142 146.000
69.66136 168.000
69.68131 174.000
69.70126 148.000
69.72120 155.000
69.74115 152.000
69.76110 151.000
69.78104 157.000
69.80099 144.000
69.82094 171.000
69.84089 172.000
69.86083 161.000
69.88078 155.000
69.90073 160.000
69.92067 142.000
69.94062 167.000
69.96057 149.000
69.98051 142.000
70.00046 169.000
70.02041 127.000
70.04035 166.000
70.06030 158.000
70.08025 159.000
70.10020 172.000
70.12014 155.000
70.14009 158.000
70.16004 147.000
70.17998 129.000
70.19993 170.000
70.21988 170.000
70.23982 149.000
70.25977 157.000
70.27972 145.000
70.29967 166.000
70.31961 169.000
70.33956 154.000
70.35951 164.000
70.37945 146.000
70.39940 169.000
70.41935 153.000
70.43929 153.000
70.45924 145.000
70.47919 161.000
70.49914 175.000
70.51908 178.000
70.53903 154.000
70.55898 158.000
70.57892 172.000
70.59887 156.000
70.61882 152.000
70.63876 147.000
70.65871 155.000
70.67866 152.000
70.69860 137.000
70.71855 159.000
70.73850 151.000
70.75845 148.000
70.77839 143.000
70.79834 156.000
70.81829 145.000
70.83823 141.000
70.85818 155.000
70.87813 148.000
70.89807 157.000
70.91802 163.000
70.93797 172.000
70.95792 151.000
70.97786 142.000
70.99781 131.000
71.01776 142.000
71.03770 154.000
71.05765 168.000
71.07760 154.000
71.09754 139.000
71.11749 173.000
71.13744 173.000
71.15738 147.000
71.17733 156.000
71.19728 162.000
71.21723 117.000
71.23717 161.000
71.25712 174.000
71.27707 149.000
71.29701 173.000
71.31696 167.000
71.33691 152.000
71.35685 157.000
71.37680 154.000
71.39675 172.000
71.41670 155.000
71.43664 149.000
71.45659 163.000
71.47654 162.000
71.49648 173.000
71.51643 159.000
71.53638 157.000
71.55632 164.000
71.57627 175.000
71.59622 194.000
71.61616 192.000
71.63611 183.000
71.65606 199.000
71.67601 199.000
71.69595 178.000
71.71590 206.000
71.73585 195.000
71.75579 194.000
71.77574 194.000
71.79569 182.000
71.81563 162.000
71.83558 172.000
71.85553 171.000
71.87548 183.000
71.89542 196.000
71.91537 210.000
71.93532 176.000
71.95526 176.000
71.97521 190.000
71.99516 158.000
72.01510 191.000
72.03505 152.000
72.05500 169.000
72.07495 172.000
72.09489 191.000
72.11484 153.000
72.13479 180.000
72.15473 169.000
72.17468 153.000
72.19463 165.000
72.21457 175.000
72.23452 167.000
72.25447 153.000
72.27441 165.000
72.29436 160.000
72.31431 145.000
72.33426 170.000
72.35420 169.000
72.37415 162.000
72.39410 150.000
72.41404 140.000
72.43399 144.000
72.45394 165.000
72.47388 164.000
72.49383 181.000
72.51378 158.000
72.53373 152.000
72.55367 159.000
72.57362 125.000
72.59357 157.000
72.61351 158.000
72.63346 146.000
72.65341 149.000
72.67335 158.000
72.69330 159.000
72.71325 182.000
72.73319 149.000
72.75314 143.000
72.77309 164.000
72.79304 152.000
72.81298 126.000
72.83293 165.000
72.85288 163.000
72.87282 165.000
72.89277 169.000
72.91272 174.000
72.93266 144.000
72.95261 177.000
72.97256 150.000
72.99251 140.000
73.01245 161.000
73.03240 141.000
73.05235 141.000
73.07229 133.000
73.09224 147.000
73.11219 146.000
73.13213 165.000
73.15208 161.000
73.17203 152.000
73.19197 163.000
73.21192 160.000
73.23187 172.000
73.25182 159.000
73.27176 164.000
73.29171 176.000
73.31166 153.000
73.33160 169.000
73.35155 163.000
73.37150 160.000
73.39144 147.000
73.41139 180.000
73.43134 144.000
73.45129 143.000
73.47123 173.000
73.49118 164.000
73.51113 169.000
73.53107 205.000
73.55102 138.000
73.57097 167.000
73.59091 166.000
73.61086 149.000
73.63081 172.000
73.65076 167.000
73.67070 162.000
73.69065 151.000
73.71060 188.000
73.73054 175.000
73.75049 196.000
73.77044 167.000
73.79038 213.000
73.81033 211.000
73.83028 264.000
73.85022 229.000
73.87017 263.000
73.89012 252.000
73.91007 221.000
73.93001 238.000
73.94996 225.000
73.96991 208.000
73.98985 227.000
74.00980 211.000
74.02975 192.000
74.04969 203.000
74.06964 217.000
74.08959 235.000
74.10954 213.000
74.12948 224.000
74.14943 175.000
74.16938 179.000
74.18932 201.000
74.20927 181.000
74.22922 178.000
74.24916 169.000
74.26911 183.000
74.28906 152.000
74.30900 181.000
74.32895 164.000
74.34890 157.000
74.36885 157.000
74.38879 160.000
74.40874 165.000
74.42869 156.000
74.44863 176.000
74.46858 177.000
74.48853 164.000
74.50847 190.000
74.52842 201.000
74.54837 187.000
74.56832 192.000
74.58826 195.000
74.60821 190.000
74.62816 215.000
74.64810 216.000
74.66805 200.000
74.68800 234.000
74.70794 234.000
74.72789 225.000
74.74784 249.000
74.76778 241.000
74.78773 278.000
74.80768 250.000
74.82763 262.000
74.84757 260.000
74.86752 267.000
74.88747 272.000
74.90741 251.000
74.92736 259.000
74.94731 253.000
74.96725 262.000
74.98720 271.000
75.00715 263.000
75.02710 255.000
75.04704 278.000
75.06699 261.000
75.08694 273.000
75.10688 290.000
75.12683 250.000
75.14678 257.000
75.16672 309.000
75.18667 264.000
75.20662 303.000
75.22657 339.000
75.24651 299.000
75.26646 298.000
75.28641 284.000
75.30635 288.000
75.32630 259.000
75.34625 313.000
75.36619 308.000
75.38614 301.000
75.40609 323.000
75.42603 267.000
75.44598 263.000
75.46593 267.000
75.48588 257.000
75.50582 257.000
75.52577 260.000
75.54572 280.000
75.56566 248.000
75.58561 253.000
75.60556 253.000
75.62550 228.000
75.64545 213.000
75.66540 226.000
75.68535 231.000
75.70529 223.000
75.72524 194.000
75.74519 211.000
75.76513 217.000
75.78508 198.000
75.80503 217.000
75.82497 211.000
75.84492 211.000
75.86487 208.000
75.88481 246.000
75.90476 207.000
75.92471 207.000
75.94466 196.000
75.96460 226.000
75.98455 200.000
76.00450 192.000
76.02444 212.000
76.04439 200.000
76.06434 221.000
76.08428 205.000
76.10423 191.000
76.12418 197.000
76.14413 197.000
76.16407 210.000
76.18402 192.000
76.20397 219.000
76.22391 179.000
76.24386 219.000
76.26381 186.000
76.28375 206.000
76.30370 195.000
76.32365 199.000
76.34359 164.000
76.36354 173.000
76.38349 193.000
76.40344 202.000
76.42338 182.000
76.44333 165.000
76.46328 178.000
76.48322 159.000
76.50317 169.000
76.52312 191.000
76.54306 147.000
76.56301 184.000
76.58296 149.000
76.60291 158.000
76.62285 161.000
76.64280 145.000
76.66275 165.000
76.68269 163.000
76.70264 169.000
76.72259 158.000
76.74253 138.000
76.76248 160.000
76.78243 186.000
76.80238 145.000
76.82232 158.000
76.84227 161.000
76.86222 140.000
76.88216 130.000
76.90211 150.000
76.92206 157.000
76.94200 170.000
76.96195 170.000
76.98190 142.000
77.00184 157.000
77.02179 156.000
77.04174 144.000
77.06169 155.000
77.08163 167.000
77.10158 159.000
77.12153 151.000
77.14147 157.000
77.16142 150.000
77.18137 141.000
77.20131 146.000
77.22126 182.000
77.24121 150.000
77.26116 170.000
77.28110 161.000
77.30105 132.000
77.32100 163.000
77.34094 160.000
77.36089 159.000
77.38084 147.000
77.40078 151.000
77.42073 184.000
77.44068 144.000
77.46062 180.000
77.48057 153.000
77.50052 176.000
77.52047 173.000
77.54041 155.000
77.56036 154.000
77.58031 164.000
77.60025 172.000
77.62020 152.000
77.64015 153.000
77.66009 165.000
77.68004 179.000
77.69999 155.000
77.71994 181.000
77.73988 165.000
77.75983 146.000
77.77978 151.000
77.79972 159.000
77.81967 181.000
77.83962 168.000
77.85956 156.000
77.87951 162.000
77.89946 173.000
77.91940 163.000
77.93935 184.000
77.95930 169.000
77.97925 179.000
77.99919 197.000
78.01914 165.000
78.03909 173.000
78.05903 171.000
78.07898 205.000
78.09893 197.000
78.11887 201.000
78.13882 219.000
78.15877 221.000
78.17872 231.000
78.19866 246.000
78.21861 249.000
78.23856 267.000
78.25850 276.000
78.27845 299.000
78.29840 264.000
78.31834 289.000
78.33829 289.000
78.35824 329.000
78.37819 309.000
78.39813 328.000
78.41808 300.000
78.43803 298.000
78.45797 291.000
78.47792 260.000
78.49787 261.000
78.51781 250.000
78.53776 259.000
78.55771 237.000
78.57765 241.000
78.59760 243.000
78.61755 228.000
78.63750 235.000
78.65744 206.000
78.67739 196.000
78.69734 225.000
78.71728 193.000
78.73723 208.000
78.75718 178.000
78.77712 205.000
78.79707 195.000
78.81702 151.000
78.83697 166.000
78.85691 196.000
78.87686 179.000
78.89681 184.000
78.91675 148.000
78.93670 185.000
78.95665 186.000
78.97659 178.000
78.99654 184.000
79.01649 211.000
79.03643 204.000
79.05638 181.000
79.07633 213.000
79.09628 221.000
79.11622 228.000
79.13617 231.000
79.15612 235.000
79.17606 240.000
79.19601 240.000
79.21596 263.000
79.23590 240.000
79.25585 272.000
79.27580 284.000
79.29575 248.000
79.31569 274.000
79.33564 271.000
79.35559 241.000
79.37553 252.000
79.39548 265.000
79.41543 248.000
79.43537 247.000
79.45532 232.000
79.47527 248.000
79.49521 234.000
79.51516 195.000
79.53511 222.000
79.55506 240.000
79.57500 193.000
79.59495 194.000
79.61490 219.000
79.63484 184.000
79.65479 185.000
79.67474 195.000
79.69468 194.000
79.71463 193.000
79.73458 167.000
79.75453 176.000
79.77447 192.000
79.79442 193.000
79.81437 200.000
79.83431 184.000
79.85426 191.000
79.87421 204.000
79.89415 149.000
79.91410 182.000
79.93405 184.000
79.95399 189.000
79.97394 166.000
79.99389 174.000
80.01384 194.000
80.03378 181.000
80.05373 184.000
80.07368 175.000
80.09362 176.000
80.11357 194.000
80.13352 185.000
80.15346 182.000
80.17341 172.000
80.19336 152.000
80.21331 165.000
80.23325 154.000
80.25320 177.000
80.27315 156.000
80.29309 165.000
80.31304 165.000
80.33299 172.000
80.35293 140.000
80.37288 162.000
80.39283 157.000
80.41278 156.000
80.43272 161.000
80.45267 155.000
80.47262 169.000
80.49256 145.000
80.51251 156.000
80.53246 138.000
80.55240 144.000
80.57235 180.000
80.59230 162.000
80.61224 132.000
80.63219 155.000
80.65214 168.000
80.67209 138.000
80.69203 149.000
80.71198 192.000
80.73193 154.000
80.75187 145.000
80.77182 122.000
80.79177 163.000
80.81171 139.000
80.83166 164.000
80.85161 151.000
80.87156 171.000
80.89150 158.000
80.91145 173.000
80.93140 170.000
80.95134 155.000
80.97129 156.000
80.99124 139.000
81.01118 168.000
81.03113 160.000
81.05108 173.000
81.07102 172.000
81.09097 140.000
81.11092 163.000
81.13087 166.000
81.15081 149.000
81.17076 150.000
81.19071 153.000
81.21065 173.000
81.23060 168.000
81.25055 163.000
81.27049 172.000
81.29044 157.000
81.31039 145.000
81.33034 153.000
81.35028 136.000
81.37023 166.000
81.39018 155.000
81.41012 167.000
81.43007 158.000
81.45002 157.000
81.46996 178.000
81.48991 155.000
81.50986 184.000
81.52980 162.000
81.54975 157.000
81.56970 140.000
81.58965 150.000
81.60959 157.000
81.62954 152.000
81.64949 157.000
81.66943 162.000
81.68938 128.000
81.70933 152.000
81.72927 163.000
81.74922 196.000
81.76917 165.000
81.78912 168.000
81.80906 182.000
81.82901 151.000
81.84896 155.000
81.86890 161.000
81.88885 151.000
81.90880 153.000
81.92874 140.000
81.94869 148.000
81.96864 159.000
81.98859 143.000
82.00853 172.000
82.02848 148.000
82.04843 140.000
82.06837 141.000
82.08832 176.000
82.10827 152.000
82.12821 153.000
82.14816 161.000
82.16811 172.000
82.18805 164.000
82.20800 146.000
82.22795 156.000
82.24790 168.000
82.26784 139.000
82.28779 159.000
82.30774 159.000
82.32768 143.000
82.34763 135.000
82.36758 161.000
82.38752 170.000
82.40747 161.000
82.42742 166.000
82.44737 179.000
82.46731 137.000
82.48726 172.000
82.50721 175.000
82.52715 167.000
82.54710 158.000
82.56705 149.000
82.58699 181.000
82.60694 160.000
82.62689 146.000
82.64683 172.000
82.66678 139.000
82.68673 164.000
82.70668 166.000
82.72662 167.000
82.74657 176.000
82.76652 168.000
82.78646 156.000
82.80641 155.000
82.82636 159.000
82.84630 165.000
82.86625 173.000
82.88620 146.000
82.90615 130.000
82.92609 153.000
82.94604 155.000
82.96599 136.000
82.98593 167.000
83.00588 149.000
83.02583 173.000
83.04577 170.000
83.06572 182.000
83.08567 161.000
83.10561 178.000
83.12556 152.000
83.14551 156.000
83.16546 160.000
83.18540 146.000
83.20535 172.000
83.22530 169.000
83.24524 169.000
83.26519 149.000
83.28514 153.000
83.30508 147.000
83.32503 135.000
83.34498 153.000
83.36493 135.000
83.38487 169.000
83.40482 154.000
83.42477 151.000
83.44471 170.000
83.46466 136.000
83.48461 155.000
83.50455 150.000
83.52450 144.000
83.54445 141.000
83.56440 130.000
83.58434 132.000
83.60429 137.000
83.62424 169.000
83.64418 133.000
83.66413 148.000
83.68408 142.000
83.70402 142.000
83.72397 165.000
83.74392 170.000
83.76386 167.000
83.78381 150.000
83.80376 157.000
83.82371 145.000
83.84365 142.000
83.86360 146.000
83.88355 159.000
83.90349 150.000
83.92344 187.000
83.94339 153.000
83.96333 159.000
83.98328 175.000
84.00323 156.000
84.02318 152.000
84.04312 138.000
84.06307 150.000
84.08302 151.000
84.10296 160.000
84.12291 164.000
84.14286 156.000
84.16280 172.000
84.18275 156.000
84.20270 154.000
84.22264 147.000
84.24259 150.000
84.26254 160.000
84.28249 159.000
84.30243 148.000
84.32238 139.000
84.34233 169.000
84.36227 175.000
84.38222 166.000
84.40217 141.000
84.42211 163.000
84.44206 169.000
84.46201 166.000
84.48196 150.000
84.50190 176.000
84.52185 156.000
84.54180 165.000
84.56174 171.000
84.58169 166.000
84.60164 159.000
84.62158 168.000
84.64153 187.000
84.66148 168.000
84.68142 184.000
84.70137 203.000
84.72132 177.000
84.74127 178.000
84.76121 176.000
84.78116 180.000
84.80111 211.000
84.82105 222.000
84.84100 226.000
84.86095 226.000
84.88089 217.000
84.90084 242.000
84.92079 229.000
84.94074 236.000
84.96068 244.000
84.98063 263.000
85.00058 213.000
85.02052 255.000
85.04047 256.000
85.06042 217.000
85.08036 222.000
85.10031 198.000
85.12026 220.000
85.14021 203.000
85.16015 211.000
85.18010 225.000
85.20005 194.000
85.21999 191.000
85.23994 211.000
85.25989 206.000
85.27983 214.000
85.29978 178.000
85.31973 189.000
85.33967 231.000
85.35962 182.000
85.37957 168.000
85.39952 155.000
85.41946 144.000
85.43941 162.000
85.45936 170.000
85.47930 191.000
85.49925 179.000
85.51920 143.000
85.53914 155.000
85.55909 143.000
85.57904 155.000
85.59899 168.000
85.61893 161.000
85.63888 170.000
85.65883 170.000
85.67877 144.000
85.69872 184.000
85.71867 163.000
85.73861 149.000
85.75856 161.000
85.77851 174.000
85.79845 160.000
85.81840 138.000
85.83835 168.000
85.85830 151.000
85.87824 141.000
85.89819 180.000
85.91814 169.000
85.93808 143.000
85.95803 153.000
85.97798 153.000
85.99792 141.000
86.01787 184.000
86.03782 142.000
86.05777 136.000
86.07771 163.000
86.09766 153.000
86.11761 163.000
86.13755 172.000
86.15750 182.000
86.17745 137.000
86.19739 143.000
86.21734 166.000
86.23729 168.000
86.25723 168.000
86.27718 164.000
86.29713 141.000
86.31708 148.000
86.33702 147.000
86.35697 143.000
86.37692 170.000
86.39686 158.000
86.41681 160.000
86.43676 140.000
86.45670 144.000
86.47665 127.000
86.49660 132.000
86.51655 154.000
86.53649 162.000
86.55644 151.000
86.57639 149.000
86.59633 169.000
86.61628 165.000
86.63623 140.000
86.65617 146.000
86.67612 162.000
86.69607 150.000
86.71602 133.000
86.73596 170.000
86.75591 141.000
86.77586 153.000
86.79580 166.000
86.81575 161.000
86.83570 167.000
86.85564 173.000
86.87559 173.000
86.89554 161.000
86.91548 157.000
86.93543 154.000
86.95538 174.000
86.97533 170.000
86.99527 169.000
87.01522 164.000
87.03517 174.000
87.05511 147.000
87.07506 155.000
87.09501 171.000
87.11495 146.000
87.13490 165.000
87.15485 164.000
87.17480 169.000
87.19474 169.000
87.21469 167.000
87.23464 149.000
87.25458 159.000
87.27453 169.000
87.29448 142.000
87.31442 182.000
87.33437 164.000
87.35432 185.000
87.37426 194.000
87.39421 149.000
87.41416 179.000
87.43411 157.000
87.45405 157.000
87.47400 167.000
87.49395 158.000
87.51389 194.000
87.53384 171.000
87.55379 196.000
87.57373 156.000
87.59368 183.000
87.61363 184.000
87.63358 199.000
87.65352 176.000
87.67347 214.000
87.69342 211.000
87.71336 157.000
87.73331 205.000
87.75326 205.000
87.77320 182.000
87.79315 198.000
87.81310 199.000
87.83304 168.000
87.85299 195.000
87.87294 194.000
87.89289 194.000
87.91283 198.000
87.93278 177.000
87.95273 207.000
87.97267 189.000
87.99262 180.000
88.01257 180.000
88.03251 191.000
88.05246 177.000
88.07241 181.000
88.09236 175.000
88.11230 166.000
88.13225 161.000
88.15220 172.000
88.17214 159.000
88.19209 182.000
88.21204 152.000
88.23198 175.000
88.25193 154.000
88.27188 151.000
88.29183 173.000
88.31177 156.000
88.33172 156.000
88.35167 155.000
88.37161 180.000
88.39156 160.000
88.41151 164.000
88.43145 170.000
88.45140 145.000
88.47135 146.000
88.49129 181.000
88.51124 172.000
88.53119 146.000
88.55114 160.000
88.57108 138.000
88.59103 138.000
88.61098 149.000
88.63092 161.000
88.65087 142.000
88.67082 154.000
88.69076 126.000
88.71071 147.000
88.73066 158.000
88.75061 138.000
88.77055 135.000
88.79050 168.000
88.81045 176.000
88.83039 161.000
88.85034 153.000
88.87029 166.000
88.89023 155.000
88.91018 143.000
88.93013 138.000
88.95007 178.000
88.97002 149.000
88.98997 150.000
89.00992 143.000
89.02986 162.000
89.04981 157.000
89.06976 155.000
89.08970 163.000
89.10965 165.000
89.12960 152.000
89.14954 141.000
89.16949 150.000
89.18944 154.000
89.20939 154.000
89.22933 141.000
89.24928 131.000
89.26923 164.000
89.28917 136.000
89.30912 161.000
89.32907 151.000
89.34901 167.000
89.36896 157.000
89.38891 160.000
89.40885 161.000
89.42880 147.000
89.44875 142.000
89.46870 155.000
89.48864 168.000
89.50859 149.000
89.52854 161.000
89.54848 143.000
89.56843 152.000
89.58838 157.000
89.60832 158.000
89.62827 149.000
89.64822 164.000
89.66817 153.000
89.68811 147.000
89.70806 174.000
89.72801 159.000
89.74795 190.000
89.76790 179.000
89.78785 155.000
89.80779 151.000
89.82774 175.000
89.84769 159.000
89.86764 160.000
89.88758 161.000
89.90753 155.000
89.92748 160.000
89.94742 179.000
89.96737 146.000
89.98732 146.000
90.00726 149.000
