10.00000 490.000
10.01995 514.000
10.03989 526.000
10.05984 531.000
10.07979 520.000
10.09973 507.000
10.11968 514.000
10.13963 485.000
10.15958 489.000
10.17952 491.000
10.19947 509.000
10.21942 486.000
10.23936 494.000
10.25931 486.000
10.27926 517.000
10.29920 503.000
10.31915 525.000
10.33910 504.000
10.35905 516.000
10.37899 509.000
10.39894 539.000
10.41889 482.000
10.43883 475.000
10.45878 514.000
10.47873 522.000
10.49867 467.000
10.51862 478.000
10.53857 506.000
10.55851 458.000
10.57846 516.000
10.59841 509.000
10.61836 546.000
10.63830 514.000
10.65825 515.000
10.67820 522.000
10.69814 491.000
10.71809 536.000
10.73804 475.000
10.75798 485.000
10.77793 520.000
10.79788 523.000
10.81783 544.000
10.83777 504.000
10.85772 476.000
10.87767 534.000
10.89761 501.000
10.91756 488.000
10.93751 507.000
10.95745 479.000
10.97740 540.000
10.99735 481.000
11.01730 511.000
11.03724 475.000
11.05719 522.000
11.07714 471.000
11.09708 500.000
11.11703 502.000
11.13698 469.000
11.15692 479.000
11.17687 525.000
11.19682 499.000
11.21676 516.000
11.23671 518.000
11.25666 535.000
11.27661 537.000
11.29655 529.000
11.31650 510.000
11.33645 486.000
11.35639 517.000
11.37634 508.000
11.39629 477.000
11.41623 493.000
11.43618 485.000
11.45613 514.000
11.47608 519.000
11.49602 509.000
11.51597 478.000
11.53592 520.000
11.55586 487.000
11.57581 498.000
11.59576 508.000
11.61570 494.000
11.63565 500.000
11.65560 495.000
11.67554 498.000
11.69549 514.000
11.71544 466.000
11.73539 504.000
11.75533 506.000
11.77528 468.000
11.79523 498.000
11.81517 484.000
11.83512 521.000
11.85507 497.000
11.87501 534.000
11.89496 515.000
11.91491 515.000
11.93486 478.000
11.95480 525.000
11.97475 464.000
11.99470 465.000
12.01464 514.000
12.03459 495.000
12.05454 527.000
12.07448 529.000
12.09443 516.000
12.11438 493.000
12.13432 503.000
12.15427 493.000
12.17422 519.000
12.19417 488.000
12.21411 493.000
12.23406 515.000
12.25401 495.000
12.27395 515.000
12.29390 513.000
12.31385 529.000
12.33379 523.000
12.35374 491.000
12.37369 499.000
12.39364 490.000
12.41358 542.000
12.43353 531.000
12.45348 519.000
12.47342 483.000
12.49337 510.000
12.51332 466.000
12.53326 495.000
12.55321 526.000
12.57316 474.000
12.59311 520.000
12.61305 495.000
12.63300 477.000
12.65295 497.000
12.67289 528.000
12.69284 457.000
12.71279 488.000
12.73273 528.000
12.75268 466.000
12.77263 519.000
12.79257 507.000
12.81252 544.000
12.83247 566.000
12.85242 533.000
12.87236 507.000
12.89231 500.000
12.91226 530.000
12.93220 504.000
12.95215 473.000
12.97210 495.000
12.99204 488.000
13.01199 525.000
13.03194 496.000
13.05189 493.000
13.07183 494.000
13.09178 512.000
13.11173 513.000
13.13167 517.000
13.15162 511.000
13.17157 479.000
13.19151 545.000
13.21146 498.000
13.23141 487.000
13.25135 480.000
13.27130 524.000
13.29125 521.000
13.31120 489.000
13.33114 504.000
13.35109 494.000
13.37104 524.000
13.39098 501.000
13.41093 523.000
13.43088 507.000
13.45082 478.000
13.47077 474.000
13.49072 497.000
13.51067 460.000
13.53061 520.000
13.55056 469.000
13.57051 500.000
13.59045 474.000
13.61040 475.000
13.63035 489.000
13.65029 500.000
13.67024 508.000
13.69019 487.000
13.71013 500.000
13.73008 534.000
13.75003 509.000
13.76998 507.000
13.78992 527.000
13.80987 507.000
13.82982 517.000
13.84976 462.000
13.86971 524.000
13.88966 494.000
13.90960 487.000
13.92955 498.000
13.94950 509.000
13.96945 497.000
13.98939 477.000
14.00934 506.000
14.02929 468.000
14.04923 463.000
14.06918 483.000
14.08913 493.000
14.10907 483.000
14.12902 513.000
14.14897 515.000
14.16892 521.000
14.18886 509.000
14.20881 467.000
14.22876 510.000
14.24870 466.000
14.26865 509.000
14.28860 505.000
14.30854 499.000
14.32849 504.000
14.34844 542.000
14.36838 508.000
14.38833 487.000
14.40828 569.000
14.42823 474.000
14.44817 487.000
14.46812 477.000
14.48807 509.000
14.50801 492.000
14.52796 522.000
14.54791 487.000
14.56785 546.000
14.58780 512.000
14.60775 491.000
14.62770 518.000
14.64764 498.000
14.66759 485.000
14.68754 523.000
14.70748 511.000
14.72743 538.000
14.74738 510.000
14.76732 518.000
14.78727 505.000
14.80722 567.000
14.82716 510.000
14.84711 512.000
14.86706 495.000
14.88701 479.000
14.90695 524.000
14.92690 519.000
14.94685 494.000
14.96679 521.000
14.98674 565.000
15.00669 526.000
15.02663 513.000
15.04658 505.000
15.06653 523.000
15.08648 567.000
15.10642 515.000
15.12637 520.000
15.14632 538.000
15.16626 547.000
15.18621 529.000
15.20616 524.000
15.22610 552.000
15.24605 501.000
15.26600 525.000
15.28594 548.000
15.30589 565.000
15.32584 509.000
15.34579 580.000
15.36573 512.000
15.38568 564.000
15.40563 515.000
15.42557 537.000
15.44552 526.000
15.46547 540.000
15.48541 542.000
15.50536 577.000
15.52531 590.000
15.54526 583.000
15.56520 584.000
15.58515 589.000
15.60510 579.000
15.62504 574.000
15.64499 624.000
15.66494 662.000
15.68488 712.000
15.70483 757.000
15.72478 824.000
15.74472 971.000
15.76467 1268.000
15.78462 1533.000
15.80457 1979.000
15.82451 2671.000
15.84446 3809.000
15.86441 4957.000
15.88435 5997.000
15.90430 7222.000
15.92425 6873.000
15.94419 5505.000
15.96414 3508.000
15.98409 2214.000
16.00404 1253.000
16.02398 847.000
16.04393 751.000
16.06388 664.000
16.08382 646.000
16.10377 652.000
16.12372 600.000
16.14366 589.000
16.16361 606.000
16.18356 572.000
16.20351 591.000
16.22345 555.000
16.24340 552.000
16.26335 552.000
16.28329 578.000
16.30324 578.000
16.32319 516.000
16.34313 588.000
16.36308 533.000
16.38303 559.000
16.40297 585.000
16.42292 558.000
16.44287 562.000
16.46282 548.000
16.48276 528.000
16.50271 508.000
16.52266 541.000
16.54260 539.000
16.56255 580.000
16.58250 527.000
16.60244 503.000
16.62239 504.000
16.64234 519.000
16.66229 538.000
16.68223 513.000
16.70218 584.000
16.72213 550.000
16.74207 579.000
16.76202 592.000
16.78197 635.000
16.80191 725.000
16.82186 776.000
16.84181 805.000
16.86175 687.000
16.88170 688.000
16.90165 598.000
16.92160 585.000
16.94154 542.000
16.96149 532.000
16.98144 559.000
17.00138 519.000
17.02133 505.000
17.04128 544.000
17.06122 536.000
17.08117 499.000
17.10112 492.000
17.12107 492.000
17.14101 529.000
17.16096 525.000
17.18091 505.000
17.20085 516.000
17.22080 507.000
17.24075 500.000
17.26069 519.000
17.28064 532.000
17.30059 535.000
17.32053 528.000
17.34048 509.000
17.36043 497.000
17.38038 576.000
17.40032 512.000
17.42027 529.000
17.44022 506.000
17.46016 476.000
17.48011 506.000
17.50006 521.000
17.52000 563.000
17.53995 520.000
17.55990 491.000
17.57985 543.000
17.59979 505.000
17.61974 523.000
17.63969 482.000
17.65963 521.000
17.67958 490.000
17.69953 548.000
17.71947 542.000
17.73942 489.000
17.75937 553.000
17.77932 554.000
17.79926 508.000
17.81921 541.000
17.83916 482.000
17.85910 515.000
17.87905 531.000
17.89900 502.000
17.91894 564.000
17.93889 508.000
17.95884 515.000
17.97878 496.000
17.99873 528.000
18.01868 497.000
18.03863 505.000
18.05857 501.000
18.07852 485.000
18.09847 508.000
18.11841 532.000
18.13836 538.000
18.15831 509.000
18.17825 514.000
18.19820 488.000
18.21815 513.000
18.23810 488.000
18.25804 495.000
18.27799 511.000
18.29794 508.000
18.31788 498.000
18.33783 539.000
18.35778 506.000
18.37772 507.000
18.39767 462.000
18.41762 560.000
18.43756 496.000
18.45751 514.000
18.47746 572.000
18.49741 593.000
18.51735 585.000
18.53730 517.000
18.55725 560.000
18.57719 584.000
18.59714 578.000
18.61709 501.000
18.63703 521.000
18.65698 540.000
18.67693 524.000
18.69688 487.000
18.71682 506.000
18.73677 491.000
18.75672 477.000
18.77666 546.000
18.79661 506.000
18.81656 528.000
18.83650 479.000
18.85645 500.000
18.87640 507.000
18.89634 489.000
18.91629 531.000
18.93624 547.000
18.95619 497.000
18.97613 482.000
18.99608 517.000
19.01603 585.000
19.03597 494.000
19.05592 553.000
19.07587 503.000
19.09581 493.000
19.11576 547.000
19.13571 551.000
19.15566 518.000
19.17560 514.000
19.19555 507.000
19.21550 489.000
19.23544 478.000
19.25539 561.000
19.27534 502.000
19.29528 518.000
19.31523 548.000
19.33518 502.000
19.35513 514.000
19.37507 498.000
19.39502 529.000
19.41497 509.000
19.43491 508.000
19.45486 511.000
19.47481 502.000
19.49475 481.000
19.51470 512.000
19.53465 513.000
19.55459 507.000
19.57454 490.000
19.59449 519.000
19.61444 514.000
19.63438 509.000
19.65433 514.000
19.67428 508.000
19.69422 514.000
19.71417 512.000
19.73412 486.000
19.75406 511.000
19.77401 566.000
19.79396 550.000
19.81391 484.000
19.83385 513.000
19.85380 528.000
19.87375 517.000
19.89369 504.000
19.91364 516.000
19.93359 479.000
19.95353 525.000
19.97348 568.000
19.99343 477.000
20.01337 509.000
20.03332 511.000
20.05327 487.000
20.07322 521.000
20.09316 504.000
20.11311 533.000
20.13306 564.000
20.15300 511.000
20.17295 548.000
20.19290 532.000
20.21284 507.000
20.23279 526.000
20.25274 498.000
20.27269 527.000
20.29263 524.000
20.31258 468.000
20.33253 512.000
20.35247 509.000
20.37242 528.000
20.39237 507.000
20.41231 485.000
20.43226 486.000
20.45221 522.000
20.47215 543.000
20.49210 496.000
20.51205 536.000
20.53200 549.000
20.55194 505.000
20.57189 530.000
20.59184 500.000
20.61178 538.000
20.63173 514.000
20.65168 505.000
20.67162 522.000
20.69157 500.000
20.71152 512.000
20.73147 529.000
20.75141 524.000
20.77136 541.000
20.79131 566.000
20.81125 577.000
20.83120 588.000
20.85115 560.000
20.87109 543.000
20.89104 569.000
20.91099 590.000
20.93094 612.000
20.95088 604.000
20.97083 601.000
20.99078 592.000
21.01072 617.000
21.03067 589.000
21.05062 682.000
21.07056 686.000
21.09051 685.000
21.11046 649.000
21.13040 636.000
21.15035 647.000
21.17030 653.000
21.19025 573.000
21.21019 585.000
21.23014 560.000
21.25009 539.000
21.27003 497.000
21.28998 534.000
21.30993 531.000
21.32987 491.000
21.34982 463.000
21.36977 533.000
21.38972 516.000
21.40966 510.000
21.42961 499.000
21.44956 517.000
21.46950 517.000
21.48945 519.000
21.50940 485.000
21.52934 504.000
21.54929 501.000
21.56924 504.000
21.58918 483.000
21.60913 503.000
21.62908 514.000
21.64903 491.000
21.66897 463.000
21.68892 485.000
21.70887 538.000
21.72881 517.000
21.74876 528.000
21.76871 506.000
21.78865 512.000
21.80860 538.000
21.82855 480.000
21.84850 552.000
21.86844 471.000
21.88839 506.000
21.90834 511.000
21.92828 499.000
21.94823 522.000
21.96818 497.000
21.98812 548.000
22.00807 525.000
22.02802 504.000
22.04796 516.000
22.06791 524.000
22.08786 533.000
22.10781 533.000
22.12775 545.000
22.14770 482.000
22.16765 530.000
22.18759 493.000
22.20754 526.000
22.22749 523.000
22.24743 505.000
22.26738 498.000
22.28733 529.000
22.30728 537.000
22.32722 506.000
22.34717 528.000
22.36712 505.000
22.38706 531.000
22.40701 537.000
22.42696 524.000
22.44690 504.000
22.46685 496.000
22.48680 527.000
22.50675 517.000
22.52669 513.000
22.54664 553.000
22.56659 499.000
22.58653 507.000
22.60648 541.000
22.62643 489.000
22.64637 568.000
22.66632 558.000
22.68627 494.000
22.70621 500.000
22.72616 514.000
22.74611 533.000
22.76606 515.000
22.78600 490.000
22.80595 559.000
22.82590 530.000
22.84584 503.000
22.86579 521.000
22.88574 513.000
22.90568 522.000
22.92563 532.000
22.94558 501.000
22.96553 539.000
22.98547 516.000
23.00542 496.000
23.02537 514.000
23.04531 551.000
23.06526 504.000
23.08521 513.000
23.10515 496.000
23.12510 520.000
23.14505 533.000
23.16499 513.000
23.18494 553.000
23.20489 534.000
23.22484 560.000
23.24478 575.000
23.26473 505.000
23.28468 530.000
23.30462 524.000
23.32457 517.000
23.34452 504.000
23.36446 520.000
23.38441 531.000
23.40436 481.000
23.42431 522.000
23.44425 524.000
23.46420 514.000
23.48415 528.000
23.50409 515.000
23.52404 550.000
23.54399 548.000
23.56393 562.000
23.58388 540.000
23.60383 541.000
23.62377 515.000
23.64372 571.000
23.66367 506.000
23.68362 511.000
23.70356 520.000
23.72351 498.000
23.74346 491.000
23.76340 547.000
23.78335 488.000
23.80330 520.000
23.82324 530.000
23.84319 491.000
23.86314 483.000
23.88309 522.000
23.90303 543.000
23.92298 535.000
23.94293 527.000
23.96287 553.000
23.98282 519.000
24.00277 552.000
24.02271 523.000
24.04266 526.000
24.06261 480.000
24.08256 523.000
24.10250 532.000
24.12245 510.000
24.14240 511.000
24.16234 525.000
24.18229 493.000
24.20224 559.000
24.22218 547.000
24.24213 539.000
24.26208 515.000
24.28202 517.000
24.30197 521.000
24.32192 500.000
24.34187 521.000
24.36181 516.000
24.38176 535.000
24.40171 562.000
24.42165 536.000
24.44160 512.000
24.46155 506.000
24.48149 526.000
24.50144 529.000
24.52139 511.000
24.54134 554.000
24.56128 484.000
24.58123 503.000
24.60118 512.000
24.62112 529.000
24.64107 538.000
24.66102 491.000
24.68096 530.000
24.70091 520.000
24.72086 517.000
24.74080 519.000
24.76075 543.000
24.78070 527.000
24.80065 475.000
24.82059 507.000
24.84054 554.000
24.86049 561.000
24.88043 541.000
24.90038 537.000
24.92033 599.000
24.94027 608.000
24.96022 668.000
24.98017 721.000
25.00012 644.000
25.02006 698.000
25.04001 620.000
25.05996 589.000
25.07990 602.000
25.09985 587.000
25.11980 597.000
25.13974 523.000
25.15969 541.000
25.17964 585.000
25.19958 526.000
25.21953 501.000
25.23948 506.000
25.25943 518.000
25.27937 545.000
25.29932 552.000
25.31927 532.000
25.33921 559.000
25.35916 477.000
25.37911 521.000
25.39905 519.000
25.41900 473.000
25.43895 522.000
25.45890 560.000
25.47884 511.000
25.49879 514.000
25.51874 513.000
25.53868 524.000
25.55863 502.000
25.57858 525.000
25.59852 526.000
25.61847 533.000
25.63842 535.000
25.65837 568.000
25.67831 511.000
25.69826 539.000
25.71821 500.000
25.73815 506.000
25.75810 570.000
25.77805 491.000
25.79799 530.000
25.81794 563.000
25.83789 546.000
25.85783 508.000
25.87778 535.000
25.89773 571.000
25.91768 519.000
25.93762 512.000
25.95757 551.000
25.97752 546.000
25.99746 515.000
26.01741 577.000
26.03736 515.000
26.05730 552.000
26.07725 536.000
26.09720 522.000
26.11715 540.000
26.13709 575.000
26.15704 549.000
26.17699 576.000
26.19693 542.000
26.21688 540.000
26.23683 507.000
26.25677 554.000
26.27672 550.000
26.29667 545.000
26.31661 527.000
26.33656 558.000
26.35651 545.000
26.37646 517.000
26.39640 544.000
26.41635 569.000
26.43630 542.000
26.45624 530.000
26.47619 548.000
26.49614 516.000
26.51608 537.000
26.53603 527.000
26.55598 516.000
26.57593 556.000
26.59587 498.000
26.61582 516.000
26.63577 500.000
26.65571 546.000
26.67566 573.000
26.69561 500.000
26.71555 501.000
26.73550 558.000
26.75545 532.000
26.77539 515.000
26.79534 523.000
26.81529 495.000
26.83524 500.000
26.85518 547.000
26.87513 550.000
26.89508 518.000
26.91502 522.000
26.93497 507.000
26.95492 536.000
26.97486 507.000
26.99481 552.000
27.01476 529.000
27.03471 556.000
27.05465 547.000
27.07460 557.000
27.09455 562.000
27.11449 610.000
27.13444 587.000
27.15439 560.000
27.17433 566.000
27.19428 579.000
27.21423 580.000
27.23417 570.000
27.25412 534.000
27.27407 585.000
27.29402 531.000
27.31396 550.000
27.33391 549.000
27.35386 546.000
27.37380 522.000
27.39375 538.000
27.41370 554.000
27.43364 524.000
27.45359 518.000
27.47354 566.000
27.49349 541.000
27.51343 520.000
27.53338 542.000
27.55333 487.000
27.57327 507.000
27.59322 559.000
27.61317 522.000
27.63311 556.000
27.65306 562.000
27.67301 576.000
27.69296 515.000
27.71290 559.000
27.73285 526.000
27.75280 539.000
27.77274 552.000
27.79269 538.000
27.81264 530.000
27.83258 523.000
27.85253 547.000
27.87248 563.000
27.89242 586.000
27.91237 570.000
27.93232 523.000
27.95227 530.000
27.97221 570.000
27.99216 551.000
28.01211 545.000
28.03205 553.000
28.05200 567.000
28.07195 532.000
28.09189 521.000
28.11184 521.000
28.13179 548.000
28.15174 535.000
28.17168 576.000
28.19163 566.000
28.21158 536.000
28.23152 563.000
28.25147 609.000
28.27142 597.000
28.29136 606.000
28.31131 577.000
28.33126 524.000
28.35120 541.000
28.37115 554.000
28.39110 547.000
28.41105 628.000
28.43099 567.000
28.45094 569.000
28.47089 556.000
28.49083 573.000
28.51078 532.000
28.53073 568.000
28.55067 517.000
28.57062 560.000
28.59057 538.000
28.61052 558.000
28.63046 538.000
28.65041 564.000
28.67036 556.000
28.69030 557.000
28.71025 580.000
28.73020 528.000
28.75014 519.000
28.77009 503.000
28.79004 541.000
28.80998 543.000
28.82993 515.000
28.84988 591.000
28.86983 555.000
28.88977 581.000
28.90972 517.000
28.92967 560.000
28.94961 528.000
28.96956 479.000
28.98951 545.000
29.00945 529.000
29.02940 569.000
29.04935 540.000
29.06930 534.000
29.08924 521.000
29.10919 562.000
29.12914 559.000
29.14908 573.000
29.16903 563.000
29.18898 601.000
29.20892 605.000
29.22887 665.000
29.24882 620.000
29.26877 661.000
29.28871 742.000
29.30866 827.000
29.32861 984.000
29.34855 1072.000
29.36850 1057.000
29.38845 1024.000
29.40839 1013.000
29.42834 884.000
29.44829 870.000
29.46823 789.000
29.48818 709.000
29.50813 637.000
29.52808 663.000
29.54802 625.000
29.56797 567.000
29.58792 600.000
29.60786 578.000
29.62781 585.000
29.64776 601.000
29.66770 584.000
29.68765 606.000
29.70760 623.000
29.72755 568.000
29.74749 626.000
29.76744 586.000
29.78739 571.000
29.80733 598.000
29.82728 584.000
29.84723 631.000
29.86717 595.000
29.88712 606.000
29.90707 555.000
29.92701 523.000
29.94696 553.000
29.96691 559.000
29.98686 546.000
30.00680 549.000
30.02675 555.000
30.04670 586.000
30.06664 565.000
30.08659 566.000
30.10654 532.000
30.12648 534.000
30.14643 548.000
30.16638 571.000
30.18633 560.000
30.20627 548.000
30.22622 585.000
30.24617 574.000
30.26611 533.000
30.28606 630.000
30.30601 554.000
30.32595 574.000
30.34590 564.000
30.36585 572.000
30.38579 557.000
30.40574 552.000
30.42569 571.000
30.44564 580.000
30.46558 598.000
30.48553 573.000
30.50548 621.000
30.52542 573.000
30.54537 572.000
30.56532 604.000
30.58526 602.000
30.60521 621.000
30.62516 563.000
30.64511 563.000
30.66505 513.000
30.68500 555.000
30.70495 583.000
30.72489 520.000
30.74484 532.000
30.76479 615.000
30.78473 594.000
30.80468 536.000
30.82463 567.000
30.84458 613.000
30.86452 578.000
30.88447 560.000
30.90442 535.000
30.92436 556.000
30.94431 579.000
30.96426 583.000
30.98420 618.000
31.00415 566.000
31.02410 590.000
31.04404 585.000
31.06399 552.000
31.08394 536.000
31.10389 531.000
31.12383 595.000
31.14378 571.000
31.16373 587.000
31.18367 547.000
31.20362 551.000
31.22357 563.000
31.24351 578.000
31.26346 550.000
31.28341 571.000
31.30336 594.000
31.32330 550.000
31.34325 607.000
31.36320 588.000
31.38314 586.000
31.40309 653.000
31.42304 637.000
31.44298 580.000
31.46293 618.000
31.48288 620.000
31.50282 553.000
31.52277 622.000
31.54272 581.000
31.56267 636.000
31.58261 559.000
31.60256 573.000
31.62251 565.000
31.64245 551.000
31.66240 577.000
31.68235 589.000
31.70229 563.000
31.72224 612.000
31.74219 597.000
31.76214 552.000
31.78208 565.000
31.80203 561.000
31.82198 559.000
31.84192 575.000
31.86187 651.000
31.88182 619.000
31.90176 640.000
31.92171 613.000
31.94166 589.000
31.96160 637.000
31.98155 719.000
32.00150 729.000
32.02145 835.000
32.04139 790.000
32.06134 838.000
32.08129 797.000
32.10123 936.000
32.12118 1052.000
32.14113 1077.000
32.16107 1020.000
32.18102 961.000
32.20097 967.000
32.22092 858.000
32.24086 831.000
32.26081 791.000
32.28076 688.000
32.30070 712.000
32.32065 680.000
32.34060 693.000
32.36054 675.000
32.38049 745.000
32.40044 776.000
32.42039 921.000
32.44033 1054.000
32.46028 1086.000
32.48023 1067.000
32.50017 1058.000
32.52012 1036.000
32.54007 898.000
32.56001 920.000
32.57996 780.000
32.59991 729.000
32.61985 716.000
32.63980 619.000
32.65975 640.000
32.67970 566.000
32.69964 597.000
32.71959 574.000
32.73954 556.000
32.75948 547.000
32.77943 570.000
32.79938 583.000
32.81932 562.000
32.83927 572.000
32.85922 557.000
32.87917 538.000
32.89911 612.000
32.91906 554.000
32.93901 541.000
32.95895 567.000
32.97890 543.000
32.99885 535.000
33.01879 559.000
33.03874 552.000
33.05869 583.000
33.07863 524.000
33.09858 527.000
33.11853 575.000
33.13848 552.000
33.15842 539.000
33.17837 586.000
33.19832 491.000
33.21826 515.000
33.23821 558.000
33.25816 534.000
33.27810 549.000
33.29805 513.000
33.31800 588.000
33.33795 581.000
33.35789 558.000
33.37784 567.000
33.39779 539.000
33.41773 525.000
33.43768 558.000
33.45763 595.000
33.47757 574.000
33.49752 563.000
33.51747 523.000
33.53741 534.000
33.55736 624.000
33.57731 571.000
33.59726 521.000
33.61720 594.000
33.63715 541.000
33.65710 625.000
33.67704 602.000
33.69699 561.000
33.71694 570.000
33.73688 587.000
33.75683 600.000
33.77678 605.000
33.79673 593.000
33.81667 545.000
33.83662 578.000
33.85657 589.000
33.87651 571.000
33.89646 588.000
33.91641 571.000
33.93635 584.000
33.95630 569.000
33.97625 587.000
33.99620 617.000
34.01614 614.000
34.03609 645.000
34.05604 579.000
34.07598 603.000
34.09593 616.000
34.11588 604.000
34.13582 597.000
34.15577 647.000
34.17572 581.000
34.19566 596.000
34.21561 653.000
34.23556 652.000
34.25551 658.000
34.27545 619.000
34.29540 614.000
34.31535 602.000
34.33529 612.000
34.35524 633.000
34.37519 667.000
34.39513 681.000
34.41508 627.000
34.43503 700.000
34.45498 653.000
34.47492 681.000
34.49487 662.000
34.51482 670.000
34.53476 731.000
34.55471 712.000
34.57466 733.000
34.59460 685.000
34.61455 723.000
34.63450 683.000
34.65444 690.000
34.67439 681.000
34.69434 650.000
34.71429 706.000
34.73423 721.000
34.75418 767.000
34.77413 799.000
34.79407 861.000
34.81402 875.000
34.83397 944.000
34.85391 977.000
34.87386 884.000
34.89381 896.000
34.91376 907.000
34.93370 843.000
34.95365 849.000
34.97360 746.000
34.99354 762.000
35.01349 763.000
35.03344 674.000
35.05338 702.000
35.07333 721.000
35.09328 753.000
35.11322 807.000
35.13317 775.000
35.15312 780.000
35.17307 723.000
35.19301 806.000
35.21296 912.000
35.23291 863.000
35.25285 991.000
35.27280 1068.000
35.29275 1117.000
35.31269 1267.000
35.33264 1434.000
35.35259 1836.000
35.37254 2324.000
35.39248 3061.000
35.41243 3545.000
35.43238 3576.000
35.45232 3732.000
35.47227 4323.000
35.49222 5382.000
35.51216 6237.000
35.53211 5846.000
35.55206 5228.000
35.57201 4607.000
35.59195 4322.000
35.61190 4096.000
35.63185 3452.000
35.65179 2708.000
35.67174 2253.000
35.69169 1828.000
35.71163 1506.000
35.73158 1370.000
35.75153 1218.000
35.77147 1160.000
35.79142 1207.000
35.81137 1202.000
35.83132 1333.000
35.85126 1351.000
35.87121 1325.000
35.89116 1327.000
35.91110 1235.000
35.93105 1177.000
35.95100 1101.000
35.97094 1049.000
35.99089 1051.000
36.01084 893.000
36.03079 843.000
36.05073 804.000
36.07068 744.000
36.09063 712.000
36.11057 735.000
36.13052 721.000
36.15047 766.000
36.17041 683.000
36.19036 659.000
36.21031 723.000
36.23025 692.000
36.25020 672.000
36.27015 690.000
36.29010 675.000
36.31004 692.000
36.32999 660.000
36.34994 667.000
36.36988 724.000
36.38983 665.000
36.40978 638.000
36.42972 677.000
36.44967 736.000
36.46962 718.000
36.48957 672.000
36.50951 655.000
36.52946 657.000
36.54941 691.000
36.56935 687.000
36.58930 631.000
36.60925 661.000
36.62919 655.000
36.64914 691.000
36.66909 666.000
36.68903 681.000
36.70898 666.000
36.72893 707.000
36.74888 695.000
36.76882 743.000
36.78877 709.000
36.80872 781.000
36.82866 766.000
36.84861 720.000
36.86856 748.000
36.88850 752.000
36.90845 779.000
36.92840 782.000
36.94835 787.000
36.96829 843.000
36.98824 906.000
37.00819 896.000
37.02813 980.000
37.04808 1033.000
37.06803 1033.000
37.08797 1248.000
37.10792 1304.000
37.12787 1350.000
37.14781 1352.000
37.16776 1269.000
37.18771 1229.000
37.20766 1128.000
37.22760 1030.000
37.24755 1057.000
37.26750 923.000
37.28744 943.000
37.30739 805.000
37.32734 778.000
37.34728 743.000
37.36723 679.000
37.38718 695.000
37.40713 695.000
37.42707 622.000
37.44702 631.000
37.46697 664.000
37.48691 686.000
37.50686 721.000
37.52681 667.000
37.54675 693.000
37.56670 674.000
37.58665 619.000
37.60660 728.000
37.62654 640.000
37.64649 700.000
37.66644 650.000
37.68638 628.000
37.70633 659.000
37.72628 670.000
37.74622 631.000
37.76617 604.000
37.78612 677.000
37.80606 641.000
37.82601 630.000
37.84596 625.000
37.86591 651.000
37.88585 648.000
37.90580 684.000
37.92575 642.000
37.94569 668.000
37.96564 662.000
37.98559 703.000
38.00553 708.000
38.02548 675.000
38.04543 722.000
38.06538 742.000
38.08532 719.000
38.10527 714.000
38.12522 742.000
38.14516 805.000
38.16511 721.000
38.18506 751.000
38.20500 772.000
38.22495 779.000
38.24490 780.000
38.26484 833.000
38.28479 793.000
38.30474 798.000
38.32469 884.000
38.34463 914.000
38.36458 989.000
38.38453 1009.000
38.40447 1075.000
38.42442 1128.000
38.44437 1215.000
38.46431 1291.000
38.48426 1468.000
38.50421 1609.000
38.52416 1881.000
38.54410 2317.000
38.56405 2909.000
38.58400 3497.000
38.60394 4288.000
38.62389 4920.000
38.64384 4968.000
38.66378 4662.000
38.68373 4660.000
38.70368 4589.000
38.72362 4253.000
38.74357 3792.000
38.76352 3361.000
38.78347 2949.000
38.80341 2518.000
38.82336 2166.000
38.84331 1954.000
38.86325 1708.000
38.88320 1609.000
38.90315 1606.000
38.92309 1632.000
38.94304 1645.000
38.96299 1642.000
38.98294 1663.000
39.00288 1708.000
39.02283 1775.000
39.04278 1615.000
39.06272 1574.000
39.08267 1372.000
39.10262 1292.000
39.12256 1270.000
39.14251 1199.000
39.16246 1081.000
39.18241 984.000
39.20235 911.000
39.22230 912.000
39.24225 912.000
39.26219 842.000
39.28214 857.000
39.30209 874.000
39.32203 1007.000
39.34198 999.000
39.36193 1118.000
39.38187 1262.000
39.40182 1367.000
39.42177 1481.000
39.44172 1528.000
39.46166 1606.000
39.48161 1522.000
39.50156 1387.000
39.52150 1287.000
39.54145 1249.000
39.56140 1225.000
39.58134 1067.000
39.60129 989.000
39.62124 817.000
39.64119 809.000
39.66113 759.000
39.68108 749.000
39.70103 697.000
39.72097 663.000
39.74092 663.000
39.76087 639.000
39.78081 686.000
39.80076 628.000
39.82071 624.000
39.84065 639.000
39.86060 622.000
39.88055 583.000
39.90050 566.000
39.92044 676.000
39.94039 607.000
39.96034 608.000
39.98028 579.000
40.00023 572.000
40.02018 640.000
40.04012 595.000
40.06007 613.000
40.08002 607.000
40.09997 608.000
40.11991 568.000
40.13986 554.000
40.15981 590.000
40.17975 546.000
40.19970 537.000
40.21965 575.000
40.23959 580.000
40.25954 552.000
40.27949 604.000
40.29943 609.000
40.31938 540.000
40.33933 591.000
40.35928 587.000
40.37922 558.000
40.39917 568.000
40.41912 585.000
40.43906 559.000
40.45901 521.000
40.47896 542.000
40.49890 587.000
40.51885 587.000
40.53880 624.000
40.55875 566.000
40.57869 556.000
40.59864 577.000
40.61859 512.000
40.63853 605.000
40.65848 553.000
40.67843 560.000
40.69837 560.000
40.71832 574.000
40.73827 610.000
40.75822 603.000
40.77816 557.000
40.79811 613.000
40.81806 597.000
40.83800 571.000
40.85795 622.000
40.87790 548.000
40.89784 596.000
40.91779 586.000
40.93774 566.000
40.95768 605.000
40.97763 568.000
40.99758 582.000
41.01753 599.000
41.03747 571.000
41.05742 581.000
41.07737 561.000
41.09731 521.000
41.11726 567.000
41.13721 556.000
41.15715 559.000
41.17710 587.000
41.19705 542.000
41.21700 561.000
41.23694 589.000
41.25689 625.000
41.27684 548.000
41.29678 595.000
41.31673 567.000
41.33668 584.000
41.35662 561.000
41.37657 574.000
41.39652 555.000
41.41646 557.000
41.43641 594.000
41.45636 567.000
41.47631 572.000
41.49625 594.000
41.51620 567.000
41.53615 586.000
41.55609 586.000
41.57604 561.000
41.59599 594.000
41.61593 537.000
41.63588 560.000
41.65583 633.000
41.67578 584.000
41.69572 563.000
41.71567 562.000
41.73562 573.000
41.75556 572.000
41.77551 520.000
41.79546 611.000
41.81540 609.000
41.83535 580.000
41.85530 548.000
41.87524 573.000
41.89519 576.000
41.91514 567.000
41.93509 608.000
41.95503 587.000
41.97498 560.000
41.99493 549.000
42.01487 610.000
42.03482 574.000
42.05477 598.000
42.07471 548.000
42.09466 601.000
42.11461 593.000
42.13456 637.000
42.15450 624.000
42.17445 574.000
42.19440 543.000
42.21434 533.000
42.23429 578.000
42.25424 569.000
42.27418 574.000
42.29413 567.000
42.31408 620.000
42.33403 562.000
42.35397 553.000
42.37392 596.000
42.39387 590.000
42.41381 597.000
42.43376 626.000
42.45371 623.000
42.47365 648.000
42.49360 632.000
42.51355 628.000
42.53349 655.000
42.55344 598.000
42.57339 627.000
42.59334 620.000
42.61328 672.000
42.63323 630.000
42.65318 594.000
42.67312 658.000
42.69307 693.000
42.71302 658.000
42.73296 685.000
42.75291 632.000
42.77286 711.000
42.79281 703.000
42.81275 697.000
42.83270 715.000
42.85265 718.000
42.87259 734.000
42.89254 780.000
42.91249 781.000
42.93243 840.000
42.95238 833.000
42.97233 871.000
42.99227 878.000
43.01222 845.000
43.03217 968.000
43.05212 967.000
43.07206 1068.000
43.09201 1063.000
43.11196 1069.000
43.13190 1118.000
43.15185 1215.000
43.17180 1128.000
43.19174 1138.000
43.21169 1126.000
43.23164 1071.000
43.25159 1053.000
43.27153 992.000
43.29148 970.000
43.31143 1006.000
43.33137 914.000
43.35132 838.000
43.37127 884.000
43.39121 836.000
43.41116 846.000
43.43111 807.000
43.45105 795.000
43.47100 832.000
43.49095 861.000
43.51090 956.000
43.53084 892.000
43.55079 964.000
43.57074 990.000
43.59068 956.000
43.61063 952.000
43.63058 862.000
43.65052 911.000
43.67047 909.000
43.69042 798.000
43.71037 799.000
43.73031 761.000
43.75026 706.000
43.77021 689.000
43.79015 671.000
43.81010 653.000
43.83005 631.000
43.84999 570.000
43.86994 651.000
43.88989 586.000
43.90984 579.000
43.92978 612.000
43.94973 613.000
43.96968 585.000
43.98962 576.000
44.00957 555.000
44.02952 645.000
44.04946 598.000
44.06941 587.000
44.08936 569.000
44.10930 600.000
44.12925 575.000
44.14920 596.000
44.16915 567.000
44.18909 538.000
44.20904 530.000
44.22899 568.000
44.24893 610.000
44.26888 612.000
44.28883 576.000
44.30877 552.000
44.32872 581.000
44.34867 579.000
44.36862 561.000
44.38856 590.000
44.40851 541.000
44.42846 528.000
44.44840 594.000
44.46835 571.000
44.48830 544.000
44.50824 571.000
44.52819 562.000
44.54814 575.000
44.56808 543.000
44.58803 529.000
44.60798 550.000
44.62793 590.000
44.64787 586.000
44.66782 558.000
44.68777 593.000
44.70771 606.000
44.72766 527.000
44.74761 543.000
44.76755 583.000
44.78750 526.000
44.80745 571.000
44.82740 574.000
44.84734 563.000
44.86729 602.000
44.88724 564.000
44.90718 554.000
44.92713 562.000
44.94708 558.000
44.96702 574.000
44.98697 607.000
45.00692 567.000
45.02686 641.000
45.04681 615.000
45.06676 581.000
45.08671 573.000
45.10665 573.000
45.12660 597.000
45.14655 563.000
45.16649 585.000
45.18644 566.000
45.20639 556.000
45.22633 640.000
45.24628 571.000
45.26623 533.000
45.28618 608.000
45.30612 571.000
45.32607 553.000
45.34602 569.000
45.36596 565.000
45.38591 577.000
45.40586 540.000
45.42580 558.000
45.44575 559.000
45.46570 564.000
45.48565 589.000
45.50559 565.000
45.52554 613.000
45.54549 629.000
45.56543 580.000
45.58538 576.000
45.60533 588.000
45.62527 567.000
45.64522 619.000
45.66517 552.000
45.68511 554.000
45.70506 571.000
45.72501 571.000
45.74496 557.000
45.76490 598.000
45.78485 552.000
45.80480 555.000
45.82474 593.000
45.84469 602.000
45.86464 590.000
45.88458 559.000
45.90453 599.000
45.92448 603.000
45.94443 595.000
45.96437 576.000
45.98432 581.000
46.00427 591.000
46.02421 589.000
46.04416 551.000
46.06411 576.000
46.08405 594.000
46.10400 571.000
46.12395 580.000
46.14389 545.000
46.16384 620.000
46.18379 572.000
46.20374 597.000
46.22368 613.000
46.24363 675.000
46.26358 708.000
46.28352 664.000
46.30347 648.000
46.32342 667.000
46.34336 651.000
46.36331 627.000
46.38326 624.000
46.40321 658.000
46.42315 591.000
46.44310 689.000
46.46305 583.000
46.48299 582.000
46.50294 594.000
46.52289 599.000
46.54283 589.000
46.56278 531.000
46.58273 540.000
46.60267 551.000
46.62262 600.000
46.64257 536.000
46.66252 577.000
46.68246 568.000
46.70241 580.000
46.72236 560.000
46.74230 543.000
46.76225 535.000
46.78220 545.000
46.80214 563.000
46.82209 567.000
46.84204 577.000
46.86199 560.000
46.88193 540.000
46.90188 566.000
46.92183 582.000
46.94177 541.000
46.96172 651.000
46.98167 595.000
47.00161 547.000
47.02156 569.000
47.04151 537.000
47.06146 562.000
47.08140 550.000
47.10135 545.000
47.12130 577.000
47.14124 605.000
47.16119 559.000
47.18114 549.000
47.20108 537.000
47.22103 547.000
47.24098 589.000
47.26092 575.000
47.28087 573.000
47.30082 546.000
47.32077 538.000
47.34071 590.000
47.36066 579.000
47.38061 565.000
47.40055 584.000
47.42050 549.000
47.44045 553.000
47.46039 521.000
47.48034 605.000
47.50029 524.000
47.52024 542.000
47.54018 537.000
47.56013 607.000
47.58008 551.000
47.60002 546.000
47.61997 579.000
47.63992 610.000
47.65986 546.000
47.67981 531.000
47.69976 551.000
47.71970 567.000
47.73965 594.000
47.75960 511.000
47.77955 558.000
47.79949 554.000
47.81944 571.000
47.83939 565.000
47.85933 516.000
47.87928 621.000
47.89923 574.000
47.91917 538.000
47.93912 553.000
47.95907 588.000
47.97902 600.000
47.99896 612.000
48.01891 662.000
48.03886 643.000
48.05880 700.000
48.07875 661.000
48.09870 663.000
48.11864 692.000
48.13859 631.000
48.15854 660.000
48.17848 636.000
48.19843 662.000
48.21838 628.000
48.23833 680.000
48.25827 643.000
48.27822 593.000
48.29817 621.000
48.31811 626.000
48.33806 627.000
48.35801 592.000
48.37795 660.000
48.39790 602.000
48.41785 647.000
48.43780 657.000
48.45774 589.000
48.47769 642.000
48.49764 712.000
48.51758 656.000
48.53753 701.000
48.55748 715.000
48.57742 778.000
48.59737 714.000
48.61732 814.000
48.63726 834.000
48.65721 820.000
48.67716 888.000
48.69711 955.000
48.71705 1008.000
48.73700 1224.000
48.75695 1266.000
48.77689 1476.000
48.79684 1728.000
48.81679 1926.000
48.83673 2040.000
48.85668 2268.000
48.87663 2289.000
48.89658 2472.000
48.91652 2334.000
48.93647 2218.000
48.95642 2045.000
48.97636 1946.000
48.99631 1804.000
49.01626 1702.000
49.03620 1554.000
49.05615 1420.000
49.07610 1330.000
49.09605 1163.000
49.11599 976.000
49.13594 978.000
49.15589 890.000
49.17583 823.000
49.19578 761.000
49.21573 792.000
49.23567 702.000
49.25562 687.000
49.27557 700.000
49.29551 684.000
49.31546 652.000
49.33541 668.000
49.35536 692.000
49.37530 645.000
49.39525 639.000
49.41520 638.000
49.43514 663.000
49.45509 647.000
49.47504 679.000
49.49498 645.000
49.51493 631.000
49.53488 610.000
49.55483 652.000
49.57477 617.000
49.59472 590.000
49.61467 600.000
49.63461 628.000
49.65456 628.000
49.67451 580.000
49.69445 658.000
49.71440 575.000
49.73435 577.000
49.75429 647.000
49.77424 596.000
49.79419 607.000
49.81414 588.000
49.83408 616.000
49.85403 596.000
49.87398 595.000
49.89392 596.000
49.91387 569.000
49.93382 586.000
49.95376 564.000
49.97371 597.000
49.99366 603.000
50.01361 593.000
50.03355 584.000
50.05350 582.000
50.07345 581.000
50.09339 593.000
50.11334 567.000
50.13329 585.000
50.15323 601.000
50.17318 560.000
50.19313 522.000
50.21307 540.000
50.23302 533.000
50.25297 532.000
50.27292 528.000
50.29286 598.000
50.31281 613.000
50.33276 573.000
50.35270 568.000
50.37265 552.000
50.39260 560.000
50.41254 555.000
50.43249 532.000
50.45244 551.000
50.47239 526.000
50.49233 557.000
50.51228 524.000
50.53223 557.000
50.55217 563.000
50.57212 569.000
50.59207 560.000
50.61201 582.000
50.63196 532.000
50.65191 567.000
50.67186 514.000
50.69180 577.000
50.71175 563.000
50.73170 584.000
50.75164 581.000
50.77159 555.000
50.79154 553.000
50.81148 566.000
50.83143 576.000
50.85138 527.000
50.87132 559.000
50.89127 593.000
50.91122 566.000
50.93117 553.000
50.95111 543.000
50.97106 553.000
50.99101 584.000
51.01095 547.000
51.03090 612.000
51.05085 560.000
51.07079 562.000
51.09074 563.000
51.11069 554.000
51.13064 581.000
51.15058 595.000
51.17053 591.000
51.19048 578.000
51.21042 585.000
51.23037 606.000
51.25032 633.000
51.27026 655.000
51.29021 615.000
51.31016 623.000
51.33010 596.000
51.35005 597.000
51.37000 668.000
51.38995 597.000
51.40989 586.000
51.42984 577.000
51.44979 550.000
51.46973 620.000
51.48968 603.000
51.50963 590.000
51.52957 554.000
51.54952 602.000
51.56947 593.000
51.58942 569.000
51.60936 567.000
51.62931 537.000
51.64926 540.000
51.66920 593.000
51.68915 527.000
51.70910 558.000
51.72904 551.000
51.74899 560.000
51.76894 524.000
51.78888 572.000
51.80883 566.000
51.82878 567.000
51.84873 599.000
51.86867 528.000
51.88862 590.000
51.90857 529.000
51.92851 575.000
51.94846 561.000
51.96841 596.000
51.98835 614.000
52.00830 662.000
52.02825 671.000
52.04820 665.000
52.06814 648.000
52.08809 681.000
52.10804 702.000
52.12798 648.000
52.14793 668.000
52.16788 663.000
52.18782 694.000
52.20777 618.000
52.22772 626.000
52.24767 613.000
52.26761 580.000
52.28756 625.000
52.30751 620.000
52.32745 577.000
52.34740 586.000
52.36735 576.000
52.38729 585.000
52.40724 603.000
52.42719 606.000
52.44713 566.000
52.46708 589.000
52.48703 568.000
52.50698 590.000
52.52692 545.000
52.54687 565.000
52.56682 611.000
52.58676 610.000
52.60671 545.000
52.62666 582.000
52.64660 596.000
52.66655 592.000
52.68650 574.000
52.70645 546.000
52.72639 552.000
52.74634 562.000
52.76629 561.000
52.78623 560.000
52.80618 573.000
52.82613 585.000
52.84607 536.000
52.86602 600.000
52.88597 615.000
52.90591 642.000
52.92586 644.000
52.94581 599.000
52.96576 567.000
52.98570 631.000
53.00565 640.000
53.02560 636.000
53.04554 629.000
53.06549 653.000
53.08544 661.000
53.10538 673.000
53.12533 688.000
53.14528 703.000
53.16523 719.000
53.18517 749.000
53.20512 724.000
53.22507 720.000
53.24501 844.000
53.26496 790.000
53.28491 752.000
53.30485 773.000
53.32480 809.000
53.34475 841.000
53.36469 762.000
53.38464 809.000
53.40459 784.000
53.42454 799.000
53.44448 732.000
53.46443 719.000
53.48438 785.000
53.50432 734.000
53.52427 732.000
53.54422 736.000
53.56416 674.000
53.58411 689.000
53.60406 667.000
53.62401 658.000
53.64395 606.000
53.66390 667.000
53.68385 577.000
53.70379 579.000
53.72374 632.000
53.74369 608.000
53.76363 578.000
53.78358 616.000
53.80353 606.000
53.82348 653.000
53.84342 591.000
53.86337 581.000
53.88332 580.000
53.90326 559.000
53.92321 578.000
53.94316 582.000
53.96310 547.000
53.98305 574.000
54.00300 584.000
54.02294 594.000
54.04289 570.000
54.06284 496.000
54.08279 515.000
54.10273 577.000
54.12268 559.000
54.14263 580.000
54.16257 540.000
54.18252 549.000
54.20247 536.000
54.22241 586.000
54.24236 564.000
54.26231 556.000
54.28226 581.000
54.30220 559.000
54.32215 483.000
54.34210 560.000
54.36204 573.000
54.38199 557.000
54.40194 533.000
54.42188 529.000
54.44183 594.000
54.46178 581.000
54.48172 550.000
54.50167 590.000
54.52162 540.000
54.54157 544.000
54.56151 541.000
54.58146 571.000
54.60141 590.000
54.62135 549.000
54.64130 536.000
54.66125 531.000
54.68119 583.000
54.70114 564.000
54.72109 559.000
54.74104 552.000
54.76098 590.000
54.78093 568.000
54.80088 556.000
54.82082 562.000
54.84077 564.000
54.86072 555.000
54.88066 638.000
54.90061 582.000
54.92056 554.000
54.94050 576.000
54.96045 557.000
54.98040 534.000
55.00035 542.000
55.02029 544.000
55.04024 546.000
55.06019 572.000
55.08013 583.000
55.10008 580.000
55.12003 536.000
55.13997 521.000
55.15992 596.000
55.17987 578.000
55.19982 519.000
55.21976 567.000
55.23971 531.000
55.25966 540.000
55.27960 540.000
55.29955 541.000
55.31950 550.000
55.33944 621.000
55.35939 555.000
55.37934 553.000
55.39929 532.000
55.41923 575.000
55.43918 553.000
55.45913 514.000
55.47907 538.000
55.49902 583.000
55.51897 573.000
55.53891 567.000
55.55886 575.000
55.57881 562.000
55.59875 512.000
55.61870 555.000
55.63865 557.000
55.65860 544.000
55.67854 578.000
55.69849 575.000
55.71844 581.000
55.73838 568.000
55.75833 576.000
55.77828 591.000
55.79822 589.000
55.81817 540.000
55.83812 547.000
55.85807 631.000
55.87801 582.000
55.89796 534.000
55.91791 580.000
55.93785 552.000
55.95780 607.000
55.97775 548.000
55.99769 603.000
56.01764 549.000
56.03759 592.000
56.05753 563.000
56.07748 530.000
56.09743 572.000
56.11738 593.000
56.13732 564.000
56.15727 549.000
56.17722 545.000
56.19716 556.000
56.21711 571.000
56.23706 589.000
56.25700 594.000
56.27695 563.000
56.29690 598.000
56.31685 599.000
56.33679 579.000
56.35674 554.000
56.37669 550.000
56.39663 556.000
56.41658 577.000
56.43653 582.000
56.45647 563.000
56.47642 567.000
56.49637 584.000
56.51631 551.000
56.53626 566.000
56.55621 615.000
56.57616 630.000
56.59610 543.000
56.61605 540.000
56.63600 565.000
56.65594 596.000
56.67589 554.000
56.69584 546.000
56.71578 603.000
56.73573 574.000
56.75568 548.000
56.77563 546.000
56.79557 563.000
56.81552 578.000
56.83547 581.000
56.85541 516.000
56.87536 594.000
56.89531 590.000
56.91525 580.000
56.93520 549.000
56.95515 607.000
56.97510 565.000
56.99504 561.000
57.01499 552.000
57.03494 602.000
57.05488 532.000
57.07483 541.000
57.09478 585.000
57.11472 566.000
57.13467 575.000
57.15462 531.000
57.17456 559.000
57.19451 553.000
57.21446 604.000
57.23441 575.000
57.25435 580.000
57.27430 573.000
57.29425 576.000
57.31419 592.000
57.33414 596.000
57.35409 563.000
57.37403 591.000
57.39398 602.000
57.41393 611.000
57.43388 583.000
57.45382 537.000
57.47377 542.000
57.49372 562.000
57.51366 542.000
57.53361 583.000
57.55356 570.000
57.57350 618.000
57.59345 563.000
57.61340 567.000
57.63334 567.000
57.65329 612.000
57.67324 604.000
57.69319 554.000
57.71313 586.000
57.73308 626.000
57.75303 604.000
57.77297 575.000
57.79292 606.000
57.81287 633.000
57.83281 600.000
57.85276 626.000
57.87271 600.000
57.89266 658.000
57.91260 652.000
57.93255 651.000
57.95250 649.000
57.97244 656.000
57.99239 631.000
58.01234 614.000
58.03228 642.000
58.05223 726.000
58.07218 738.000
58.09212 757.000
58.11207 737.000
58.13202 858.000
58.15197 934.000
58.17191 984.000
58.19186 1048.000
58.21181 1133.000
58.23175 1082.000
58.25170 1086.000
58.27165 1043.000
58.29159 1047.000
58.31154 963.000
58.33149 982.000
58.35144 880.000
58.37138 947.000
58.39133 902.000
58.41128 889.000
58.43122 815.000
58.45117 793.000
58.47112 785.000
58.49106 748.000
58.51101 690.000
58.53096 715.000
58.55090 665.000
58.57085 601.000
58.59080 604.000
58.61075 609.000
58.63069 592.000
58.65064 572.000
58.67059 586.000
58.69053 620.000
58.71048 577.000
58.73043 571.000
58.75037 614.000
58.77032 535.000
58.79027 549.000
58.81022 571.000
58.83016 619.000
58.85011 581.000
58.87006 600.000
58.89000 552.000
58.90995 563.000
58.92990 562.000
58.94984 511.000
58.96979 548.000
58.98974 530.000
59.00969 537.000
59.02963 568.000
59.04958 564.000
59.06953 576.000
59.08947 579.000
59.10942 576.000
59.12937 560.000
59.14931 542.000
59.16926 551.000
59.18921 561.000
59.20915 563.000
59.22910 572.000
59.24905 577.000
59.26900 576.000
59.28894 617.000
59.30889 550.000
59.32884 613.000
59.34878 574.000
59.36873 568.000
59.38868 543.000
59.40862 554.000
59.42857 647.000
59.44852 530.000
59.46847 572.000
59.48841 555.000
59.50836 590.000
59.52831 580.000
59.54825 580.000
59.56820 575.000
59.58815 596.000
59.60809 549.000
59.62804 574.000
59.64799 557.000
59.66793 572.000
59.68788 551.000
59.70783 557.000
59.72778 555.000
59.74772 610.000
59.76767 557.000
59.78762 607.000
59.80756 589.000
59.82751 554.000
59.84746 574.000
59.86740 549.000
59.88735 582.000
59.90730 569.000
59.92725 576.000
59.94719 593.000
59.96714 575.000
59.98709 584.000
60.00703 558.000
60.02698 571.000
60.04693 600.000
60.06687 577.000
60.08682 568.000
60.10677 587.000
60.12671 602.000
60.14666 626.000
60.16661 573.000
60.18656 586.000
60.20650 590.000
60.22645 602.000
60.24640 590.000
60.26634 601.000
60.28629 565.000
60.30624 671.000
60.32618 572.000
60.34613 552.000
60.36608 584.000
60.38603 604.000
60.40597 602.000
60.42592 546.000
60.44587 579.000
60.46581 550.000
60.48576 622.000
60.50571 578.000
60.52565 553.000
60.54560 565.000
60.56555 577.000
60.58550 601.000
60.60544 581.000
60.62539 555.000
60.64534 581.000
60.66528 566.000
60.68523 580.000
60.70518 583.000
60.72512 604.000
60.74507 586.000
60.76502 550.000
60.78496 610.000
60.80491 589.000
60.82486 584.000
60.84481 540.000
60.86475 599.000
60.88470 619.000
60.90465 606.000
60.92459 571.000
60.94454 604.000
60.96449 611.000
60.98443 621.000
61.00438 578.000
61.02433 599.000
61.04428 593.000
61.06422 638.000
61.08417 551.000
61.10412 616.000
61.12406 638.000
61.14401 570.000
61.16396 598.000
61.18390 608.000
61.20385 664.000
61.22380 638.000
61.24374 646.000
61.26369 633.000
61.28364 648.000
61.30359 675.000
61.32353 650.000
61.34348 712.000
61.36343 715.000
61.38337 710.000
61.40332 793.000
61.42327 866.000
61.44321 879.000
61.46316 987.000
61.48311 1090.000
61.50306 1285.000
61.52300 1413.000
61.54295 1367.000
61.56290 1379.000
61.58284 1311.000
61.60279 1214.000
61.62274 1138.000
61.64268 1103.000
61.66263 1082.000
61.68258 1154.000
61.70252 1132.000
61.72247 1123.000
61.74242 1018.000
61.76237 963.000
61.78231 894.000
61.80226 790.000
61.82221 803.000
61.84215 754.000
61.86210 751.000
61.88205 757.000
61.90199 706.000
61.92194 715.000
61.94189 713.000
61.96184 722.000
61.98178 710.000
62.00173 725.000
62.02168 748.000
62.04162 817.000
62.06157 790.000
62.08152 718.000
62.10146 859.000
62.12141 858.000
62.14136 827.000
62.16131 837.000
62.18125 810.000
62.20120 879.000
62.22115 837.000
62.24109 953.000
62.26104 848.000
62.28099 830.000
62.30093 885.000
62.32088 874.000
62.34083 817.000
62.36077 819.000
62.38072 828.000
62.40067 775.000
62.42062 847.000
62.44056 764.000
62.46051 881.000
62.48046 796.000
62.50040 773.000
62.52035 795.000
62.54030 843.000
62.56024 817.000
62.58019 816.000
62.60014 829.000
62.62009 881.000
62.64003 882.000
62.65998 877.000
62.67993 886.000
62.69987 860.000
62.71982 825.000
62.73977 799.000
62.75971 798.000
62.77966 837.000
62.79961 821.000
62.81955 823.000
62.83950 728.000
62.85945 758.000
62.87940 731.000
62.89934 729.000
62.91929 710.000
62.93924 717.000
62.95918 682.000
62.97913 651.000
62.99908 669.000
63.01902 635.000
63.03897 647.000
63.05892 631.000
63.07887 672.000
63.09881 641.000
63.11876 671.000
63.13871 631.000
63.15865 606.000
63.17860 624.000
63.19855 569.000
63.21849 640.000
63.23844 620.000
63.25839 619.000
63.27833 601.000
63.29828 589.000
63.31823 573.000
63.33818 593.000
63.35812 636.000
63.37807 616.000
63.39802 580.000
63.41796 594.000
63.43791 579.000
63.45786 595.000
63.47780 589.000
63.49775 580.000
63.51770 626.000
63.53765 627.000
63.55759 617.000
63.57754 627.000
63.59749 649.000
63.61743 657.000
63.63738 609.000
63.65733 524.000
63.67727 564.000
63.69722 607.000
63.71717 588.000
63.73712 605.000
63.75706 611.000
63.77701 627.000
63.79696 546.000
63.81690 620.000
63.83685 609.000
63.85680 573.000
63.87674 631.000
63.89669 587.000
63.91664 570.000
63.93658 579.000
63.95653 601.000
63.97648 632.000
63.99643 565.000
64.01637 614.000
64.03632 645.000
64.05627 595.000
64.07621 615.000
64.09616 628.000
64.11611 611.000
64.13605 641.000
64.15600 649.000
64.17595 656.000
64.19590 628.000
64.21584 631.000
64.23579 619.000
64.25574 662.000
64.27568 666.000
64.29563 723.000
64.31558 709.000
64.33552 791.000
64.35547 801.000
64.37542 783.000
64.39536 770.000
64.41531 740.000
64.43526 758.000
64.45521 765.000
64.47515 775.000
64.49510 785.000
64.51505 815.000
64.53499 826.000
64.55494 739.000
64.57489 806.000
64.59483 742.000
64.61478 725.000
64.63473 708.000
64.65468 714.000
64.67462 661.000
64.69457 689.000
64.71452 649.000
64.73446 666.000
64.75441 633.000
64.77436 660.000
64.79430 647.000
64.81425 620.000
64.83420 619.000
64.85414 602.000
64.87409 586.000
64.89404 633.000
64.91399 601.000
64.93393 597.000
64.95388 643.000
64.97383 620.000
64.99377 630.000
65.01372 617.000
65.03367 612.000
65.05361 632.000
65.07356 588.000
65.09351 640.000
65.11346 658.000
65.13340 628.000
65.15335 698.000
65.17330 654.000
65.19324 626.000
65.21319 670.000
65.23314 585.000
65.25308 646.000
65.27303 646.000
65.29298 643.000
65.31293 687.000
65.33287 652.000
65.35282 715.000
65.37277 715.000
65.39271 693.000
65.41266 757.000
65.43261 744.000
65.45255 748.000
65.47250 836.000
65.49245 880.000
65.51239 865.000
65.53234 947.000
65.55229 975.000
65.57224 999.000
65.59218 1010.000
65.61213 946.000
65.63208 1029.000
65.65202 1000.000
65.67197 972.000
65.69192 958.000
65.71186 1009.000
65.73181 1074.000
65.75176 1041.000
65.77171 972.000
65.79165 961.000
65.81160 978.000
65.83155 955.000
65.85149 898.000
65.87144 872.000
65.89139 876.000
65.91133 876.000
65.93128 790.000
65.95123 823.000
65.97117 808.000
65.99112 746.000
66.01107 809.000
66.03102 741.000
66.05096 730.000
66.07091 745.000
66.09086 742.000
66.11080 730.000
66.13075 743.000
66.15070 741.000
66.17064 754.000
66.19059 793.000
66.21054 833.000
66.23049 861.000
66.25043 929.000
66.27038 915.000
66.29033 930.000
66.31027 1047.000
66.33022 1120.000
66.35017 1103.000
66.37011 1165.000
66.39006 1185.000
66.41001 1063.000
66.42995 1158.000
66.44990 1123.000
66.46985 991.000
66.48980 973.000
66.50974 959.000
66.52969 1001.000
66.54964 1035.000
66.56958 948.000
66.58953 939.000
66.60948 938.000
66.62942 857.000
66.64937 828.000
66.66932 802.000
66.68927 797.000
66.70921 819.000
66.72916 791.000
66.74911 759.000
66.76905 732.000
66.78900 781.000
66.80895 744.000
66.82889 773.000
66.84884 771.000
66.86879 788.000
66.88874 787.000
66.90868 784.000
66.92863 779.000
66.94858 782.000
66.96852 757.000
66.98847 734.000
67.00842 723.000
67.02836 733.000
67.04831 721.000
67.06826 655.000
67.08820 710.000
67.10815 697.000
67.12810 680.000
67.14805 636.000
67.16799 621.000
67.18794 705.000
67.20789 675.000
67.22783 659.000
67.24778 692.000
67.26773 625.000
67.28767 679.000
67.30762 642.000
67.32757 698.000
67.34752 645.000
67.36746 707.000
67.38741 670.000
67.40736 721.000
67.42730 725.000
67.44725 728.000
67.46720 667.000
67.48714 630.000
67.50709 652.000
67.52704 679.000
67.54698 676.000
67.56693 730.000
67.58688 703.000
67.60683 703.000
67.62677 716.000
67.64672 777.000
67.66667 810.000
67.68661 796.000
67.70656 880.000
67.72651 885.000
67.74645 891.000
67.76640 956.000
67.78635 957.000
67.80630 928.000
67.82624 940.000
67.84619 945.000
67.86614 1027.000
67.88608 1082.000
67.90603 1131.000
67.92598 1212.000
67.94592 1202.000
67.96587 1201.000
67.98582 1156.000
68.00576 1112.000
68.02571 1131.000
68.04566 1066.000
68.06561 1050.000
68.08555 1055.000
68.10550 1073.000
68.12545 1037.000
68.14539 985.000
68.16534 906.000
68.18529 881.000
68.20523 874.000
68.22518 842.000
68.24513 830.000
68.26508 760.000
68.28502 759.000
68.30497 725.000
68.32492 763.000
68.34486 719.000
68.36481 675.000
68.38476 675.000
68.40470 647.000
68.42465 632.000
68.44460 634.000
68.46455 632.000
68.48449 635.000
68.50444 602.000
68.52439 596.000
68.54433 609.000
68.56428 566.000
68.58423 588.000
68.60417 569.000
68.62412 607.000
68.64407 594.000
68.66401 597.000
68.68396 598.000
68.70391 561.000
68.72386 611.000
68.74380 608.000
68.76375 581.000
68.78370 624.000
68.80364 562.000
68.82359 585.000
68.84354 598.000
68.86348 606.000
68.88343 583.000
68.90338 608.000
68.92333 631.000
68.94327 596.000
68.96322 573.000
68.98317 591.000
69.00311 595.000
69.02306 600.000
69.04301 586.000
69.06295 563.000
69.08290 583.000
69.10285 579.000
69.12279 557.000
69.14274 581.000
69.16269 585.000
69.18264 586.000
69.20258 571.000
69.22253 575.000
69.24248 583.000
69.26242 609.000
69.28237 566.000
69.30232 548.000
69.32226 604.000
69.34221 562.000
69.36216 592.000
69.38211 553.000
69.40205 564.000
69.42200 571.000
69.44195 542.000
69.46189 530.000
69.48184 573.000
69.50179 542.000
69.52173 584.000
69.54168 546.000
69.56163 593.000
69.58157 559.000
69.60152 580.000
69.62147 557.000
69.64142 514.000
69.66136 554.000
69.68131 602.000
69.70126 549.000
69.72120 560.000
69.74115 581.000
69.76110 604.000
69.78104 533.000
69.80099 570.000
69.82094 573.000
69.84089 556.000
69.86083 552.000
69.88078 570.000
69.90073 589.000
69.92067 597.000
69.94062 565.000
69.96057 540.000
69.98051 539.000
70.00046 591.000
70.02041 544.000
70.04035 540.000
70.06030 555.000
70.08025 519.000
70.10020 522.000
70.12014 607.000
70.14009 536.000
70.16004 548.000
70.17998 558.000
70.19993 560.000
70.21988 540.000
70.23982 554.000
70.25977 540.000
70.27972 609.000
70.29967 580.000
70.31961 581.000
70.33956 549.000
70.35951 558.000
70.37945 556.000
70.39940 582.000
70.41935 547.000
70.43929 551.000
70.45924 541.000
70.47919 543.000
70.49914 550.000
70.51908 513.000
70.53903 587.000
70.55898 543.000
70.57892 595.000
70.59887 621.000
70.61882 545.000
70.63876 550.000
70.65871 543.000
70.67866 517.000
70.69860 555.000
70.71855 595.000
70.73850 527.000
70.75845 509.000
70.77839 569.000
70.79834 563.000
70.81829 525.000
70.83823 568.000
70.85818 622.000
70.87813 561.000
70.89807 576.000
70.91802 581.000
70.93797 559.000
70.95792 527.000
70.97786 585.000
70.99781 571.000
71.01776 551.000
71.03770 585.000
71.05765 501.000
71.07760 547.000
71.09754 596.000
71.11749 583.000
71.13744 537.000
71.15738 555.000
71.17733 554.000
71.19728 584.000
71.21723 602.000
71.23717 586.000
71.25712 572.000
71.27707 562.000
71.29701 536.000
71.31696 628.000
71.33691 526.000
71.35685 561.000
71.37680 550.000
71.39675 637.000
71.41670 575.000
71.43664 573.000
71.45659 547.000
71.47654 579.000
71.49648 542.000
71.51643 567.000
71.53638 537.000
71.55632 582.000
71.57627 574.000
71.59622 545.000
71.61616 553.000
71.63611 586.000
71.65606 569.000
71.67601 581.000
71.69595 570.000
71.71590 582.000
71.73585 548.000
71.75579 604.000
71.77574 519.000
71.79569 684.000
71.81563 615.000
71.83558 583.000
71.85553 574.000
71.87548 569.000
71.89542 587.000
71.91537 586.000
71.93532 593.000
71.95526 613.000
71.97521 590.000
71.99516 619.000
72.01510 564.000
72.03505 605.000
72.05500 573.000
72.07495 548.000
72.09489 547.000
72.11484 639.000
72.13479 636.000
72.15473 580.000
72.17468 594.000
72.19463 607.000
72.21457 649.000
72.23452 620.000
72.25447 666.000
72.27441 705.000
72.29436 665.000
72.31431 767.000
72.33426 748.000
72.35420 777.000
72.37415 748.000
72.39410 771.000
72.41404 826.000
72.43399 774.000
72.45394 737.000
72.47388 724.000
72.49383 756.000
72.51378 709.000
72.53373 726.000
72.55367 724.000
72.57362 703.000
72.59357 719.000
72.61351 730.000
72.63346 686.000
72.65341 712.000
72.67335 673.000
72.69330 599.000
72.71325 639.000
72.73319 621.000
72.75314 616.000
72.77309 586.000
72.79304 563.000
72.81298 581.000
72.83293 575.000
72.85288 609.000
72.87282 599.000
72.89277 590.000
72.91272 561.000
72.93266 582.000
72.95261 608.000
72.97256 595.000
72.99251 580.000
73.01245 586.000
73.03240 556.000
73.05235 629.000
73.07229 543.000
73.09224 550.000
73.11219 583.000
73.13213 541.000
73.15208 550.000
73.17203 616.000
73.19197 555.000
73.21192 607.000
73.23187 588.000
73.25182 596.000
73.27176 519.000
73.29171 601.000
73.31166 562.000
73.33160 586.000
73.35155 579.000
73.37150 574.000
73.39144 549.000
73.41139 596.000
73.43134 611.000
73.45129 564.000
73.47123 594.000
73.49118 577.000
73.51113 545.000
73.53107 615.000
73.55102 602.000
73.57097 600.000
73.59091 583.000
73.61086 595.000
73.63081 574.000
73.65076 552.000
73.67070 612.000
73.69065 596.000
73.71060 585.000
73.73054 629.000
73.75049 611.000
73.77044 597.000
73.79038 682.000
73.81033 632.000
73.83028 633.000
73.85022 587.000
73.87017 604.000
73.89012 618.000
73.91007 680.000
73.93001 603.000
73.94996 624.000
73.96991 582.000
73.98985 611.000
74.00980 636.000
74.02975 605.000
74.04969 587.000
74.06964 592.000
74.08959 597.000
74.10954 624.000
74.12948 625.000
74.14943 608.000
74.16938 564.000
74.18932 614.000
74.20927 579.000
74.22922 572.000
74.24916 569.000
74.26911 581.000
74.28906 655.000
74.30900 618.000
74.32895 607.000
74.34890 564.000
74.36885 592.000
74.38879 600.000
74.40874 555.000
74.42869 606.000
74.44863 582.000
74.46858 611.000
74.48853 609.000
74.50847 591.000
74.52842 575.000
74.54837 603.000
74.56832 590.000
74.58826 619.000
74.60821 595.000
74.62816 603.000
74.64810 657.000
74.66805 632.000
74.68800 617.000
74.70794 615.000
74.72789 635.000
74.74784 626.000
74.76778 647.000
74.78773 650.000
74.80768 672.000
74.82763 695.000
74.84757 714.000
74.86752 760.000
74.88747 812.000
74.90741 864.000
74.92736 866.000
74.94731 943.000
74.96725 888.000
74.98720 830.000
75.00715 880.000
75.02710 823.000
75.04704 830.000
75.06699 837.000
75.08694 826.000
75.10688 790.000
75.12683 894.000
75.14678 935.000
75.16672 911.000
75.18667 921.000
75.20662 926.000
75.22657 911.000
75.24651 881.000
75.26646 866.000
75.28641 820.000
75.30635 760.000
75.32630 801.000
75.34625 799.000
75.36619 846.000
75.38614 770.000
75.40609 758.000
75.42603 787.000
75.44598 695.000
75.46593 715.000
75.48588 698.000
75.50582 616.000
75.52577 636.000
75.54572 652.000
75.56566 654.000
75.58561 596.000
75.60556 647.000
75.62550 608.000
75.64545 641.000
75.66540 601.000
75.68535 614.000
75.70529 675.000
75.72524 585.000
75.74519 603.000
75.76513 611.000
75.78508 609.000
75.80503 571.000
75.82497 606.000
75.84492 573.000
75.86487 594.000
75.88481 569.000
75.90476 569.000
75.92471 599.000
75.94466 594.000
75.96460 602.000
75.98455 613.000
76.00450 582.000
76.02444 582.000
76.04439 601.000
76.06434 590.000
76.08428 594.000
76.10423 602.000
76.12418 589.000
76.14413 608.000
76.16407 597.000
76.18402 550.000
76.20397 554.000
76.22391 572.000
76.24386 595.000
76.26381 567.000
76.28375 579.000
76.30370 581.000
76.32365 589.000
76.34359 613.000
76.36354 598.000
76.38349 553.000
76.40344 557.000
76.42338 602.000
76.44333 612.000
76.46328 562.000
76.48322 614.000
76.50317 564.000
76.52312 575.000
76.54306 555.000
76.56301 609.000
76.58296 563.000
76.60291 579.000
76.62285 548.000
76.64280 592.000
76.66275 551.000
76.68269 577.000
76.70264 590.000
76.72259 573.000
76.74253 542.000
76.76248 565.000
76.78243 552.000
76.80238 544.000
76.82232 594.000
76.84227 540.000
76.86222 601.000
76.88216 511.000
76.90211 569.000
76.92206 567.000
76.94200 560.000
76.96195 632.000
76.98190 554.000
77.00184 560.000
77.02179 594.000
77.04174 590.000
77.06169 548.000
77.08163 536.000
77.10158 604.000
77.12153 570.000
77.14147 590.000
77.16142 514.000
77.18137 556.000
77.20131 563.000
77.22126 544.000
77.24121 564.000
77.26116 521.000
77.28110 546.000
77.30105 549.000
77.32100 574.000
77.34094 594.000
77.36089 583.000
77.38084 596.000
77.40078 576.000
77.42073 526.000
77.44068 544.000
77.46062 553.000
77.48057 599.000
77.50052 508.000
77.52047 558.000
77.54041 594.000
77.56036 577.000
77.58031 567.000
77.60025 556.000
77.62020 604.000
77.64015 563.000
77.66009 558.000
77.68004 563.000
77.69999 553.000
77.71994 557.000
77.73988 570.000
77.75983 598.000
77.77978 537.000
77.79972 529.000
77.81967 588.000
77.83962 554.000
77.85956 585.000
77.87951 553.000
77.89946 532.000
77.91940 595.000
77.93935 558.000
77.95930 612.000
77.97925 557.000
77.99919 593.000
78.01914 569.000
78.03909 581.000
78.05903 583.000
78.07898 600.000
78.09893 636.000
78.11887 613.000
78.13882 613.000
78.15877 626.000
78.17872 601.000
78.19866 622.000
78.21861 602.000
78.23856 617.000
78.25850 649.000
78.27845 645.000
78.29840 624.000
78.31834 632.000
78.33829 678.000
78.35824 686.000
78.37819 652.000
78.39813 646.000
78.41808 667.000
78.43803 637.000
78.45797 644.000
78.47792 666.000
78.49787 679.000
78.51781 647.000
78.53776 600.000
78.55771 638.000
78.57765 652.000
78.59760 619.000
78.61755 655.000
78.63750 601.000
78.65744 609.000
78.67739 628.000
78.69734 581.000
78.71728 618.000
78.73723 621.000
78.75718 615.000
78.77712 642.000
78.79707 643.000
78.81702 604.000
78.83697 587.000
78.85691 594.000
78.87686 632.000
78.89681 628.000
78.91675 621.000
78.93670 641.000
78.95665 614.000
78.97659 636.000
78.99654 660.000
79.01649 580.000
79.03643 590.000
79.05638 543.000
79.07633 700.000
79.09628 642.000
79.11622 678.000
79.13617 612.000
79.15612 636.000
79.17606 652.000
79.19601 608.000
79.21596 614.000
79.23590 619.000
79.25585 607.000
79.27580 575.000
79.29575 638.000
79.31569 596.000
79.33564 573.000
79.35559 639.000
79.37553 636.000
79.39548 611.000
79.41543 633.000
79.43537 566.000
79.45532 571.000
79.47527 577.000
79.49521 601.000
79.51516 592.000
79.53511 558.000
79.55506 564.000
79.57500 549.000
79.59495 577.000
79.61490 589.000
79.63484 602.000
79.65479 612.000
79.67474 603.000
79.69468 592.000
79.71463 591.000
79.73458 557.000
79.75453 566.000
79.77447 575.000
79.79442 557.000
79.81437 571.000
79.83431 557.000
79.85426 560.000
79.87421 546.000
79.89415 554.000
79.91410 523.000
79.93405 588.000
79.95399 557.000
79.97394 573.000
79.99389 564.000
80.01384 552.000
80.03378 535.000
80.05373 552.000
80.07368 536.000
80.09362 561.000
80.11357 577.000
80.13352 589.000
80.15346 585.000
80.17341 582.000
80.19336 587.000
80.21331 593.000
80.23325 584.000
80.25320 613.000
80.27315 652.000
80.29309 617.000
80.31304 673.000
80.33299 662.000
80.35293 654.000
80.37288 660.000
80.39283 626.000
80.41278 643.000
80.43272 630.000
80.45267 596.000
80.47262 576.000
80.49256 586.000
80.51251 555.000
80.53246 608.000
80.55240 612.000
80.57235 634.000
80.59230 598.000
80.61224 613.000
80.63219 617.000
80.65214 603.000
80.67209 550.000
80.69203 581.000
80.71198 598.000
80.73193 583.000
80.75187 554.000
80.77182 591.000
80.79177 577.000
80.81171 558.000
80.83166 524.000
80.85161 548.000
80.87156 555.000
80.89150 570.000
80.91145 620.000
80.93140 592.000
80.95134 590.000
80.97129 536.000
80.99124 586.000
81.01118 582.000
81.03113 551.000
81.05108 559.000
81.07102 563.000
81.09097 586.000
81.11092 585.000
81.13087 585.000
81.15081 541.000
81.17076 583.000
81.19071 565.000
81.21065 587.000
81.23060 573.000
81.25055 522.000
81.27049 594.000
81.29044 570.000
81.31039 572.000
81.33034 578.000
81.35028 556.000
81.37023 554.000
81.39018 556.000
81.41012 548.000
81.43007 589.000
81.45002 574.000
81.46996 593.000
81.48991 548.000
81.50986 539.000
81.52980 529.000
81.54975 591.000
81.56970 560.000
81.58965 536.000
81.60959 574.000
81.62954 535.000
81.64949 574.000
81.66943 553.000
81.68938 558.000
81.70933 576.000
81.72927 563.000
81.74922 553.000
81.76917 576.000
81.78912 570.000
81.80906 558.000
81.82901 559.000
81.84896 605.000
81.86890 544.000
81.88885 569.000
81.90880 578.000
81.92874 599.000
81.94869 559.000
81.96864 565.000
81.98859 569.000
82.00853 576.000
82.02848 593.000
82.04843 562.000
82.06837 631.000
82.08832 570.000
82.10827 643.000
82.12821 591.000
82.14816 598.000
82.16811 569.000
82.18805 555.000
82.20800 565.000
82.22795 538.000
82.24790 586.000
82.26784 570.000
82.28779 600.000
82.30774 602.000
82.32768 571.000
82.34763 572.000
82.36758 621.000
82.38752 651.000
82.40747 588.000
82.42742 604.000
82.44737 666.000
82.46731 645.000
82.48726 702.000
82.50721 656.000
82.52715 698.000
82.54710 694.000
82.56705 733.000
82.58699 726.000
82.60694 754.000
82.62689 710.000
82.64683 712.000
82.66678 719.000
82.68673 703.000
82.70668 730.000
82.72662 715.000
82.74657 700.000
82.76652 791.000
82.78646 725.000
82.80641 735.000
82.82636 745.000
82.84630 701.000
82.86625 751.000
82.88620 708.000
82.90615 680.000
82.92609 723.000
82.94604 664.000
82.96599 704.000
82.98593 724.000
83.00588 709.000
83.02583 666.000
83.04577 711.000
83.06572 628.000
83.08567 658.000
83.10561 647.000
83.12556 606.000
83.14551 630.000
83.16546 643.000
83.18540 634.000
83.20535 645.000
83.22530 596.000
83.24524 584.000
83.26519 613.000
83.28514 618.000
83.30508 584.000
83.32503 603.000
83.34498 605.000
83.36493 615.000
83.38487 649.000
83.40482 608.000
83.42477 635.000
83.44471 592.000
83.46466 590.000
83.48461 597.000
83.50455 612.000
83.52450 627.000
83.54445 616.000
83.56440 635.000
83.58434 622.000
83.60429 609.000
83.62424 622.000
83.64418 700.000
83.66413 638.000
83.68408 623.000
83.70402 654.000
83.72397 621.000
83.74392 629.000
83.76386 609.000
83.78381 643.000
83.80376 678.000
83.82371 679.000
83.84365 689.000
83.86360 683.000
83.88355 655.000
83.90349 616.000
83.92344 583.000
83.94339 628.000
83.96333 597.000
83.98328 638.000
84.00323 667.000
84.02318 638.000
84.04312 631.000
84.06307 640.000
84.08302 647.000
84.10296 617.000
84.12291 607.000
84.14286 580.000
84.16280 585.000
84.18275 589.000
84.20270 604.000
84.22264 588.000
84.24259 579.000
84.26254 587.000
84.28249 578.000
84.30243 576.000
84.32238 550.000
84.34233 630.000
84.36227 614.000
84.38222 626.000
84.40217 567.000
84.42211 578.000
84.44206 548.000
84.46201 583.000
84.48196 577.000
84.50190 588.000
84.52185 586.000
84.54180 561.000
84.56174 604.000
84.58169 605.000
84.60164 584.000
84.62158 585.000
84.64153 571.000
84.66148 533.000
84.68142 531.000
84.70137 576.000
84.72132 602.000
84.74127 549.000
84.76121 593.000
84.78116 636.000
84.80111 581.000
84.82105 597.000
84.84100 567.000
84.86095 568.000
84.88089 628.000
84.90084 598.000
84.92079 580.000
84.94074 571.000
84.96068 601.000
84.98063 628.000
85.00058 647.000
85.02052 575.000
85.04047 621.000
85.06042 623.000
85.08036 642.000
85.10031 596.000
85.12026 581.000
85.14021 592.000
85.16015 603.000
85.18010 558.000
85.20005 602.000
85.21999 606.000
85.23994 600.000
85.25989 589.000
85.27983 539.000
85.29978 590.000
85.31973 579.000
85.33967 516.000
85.35962 604.000
85.37957 559.000
85.39952 568.000
85.41946 537.000
85.43941 618.000
85.45936 619.000
85.47930 571.000
85.49925 575.000
85.51920 545.000
85.53914 597.000
85.55909 571.000
85.57904 588.000
85.59899 607.000
85.61893 601.000
85.63888 526.000
85.65883 566.000
85.67877 590.000
85.69872 572.000
85.71867 602.000
85.73861 598.000
85.75856 553.000
85.77851 540.000
85.79845 540.000
85.81840 552.000
85.83835 584.000
85.85830 531.000
85.87824 542.000
85.89819 574.000
85.91814 542.000
85.93808 573.000
85.95803 538.000
85.97798 565.000
85.99792 588.000
86.01787 579.000
86.03782 572.000
86.05777 566.000
86.07771 567.000
86.09766 533.000
86.11761 568.000
86.13755 546.000
86.15750 610.000
86.17745 590.000
86.19739 563.000
86.21734 564.000
86.23729 536.000
86.25723 553.000
86.27718 543.000
86.29713 543.000
86.31708 562.000
86.33702 551.000
86.35697 618.000
86.37692 578.000
86.39686 536.000
86.41681 582.000
86.43676 555.000
86.45670 590.000
86.47665 548.000
86.49660 562.000
86.51655 582.000
86.53649 584.000
86.55644 567.000
86.57639 600.000
86.59633 643.000
86.61628 588.000
86.63623 570.000
86.65617 607.000
86.67612 610.000
86.69607 594.000
86.71602 567.000
86.73596 600.000
86.75591 619.000
86.77586 592.000
86.79580 616.000
86.81575 596.000
86.83570 588.000
86.85564 578.000
86.87559 568.000
86.89554 598.000
86.91548 585.000
86.93543 619.000
86.95538 614.000
86.97533 603.000
86.99527 594.000
87.01522 577.000
87.03517 614.000
87.05511 609.000
87.07506 655.000
87.09501 631.000
87.11495 654.000
87.13490 617.000
87.15485 622.000
87.17480 627.000
87.19474 597.000
87.21469 603.000
87.23464 611.000
87.25458 584.000
87.27453 605.000
87.29448 612.000
87.31442 549.000
87.33437 578.000
87.35432 615.000
87.37426 630.000
87.39421 612.000
87.41416 610.000
87.43411 566.000
87.45405 626.000
87.47400 590.000
87.49395 637.000
87.51389 588.000
87.53384 569.000
87.55379 588.000
87.57373 587.000
87.59368 586.000
87.61363 557.000
87.63358 628.000
87.65352 555.000
87.67347 573.000
87.69342 522.000
87.71336 623.000
87.73331 594.000
87.75326 595.000
87.77320 603.000
87.79315 587.000
87.81310 622.000
87.83304 597.000
87.85299 576.000
87.87294 581.000
87.89289 598.000
87.91283 595.000
87.93278 572.000
87.95273 588.000
87.97267 570.000
87.99262 565.000
88.01257 554.000
88.03251 571.000
88.05246 613.000
88.07241 640.000
88.09236 588.000
88.11230 592.000
88.13225 588.000
88.15220 577.000
88.17214 545.000
88.19209 578.000
88.21204 534.000
88.23198 578.000
88.25193 561.000
88.27188 597.000
88.29183 573.000
88.31177 645.000
88.33172 571.000
88.35167 566.000
88.37161 561.000
88.39156 630.000
88.41151 580.000
88.43145 549.000
88.45140 597.000
88.47135 564.000
88.49129 559.000
88.51124 580.000
88.53119 577.000
88.55114 566.000
88.57108 573.000
88.59103 580.000
88.61098 555.000
88.63092 610.000
88.65087 560.000
88.67082 571.000
88.69076 589.000
88.71071 578.000
88.73066 597.000
88.75061 551.000
88.77055 594.000
88.79050 584.000
88.81045 621.000
88.83039 631.000
88.85034 566.000
88.87029 631.000
88.89023 542.000
88.91018 554.000
88.93013 601.000
88.95007 573.000
88.97002 566.000
88.98997 589.000
89.00992 601.000
89.02986 601.000
89.04981 590.000
89.06976 537.000
89.08970 571.000
89.10965 602.000
89.12960 627.000
89.14954 586.000
89.16949 605.000
89.18944 607.000
89.20939 589.000
89.22933 628.000
89.24928 631.000
89.26923 667.000
89.28917 622.000
89.30912 663.000
89.32907 623.000
89.34901 625.000
89.36896 640.000
89.38891 625.000
89.40885 596.000
89.42880 645.000
89.44875 627.000
89.46870 609.000
89.48864 585.000
89.50859 659.000
89.52854 637.000
89.54848 662.000
89.56843 655.000
89.58838 626.000
89.60832 617.000
89.62827 651.000
89.64822 639.000
89.66817 659.000
89.68811 653.000
89.70806 674.000
89.72801 633.000
89.74795 580.000
89.76790 662.000
89.78785 611.000
89.80779 597.000
89.82774 592.000
89.84769 659.000
89.86764 646.000
89.88758 589.000
89.90753 642.000
89.92748 600.000
89.94742 595.000
89.96737 574.000
89.98732 580.000
90.00726 551.000
