10.00000 100.000
10.01995 85.000
10.03989 60.000
10.05984 69.000
10.07979 81.000
10.09973 87.000
10.11968 86.000
10.13963 87.000
10.15958 79.000
10.17952 83.000
10.19947 74.000
10.21942 93.000
10.23936 69.000
10.25931 64.000
10.27926 80.000
10.29920 80.000
10.31915 77.000
10.33910 96.000
10.35905 74.000
10.37899 88.000
10.39894 85.000
10.41889 78.000
10.43883 83.000
10.45878 85.000
10.47873 87.000
10.49867 78.000
10.51862 95.000
10.53857 77.000
10.55851 93.000
10.57846 65.000
10.59841 77.000
10.61836 73.000
10.63830 78.000
10.65825 100.000
10.67820 75.000
10.69814 69.000
10.71809 86.000
10.73804 74.000
10.75798 95.000
10.77793 88.000
10.79788 89.000
10.81783 64.000
10.83777 91.000
10.85772 89.000
10.87767 98.000
10.89761 84.000
10.91756 101.000
10.93751 75.000
10.95745 68.000
10.97740 90.000
10.99735 63.000
11.01730 65.000
11.03724 71.000
11.05719 70.000
11.07714 71.000
11.09708 81.000
11.11703 80.000
11.13698 62.000
11.15692 72.000
11.17687 68.000
11.19682 100.000
11.21676 82.000
11.23671 82.000
11.25666 86.000
11.27661 98.000
11.29655 84.000
11.31650 74.000
11.33645 80.000
11.35639 61.000
11.37634 79.000
11.39629 84.000
11.41623 84.000
11.43618 80.000
11.45613 84.000
11.47608 82.000
11.49602 93.000
11.51597 73.000
11.53592 76.000
11.55586 70.000
11.57581 77.000
11.59576 90.000
11.61570 70.000
11.63565 81.000
11.65560 70.000
11.67554 83.000
11.69549 60.000
11.71544 69.000
11.73539 77.000
11.75533 81.000
11.77528 83.000
11.79523 79.000
11.81517 81.000
11.83512 91.000
11.85507 85.000
11.87501 91.000
11.89496 78.000
11.91491 85.000
11.93486 87.000
11.95480 76.000
11.97475 75.000
11.99470 84.000
12.01464 66.000
12.03459 71.000
12.05454 85.000
12.07448 63.000
12.09443 81.000
12.11438 95.000
12.13432 73.000
12.15427 78.000
12.17422 92.000
12.19417 77.000
12.21411 81.000
12.23406 82.000
12.25401 78.000
12.27395 71.000
12.29390 81.000
12.31385 86.000
12.33379 78.000
12.35374 73.000
12.37369 88.000
12.39364 56.000
12.41358 86.000
12.43353 69.000
12.45348 76.000
12.47342 72.000
12.49337 74.000
12.51332 86.000
12.53326 75.000
12.55321 86.000
12.57316 81.000
12.59311 73.000
12.61305 81.000
12.63300 76.000
12.65295 60.000
12.67289 82.000
12.69284 87.000
12.71279 96.000
12.73273 65.000
12.75268 84.000
12.77263 68.000
12.79257 71.000
12.81252 91.000
12.83247 85.000
12.85242 88.000
12.87236 73.000
12.89231 92.000
12.91226 79.000
12.93220 69.000
12.95215 74.000
12.97210 91.000
12.99204 67.000
13.01199 82.000
13.03194 90.000
13.05189 76.000
13.07183 75.000
13.09178 83.000
13.11173 79.000
13.13167 81.000
13.15162 84.000
13.17157 65.000
13.19151 79.000
13.21146 61.000
13.23141 85.000
13.25135 78.000
13.27130 66.000
13.29125 75.000
13.31120 65.000
13.33114 82.000
13.35109 98.000
13.37104 88.000
13.39098 79.000
13.41093 87.000
13.43088 83.000
13.45082 81.000
13.47077 72.000
13.49072 71.000
13.51067 84.000
13.53061 92.000
13.55056 81.000
13.57051 87.000
13.59045 73.000
13.61040 72.000
13.63035 87.000
13.65029 85.000
13.67024 83.000
13.69019 74.000
13.71013 91.000
13.73008 75.000
13.75003 87.000
13.76998 75.000
13.78992 85.000
13.80987 67.000
13.82982 72.000
13.84976 89.000
13.86971 62.000
13.88966 90.000
13.90960 77.000
13.92955 81.000
13.94950 98.000
13.96945 74.000
13.98939 61.000
14.00934 88.000
14.02929 79.000
14.04923 83.000
14.06918 70.000
14.08913 84.000
14.10907 82.000
14.12902 86.000
14.14897 84.000
14.16892 81.000
14.18886 80.000
14.20881 92.000
14.22876 81.000
14.24870 83.000
14.26865 81.000
14.28860 77.000
14.30854 79.000
14.32849 60.000
14.34844 102.000
14.36838 75.000
14.38833 70.000
14.40828 73.000
14.42823 75.000
14.44817 63.000
14.46812 87.000
14.48807 72.000
14.50801 82.000
14.52796 96.000
14.54791 100.000
14.56785 103.000
14.58780 80.000
14.60775 88.000
14.62770 69.000
14.64764 57.000
14.66759 99.000
14.68754 90.000
14.70748 62.000
14.72743 75.000
14.74738 79.000
14.76732 92.000
14.78727 83.000
14.80722 92.000
14.82716 93.000
14.84711 69.000
14.86706 82.000
14.88701 91.000
14.90695 104.000
14.92690 79.000
14.94685 99.000
14.96679 70.000
14.98674 88.000
15.00669 85.000
15.02663 67.000
15.04658 68.000
15.06653 85.000
15.08648 82.000
15.10642 90.000
15.12637 103.000
15.14632 87.000
15.16626 70.000
15.18621 80.000
15.20616 90.000
15.22610 66.000
15.24605 80.000
15.26600 82.000
15.28594 95.000
15.30589 79.000
15.32584 79.000
15.34579 83.000
15.36573 80.000
15.38568 76.000
15.40563 92.000
15.42557 78.000
15.44552 72.000
15.46547 93.000
15.48541 90.000
15.50536 81.000
15.52531 76.000
15.54526 86.000
15.56520 84.000
15.58515 90.000
15.60510 84.000
15.62504 104.000
15.64499 98.000
15.66494 94.000
15.68488 97.000
15.70483 107.000
15.72478 122.000
15.74472 115.000
15.76467 132.000
15.78462 127.000
15.80457 143.000
15.82451 153.000
15.84446 169.000
15.86441 160.000
15.88435 151.000
15.90430 115.000
15.92425 131.000
15.94419 105.000
15.96414 106.000
15.98409 116.000
16.00404 106.000
16.02398 125.000
16.04393 153.000
16.06388 144.000
16.08382 161.000
16.10377 181.000
16.12372 197.000
16.14366 221.000
16.16361 240.000
16.18356 247.000
16.20351 261.000
16.22345 298.000
16.24340 287.000
16.26335 380.000
16.28329 394.000
16.30324 478.000
16.32319 493.000
16.34313 559.000
16.36308 632.000
16.38303 791.000
16.40297 979.000
16.42292 1193.000
16.44287 1570.000
16.46282 2123.000
16.48276 2651.000
16.50271 3102.000
16.52266 2951.000
16.54260 2340.000
16.56255 1684.000
16.58250 1045.000
16.60244 720.000
16.62239 410.000
16.64234 343.000
16.66229 270.000
16.68223 192.000
16.70218 208.000
16.72213 171.000
16.74207 170.000
16.76202 178.000
16.78197 151.000
16.80191 153.000
16.82186 125.000
16.84181 137.000
16.86175 153.000
16.88170 142.000
16.90165 138.000
16.92160 115.000
16.94154 99.000
16.96149 136.000
16.98144 136.000
17.00138 113.000
17.02133 107.000
17.04128 111.000
17.06122 130.000
17.08117 111.000
17.10112 126.000
17.12107 94.000
17.14101 103.000
17.16096 116.000
17.18091 108.000
17.20085 106.000
17.22080 96.000
17.24075 118.000
17.26069 94.000
17.28064 96.000
17.30059 106.000
17.32053 101.000
17.34048 95.000
17.36043 111.000
17.38038 111.000
17.40032 106.000
17.42027 82.000
17.44022 82.000
17.46016 87.000
17.48011 102.000
17.50006 77.000
17.52000 85.000
17.53995 79.000
17.55990 89.000
17.57985 85.000
17.59979 62.000
17.61974 79.000
17.63969 86.000
17.65963 76.000
17.67958 75.000
17.69953 67.000
17.71947 67.000
17.73942 75.000
17.75937 81.000
17.77932 93.000
17.79926 61.000
17.81921 80.000
17.83916 87.000
17.85910 89.000
17.87905 90.000
17.89900 75.000
17.91894 69.000
17.93889 78.000
17.95884 86.000
17.97878 66.000
17.99873 66.000
18.01868 75.000
18.03863 90.000
18.05857 69.000
18.07852 88.000
18.09847 62.000
18.11841 67.000
18.13836 72.000
18.15831 72.000
18.17825 70.000
18.19820 71.000
18.21815 75.000
18.23810 76.000
18.25804 83.000
18.27799 94.000
18.29794 101.000
18.31788 98.000
18.33783 123.000
18.35778 126.000
18.37772 138.000
18.39767 148.000
18.41762 147.000
18.43756 132.000
18.45751 119.000
18.47746 109.000
18.49741 77.000
18.51735 68.000
18.53730 72.000
18.55725 77.000
18.57719 82.000
18.59714 82.000
18.61709 80.000
18.63703 94.000
18.65698 97.000
18.67693 88.000
18.69688 84.000
18.71682 80.000
18.73677 76.000
18.75672 84.000
18.77666 74.000
18.79661 78.000
18.81656 76.000
18.83650 82.000
18.85645 76.000
18.87640 75.000
18.89634 70.000
18.91629 85.000
18.93624 75.000
18.95619 71.000
18.97613 71.000
18.99608 71.000
19.01603 77.000
19.03597 67.000
19.05592 85.000
19.07587 83.000
19.09581 76.000
19.11576 70.000
19.13571 67.000
19.15566 66.000
19.17560 80.000
19.19555 73.000
19.21550 83.000
19.23544 101.000
19.25539 66.000
19.27534 61.000
19.29528 70.000
19.31523 63.000
19.33518 80.000
19.35513 75.000
19.37507 82.000
19.39502 75.000
19.41497 87.000
19.43491 69.000
19.45486 78.000
19.47481 86.000
19.49475 73.000
19.51470 79.000
19.53465 68.000
19.55459 66.000
19.57454 75.000
19.59449 82.000
19.61444 69.000
19.63438 71.000
19.65433 72.000
19.67428 79.000
19.69422 81.000
19.71417 93.000
19.73412 78.000
19.75406 76.000
19.77401 84.000
19.79396 80.000
19.81391 74.000
19.83385 80.000
19.85380 77.000
19.87375 78.000
19.89369 74.000
19.91364 77.000
19.93359 95.000
19.95353 109.000
19.97348 138.000
19.99343 126.000
20.01337 145.000
20.03332 170.000
20.05327 177.000
20.07322 210.000
20.09316 186.000
20.11311 202.000
20.13306 156.000
20.15300 145.000
20.17295 134.000
20.19290 111.000
20.21284 108.000
20.23279 93.000
20.25274 106.000
20.27269 104.000
20.29263 99.000
20.31258 110.000
20.33253 104.000
20.35247 93.000
20.37242 84.000
20.39237 93.000
20.41231 97.000
20.43226 88.000
20.45221 119.000
20.47215 146.000
20.49210 159.000
20.51205 148.000
20.53200 194.000
20.55194 183.000
20.57189 219.000
20.59184 216.000
20.61178 257.000
20.63173 286.000
20.65168 379.000
20.67162 376.000
20.69157 346.000
20.71152 333.000
20.73147 353.000
20.75141 317.000
20.77136 286.000
20.79131 260.000
20.81125 230.000
20.83120 274.000
20.85115 236.000
20.87109 199.000
20.89104 180.000
20.91099 181.000
20.93094 159.000
20.95088 153.000
20.97083 129.000
20.99078 97.000
21.01072 111.000
21.03067 94.000
21.05062 91.000
21.07056 95.000
21.09051 81.000
21.11046 87.000
21.13040 77.000
21.15035 95.000
21.17030 75.000
21.19025 82.000
21.21019 85.000
21.23014 110.000
21.25009 92.000
21.27003 73.000
21.28998 75.000
21.30993 77.000
21.32987 79.000
21.34982 85.000
21.36977 67.000
21.38972 60.000
21.40966 75.000
21.42961 82.000
21.44956 65.000
21.46950 71.000
21.48945 83.000
21.50940 70.000
21.52934 85.000
21.54929 84.000
21.56924 70.000
21.58918 79.000
21.60913 90.000
21.62908 85.000
21.64903 71.000
21.66897 68.000
21.68892 86.000
21.70887 59.000
21.72881 67.000
21.74876 79.000
21.76871 63.000
21.78865 79.000
21.80860 54.000
21.82855 74.000
21.84850 75.000
21.86844 84.000
21.88839 80.000
21.90834 70.000
21.92828 77.000
21.94823 70.000
21.96818 84.000
21.98812 84.000
22.00807 84.000
22.02802 90.000
22.04796 104.000
22.06791 100.000
22.08786 73.000
22.10781 77.000
22.12775 68.000
22.14770 67.000
22.16765 86.000
22.18759 66.000
22.20754 72.000
22.22749 85.000
22.24743 86.000
22.26738 65.000
22.28733 76.000
22.30728 82.000
22.32722 72.000
22.34717 75.000
22.36712 83.000
22.38706 73.000
22.40701 79.000
22.42696 82.000
22.44690 77.000
22.46685 88.000
22.48680 77.000
22.50675 74.000
22.52669 82.000
22.54664 71.000
22.56659 98.000
22.58653 72.000
22.60648 81.000
22.62643 80.000
22.64637 75.000
22.66632 88.000
22.68627 86.000
22.70621 65.000
22.72616 70.000
22.74611 79.000
22.76606 62.000
22.78600 78.000
22.80595 80.000
22.82590 83.000
22.84584 72.000
22.86579 69.000
22.88574 89.000
22.90568 63.000
22.92563 71.000
22.94558 81.000
22.96553 73.000
22.98547 76.000
23.00542 66.000
23.02537 73.000
23.04531 76.000
23.06526 66.000
23.08521 68.000
23.10515 69.000
23.12510 85.000
23.14505 88.000
23.16499 92.000
23.18494 69.000
23.20489 66.000
23.22484 70.000
23.24478 79.000
23.26473 84.000
23.28468 85.000
23.30462 93.000
23.32457 96.000
23.34452 91.000
23.36446 69.000
23.38441 56.000
23.40436 84.000
23.42431 77.000
23.44425 75.000
23.46420 68.000
23.48415 77.000
23.50409 76.000
23.52404 76.000
23.54399 91.000
23.56393 78.000
23.58388 78.000
23.60383 66.000
23.62377 87.000
23.64372 84.000
23.66367 73.000
23.68362 84.000
23.70356 76.000
23.72351 86.000
23.74346 78.000
23.76340 75.000
23.78335 86.000
23.80330 69.000
23.82324 78.000
23.84319 84.000
23.86314 66.000
23.88309 80.000
23.90303 74.000
23.92298 67.000
23.94293 67.000
23.96287 80.000
23.98282 84.000
24.00277 87.000
24.02271 73.000
24.04266 73.000
24.06261 79.000
24.08256 81.000
24.10250 78.000
24.12245 72.000
24.14240 70.000
24.16234 85.000
24.18229 66.000
24.20224 93.000
24.22218 68.000
24.24213 84.000
24.26208 69.000
24.28202 80.000
24.30197 72.000
24.32192 86.000
24.34187 89.000
24.36181 80.000
24.38176 75.000
24.40171 74.000
24.42165 75.000
24.44160 68.000
24.46155 83.000
24.48149 67.000
24.50144 85.000
24.52139 93.000
24.54134 81.000
24.56128 82.000
24.58123 81.000
24.60118 82.000
24.62112 87.000
24.64107 73.000
24.66102 72.000
24.68096 85.000
24.70091 66.000
24.72086 81.000
24.74080 91.000
24.76075 78.000
24.78070 84.000
24.80065 84.000
24.82059 84.000
24.84054 78.000
24.86049 75.000
24.88043 71.000
24.90038 96.000
24.92033 89.000
24.94027 92.000
24.96022 100.000
24.98017 82.000
25.00012 88.000
25.02006 96.000
25.04001 97.000
25.05996 83.000
25.07990 88.000
25.09985 89.000
25.11980 107.000
25.13974 75.000
25.15969 80.000
25.17964 85.000
25.19958 75.000
25.21953 95.000
25.23948 88.000
25.25943 85.000
25.27937 80.000
25.29932 73.000
25.31927 78.000
25.33921 75.000
25.35916 79.000
25.37911 78.000
25.39905 61.000
25.41900 75.000
25.43895 81.000
25.45890 83.000
25.47884 88.000
25.49879 85.000
25.51874 68.000
25.53868 75.000
25.55863 79.000
25.57858 80.000
25.59852 84.000
25.61847 61.000
25.63842 68.000
25.65837 85.000
25.67831 79.000
25.69826 86.000
25.71821 72.000
25.73815 71.000
25.75810 77.000
25.77805 75.000
25.79799 87.000
25.81794 87.000
25.83789 88.000
25.85783 90.000
25.87778 100.000
25.89773 90.000
25.91768 86.000
25.93762 88.000
25.95757 80.000
25.97752 88.000
25.99746 103.000
26.01741 98.000
26.03736 98.000
26.05730 72.000
26.07725 96.000
26.09720 111.000
26.11715 96.000
26.13709 97.000
26.15704 78.000
26.17699 89.000
26.19693 103.000
26.21688 86.000
26.23683 84.000
26.25677 56.000
26.27672 74.000
26.29667 95.000
26.31661 112.000
26.33656 86.000
26.35651 87.000
26.37646 89.000
26.39640 67.000
26.41635 85.000
26.43630 94.000
26.45624 69.000
26.47619 58.000
26.49614 93.000
26.51608 82.000
26.53603 75.000
26.55598 84.000
26.57593 72.000
26.59587 109.000
26.61582 93.000
26.63577 87.000
26.65571 75.000
26.67566 80.000
26.69561 81.000
26.71555 96.000
26.73550 85.000
26.75545 76.000
26.77539 69.000
26.79534 82.000
26.81529 80.000
26.83524 92.000
26.85518 76.000
26.87513 74.000
26.89508 95.000
26.91502 81.000
26.93497 97.000
26.95492 80.000
26.97486 82.000
26.99481 89.000
27.01476 90.000
27.03471 93.000
27.05465 78.000
27.07460 79.000
27.09455 88.000
27.11449 86.000
27.13444 88.000
27.15439 92.000
27.17433 80.000
27.19428 100.000
27.21423 95.000
27.23417 97.000
27.25412 72.000
27.27407 79.000
27.29402 62.000
27.31396 95.000
27.33391 72.000
27.35386 92.000
27.37380 100.000
27.39375 87.000
27.41370 94.000
27.43364 85.000
27.45359 88.000
27.47354 89.000
27.49349 102.000
27.51343 73.000
27.53338 98.000
27.55333 86.000
27.57327 94.000
27.59322 72.000
27.61317 69.000
27.63311 70.000
27.65306 88.000
27.67301 88.000
27.69296 72.000
27.71290 96.000
27.73285 70.000
27.75280 87.000
27.77274 89.000
27.79269 70.000
27.81264 80.000
27.83258 93.000
27.85253 95.000
27.87248 85.000
27.89242 73.000
27.91237 82.000
27.93232 94.000
27.95227 76.000
27.97221 85.000
27.99216 76.000
28.01211 90.000
28.03205 78.000
28.05200 97.000
28.07195 81.000
28.09189 92.000
28.11184 83.000
28.13179 74.000
28.15174 91.000
28.17168 91.000
28.19163 78.000
28.21158 91.000
28.23152 77.000
28.25147 84.000
28.27142 87.000
28.29136 100.000
28.31131 88.000
28.33126 89.000
28.35120 79.000
28.37115 97.000
28.39110 90.000
28.41105 86.000
28.43099 87.000
28.45094 77.000
28.47089 83.000
28.49083 91.000
28.51078 82.000
28.53073 67.000
28.55067 75.000
28.57062 89.000
28.59057 90.000
28.61052 91.000
28.63046 96.000
28.65041 96.000
28.67036 82.000
28.69030 79.000
28.71025 90.000
28.73020 81.000
28.75014 83.000
28.77009 83.000
28.79004 92.000
28.80998 78.000
28.82993 103.000
28.84988 78.000
28.86983 85.000
28.88977 88.000
28.90972 80.000
28.92967 92.000
28.94961 76.000
28.96956 79.000
28.98951 87.000
29.00945 90.000
29.02940 77.000
29.04935 81.000
29.06930 86.000
29.08924 88.000
29.10919 82.000
29.12914 70.000
29.14908 96.000
29.16903 89.000
29.18898 87.000
29.20892 88.000
29.22887 89.000
29.24882 90.000
29.26877 101.000
29.28871 88.000
29.30866 99.000
29.32861 87.000
29.34855 121.000
29.36850 119.000
29.38845 121.000
29.40839 127.000
29.42834 116.000
29.44829 127.000
29.46823 136.000
29.48818 133.000
29.50813 146.000
29.52808 196.000
29.54802 175.000
29.56797 199.000
29.58792 184.000
29.60786 186.000
29.62781 162.000
29.64776 145.000
29.66770 144.000
29.68765 120.000
29.70760 110.000
29.72755 120.000
29.74749 109.000
29.76744 103.000
29.78739 99.000
29.80733 84.000
29.82728 85.000
29.84723 77.000
29.86717 104.000
29.88712 96.000
29.90707 91.000
29.92701 91.000
29.94696 110.000
29.96691 84.000
29.98686 103.000
30.00680 99.000
30.02675 126.000
30.04670 129.000
30.06664 113.000
30.08659 107.000
30.10654 132.000
30.12648 125.000
30.14643 179.000
30.16638 182.000
30.18633 186.000
30.20627 218.000
30.22622 259.000
30.24617 244.000
30.26611 257.000
30.28606 244.000
30.30601 184.000
30.32595 185.000
30.34590 178.000
30.36585 145.000
30.38579 133.000
30.40574 99.000
30.42569 102.000
30.44564 119.000
30.46558 110.000
30.48553 113.000
30.50548 99.000
30.52542 100.000
30.54537 94.000
30.56532 96.000
30.58526 91.000
30.60521 92.000
30.62516 79.000
30.64511 106.000
30.66505 94.000
30.68500 105.000
30.70495 81.000
30.72489 83.000
30.74484 90.000
30.76479 114.000
30.78473 84.000
30.80468 103.000
30.82463 86.000
30.84458 97.000
30.86452 96.000
30.88447 99.000
30.90442 108.000
30.92436 103.000
30.94431 87.000
30.96426 84.000
30.98420 106.000
31.00415 81.000
31.02410 84.000
31.04404 85.000
31.06399 86.000
31.08394 83.000
31.10389 93.000
31.12383 93.000
31.14378 84.000
31.16373 90.000
31.18367 100.000
31.20362 85.000
31.22357 94.000
31.24351 76.000
31.26346 94.000
31.28341 92.000
31.30336 85.000
31.32330 85.000
31.34325 97.000
31.36320 81.000
31.38314 89.000
31.40309 87.000
31.42304 112.000
31.44298 111.000
31.46293 90.000
31.48288 102.000
31.50282 95.000
31.52277 98.000
31.54272 123.000
31.56267 135.000
31.58261 107.000
31.60256 95.000
31.62251 85.000
31.64245 111.000
31.66240 97.000
31.68235 112.000
31.70229 103.000
31.72224 112.000
31.74219 116.000
31.76214 118.000
31.78208 120.000
31.80203 110.000
31.82198 127.000
31.84192 123.000
31.86187 135.000
31.88182 128.000
31.90176 131.000
31.92171 124.000
31.94166 132.000
31.96160 130.000
31.98155 132.000
32.00150 108.000
32.02145 135.000
32.04139 109.000
32.06134 101.000
32.08129 91.000
32.10123 89.000
32.12118 101.000
32.14113 105.000
32.16107 84.000
32.18102 95.000
32.20097 93.000
32.22092 98.000
32.24086 83.000
32.26081 93.000
32.28076 110.000
32.30070 91.000
32.32065 104.000
32.34060 101.000
32.36054 103.000
32.38049 86.000
32.40044 101.000
32.42039 122.000
32.44033 111.000
32.46028 104.000
32.48023 106.000
32.50017 109.000
32.52012 137.000
32.54007 90.000
32.56001 120.000
32.57996 103.000
32.59991 102.000
32.61985 114.000
32.63980 108.000
32.65975 97.000
32.67970 113.000
32.69964 120.000
32.71959 113.000
32.73954 117.000
32.75948 104.000
32.77943 118.000
32.79938 125.000
32.81932 136.000
32.83927 103.000
32.85922 114.000
32.87917 107.000
32.89911 125.000
32.91906 118.000
32.93901 118.000
32.95895 107.000
32.97890 104.000
32.99885 115.000
33.01879 122.000
33.03874 130.000
33.05869 133.000
33.07863 137.000
33.09858 135.000
33.11853 134.000
33.13848 153.000
33.15842 190.000
33.17837 196.000
33.19832 210.000
33.21826 224.000
33.23821 267.000
33.25816 304.000
33.27810 400.000
33.29805 428.000
33.31800 558.000
33.33795 583.000
33.35789 641.000
33.37784 617.000
33.39779 531.000
33.41773 488.000
33.43768 427.000
33.45763 348.000
33.47757 310.000
33.49752 260.000
33.51747 232.000
33.53741 172.000
33.55736 178.000
33.57731 160.000
33.59726 142.000
33.61720 165.000
33.63715 145.000
33.65710 147.000
33.67704 150.000
33.69699 150.000
33.71694 146.000
33.73688 146.000
33.75683 158.000
33.77678 147.000
33.79673 161.000
33.81667 160.000
33.83662 186.000
33.85657 175.000
33.87651 179.000
33.89646 179.000
33.91641 202.000
33.93635 225.000
33.95630 245.000
33.97625 283.000
33.99620 309.000
34.01614 334.000
34.03609 333.000
34.05604 351.000
34.07598 352.000
34.09593 316.000
34.11588 361.000
34.13582 324.000
34.15577 292.000
34.17572 307.000
34.19566 254.000
34.21561 296.000
34.23556 252.000
34.25551 287.000
34.27545 276.000
34.29540 236.000
34.31535 244.000
34.33529 215.000
34.35524 224.000
34.37519 189.000
34.39513 177.000
34.41508 201.000
34.43503 233.000
34.45498 220.000
34.47492 171.000
34.49487 178.000
34.51482 189.000
34.53476 170.000
34.55471 162.000
34.57466 136.000
34.59460 151.000
34.61455 150.000
34.63450 164.000
34.65444 135.000
34.67439 114.000
34.69434 120.000
34.71429 146.000
34.73423 129.000
34.75418 140.000
34.77413 162.000
34.79407 151.000
34.81402 212.000
34.83397 246.000
34.85391 278.000
34.87386 361.000
34.89381 411.000
34.91376 461.000
34.93370 439.000
34.95365 424.000
34.97360 425.000
34.99354 398.000
35.01349 331.000
35.03344 339.000
35.05338 267.000
35.07333 261.000
35.09328 197.000
35.11322 249.000
35.13317 227.000
35.15312 207.000
35.17307 191.000
35.19301 178.000
35.21296 173.000
35.23291 160.000
35.25285 165.000
35.27280 183.000
35.29275 181.000
35.31269 202.000
35.33264 218.000
35.35259 221.000
35.37254 244.000
35.39248 276.000
35.41243 279.000
35.43238 310.000
35.45232 335.000
35.47227 367.000
35.49222 442.000
35.51216 487.000
35.53211 520.000
35.55206 593.000
35.57201 633.000
35.59195 689.000
35.61190 713.000
35.63185 735.000
35.65179 721.000
35.67174 653.000
35.69169 623.000
35.71163 512.000
35.73158 474.000
35.75153 396.000
35.77147 355.000
35.79142 284.000
35.81137 259.000
35.83132 229.000
35.85126 198.000
35.87121 175.000
35.89116 188.000
35.91110 212.000
35.93105 154.000
35.95100 179.000
35.97094 186.000
35.99089 155.000
36.01084 182.000
36.03079 173.000
36.05073 165.000
36.07068 178.000
36.09063 199.000
36.11057 220.000
36.13052 215.000
36.15047 254.000
36.17041 305.000
36.19036 400.000
36.21031 475.000
36.23025 622.000
36.25020 706.000
36.27015 755.000
36.29010 752.000
36.31004 704.000
36.32999 672.000
36.34994 638.000
36.36988 557.000
36.38983 480.000
36.40978 461.000
36.42972 385.000
36.44967 339.000
36.46962 292.000
36.48957 263.000
36.50951 220.000
36.52946 243.000
36.54941 184.000
36.56935 181.000
36.58930 195.000
36.60925 169.000
36.62919 159.000
36.64914 170.000
36.66909 132.000
36.68903 125.000
36.70898 152.000
36.72893 135.000
36.74888 151.000
36.76882 145.000
36.78877 131.000
36.80872 132.000
36.82866 105.000
36.84861 129.000
36.86856 119.000
36.88850 99.000
36.90845 106.000
36.92840 116.000
36.94835 113.000
36.96829 133.000
36.98824 120.000
37.00819 118.000
37.02813 103.000
37.04808 125.000
37.06803 113.000
37.08797 123.000
37.10792 123.000
37.12787 128.000
37.14781 140.000
37.16776 135.000
37.18771 169.000
37.20766 142.000
37.22760 146.000
37.24755 134.000
37.26750 125.000
37.28744 140.000
37.30739 133.000
37.32734 133.000
37.34728 109.000
37.36723 145.000
37.38718 116.000
37.40713 111.000
37.42707 140.000
37.44702 114.000
37.46697 84.000
37.48691 109.000
37.50686 90.000
37.52681 95.000
37.54675 97.000
37.56670 106.000
37.58665 106.000
37.60660 81.000
37.62654 89.000
37.64649 81.000
37.66644 94.000
37.68638 78.000
37.70633 89.000
37.72628 84.000
37.74622 93.000
37.76617 90.000
37.78612 88.000
37.80606 101.000
37.82601 96.000
37.84596 83.000
37.86591 96.000
37.88585 79.000
37.90580 82.000
37.92575 86.000
37.94569 96.000
37.96564 97.000
37.98559 83.000
38.00553 104.000
38.02548 116.000
38.04543 88.000
38.06538 114.000
38.08532 92.000
38.10527 108.000
38.12522 98.000
38.14516 120.000
38.16511 106.000
38.18506 116.000
38.20500 101.000
38.22495 104.000
38.24490 93.000
38.26484 103.000
38.28479 94.000
38.30474 97.000
38.32469 101.000
38.34463 100.000
38.36458 99.000
38.38453 112.000
38.40447 116.000
38.42442 111.000
38.44437 118.000
38.46431 139.000
38.48426 100.000
38.50421 127.000
38.52416 138.000
38.54410 136.000
38.56405 146.000
38.58400 169.000
38.60394 170.000
38.62389 188.000
38.64384 199.000
38.66378 192.000
38.68373 196.000
38.70368 203.000
38.72362 253.000
38.74357 221.000
38.76352 234.000
38.78347 187.000
38.80341 187.000
38.82336 200.000
38.84331 207.000
38.86325 168.000
38.88320 178.000
38.90315 195.000
38.92309 180.000
38.94304 192.000
38.96299 172.000
38.98294 170.000
39.00288 138.000
39.02283 144.000
39.04278 149.000
39.06272 144.000
39.08267 165.000
39.10262 119.000
39.12256 113.000
39.14251 136.000
39.16246 121.000
39.18241 122.000
39.20235 107.000
39.22230 112.000
39.24225 119.000
39.26219 98.000
39.28214 109.000
39.30209 110.000
39.32203 89.000
39.34198 94.000
39.36193 97.000
39.38187 107.000
39.40182 108.000
39.42177 100.000
39.44172 91.000
39.46166 97.000
39.48161 112.000
39.50156 119.000
39.52150 103.000
39.54145 113.000
39.56140 113.000
39.58134 91.000
39.60129 84.000
39.62124 98.000
39.64119 97.000
39.66113 102.000
39.68108 103.000
39.70103 104.000
39.72097 108.000
39.74092 112.000
39.76087 105.000
39.78081 106.000
39.80076 103.000
39.82071 96.000
39.84065 100.000
39.86060 85.000
39.88055 91.000
39.90050 99.000
39.92044 99.000
39.94039 97.000
39.96034 105.000
39.98028 96.000
40.00023 92.000
40.02018 103.000
40.04012 94.000
40.06007 87.000
40.08002 101.000
40.09997 98.000
40.11991 113.000
40.13986 98.000
40.15981 117.000
40.17975 86.000
40.19970 87.000
40.21965 101.000
40.23959 81.000
40.25954 88.000
40.27949 108.000
40.29943 82.000
40.31938 82.000
40.33933 86.000
40.35928 96.000
40.37922 116.000
40.39917 98.000
40.41912 111.000
40.43906 115.000
40.45901 89.000
40.47896 130.000
40.49890 110.000
40.51885 104.000
40.53880 109.000
40.55875 134.000
40.57869 108.000
40.59864 98.000
40.61859 97.000
40.63853 109.000
40.65848 120.000
40.67843 121.000
40.69837 114.000
40.71832 110.000
40.73827 128.000
40.75822 134.000
40.77816 144.000
40.79811 141.000
40.81806 144.000
40.83800 116.000
40.85795 161.000
40.87790 154.000
40.89784 140.000
40.91779 155.000
40.93774 140.000
40.95768 182.000
40.97763 194.000
40.99758 219.000
41.01753 189.000
41.03747 262.000
41.05742 248.000
41.07737 278.000
41.09731 311.000
41.11726 369.000
41.13721 439.000
41.15715 544.000
41.17710 686.000
41.19705 987.000
41.21700 1264.000
41.23694 1733.000
41.25689 2043.000
41.27684 2413.000
41.29678 2479.000
41.31673 2297.000
41.33668 2129.000
41.35662 1998.000
41.37657 1958.000
41.39652 1813.000
41.41646 1510.000
41.43641 1306.000
41.45636 1096.000
41.47631 884.000
41.49625 750.000
41.51620 562.000
41.53615 526.000
41.55609 431.000
41.57604 394.000
41.59599 330.000
41.61593 326.000
41.63588 290.000
41.65583 258.000
41.67578 230.000
41.69572 217.000
41.71567 206.000
41.73562 215.000
41.75556 198.000
41.77551 179.000
41.79546 199.000
41.81540 165.000
41.83535 176.000
41.85530 169.000
41.87524 154.000
41.89519 153.000
41.91514 166.000
41.93509 190.000
41.95503 175.000
41.97498 147.000
41.99493 167.000
42.01487 175.000
42.03482 144.000
42.05477 155.000
42.07471 149.000
42.09466 147.000
42.11461 137.000
42.13456 147.000
42.15450 144.000
42.17445 166.000
42.19440 136.000
42.21434 122.000
42.23429 130.000
42.25424 125.000
42.27418 122.000
42.29413 121.000
42.31408 103.000
42.33403 116.000
42.35397 135.000
42.37392 110.000
42.39387 108.000
42.41381 116.000
42.43376 121.000
42.45371 121.000
42.47365 124.000
42.49360 112.000
42.51355 121.000
42.53349 103.000
42.55344 99.000
42.57339 101.000
42.59334 92.000
42.61328 126.000
42.63323 95.000
42.65318 112.000
42.67312 95.000
42.69307 102.000
42.71302 92.000
42.73296 122.000
42.75291 111.000
42.77286 107.000
42.79281 116.000
42.81275 107.000
42.83270 104.000
42.85265 120.000
42.87259 100.000
42.89254 103.000
42.91249 125.000
42.93243 120.000
42.95238 116.000
42.97233 116.000
42.99227 116.000
43.01222 110.000
43.03217 132.000
43.05212 129.000
43.07206 105.000
43.09201 121.000
43.11196 133.000
43.13190 143.000
43.15185 139.000
43.17180 147.000
43.19174 165.000
43.21169 172.000
43.23164 171.000
43.25159 169.000
43.27153 189.000
43.29148 180.000
43.31143 182.000
43.33137 187.000
43.35132 147.000
43.37127 141.000
43.39121 164.000
43.41116 149.000
43.43111 134.000
43.45105 123.000
43.47100 135.000
43.49095 114.000
43.51090 114.000
43.53084 92.000
43.55079 92.000
43.57074 109.000
43.59068 97.000
43.61063 82.000
43.63058 87.000
43.65052 92.000
43.67047 83.000
43.69042 100.000
43.71037 109.000
43.73031 105.000
43.75026 97.000
43.77021 76.000
43.79015 90.000
43.81010 87.000
43.83005 99.000
43.84999 85.000
43.86994 87.000
43.88989 91.000
43.90984 82.000
43.92978 72.000
43.94973 82.000
43.96968 90.000
43.98962 89.000
44.00957 95.000
44.02952 74.000
44.04946 97.000
44.06941 95.000
44.08936 95.000
44.10930 94.000
44.12925 73.000
44.14920 82.000
44.16915 80.000
44.18909 80.000
44.20904 88.000
44.22899 97.000
44.24893 80.000
44.26888 95.000
44.28883 75.000
44.30877 92.000
44.32872 84.000
44.34867 73.000
44.36862 99.000
44.38856 83.000
44.40851 110.000
44.42846 101.000
44.44840 103.000
44.46835 97.000
44.48830 89.000
44.50824 91.000
44.52819 85.000
44.54814 93.000
44.56808 97.000
44.58803 104.000
44.60798 95.000
44.62793 107.000
44.64787 96.000
44.66782 104.000
44.68777 114.000
44.70771 139.000
44.72766 136.000
44.74761 132.000
44.76755 135.000
44.78750 138.000
44.80745 139.000
44.82740 107.000
44.84734 108.000
44.86729 117.000
44.88724 113.000
44.90718 121.000
44.92713 106.000
44.94708 126.000
44.96702 78.000
44.98697 86.000
45.00692 92.000
45.02686 100.000
45.04681 93.000
45.06676 113.000
45.08671 86.000
45.10665 99.000
45.12660 112.000
45.14655 90.000
45.16649 105.000
45.18644 99.000
45.20639 99.000
45.22633 111.000
45.24628 96.000
45.26623 106.000
45.28618 91.000
45.30612 94.000
45.32607 90.000
45.34602 99.000
45.36596 80.000
45.38591 88.000
45.40586 84.000
45.42580 91.000
45.44575 88.000
45.46570 81.000
45.48565 87.000
45.50559 82.000
45.52554 70.000
45.54549 88.000
45.56543 82.000
45.58538 98.000
45.60533 96.000
45.62527 78.000
45.64522 73.000
45.66517 74.000
45.68511 77.000
45.70506 91.000
45.72501 72.000
45.74496 73.000
45.76490 99.000
45.78485 82.000
45.80480 90.000
45.82474 88.000
45.84469 81.000
45.86464 89.000
45.88458 93.000
45.90453 77.000
45.92448 53.000
45.94443 69.000
45.96437 83.000
45.98432 81.000
46.00427 77.000
46.02421 65.000
46.04416 84.000
46.06411 81.000
46.08405 85.000
46.10400 93.000
46.12395 84.000
46.14389 87.000
46.16384 79.000
46.18379 84.000
46.20374 78.000
46.22368 80.000
46.24363 84.000
46.26358 73.000
46.28352 85.000
46.30347 94.000
46.32342 92.000
46.34336 90.000
46.36331 85.000
46.38326 98.000
46.40321 97.000
46.42315 71.000
46.44310 95.000
46.46305 90.000
46.48299 87.000
46.50294 76.000
46.52289 78.000
46.54283 77.000
46.56278 78.000
46.58273 96.000
46.60267 89.000
46.62262 100.000
46.64257 81.000
46.66252 75.000
46.68246 90.000
46.70241 64.000
46.72236 86.000
46.74230 90.000
46.76225 76.000
46.78220 78.000
46.80214 86.000
46.82209 87.000
46.84204 86.000
46.86199 101.000
46.88193 88.000
46.90188 87.000
46.92183 83.000
46.94177 80.000
46.96172 74.000
46.98167 94.000
47.00161 80.000
47.02156 79.000
47.04151 71.000
47.06146 80.000
47.08140 79.000
47.10135 75.000
47.12130 95.000
47.14124 79.000
47.16119 74.000
47.18114 85.000
47.20108 85.000
47.22103 86.000
47.24098 99.000
47.26092 73.000
47.28087 98.000
47.30082 98.000
47.32077 83.000
47.34071 85.000
47.36066 90.000
47.38061 88.000
47.40055 82.000
47.42050 62.000
47.44045 81.000
47.46039 71.000
47.48034 82.000
47.50029 81.000
47.52024 87.000
47.54018 86.000
47.56013 84.000
47.58008 89.000
47.60002 91.000
47.61997 65.000
47.63992 98.000
47.65986 87.000
47.67981 86.000
47.69976 76.000
47.71970 69.000
47.73965 88.000
47.75960 82.000
47.77955 84.000
47.79949 89.000
47.81944 92.000
47.83939 87.000
47.85933 85.000
47.87928 71.000
47.89923 85.000
47.91917 88.000
47.93912 83.000
47.95907 75.000
47.97902 89.000
47.99896 71.000
48.01891 79.000
48.03886 80.000
48.05880 77.000
48.07875 78.000
48.09870 70.000
48.11864 78.000
48.13859 68.000
48.15854 72.000
48.17848 108.000
48.19843 78.000
48.21838 88.000
48.23833 85.000
48.25827 89.000
48.27822 92.000
48.29817 85.000
48.31811 91.000
48.33806 92.000
48.35801 86.000
48.37795 78.000
48.39790 90.000
48.41785 98.000
48.43780 92.000
48.45774 71.000
48.47769 98.000
48.49764 86.000
48.51758 86.000
48.53753 104.000
48.55748 127.000
48.57742 87.000
48.59737 87.000
48.61732 117.000
48.63726 113.000
48.65721 96.000
48.67716 100.000
48.69711 116.000
48.71705 112.000
48.73700 106.000
48.75695 112.000
48.77689 112.000
48.79684 121.000
48.81679 125.000
48.83673 108.000
48.85668 129.000
48.87663 127.000
48.89658 122.000
48.91652 122.000
48.93647 118.000
48.95642 138.000
48.97636 109.000
48.99631 113.000
49.01626 108.000
49.03620 85.000
49.05615 107.000
49.07610 121.000
49.09605 96.000
49.11599 108.000
49.13594 109.000
49.15589 90.000
49.17583 82.000
49.19578 105.000
49.21573 81.000
49.23567 83.000
49.25562 90.000
49.27557 78.000
49.29551 89.000
49.31546 100.000
49.33541 87.000
49.35536 94.000
49.37530 106.000
49.39525 96.000
49.41520 88.000
49.43514 86.000
49.45509 96.000
49.47504 98.000
49.49498 99.000
49.51493 86.000
49.53488 84.000
49.55483 82.000
49.57477 97.000
49.59472 105.000
49.61467 84.000
49.63461 94.000
49.65456 85.000
49.67451 85.000
49.69445 84.000
49.71440 81.000
49.73435 73.000
49.75429 84.000
49.77424 91.000
49.79419 79.000
49.81414 90.000
49.83408 89.000
49.85403 90.000
49.87398 81.000
49.89392 82.000
49.91387 101.000
49.93382 80.000
49.95376 91.000
49.97371 85.000
49.99366 93.000
50.01361 93.000
50.03355 74.000
50.05350 73.000
50.07345 85.000
50.09339 79.000
50.11334 79.000
50.13329 82.000
50.15323 94.000
50.17318 88.000
50.19313 101.000
50.21307 86.000
50.23302 73.000
50.25297 84.000
50.27292 69.000
50.29286 88.000
50.31281 90.000
50.33276 73.000
50.35270 81.000
50.37265 77.000
50.39260 79.000
50.41254 87.000
50.43249 79.000
50.45244 76.000
50.47239 70.000
50.49233 74.000
50.51228 85.000
50.53223 86.000
50.55217 86.000
50.57212 91.000
50.59207 90.000
50.61201 94.000
50.63196 94.000
50.65191 73.000
50.67186 87.000
50.69180 87.000
50.71175 71.000
50.73170 80.000
50.75164 81.000
50.77159 97.000
50.79154 84.000
50.81148 88.000
50.83143 90.000
50.85138 80.000
50.87132 105.000
50.89127 91.000
50.91122 98.000
50.93117 88.000
50.95111 86.000
50.97106 98.000
50.99101 106.000
51.01095 101.000
51.03090 98.000
51.05085 94.000
51.07079 101.000
51.09074 71.000
51.11069 79.000
51.13064 102.000
51.15058 82.000
51.17053 93.000
51.19048 85.000
51.21042 108.000
51.23037 82.000
51.25032 76.000
51.27026 81.000
51.29021 74.000
51.31016 90.000
51.33010 77.000
51.35005 72.000
51.37000 74.000
51.38995 89.000
51.40989 81.000
51.42984 100.000
51.44979 82.000
51.46973 73.000
51.48968 77.000
51.50963 63.000
51.52957 99.000
51.54952 88.000
51.56947 84.000
51.58942 84.000
51.60936 82.000
51.62931 67.000
51.64926 99.000
51.66920 84.000
51.68915 66.000
51.70910 74.000
51.72904 70.000
51.74899 77.000
51.76894 78.000
51.78888 89.000
51.80883 79.000
51.82878 82.000
51.84873 80.000
51.86867 83.000
51.88862 81.000
51.90857 87.000
51.92851 83.000
51.94846 75.000
51.96841 69.000
51.98835 91.000
52.00830 95.000
52.02825 82.000
52.04820 88.000
52.06814 70.000
52.08809 97.000
52.10804 71.000
52.12798 91.000
52.14793 73.000
52.16788 90.000
52.18782 60.000
52.20777 88.000
52.22772 96.000
52.24767 86.000
52.26761 86.000
52.28756 78.000
52.30751 79.000
52.32745 100.000
52.34740 90.000
52.36735 94.000
52.38729 96.000
52.40724 71.000
52.42719 95.000
52.44713 80.000
52.46708 83.000
52.48703 94.000
52.50698 93.000
52.52692 88.000
52.54687 97.000
52.56682 77.000
52.58676 86.000
52.60671 91.000
52.62666 86.000
52.64660 93.000
52.66655 95.000
52.68650 119.000
52.70645 86.000
52.72639 101.000
52.74634 104.000
52.76629 100.000
52.78623 97.000
52.80618 118.000
52.82613 106.000
52.84607 123.000
52.86602 156.000
52.88597 118.000
52.90591 132.000
52.92586 147.000
52.94581 177.000
52.96576 180.000
52.98570 214.000
53.00565 237.000
53.02560 289.000
53.04554 290.000
53.06549 300.000
53.08544 307.000
53.10538 320.000
53.12533 312.000
53.14528 252.000
53.16523 253.000
53.18517 233.000
53.20512 246.000
53.22507 226.000
53.24501 207.000
53.26496 189.000
53.28491 166.000
53.30485 153.000
53.32480 138.000
53.34475 126.000
53.36469 114.000
53.38464 115.000
53.40459 125.000
53.42454 115.000
53.44448 116.000
53.46443 111.000
53.48438 109.000
53.50432 110.000
53.52427 121.000
53.54422 132.000
53.56416 102.000
53.58411 122.000
53.60406 119.000
53.62401 120.000
53.64395 134.000
53.66390 118.000
53.68385 111.000
53.70379 114.000
53.72374 123.000
53.74369 151.000
53.76363 117.000
53.78358 129.000
53.80353 128.000
53.82348 117.000
53.84342 120.000
53.86337 103.000
53.88332 94.000
53.90326 105.000
53.92321 123.000
53.94316 107.000
53.96310 112.000
53.98305 105.000
54.00300 104.000
54.02294 92.000
54.04289 87.000
54.06284 96.000
54.08279 91.000
54.10273 87.000
54.12268 77.000
54.14263 100.000
54.16257 99.000
54.18252 95.000
54.20247 70.000
54.22241 76.000
54.24236 93.000
54.26231 88.000
54.28226 65.000
54.30220 85.000
54.32215 81.000
54.34210 84.000
54.36204 82.000
54.38199 78.000
54.40194 107.000
54.42188 88.000
54.44183 90.000
54.46178 82.000
54.48172 89.000
54.50167 81.000
54.52162 73.000
54.54157 88.000
54.56151 67.000
54.58146 75.000
54.60141 90.000
54.62135 91.000
54.64130 105.000
54.66125 74.000
54.68119 85.000
54.70114 76.000
54.72109 66.000
54.74104 83.000
54.76098 69.000
54.78093 68.000
54.80088 85.000
54.82082 74.000
54.84077 85.000
54.86072 77.000
54.88066 89.000
54.90061 84.000
54.92056 76.000
54.94050 85.000
54.96045 73.000
54.98040 104.000
55.00035 89.000
55.02029 90.000
55.04024 117.000
55.06019 76.000
55.08013 110.000
55.10008 115.000
55.12003 96.000
55.13997 96.000
55.15992 85.000
55.17987 83.000
55.19982 83.000
55.21976 95.000
55.23971 110.000
55.25966 91.000
55.27960 86.000
55.29955 93.000
55.31950 93.000
55.33944 104.000
55.35939 99.000
55.37934 94.000
55.39929 103.000
55.41923 92.000
55.43918 114.000
55.45913 94.000
55.47907 95.000
55.49902 90.000
55.51897 108.000
55.53891 106.000
55.55886 86.000
55.57881 99.000
55.59875 83.000
55.61870 89.000
55.63865 81.000
55.65860 91.000
55.67854 100.000
55.69849 84.000
55.71844 94.000
55.73838 104.000
55.75833 95.000
55.77828 103.000
55.79822 85.000
55.81817 85.000
55.83812 83.000
55.85807 113.000
55.87801 78.000
55.89796 104.000
55.91791 83.000
55.93785 88.000
55.95780 90.000
55.97775 78.000
55.99769 85.000
56.01764 77.000
56.03759 74.000
56.05753 73.000
56.07748 87.000
56.09743 88.000
56.11738 82.000
56.13732 86.000
56.15727 84.000
56.17722 84.000
56.19716 80.000
56.21711 79.000
56.23706 78.000
56.25700 74.000
56.27695 85.000
56.29690 90.000
56.31685 76.000
56.33679 81.000
56.35674 81.000
56.37669 97.000
56.39663 73.000
56.41658 90.000
56.43653 84.000
56.45647 72.000
56.47642 96.000
56.49637 85.000
56.51631 77.000
56.53626 92.000
56.55621 100.000
56.57616 98.000
56.59610 89.000
56.61605 79.000
56.63600 84.000
56.65594 77.000
56.67589 79.000
56.69584 91.000
56.71578 86.000
56.73573 83.000
56.75568 91.000
56.77563 90.000
56.79557 82.000
56.81552 110.000
56.83547 101.000
56.85541 95.000
56.87536 73.000
56.89531 108.000
56.91525 107.000
56.93520 98.000
56.95515 113.000
56.97510 96.000
56.99504 108.000
57.01499 124.000
57.03494 104.000
57.05488 117.000
57.07483 137.000
57.09478 148.000
57.11472 156.000
57.13467 166.000
57.15462 168.000
57.17456 171.000
57.19451 167.000
57.21446 153.000
57.23441 198.000
57.25435 206.000
57.27430 201.000
57.29425 192.000
57.31419 203.000
57.33414 198.000
57.35409 197.000
57.37403 188.000
57.39398 188.000
57.41393 202.000
57.43388 198.000
57.45382 168.000
57.47377 191.000
57.49372 171.000
57.51366 181.000
57.53361 179.000
57.55356 169.000
57.57350 180.000
57.59345 189.000
57.61340 188.000
57.63334 204.000
57.65329 206.000
57.67324 208.000
57.69319 254.000
57.71313 271.000
57.73308 298.000
57.75303 358.000
57.77297 410.000
57.79292 524.000
57.81287 555.000
57.83281 532.000
57.85276 591.000
57.87271 526.000
57.89266 504.000
57.91260 437.000
57.93255 417.000
57.95250 419.000
57.97244 428.000
57.99239 385.000
58.01234 405.000
58.03228 353.000
58.05223 304.000
58.07218 251.000
58.09212 223.000
58.11207 182.000
58.13202 166.000
58.15197 168.000
58.17191 150.000
58.19186 150.000
58.21181 122.000
58.23175 126.000
58.25170 124.000
58.27165 130.000
58.29159 117.000
58.31154 117.000
58.33149 116.000
58.35144 121.000
58.37138 110.000
58.39133 120.000
58.41128 109.000
58.43122 106.000
58.45117 108.000
58.47112 114.000
58.49106 103.000
58.51101 98.000
58.53096 105.000
58.55090 94.000
58.57085 97.000
58.59080 84.000
58.61075 101.000
58.63069 105.000
58.65064 92.000
58.67059 95.000
58.69053 107.000
58.71048 94.000
58.73043 65.000
58.75037 105.000
58.77032 87.000
58.79027 87.000
58.81022 85.000
58.83016 80.000
58.85011 89.000
58.87006 81.000
58.89000 99.000
58.90995 95.000
58.92990 89.000
58.94984 108.000
58.96979 90.000
58.98974 91.000
59.00969 104.000
59.02963 110.000
59.04958 89.000
59.06953 104.000
59.08947 98.000
59.10942 83.000
59.12937 101.000
59.14931 106.000
59.16926 93.000
59.18921 89.000
59.20915 83.000
59.22910 88.000
59.24905 81.000
59.26900 97.000
59.28894 92.000
59.30889 73.000
59.32884 85.000
59.34878 88.000
59.36873 90.000
59.38868 82.000
59.40862 79.000
59.42857 109.000
59.44852 80.000
59.46847 76.000
59.48841 78.000
59.50836 87.000
59.52831 84.000
59.54825 74.000
59.56820 83.000
59.58815 85.000
59.60809 104.000
59.62804 87.000
59.64799 97.000
59.66793 75.000
59.68788 91.000
59.70783 94.000
59.72778 90.000
59.74772 91.000
59.76767 91.000
59.78762 99.000
59.80756 105.000
59.82751 93.000
59.84746 112.000
59.86740 114.000
59.88735 118.000
59.90730 125.000
59.92725 112.000
59.94719 135.000
59.96714 133.000
59.98709 124.000
60.00703 97.000
60.02698 119.000
60.04693 117.000
60.06687 127.000
60.08682 128.000
60.10677 109.000
60.12671 113.000
60.14666 117.000
60.16661 125.000
60.18656 128.000
60.20650 107.000
60.22645 110.000
60.24640 104.000
60.26634 107.000
60.28629 108.000
60.30624 123.000
60.32618 106.000
60.34613 94.000
60.36608 106.000
60.38603 105.000
60.40597 126.000
60.42592 87.000
60.44587 93.000
60.46581 94.000
60.48576 97.000
60.50571 105.000
60.52565 91.000
60.54560 97.000
60.56555 118.000
60.58550 98.000
60.60544 125.000
60.62539 106.000
60.64534 111.000
60.66528 109.000
60.68523 103.000
60.70518 101.000
60.72512 108.000
60.74507 113.000
60.76502 114.000
60.78496 106.000
60.80491 108.000
60.82486 111.000
60.84481 110.000
60.86475 102.000
60.88470 99.000
60.90465 109.000
60.92459 104.000
60.94454 115.000
60.96449 101.000
60.98443 124.000
61.00438 114.000
61.02433 102.000
61.04428 119.000
61.06422 111.000
61.08417 131.000
61.10412 115.000
61.12406 132.000
61.14401 117.000
61.16396 114.000
61.18390 122.000
61.20385 128.000
61.22380 133.000
61.24374 132.000
61.26369 159.000
61.28364 158.000
61.30359 133.000
61.32353 151.000
61.34348 151.000
61.36343 152.000
61.38337 151.000
61.40332 156.000
61.42327 156.000
61.44321 179.000
61.46316 169.000
61.48311 190.000
61.50306 179.000
61.52300 222.000
61.54295 261.000
61.56290 257.000
61.58284 335.000
61.60279 356.000
61.62274 405.000
61.64268 456.000
61.66263 463.000
61.68258 469.000
61.70252 487.000
61.72247 490.000
61.74242 477.000
61.76237 453.000
61.78231 421.000
61.80226 443.000
61.82221 471.000
61.84215 386.000
61.86210 383.000
61.88205 408.000
61.90199 355.000
61.92194 311.000
61.94189 328.000
61.96184 288.000
61.98178 291.000
62.00173 206.000
62.02168 203.000
62.04162 199.000
62.06157 218.000
62.08152 199.000
62.10146 171.000
62.12141 183.000
62.14136 166.000
62.16131 168.000
62.18125 156.000
62.20120 146.000
62.22115 152.000
62.24109 147.000
62.26104 154.000
62.28099 139.000
62.30093 143.000
62.32088 144.000
62.34083 141.000
62.36077 161.000
62.38072 147.000
62.40067 139.000
62.42062 124.000
62.44056 117.000
62.46051 140.000
62.48046 155.000
62.50040 126.000
62.52035 120.000
62.54030 146.000
62.56024 147.000
62.58019 152.000
62.60014 160.000
62.62009 134.000
62.64003 156.000
62.65998 153.000
62.67993 154.000
62.69987 177.000
62.71982 185.000
62.73977 164.000
62.75971 171.000
62.77966 191.000
62.79961 171.000
62.81955 222.000
62.83950 200.000
62.85945 218.000
62.87940 222.000
62.89934 227.000
62.91929 202.000
62.93924 198.000
62.95918 195.000
62.97913 182.000
62.99908 185.000
63.01902 187.000
63.03897 162.000
63.05892 185.000
63.07887 163.000
63.09881 126.000
63.11876 139.000
63.13871 127.000
63.15865 130.000
63.17860 115.000
63.19855 112.000
63.21849 136.000
63.23844 112.000
63.25839 114.000
63.27833 98.000
63.29828 88.000
63.31823 96.000
63.33818 100.000
63.35812 93.000
63.37807 95.000
63.39802 93.000
63.41796 101.000
63.43791 95.000
63.45786 97.000
63.47780 96.000
63.49775 101.000
63.51770 85.000
63.53765 101.000
63.55759 77.000
63.57754 96.000
63.59749 87.000
63.61743 87.000
63.63738 85.000
63.65733 72.000
63.67727 73.000
63.69722 88.000
63.71717 97.000
63.73712 81.000
63.75706 95.000
63.77701 91.000
63.79696 107.000
63.81690 99.000
63.83685 101.000
63.85680 108.000
63.87674 100.000
63.89669 107.000
63.91664 96.000
63.93658 104.000
63.95653 77.000
63.97648 108.000
63.99643 103.000
64.01637 82.000
64.03632 111.000
64.05627 110.000
64.07621 110.000
64.09616 127.000
64.11611 114.000
64.13605 104.000
64.15600 105.000
64.17595 111.000
64.19590 127.000
64.21584 119.000
64.23579 127.000
64.25574 145.000
64.27568 171.000
64.29563 207.000
64.31558 182.000
64.33552 191.000
64.35547 193.000
64.37542 217.000
64.39536 164.000
64.41531 166.000
64.43526 175.000
64.45521 169.000
64.47515 158.000
64.49510 163.000
64.51505 152.000
64.53499 168.000
64.55494 162.000
64.57489 161.000
64.59483 145.000
64.61478 141.000
64.63473 132.000
64.65468 132.000
64.67462 137.000
64.69457 112.000
64.71452 106.000
64.73446 104.000
64.75441 119.000
64.77436 115.000
64.79430 115.000
64.81425 87.000
64.83420 113.000
64.85414 113.000
64.87409 116.000
64.89404 100.000
64.91399 108.000
64.93393 108.000
64.95388 80.000
64.97383 110.000
64.99377 89.000
65.01372 106.000
65.03367 101.000
65.05361 101.000
65.07356 92.000
65.09351 103.000
65.11346 102.000
65.13340 64.000
65.15335 114.000
65.17330 106.000
65.19324 91.000
65.21319 94.000
65.23314 103.000
65.25308 95.000
65.27303 104.000
65.29298 85.000
65.31293 88.000
65.33287 101.000
65.35282 105.000
65.37277 102.000
65.39271 83.000
65.41266 92.000
65.43261 95.000
65.45255 105.000
65.47250 99.000
65.49245 101.000
65.51239 106.000
65.53234 103.000
65.55229 97.000
65.57224 101.000
65.59218 95.000
65.61213 96.000
65.63208 88.000
65.65202 98.000
65.67197 94.000
65.69192 99.000
65.71186 88.000
65.73181 87.000
65.75176 128.000
65.77171 105.000
65.79165 84.000
65.81160 93.000
65.83155 101.000
65.85149 98.000
65.87144 121.000
65.89139 103.000
65.91133 108.000
65.93128 113.000
65.95123 100.000
65.97117 107.000
65.99112 103.000
66.01107 114.000
66.03102 107.000
66.05096 100.000
66.07091 105.000
66.09086 95.000
66.11080 121.000
66.13075 108.000
66.15070 65.000
66.17064 116.000
66.19059 115.000
66.21054 102.000
66.23049 96.000
66.25043 131.000
66.27038 143.000
66.29033 120.000
66.31027 86.000
66.33022 125.000
66.35017 123.000
66.37011 99.000
66.39006 110.000
66.41001 117.000
66.42995 98.000
66.44990 85.000
66.46985 106.000
66.48980 103.000
66.50974 98.000
66.52969 99.000
66.54964 86.000
66.56958 93.000
66.58953 110.000
66.60948 77.000
66.62942 86.000
66.64937 99.000
66.66932 78.000
66.68927 95.000
66.70921 91.000
66.72916 75.000
66.74911 85.000
66.76905 90.000
66.78900 79.000
66.80895 74.000
66.82889 100.000
66.84884 93.000
66.86879 84.000
66.88874 74.000
66.90868 77.000
66.92863 90.000
66.94858 89.000
66.96852 85.000
66.98847 85.000
67.00842 96.000
67.02836 82.000
67.04831 69.000
67.06826 87.000
67.08820 94.000
67.10815 89.000
67.12810 78.000
67.14805 88.000
67.16799 81.000
67.18794 79.000
67.20789 107.000
67.22783 80.000
67.24778 93.000
67.26773 81.000
67.28767 88.000
67.30762 76.000
67.32757 81.000
67.34752 72.000
67.36746 94.000
67.38741 92.000
67.40736 80.000
67.42730 93.000
67.44725 89.000
67.46720 90.000
67.48714 91.000
67.50709 114.000
67.52704 77.000
67.54698 100.000
67.56693 94.000
67.58688 85.000
67.60683 70.000
67.62677 85.000
67.64672 87.000
67.66667 97.000
67.68661 86.000
67.70656 94.000
67.72651 98.000
67.74645 99.000
67.76640 105.000
67.78635 95.000
67.80630 91.000
67.82624 91.000
67.84619 100.000
67.86614 90.000
67.88608 92.000
67.90603 99.000
67.92598 99.000
67.94592 104.000
67.96587 117.000
67.98582 103.000
68.00576 120.000
68.02571 108.000
68.04566 101.000
68.06561 98.000
68.08555 114.000
68.10550 105.000
68.12545 130.000
68.14539 113.000
68.16534 114.000
68.18529 122.000
68.20523 127.000
68.22518 111.000
68.24513 130.000
68.26508 125.000
68.28502 123.000
68.30497 133.000
68.32492 170.000
68.34486 181.000
68.36481 209.000
68.38476 208.000
68.40470 210.000
68.42465 199.000
68.44460 196.000
68.46455 168.000
68.48449 173.000
68.50444 153.000
68.52439 146.000
68.54433 147.000
68.56428 146.000
68.58423 149.000
68.60417 149.000
68.62412 152.000
68.64407 152.000
68.66401 134.000
68.68396 141.000
68.70391 101.000
68.72386 100.000
68.74380 104.000
68.76375 105.000
68.78370 96.000
68.80364 94.000
68.82359 109.000
68.84354 88.000
68.86348 82.000
68.88343 86.000
68.90338 85.000
68.92333 101.000
68.94327 87.000
68.96322 81.000
68.98317 82.000
69.00311 67.000
69.02306 85.000
69.04301 62.000
69.06295 94.000
69.08290 81.000
69.10285 92.000
69.12279 82.000
69.14274 86.000
69.16269 88.000
69.18264 86.000
69.20258 103.000
69.22253 80.000
69.24248 77.000
69.26242 69.000
69.28237 72.000
69.30232 81.000
69.32226 78.000
69.34221 68.000
69.36216 89.000
69.38211 73.000
69.40205 94.000
69.42200 73.000
69.44195 75.000
69.46189 90.000
69.48184 98.000
69.50179 92.000
69.52173 63.000
69.54168 89.000
69.56163 82.000
69.58157 74.000
69.60152 83.000
69.62147 61.000
69.64142 99.000
69.66136 90.000
69.68131 99.000
69.70126 104.000
69.72120 75.000
69.74115 94.000
69.76110 88.000
69.78104 98.000
69.80099 87.000
69.82094 113.000
69.84089 116.000
69.86083 102.000
69.88078 124.000
69.90073 100.000
69.92067 114.000
69.94062 126.000
69.96057 126.000
69.98051 148.000
70.00046 117.000
70.02041 138.000
70.04035 115.000
70.06030 125.000
70.08025 115.000
70.10020 126.000
70.12014 112.000
70.14009 97.000
70.16004 134.000
70.17998 106.000
70.19993 112.000
70.21988 113.000
70.23982 96.000
70.25977 119.000
70.27972 112.000
70.29967 77.000
70.31961 100.000
70.33956 76.000
70.35951 88.000
70.37945 102.000
70.39940 79.000
70.41935 70.000
70.43929 71.000
70.45924 86.000
70.47919 85.000
70.49914 75.000
70.51908 77.000
70.53903 75.000
70.55898 87.000
70.57892 76.000
70.59887 87.000
70.61882 75.000
70.63876 90.000
70.65871 73.000
70.67866 79.000
70.69860 76.000
70.71855 84.000
70.73850 93.000
70.75845 79.000
70.77839 74.000
70.79834 80.000
70.81829 75.000
70.83823 79.000
70.85818 68.000
70.87813 81.000
70.89807 80.000
70.91802 97.000
70.93797 86.000
70.95792 92.000
70.97786 96.000
70.99781 81.000
71.01776 94.000
71.03770 88.000
71.05765 68.000
71.07760 95.000
71.09754 87.000
71.11749 86.000
71.13744 80.000
71.15738 92.000
71.17733 65.000
71.19728 90.000
71.21723 90.000
71.23717 96.000
71.25712 91.000
71.27707 94.000
71.29701 81.000
71.31696 92.000
71.33691 86.000
71.35685 99.000
71.37680 90.000
71.39675 98.000
71.41670 90.000
71.43664 92.000
71.45659 103.000
71.47654 103.000
71.49648 103.000
71.51643 97.000
71.53638 101.000
71.55632 111.000
71.57627 91.000
71.59622 107.000
71.61616 92.000
71.63611 102.000
71.65606 101.000
71.67601 100.000
71.69595 79.000
71.71590 122.000
71.73585 104.000
71.75579 114.000
71.77574 99.000
71.79569 119.000
71.81563 156.000
71.83558 144.000
71.85553 153.000
71.87548 186.000
71.89542 164.000
71.91537 188.000
71.93532 198.000
71.95526 201.000
71.97521 220.000
71.99516 207.000
72.01510 172.000
72.03505 189.000
72.05500 164.000
72.07495 189.000
72.09489 188.000
72.11484 169.000
72.13479 184.000
72.15473 153.000
72.17468 161.000
72.19463 168.000
72.21457 144.000
72.23452 145.000
72.25447 135.000
72.27441 107.000
72.29436 133.000
72.31431 119.000
72.33426 135.000
72.35420 113.000
72.37415 126.000
72.39410 117.000
72.41404 86.000
72.43399 120.000
72.45394 98.000
72.47388 91.000
72.49383 110.000
72.51378 115.000
72.53373 103.000
72.55367 98.000
72.57362 105.000
72.59357 99.000
72.61351 97.000
72.63346 105.000
72.65341 94.000
72.67335 93.000
72.69330 89.000
72.71325 104.000
72.73319 105.000
72.75314 87.000
72.77309 98.000
72.79304 94.000
72.81298 103.000
72.83293 95.000
72.85288 96.000
72.87282 86.000
72.89277 93.000
72.91272 116.000
72.93266 120.000
72.95261 106.000
72.97256 108.000
72.99251 94.000
73.01245 110.000
73.03240 104.000
73.05235 98.000
73.07229 104.000
73.09224 113.000
73.11219 105.000
73.13213 103.000
73.15208 113.000
73.17203 84.000
73.19197 114.000
73.21192 95.000
73.23187 95.000
73.25182 89.000
73.27176 95.000
73.29171 91.000
73.31166 89.000
73.33160 77.000
73.35155 101.000
73.37150 91.000
73.39144 94.000
73.41139 77.000
73.43134 96.000
73.45129 89.000
73.47123 106.000
73.49118 99.000
73.51113 105.000
73.53107 104.000
73.55102 115.000
73.57097 94.000
73.59091 121.000
73.61086 129.000
73.63081 119.000
73.65076 124.000
73.67070 147.000
73.69065 118.000
73.71060 147.000
73.73054 125.000
73.75049 128.000
73.77044 126.000
73.79038 127.000
73.81033 131.000
73.83028 116.000
73.85022 114.000
73.87017 125.000
73.89012 123.000
73.91007 125.000
73.93001 126.000
73.94996 118.000
73.96991 128.000
73.98985 112.000
74.00980 137.000
74.02975 141.000
74.04969 127.000
74.06964 145.000
74.08959 137.000
74.10954 122.000
74.12948 180.000
74.14943 138.000
74.16938 138.000
74.18932 150.000
74.20927 171.000
74.22922 144.000
74.24916 151.000
74.26911 160.000
74.28906 153.000
74.30900 155.000
74.32895 160.000
74.34890 147.000
74.36885 149.000
74.38879 150.000
74.40874 149.000
74.42869 149.000
74.44863 135.000
74.46858 127.000
74.48853 128.000
74.50847 122.000
74.52842 122.000
74.54837 100.000
74.56832 105.000
74.58826 104.000
74.60821 112.000
74.62816 114.000
74.64810 107.000
74.66805 96.000
74.68800 93.000
74.70794 88.000
74.72789 97.000
74.74784 88.000
74.76778 95.000
74.78773 80.000
74.80768 90.000
74.82763 70.000
74.84757 92.000
74.86752 83.000
74.88747 84.000
74.90741 88.000
74.92736 95.000
74.94731 91.000
74.96725 94.000
74.98720 90.000
75.00715 101.000
75.02710 83.000
75.04704 91.000
75.06699 100.000
75.08694 97.000
75.10688 96.000
75.12683 96.000
75.14678 88.000
75.16672 82.000
75.18667 94.000
75.20662 117.000
75.22657 99.000
75.24651 121.000
75.26646 100.000
75.28641 103.000
75.30635 104.000
75.32630 97.000
75.34625 87.000
75.36619 86.000
75.38614 94.000
75.40609 110.000
75.42603 91.000
75.44598 86.000
75.46593 85.000
75.48588 92.000
75.50582 96.000
75.52577 102.000
75.54572 97.000
75.56566 94.000
75.58561 99.000
75.60556 97.000
75.62550 99.000
75.64545 95.000
75.66540 75.000
75.68535 82.000
75.70529 79.000
75.72524 82.000
75.74519 84.000
75.76513 82.000
75.78508 78.000
75.80503 86.000
75.82497 89.000
75.84492 83.000
75.86487 84.000
75.88481 80.000
75.90476 97.000
75.92471 77.000
75.94466 90.000
75.96460 89.000
75.98455 81.000
76.00450 86.000
76.02444 91.000
76.04439 68.000
76.06434 82.000
76.08428 106.000
76.10423 62.000
76.12418 89.000
76.14413 74.000
76.16407 87.000
76.18402 84.000
76.20397 90.000
76.22391 86.000
76.24386 77.000
76.26381 86.000
76.28375 73.000
76.30370 79.000
76.32365 91.000
76.34359 78.000
76.36354 85.000
76.38349 75.000
76.40344 92.000
76.42338 89.000
76.44333 83.000
76.46328 86.000
76.48322 89.000
76.50317 89.000
76.52312 69.000
76.54306 87.000
76.56301 87.000
76.58296 89.000
76.60291 97.000
76.62285 92.000
76.64280 81.000
76.66275 98.000
76.68269 97.000
76.70264 116.000
76.72259 108.000
76.74253 126.000
76.76248 130.000
76.78243 107.000
76.80238 141.000
76.82232 131.000
76.84227 151.000
76.86222 167.000
76.88216 181.000
76.90211 185.000
76.92206 182.000
76.94200 169.000
76.96195 202.000
76.98190 182.000
77.00184 203.000
77.02179 178.000
77.04174 170.000
77.06169 169.000
77.08163 192.000
77.10158 192.000
77.12153 193.000
77.14147 155.000
77.16142 169.000
77.18137 153.000
77.20131 171.000
77.22126 130.000
77.24121 134.000
77.26116 156.000
77.28110 132.000
77.30105 143.000
77.32100 122.000
77.34094 152.000
77.36089 136.000
77.38084 114.000
77.40078 104.000
77.42073 130.000
77.44068 97.000
77.46062 96.000
77.48057 96.000
77.50052 114.000
77.52047 106.000
77.54041 98.000
77.56036 92.000
77.58031 90.000
77.60025 110.000
77.62020 95.000
77.64015 112.000
77.66009 110.000
77.68004 95.000
77.69999 96.000
77.71994 91.000
77.73988 72.000
77.75983 88.000
77.77978 87.000
77.79972 92.000
77.81967 98.000
77.83962 76.000
77.85956 93.000
77.87951 78.000
77.89946 83.000
77.91940 77.000
77.93935 90.000
77.95930 85.000
77.97925 95.000
77.99919 85.000
78.01914 70.000
78.03909 78.000
78.05903 78.000
78.07898 95.000
78.09893 97.000
78.11887 79.000
78.13882 74.000
78.15877 74.000
78.17872 87.000
78.19866 71.000
78.21861 78.000
78.23856 74.000
78.25850 58.000
78.27845 82.000
78.29840 87.000
78.31834 79.000
78.33829 72.000
78.35824 87.000
78.37819 61.000
78.39813 88.000
78.41808 87.000
78.43803 67.000
78.45797 80.000
78.47792 68.000
78.49787 74.000
78.51781 77.000
78.53776 100.000
78.55771 77.000
78.57765 74.000
78.59760 89.000
78.61755 78.000
78.63750 73.000
78.65744 78.000
78.67739 91.000
78.69734 81.000
78.71728 78.000
78.73723 77.000
78.75718 85.000
78.77712 82.000
78.79707 96.000
78.81702 68.000
78.83697 83.000
78.85691 78.000
78.87686 78.000
78.89681 79.000
78.91675 77.000
78.93670 88.000
78.95665 82.000
78.97659 73.000
78.99654 81.000
79.01649 83.000
79.03643 89.000
79.05638 92.000
79.07633 61.000
79.09628 62.000
79.11622 82.000
79.13617 86.000
79.15612 108.000
79.17606 90.000
79.19601 82.000
79.21596 75.000
79.23590 89.000
79.25585 94.000
79.27580 91.000
79.29575 83.000
79.31569 88.000
79.33564 86.000
79.35559 82.000
79.37553 80.000
79.39548 80.000
79.41543 102.000
79.43537 73.000
79.45532 103.000
79.47527 93.000
79.49521 83.000
79.51516 92.000
79.53511 93.000
79.55506 93.000
79.57500 75.000
79.59495 88.000
79.61490 81.000
79.63484 84.000
79.65479 82.000
79.67474 89.000
79.69468 70.000
79.71463 79.000
79.73458 76.000
79.75453 86.000
79.77447 79.000
79.79442 79.000
79.81437 86.000
79.83431 87.000
79.85426 81.000
79.87421 102.000
79.89415 82.000
79.91410 82.000
79.93405 80.000
79.95399 53.000
79.97394 87.000
79.99389 74.000
80.01384 88.000
80.03378 68.000
80.05373 74.000
80.07368 72.000
80.09362 76.000
80.11357 96.000
80.13352 69.000
80.15346 75.000
80.17341 78.000
80.19336 91.000
80.21331 91.000
80.23325 111.000
80.25320 79.000
80.27315 61.000
80.29309 59.000
80.31304 74.000
80.33299 87.000
80.35293 64.000
80.37288 75.000
80.39283 76.000
80.41278 81.000
80.43272 73.000
80.45267 79.000
80.47262 75.000
80.49256 70.000
80.51251 72.000
80.53246 81.000
80.55240 74.000
80.57235 75.000
80.59230 66.000
80.61224 71.000
80.63219 79.000
80.65214 69.000
80.67209 69.000
80.69203 81.000
80.71198 86.000
80.73193 58.000
80.75187 65.000
80.77182 71.000
80.79177 83.000
80.81171 53.000
80.83166 87.000
80.85161 68.000
80.87156 72.000
80.89150 75.000
80.91145 63.000
80.93140 78.000
80.95134 77.000
80.97129 61.000
80.99124 79.000
81.01118 79.000
81.03113 75.000
81.05108 85.000
81.07102 70.000
81.09097 85.000
81.11092 80.000
81.13087 70.000
81.15081 68.000
81.17076 65.000
81.19071 87.000
81.21065 60.000
81.23060 77.000
81.25055 67.000
81.27049 91.000
81.29044 61.000
81.31039 78.000
81.33034 67.000
81.35028 72.000
81.37023 83.000
81.39018 78.000
81.41012 80.000
81.43007 72.000
81.45002 62.000
81.46996 68.000
81.48991 88.000
81.50986 72.000
81.52980 88.000
81.54975 69.000
81.56970 60.000
81.58965 62.000
81.60959 65.000
81.62954 75.000
81.64949 88.000
81.66943 82.000
81.68938 74.000
81.70933 79.000
81.72927 75.000
81.74922 77.000
81.76917 89.000
81.78912 69.000
81.80906 84.000
81.82901 83.000
81.84896 67.000
81.86890 75.000
81.88885 71.000
81.90880 85.000
81.92874 64.000
81.94869 80.000
81.96864 72.000
81.98859 80.000
82.00853 62.000
82.02848 91.000
82.04843 82.000
82.06837 74.000
82.08832 82.000
82.10827 79.000
82.12821 73.000
82.14816 75.000
82.16811 93.000
82.18805 90.000
82.20800 97.000
82.22795 79.000
82.24790 68.000
82.26784 69.000
82.28779 73.000
82.30774 87.000
82.32768 75.000
82.34763 101.000
82.36758 80.000
82.38752 78.000
82.40747 93.000
82.42742 79.000
82.44737 94.000
82.46731 62.000
82.48726 105.000
82.50721 80.000
82.52715 78.000
82.54710 84.000
82.56705 77.000
82.58699 84.000
82.60694 72.000
82.62689 76.000
82.64683 81.000
82.66678 95.000
82.68673 83.000
82.70668 98.000
82.72662 94.000
82.74657 87.000
82.76652 71.000
82.78646 98.000
82.80641 83.000
82.82636 91.000
82.84630 79.000
82.86625 79.000
82.88620 67.000
82.90615 75.000
82.92609 83.000
82.94604 69.000
82.96599 85.000
82.98593 82.000
83.00588 84.000
83.02583 76.000
83.04577 80.000
83.06572 72.000
83.08567 102.000
83.10561 85.000
83.12556 83.000
83.14551 59.000
83.16546 73.000
83.18540 81.000
83.20535 76.000
83.22530 81.000
83.24524 68.000
83.26519 91.000
83.28514 85.000
83.30508 81.000
83.32503 80.000
83.34498 77.000
83.36493 88.000
83.38487 69.000
83.40482 73.000
83.42477 88.000
83.44471 74.000
83.46466 74.000
83.48461 78.000
83.50455 72.000
83.52450 87.000
83.54445 75.000
83.56440 78.000
83.58434 79.000
83.60429 78.000
83.62424 68.000
83.64418 67.000
83.66413 74.000
83.68408 85.000
83.70402 107.000
83.72397 75.000
83.74392 77.000
83.76386 90.000
83.78381 79.000
83.80376 87.000
83.82371 81.000
83.84365 64.000
83.86360 93.000
83.88355 84.000
83.90349 91.000
83.92344 85.000
83.94339 83.000
83.96333 86.000
83.98328 89.000
84.00323 92.000
84.02318 86.000
84.04312 87.000
84.06307 88.000
84.08302 93.000
84.10296 94.000
84.12291 94.000
84.14286 88.000
84.16280 82.000
84.18275 79.000
84.20270 100.000
84.22264 74.000
84.24259 85.000
84.26254 91.000
84.28249 64.000
84.30243 79.000
84.32238 82.000
84.34233 86.000
84.36227 74.000
84.38222 90.000
84.40217 76.000
84.42211 85.000
84.44206 79.000
84.46201 92.000
84.48196 85.000
84.50190 90.000
84.52185 81.000
84.54180 99.000
84.56174 72.000
84.58169 64.000
84.60164 89.000
84.62158 89.000
84.64153 81.000
84.66148 78.000
84.68142 83.000
84.70137 82.000
84.72132 89.000
84.74127 73.000
84.76121 74.000
84.78116 80.000
84.80111 60.000
84.82105 79.000
84.84100 77.000
84.86095 68.000
84.88089 78.000
84.90084 73.000
84.92079 74.000
84.94074 92.000
84.96068 72.000
84.98063 86.000
85.00058 82.000
85.02052 86.000
85.04047 79.000
85.06042 88.000
85.08036 82.000
85.10031 93.000
85.12026 76.000
85.14021 88.000
85.16015 83.000
85.18010 89.000
85.20005 76.000
85.21999 84.000
85.23994 75.000
85.25989 70.000
85.27983 70.000
85.29978 78.000
85.31973 74.000
85.33967 95.000
85.35962 65.000
85.37957 88.000
85.39952 80.000
85.41946 84.000
85.43941 87.000
85.45936 81.000
85.47930 86.000
85.49925 84.000
85.51920 81.000
85.53914 91.000
85.55909 109.000
85.57904 90.000
85.59899 85.000
85.61893 98.000
85.63888 92.000
85.65883 97.000
85.67877 109.000
85.69872 108.000
85.71867 82.000
85.73861 102.000
85.75856 86.000
85.77851 87.000
85.79845 113.000
85.81840 98.000
85.83835 80.000
85.85830 87.000
85.87824 95.000
85.89819 99.000
85.91814 79.000
85.93808 105.000
85.95803 97.000
85.97798 88.000
85.99792 83.000
86.01787 83.000
86.03782 86.000
86.05777 102.000
86.07771 86.000
86.09766 102.000
86.11761 91.000
86.13755 87.000
86.15750 86.000
86.17745 83.000
86.19739 90.000
86.21734 79.000
86.23729 90.000
86.25723 76.000
86.27718 88.000
86.29713 80.000
86.31708 64.000
86.33702 81.000
86.35697 81.000
86.37692 68.000
86.39686 84.000
86.41681 76.000
86.43676 97.000
86.45670 55.000
86.47665 85.000
86.49660 88.000
86.51655 81.000
86.53649 71.000
86.55644 79.000
86.57639 77.000
86.59633 86.000
86.61628 89.000
86.63623 83.000
86.65617 65.000
86.67612 90.000
86.69607 89.000
86.71602 90.000
86.73596 78.000
86.75591 73.000
86.77586 67.000
86.79580 70.000
86.81575 65.000
86.83570 80.000
86.85564 72.000
86.87559 73.000
86.89554 92.000
86.91548 72.000
86.93543 73.000
86.95538 87.000
86.97533 88.000
86.99527 76.000
87.01522 83.000
87.03517 75.000
87.05511 98.000
87.07506 79.000
87.09501 75.000
87.11495 86.000
87.13490 68.000
87.15485 71.000
87.17480 91.000
87.19474 88.000
87.21469 78.000
87.23464 92.000
87.25458 86.000
87.27453 92.000
87.29448 84.000
87.31442 90.000
87.33437 89.000
87.35432 84.000
87.37426 66.000
87.39421 104.000
87.41416 99.000
87.43411 91.000
87.45405 67.000
87.47400 94.000
87.49395 80.000
87.51389 73.000
87.53384 86.000
87.55379 64.000
87.57373 70.000
87.59368 79.000
87.61363 75.000
87.63358 63.000
87.65352 85.000
87.67347 62.000
87.69342 57.000
87.71336 81.000
87.73331 76.000
87.75326 83.000
87.77320 65.000
87.79315 65.000
87.81310 75.000
87.83304 78.000
87.85299 69.000
87.87294 74.000
87.89289 68.000
87.91283 56.000
87.93278 75.000
87.95273 83.000
87.97267 76.000
87.99262 81.000
88.01257 70.000
88.03251 66.000
88.05246 77.000
88.07241 61.000
88.09236 67.000
88.11230 75.000
88.13225 86.000
88.15220 71.000
88.17214 65.000
88.19209 78.000
88.21204 77.000
88.23198 70.000
88.25193 91.000
88.27188 77.000
88.29183 102.000
88.31177 74.000
88.33172 75.000
88.35167 73.000
88.37161 79.000
88.39156 88.000
88.41151 64.000
88.43145 76.000
88.45140 73.000
88.47135 81.000
88.49129 72.000
88.51124 70.000
88.53119 73.000
88.55114 84.000
88.57108 76.000
88.59103 70.000
88.61098 78.000
88.63092 93.000
88.65087 72.000
88.67082 75.000
88.69076 77.000
88.71071 85.000
88.73066 64.000
88.75061 84.000
88.77055 86.000
88.79050 89.000
88.81045 69.000
88.83039 84.000
88.85034 70.000
88.87029 97.000
88.89023 93.000
88.91018 66.000
88.93013 74.000
88.95007 78.000
88.97002 68.000
88.98997 88.000
89.00992 82.000
89.02986 82.000
89.04981 71.000
89.06976 87.000
89.08970 75.000
89.10965 93.000
89.12960 66.000
89.14954 71.000
89.16949 99.000
89.18944 80.000
89.20939 64.000
89.22933 85.000
89.24928 93.000
89.26923 86.000
89.28917 81.000
89.30912 94.000
89.32907 80.000
89.34901 79.000
89.36896 91.000
89.38891 81.000
89.40885 104.000
89.42880 105.000
89.44875 86.000
89.46870 122.000
89.48864 110.000
89.50859 113.000
89.52854 150.000
89.54848 124.000
89.56843 139.000
89.58838 138.000
89.60832 132.000
89.62827 126.000
89.64822 128.000
89.66817 140.000
89.68811 147.000
89.70806 130.000
89.72801 148.000
89.74795 132.000
89.76790 121.000
89.78785 145.000
89.80779 146.000
89.82774 122.000
89.84769 130.000
89.86764 132.000
89.88758 135.000
89.90753 125.000
89.92748 121.000
89.94742 132.000
89.96737 137.000
89.98732 101.000
90.00726 125.000
