10.00000 204.000
10.01995 208.000
10.03989 216.000
10.05984 194.000
10.07979 217.000
10.09973 198.000
10.11968 188.000
10.13963 226.000
10.15958 197.000
10.17952 184.000
10.19947 223.000
10.21942 200.000
10.23936 194.000
10.25931 210.000
10.27926 215.000
10.29920 205.000
10.31915 222.000
10.33910 213.000
10.35905 195.000
10.37899 224.000
10.39894 191.000
10.41889 209.000
10.43883 183.000
10.45878 213.000
10.47873 215.000
10.49867 198.000
10.51862 230.000
10.53857 214.000
10.55851 209.000
10.57846 246.000
10.59841 196.000
10.61836 201.000
10.63830 218.000
10.65825 217.000
10.67820 205.000
10.69814 219.000
10.71809 230.000
10.73804 211.000
10.75798 192.000
10.77793 221.000
10.79788 223.000
10.81783 213.000
10.83777 219.000
10.85772 209.000
10.87767 210.000
10.89761 240.000
10.91756 238.000
10.93751 220.000
10.95745 200.000
10.97740 210.000
10.99735 240.000
11.01730 200.000
11.03724 213.000
11.05719 219.000
11.07714 196.000
11.09708 225.000
11.11703 197.000
11.13698 204.000
11.15692 199.000
11.17687 193.000
11.19682 212.000
11.21676 196.000
11.23671 213.000
11.25666 234.000
11.27661 222.000
11.29655 200.000
11.31650 222.000
11.33645 208.000
11.35639 208.000
11.37634 202.000
11.39629 230.000
11.41623 225.000
11.43618 233.000
11.45613 212.000
11.47608 230.000
11.49602 232.000
11.51597 220.000
11.53592 201.000
11.55586 233.000
11.57581 217.000
11.59576 206.000
11.61570 242.000
11.63565 209.000
11.65560 216.000
11.67554 214.000
11.69549 214.000
11.71544 194.000
11.73539 228.000
11.75533 217.000
11.77528 209.000
11.79523 220.000
11.81517 218.000
11.83512 229.000
11.85507 220.000
11.87501 207.000
11.89496 207.000
11.91491 213.000
11.93486 207.000
11.95480 234.000
11.97475 206.000
11.99470 207.000
12.01464 248.000
12.03459 201.000
12.05454 209.000
12.07448 244.000
12.09443 219.000
12.11438 231.000
12.13432 205.000
12.15427 217.000
12.17422 176.000
12.19417 208.000
12.21411 221.000
12.23406 222.000
12.25401 228.000
12.27395 214.000
12.29390 214.000
12.31385 217.000
12.33379 206.000
12.35374 224.000
12.37369 240.000
12.39364 247.000
12.41358 233.000
12.43353 238.000
12.45348 217.000
12.47342 227.000
12.49337 222.000
12.51332 223.000
12.53326 234.000
12.55321 234.000
12.57316 214.000
12.59311 206.000
12.61305 223.000
12.63300 214.000
12.65295 223.000
12.67289 190.000
12.69284 229.000
12.71279 211.000
12.73273 221.000
12.75268 209.000
12.77263 227.000
12.79257 233.000
12.81252 210.000
12.83247 237.000
12.85242 212.000
12.87236 234.000
12.89231 251.000
12.91226 232.000
12.93220 231.000
12.95215 241.000
12.97210 229.000
12.99204 216.000
13.01199 239.000
13.03194 255.000
13.05189 228.000
13.07183 228.000
13.09178 250.000
13.11173 202.000
13.13167 228.000
13.15162 212.000
13.17157 242.000
13.19151 208.000
13.21146 230.000
13.23141 219.000
13.25135 198.000
13.27130 227.000
13.29125 216.000
13.31120 203.000
13.33114 251.000
13.35109 211.000
13.37104 246.000
13.39098 205.000
13.41093 207.000
13.43088 220.000
13.45082 229.000
13.47077 252.000
13.49072 208.000
13.51067 247.000
13.53061 229.000
13.55056 210.000
13.57051 221.000
13.59045 221.000
13.61040 239.000
13.63035 239.000
13.65029 238.000
13.67024 229.000
13.69019 227.000
13.71013 223.000
13.73008 216.000
13.75003 219.000
13.76998 237.000
13.78992 231.000
13.80987 220.000
13.82982 231.000
13.84976 242.000
13.86971 206.000
13.88966 250.000
13.90960 234.000
13.92955 239.000
13.94950 234.000
13.96945 207.000
13.98939 256.000
14.00934 219.000
14.02929 237.000
14.04923 223.000
14.06918 240.000
14.08913 221.000
14.10907 227.000
14.12902 223.000
14.14897 239.000
14.16892 225.000
14.18886 218.000
14.20881 216.000
14.22876 228.000
14.24870 196.000
14.26865 237.000
14.28860 220.000
14.30854 227.000
14.32849 219.000
14.34844 239.000
14.36838 227.000
14.38833 211.000
14.40828 239.000
14.42823 243.000
14.44817 244.000
14.46812 208.000
14.48807 223.000
14.50801 240.000
14.52796 247.000
14.54791 240.000
14.56785 247.000
14.58780 216.000
14.60775 215.000
14.62770 214.000
14.64764 261.000
14.66759 227.000
14.68754 218.000
14.70748 200.000
14.72743 231.000
14.74738 256.000
14.76732 241.000
14.78727 231.000
14.80722 228.000
14.82716 230.000
14.84711 225.000
14.86706 251.000
14.88701 239.000
14.90695 216.000
14.92690 243.000
14.94685 212.000
14.96679 242.000
14.98674 257.000
15.00669 241.000
15.02663 234.000
15.04658 254.000
15.06653 238.000
15.08648 234.000
15.10642 247.000
15.12637 241.000
15.14632 238.000
15.16626 243.000
15.18621 275.000
15.20616 250.000
15.22610 267.000
15.24605 246.000
15.26600 243.000
15.28594 265.000
15.30589 242.000
15.32584 239.000
15.34579 288.000
15.36573 251.000
15.38568 267.000
15.40563 286.000
15.42557 263.000
15.44552 264.000
15.46547 293.000
15.48541 257.000
15.50536 303.000
15.52531 287.000
15.54526 292.000
15.56520 319.000
15.58515 336.000
15.60510 366.000
15.62504 435.000
15.64499 414.000
15.66494 441.000
15.68488 524.000
15.70483 607.000
15.72478 726.000
15.74472 1009.000
15.76467 1309.000
15.78462 1974.000
15.80457 2944.000
15.82451 4189.000
15.84446 5260.000
15.86441 5207.000
15.88435 4700.000
15.90430 3636.000
15.92425 2811.000
15.94419 1902.000
15.96414 1184.000
15.98409 829.000
16.00404 529.000
16.02398 458.000
16.04393 417.000
16.06388 371.000
16.08382 359.000
16.10377 309.000
16.12372 285.000
16.14366 306.000
16.16361 295.000
16.18356 295.000
16.20351 296.000
16.22345 298.000
16.24340 266.000
16.26335 302.000
16.28329 284.000
16.30324 296.000
16.32319 237.000
16.34313 282.000
16.36308 266.000
16.38303 257.000
16.40297 268.000
16.42292 264.000
16.44287 262.000
16.46282 225.000
16.48276 280.000
16.50271 258.000
16.52266 247.000
16.54260 238.000
16.56255 245.000
16.58250 261.000
16.60244 269.000
16.62239 243.000
16.64234 257.000
16.66229 247.000
16.68223 234.000
16.70218 229.000
16.72213 251.000
16.74207 263.000
16.76202 236.000
16.78197 289.000
16.80191 282.000
16.82186 316.000
16.84181 343.000
16.86175 293.000
16.88170 304.000
16.90165 250.000
16.92160 251.000
16.94154 296.000
16.96149 288.000
16.98144 240.000
17.00138 244.000
17.02133 241.000
17.04128 251.000
17.06122 237.000
17.08117 236.000
17.10112 245.000
17.12107 237.000
17.14101 254.000
17.16096 235.000
17.18091 257.000
17.20085 246.000
17.22080 219.000
17.24075 232.000
17.26069 229.000
17.28064 244.000
17.30059 254.000
17.32053 252.000
17.34048 253.000
17.36043 261.000
17.38038 248.000
17.40032 263.000
17.42027 259.000
17.44022 257.000
17.46016 228.000
17.48011 242.000
17.50006 262.000
17.52000 226.000
17.53995 219.000
17.55990 217.000
17.57985 253.000
17.59979 239.000
17.61974 261.000
17.63969 256.000
17.65963 222.000
17.67958 237.000
17.69953 247.000
17.71947 247.000
17.73942 241.000
17.75937 227.000
17.77932 277.000
17.79926 257.000
17.81921 228.000
17.83916 246.000
17.85910 235.000
17.87905 240.000
17.89900 209.000
17.91894 248.000
17.93889 250.000
17.95884 246.000
17.97878 221.000
17.99873 233.000
18.01868 224.000
18.03863 217.000
18.05857 222.000
18.07852 220.000
18.09847 214.000
18.11841 259.000
18.13836 249.000
18.15831 249.000
18.17825 260.000
18.19820 234.000
18.21815 259.000
18.23810 243.000
18.25804 271.000
18.27799 262.000
18.29794 242.000
18.31788 244.000
18.33783 247.000
18.35778 294.000
18.37772 266.000
18.39767 236.000
18.41762 248.000
18.43756 209.000
18.45751 231.000
18.47746 242.000
18.49741 243.000
18.51735 236.000
18.53730 240.000
18.55725 236.000
18.57719 235.000
18.59714 233.000
18.61709 224.000
18.63703 247.000
18.65698 235.000
18.67693 236.000
18.69688 226.000
18.71682 221.000
18.73677 215.000
18.75672 206.000
18.77666 250.000
18.79661 255.000
18.81656 252.000
18.83650 235.000
18.85645 256.000
18.87640 250.000
18.89634 217.000
18.91629 241.000
18.93624 224.000
18.95619 291.000
18.97613 219.000
18.99608 219.000
19.01603 237.000
19.03597 226.000
19.05592 232.000
19.07587 252.000
19.09581 260.000
19.11576 247.000
19.13571 257.000
19.15566 217.000
19.17560 243.000
19.19555 237.000
19.21550 267.000
19.23544 272.000
19.25539 246.000
19.27534 279.000
19.29528 239.000
19.31523 248.000
19.33518 256.000
19.35513 227.000
19.37507 266.000
19.39502 248.000
19.41497 247.000
19.43491 217.000
19.45486 266.000
19.47481 249.000
19.49475 246.000
19.51470 246.000
19.53465 266.000
19.55459 238.000
19.57454 269.000
19.59449 229.000
19.61444 243.000
19.63438 214.000
19.65433 234.000
19.67428 215.000
19.69422 227.000
19.71417 250.000
19.73412 255.000
19.75406 229.000
19.77401 227.000
19.79396 247.000
19.81391 246.000
19.83385 248.000
19.85380 216.000
19.87375 217.000
19.89369 257.000
19.91364 270.000
19.93359 270.000
19.95353 217.000
19.97348 237.000
19.99343 260.000
20.01337 233.000
20.03332 230.000
20.05327 249.000
20.07322 249.000
20.09316 222.000
20.11311 254.000
20.13306 260.000
20.15300 241.000
20.17295 227.000
20.19290 249.000
20.21284 240.000
20.23279 242.000
20.25274 248.000
20.27269 231.000
20.29263 213.000
20.31258 249.000
20.33253 248.000
20.35247 253.000
20.37242 237.000
20.39237 247.000
20.41231 257.000
20.43226 283.000
20.45221 257.000
20.47215 275.000
20.49210 244.000
20.51205 266.000
20.53200 263.000
20.55194 263.000
20.57189 260.000
20.59184 235.000
20.61178 263.000
20.63173 289.000
20.65168 258.000
20.67162 230.000
20.69157 226.000
20.71152 265.000
20.73147 245.000
20.75141 256.000
20.77136 242.000
20.79131 257.000
20.81125 292.000
20.83120 292.000
20.85115 305.000
20.87109 274.000
20.89104 284.000
20.91099 307.000
20.93094 275.000
20.95088 265.000
20.97083 256.000
20.99078 295.000
21.01072 279.000
21.03067 266.000
21.05062 309.000
21.07056 305.000
21.09051 291.000
21.11046 338.000
21.13040 328.000
21.15035 341.000
21.17030 281.000
21.19025 308.000
21.21019 285.000
21.23014 274.000
21.25009 294.000
21.27003 264.000
21.28998 253.000
21.30993 261.000
21.32987 265.000
21.34982 257.000
21.36977 256.000
21.38972 246.000
21.40966 258.000
21.42961 251.000
21.44956 250.000
21.46950 237.000
21.48945 230.000
21.50940 237.000
21.52934 241.000
21.54929 273.000
21.56924 236.000
21.58918 262.000
21.60913 233.000
21.62908 241.000
21.64903 231.000
21.66897 259.000
21.68892 262.000
21.70887 254.000
21.72881 234.000
21.74876 284.000
21.76871 262.000
21.78865 243.000
21.80860 267.000
21.82855 245.000
21.84850 228.000
21.86844 249.000
21.88839 268.000
21.90834 244.000
21.92828 247.000
21.94823 212.000
21.96818 255.000
21.98812 263.000
22.00807 247.000
22.02802 245.000
22.04796 237.000
22.06791 256.000
22.08786 239.000
22.10781 242.000
22.12775 280.000
22.14770 254.000
22.16765 246.000
22.18759 224.000
22.20754 237.000
22.22749 268.000
22.24743 243.000
22.26738 256.000
22.28733 251.000
22.30728 231.000
22.32722 255.000
22.34717 284.000
22.36712 255.000
22.38706 256.000
22.40701 267.000
22.42696 248.000
22.44690 278.000
22.46685 228.000
22.48680 252.000
22.50675 279.000
22.52669 264.000
22.54664 264.000
22.56659 263.000
22.58653 256.000
22.60648 263.000
22.62643 245.000
22.64637 245.000
22.66632 250.000
22.68627 272.000
22.70621 270.000
22.72616 233.000
22.74611 246.000
22.76606 227.000
22.78600 245.000
22.80595 252.000
22.82590 278.000
22.84584 246.000
22.86579 249.000
22.88574 249.000
22.90568 229.000
22.92563 255.000
22.94558 271.000
22.96553 273.000
22.98547 250.000
23.00542 270.000
23.02537 259.000
23.04531 237.000
23.06526 270.000
23.08521 296.000
23.10515 248.000
23.12510 287.000
23.14505 247.000
23.16499 239.000
23.18494 273.000
23.20489 247.000
23.22484 251.000
23.24478 257.000
23.26473 278.000
23.28468 257.000
23.30462 290.000
23.32457 224.000
23.34452 264.000
23.36446 235.000
23.38441 264.000
23.40436 258.000
23.42431 272.000
23.44425 255.000
23.46420 268.000
23.48415 250.000
23.50409 284.000
23.52404 266.000
23.54399 245.000
23.56393 272.000
23.58388 267.000
23.60383 272.000
23.62377 270.000
23.64372 244.000
23.66367 267.000
23.68362 236.000
23.70356 243.000
23.72351 260.000
23.74346 247.000
23.76340 261.000
23.78335 275.000
23.80330 263.000
23.82324 245.000
23.84319 243.000
23.86314 267.000
23.88309 267.000
23.90303 260.000
23.92298 246.000
23.94293 225.000
23.96287 283.000
23.98282 249.000
24.00277 267.000
24.02271 273.000
24.04266 258.000
24.06261 264.000
24.08256 266.000
24.10250 262.000
24.12245 253.000
24.14240 269.000
24.16234 255.000
24.18229 243.000
24.20224 219.000
24.22218 251.000
24.24213 290.000
24.26208 228.000
24.28202 245.000
24.30197 263.000
24.32192 284.000
24.34187 258.000
24.36181 268.000
24.38176 262.000
24.40171 291.000
24.42165 224.000
24.44160 266.000
24.46155 253.000
24.48149 212.000
24.50144 272.000
24.52139 273.000
24.54134 253.000
24.56128 246.000
24.58123 261.000
24.60118 271.000
24.62112 272.000
24.64107 249.000
24.66102 266.000
24.68096 277.000
24.70091 277.000
24.72086 261.000
24.74080 243.000
24.76075 284.000
24.78070 268.000
24.80065 264.000
24.82059 268.000
24.84054 275.000
24.86049 273.000
24.88043 309.000
24.90038 294.000
24.92033 288.000
24.94027 318.000
24.96022 338.000
24.98017 272.000
25.00012 270.000
25.02006 291.000
25.04001 301.000
25.05996 280.000
25.07990 252.000
25.09985 274.000
25.11980 276.000
25.13974 266.000
25.15969 252.000
25.17964 245.000
25.19958 292.000
25.21953 242.000
25.23948 271.000
25.25943 241.000
25.27937 277.000
25.29932 286.000
25.31927 267.000
25.33921 265.000
25.35916 257.000
25.37911 268.000
25.39905 255.000
25.41900 242.000
25.43895 285.000
25.45890 282.000
25.47884 296.000
25.49879 242.000
25.51874 281.000
25.53868 269.000
25.55863 274.000
25.57858 243.000
25.59852 251.000
25.61847 255.000
25.63842 264.000
25.65837 271.000
25.67831 243.000
25.69826 255.000
25.71821 252.000
25.73815 246.000
25.75810 274.000
25.77805 283.000
25.79799 257.000
25.81794 262.000
25.83789 255.000
25.85783 267.000
25.87778 266.000
25.89773 300.000
25.91768 267.000
25.93762 251.000
25.95757 268.000
25.97752 262.000
25.99746 255.000
26.01741 236.000
26.03736 271.000
26.05730 293.000
26.07725 273.000
26.09720 278.000
26.11715 297.000
26.13709 267.000
26.15704 265.000
26.17699 275.000
26.19693 253.000
26.21688 278.000
26.23683 287.000
26.25677 262.000
26.27672 264.000
26.29667 245.000
26.31661 289.000
26.33656 275.000
26.35651 281.000
26.37646 297.000
26.39640 301.000
26.41635 253.000
26.43630 279.000
26.45624 247.000
26.47619 240.000
26.49614 253.000
26.51608 267.000
26.53603 277.000
26.55598 273.000
26.57593 306.000
26.59587 257.000
26.61582 252.000
26.63577 290.000
26.65571 265.000
26.67566 269.000
26.69561 290.000
26.71555 276.000
26.73550 252.000
26.75545 280.000
26.77539 227.000
26.79534 293.000
26.81529 286.000
26.83524 248.000
26.85518 284.000
26.87513 284.000
26.89508 255.000
26.91502 293.000
26.93497 317.000
26.95492 284.000
26.97486 280.000
26.99481 303.000
27.01476 277.000
27.03471 278.000
27.05465 282.000
27.07460 277.000
27.09455 306.000
27.11449 258.000
27.13444 279.000
27.15439 295.000
27.17433 290.000
27.19428 311.000
27.21423 315.000
27.23417 285.000
27.25412 262.000
27.27407 286.000
27.29402 277.000
27.31396 301.000
27.33391 301.000
27.35386 275.000
27.37380 300.000
27.39375 303.000
27.41370 297.000
27.43364 280.000
27.45359 257.000
27.47354 301.000
27.49349 274.000
27.51343 290.000
27.53338 239.000
27.55333 260.000
27.57327 290.000
27.59322 296.000
27.61317 282.000
27.63311 283.000
27.65306 293.000
27.67301 334.000
27.69296 275.000
27.71290 298.000
27.73285 269.000
27.75280 277.000
27.77274 288.000
27.79269 290.000
27.81264 298.000
27.83258 279.000
27.85253 308.000
27.87248 283.000
27.89242 272.000
27.91237 259.000
27.93232 287.000
27.95227 263.000
27.97221 278.000
27.99216 284.000
28.01211 275.000
28.03205 237.000
28.05200 272.000
28.07195 282.000
28.09189 286.000
28.11184 283.000
28.13179 292.000
28.15174 283.000
28.17168 283.000
28.19163 286.000
28.21158 272.000
28.23152 284.000
28.25147 285.000
28.27142 301.000
28.29136 318.000
28.31131 349.000
28.33126 306.000
28.35120 332.000
28.37115 314.000
28.39110 316.000
28.41105 309.000
28.43099 295.000
28.45094 331.000
28.47089 307.000
28.49083 282.000
28.51078 339.000
28.53073 290.000
28.55067 294.000
28.57062 313.000
28.59057 286.000
28.61052 254.000
28.63046 291.000
28.65041 308.000
28.67036 272.000
28.69030 272.000
28.71025 278.000
28.73020 300.000
28.75014 289.000
28.77009 288.000
28.79004 296.000
28.80998 244.000
28.82993 296.000
28.84988 289.000
28.86983 276.000
28.88977 270.000
28.90972 314.000
28.92967 296.000
28.94961 288.000
28.96956 288.000
28.98951 270.000
29.00945 296.000
29.02940 294.000
29.04935 273.000
29.06930 280.000
29.08924 304.000
29.10919 290.000
29.12914 291.000
29.14908 301.000
29.16903 320.000
29.18898 310.000
29.20892 291.000
29.22887 297.000
29.24882 372.000
29.26877 354.000
29.28871 390.000
29.30866 379.000
29.32861 455.000
29.34855 421.000
29.36850 442.000
29.38845 468.000
29.40839 423.000
29.42834 446.000
29.44829 383.000
29.46823 454.000
29.48818 401.000
29.50813 345.000
29.52808 326.000
29.54802 343.000
29.56797 313.000
29.58792 310.000
29.60786 340.000
29.62781 319.000
29.64776 314.000
29.66770 288.000
29.68765 285.000
29.70760 290.000
29.72755 289.000
29.74749 288.000
29.76744 313.000
29.78739 295.000
29.80733 276.000
29.82728 304.000
29.84723 266.000
29.86717 322.000
29.88712 295.000
29.90707 276.000
29.92701 313.000
29.94696 296.000
29.96691 283.000
29.98686 308.000
30.00680 291.000
30.02675 314.000
30.04670 271.000
30.06664 310.000
30.08659 331.000
30.10654 315.000
30.12648 301.000
30.14643 246.000
30.16638 281.000
30.18633 279.000
30.20627 303.000
30.22622 287.000
30.24617 280.000
30.26611 286.000
30.28606 296.000
30.30601 295.000
30.32595 285.000
30.34590 284.000
30.36585 311.000
30.38579 295.000
30.40574 294.000
30.42569 285.000
30.44564 341.000
30.46558 263.000
30.48553 321.000
30.50548 309.000
30.52542 282.000
30.54537 271.000
30.56532 286.000
30.58526 273.000
30.60521 286.000
30.62516 305.000
30.64511 286.000
30.66505 286.000
30.68500 292.000
30.70495 282.000
30.72489 280.000
30.74484 296.000
30.76479 270.000
30.78473 287.000
30.80468 285.000
30.82463 306.000
30.84458 274.000
30.86452 295.000
30.88447 306.000
30.90442 271.000
30.92436 245.000
30.94431 290.000
30.96426 275.000
30.98420 284.000
31.00415 303.000
31.02410 291.000
31.04404 289.000
31.06399 316.000
31.08394 314.000
31.10389 304.000
31.12383 310.000
31.14378 284.000
31.16373 276.000
31.18367 252.000
31.20362 277.000
31.22357 283.000
31.24351 272.000
31.26346 302.000
31.28341 280.000
31.30336 257.000
31.32330 292.000
31.34325 292.000
31.36320 279.000
31.38314 335.000
31.40309 303.000
31.42304 301.000
31.44298 319.000
31.46293 292.000
31.48288 312.000
31.50282 316.000
31.52277 339.000
31.54272 305.000
31.56267 310.000
31.58261 330.000
31.60256 303.000
31.62251 327.000
31.64245 309.000
31.66240 318.000
31.68235 323.000
31.70229 280.000
31.72224 330.000
31.74219 310.000
31.76214 341.000
31.78208 322.000
31.80203 298.000
31.82198 335.000
31.84192 366.000
31.86187 352.000
31.88182 351.000
31.90176 334.000
31.92171 390.000
31.94166 405.000
31.96160 458.000
31.98155 594.000
32.00150 684.000
32.02145 719.000
32.04139 824.000
32.06134 711.000
32.08129 709.000
32.10123 691.000
32.12118 634.000
32.14113 545.000
32.16107 491.000
32.18102 443.000
32.20097 381.000
32.22092 345.000
32.24086 341.000
32.26081 315.000
32.28076 297.000
32.30070 268.000
32.32065 284.000
32.34060 300.000
32.36054 331.000
32.38049 289.000
32.40044 272.000
32.42039 305.000
32.44033 285.000
32.46028 294.000
32.48023 303.000
32.50017 255.000
32.52012 291.000
32.54007 277.000
32.56001 290.000
32.57996 267.000
32.59991 290.000
32.61985 311.000
32.63980 268.000
32.65975 323.000
32.67970 305.000
32.69964 295.000
32.71959 312.000
32.73954 271.000
32.75948 300.000
32.77943 291.000
32.79938 317.000
32.81932 276.000
32.83927 300.000
32.85922 301.000
32.87917 270.000
32.89911 272.000
32.91906 293.000
32.93901 281.000
32.95895 284.000
32.97890 282.000
32.99885 284.000
33.01879 280.000
33.03874 292.000
33.05869 333.000
33.07863 282.000
33.09858 301.000
33.11853 309.000
33.13848 305.000
33.15842 308.000
33.17837 294.000
33.19832 254.000
33.21826 289.000
33.23821 279.000
33.25816 275.000
33.27810 275.000
33.29805 277.000
33.31800 302.000
33.33795 292.000
33.35789 282.000
33.37784 272.000
33.39779 299.000
33.41773 283.000
33.43768 300.000
33.45763 301.000
33.47757 281.000
33.49752 286.000
33.51747 282.000
33.53741 276.000
33.55736 313.000
33.57731 302.000
33.59726 297.000
33.61720 283.000
33.63715 284.000
33.65710 287.000
33.67704 280.000
33.69699 316.000
33.71694 307.000
33.73688 254.000
33.75683 293.000
33.77678 294.000
33.79673 299.000
33.81667 262.000
33.83662 324.000
33.85657 251.000
33.87651 330.000
33.89646 269.000
33.91641 325.000
33.93635 298.000
33.95630 289.000
33.97625 307.000
33.99620 297.000
34.01614 311.000
34.03609 308.000
34.05604 301.000
34.07598 294.000
34.09593 305.000
34.11588 297.000
34.13582 301.000
34.15577 316.000
34.17572 318.000
34.19566 288.000
34.21561 285.000
34.23556 301.000
34.25551 276.000
34.27545 334.000
34.29540 317.000
34.31535 303.000
34.33529 361.000
34.35524 327.000
34.37519 310.000
34.39513 302.000
34.41508 312.000
34.43503 308.000
34.45498 306.000
34.47492 286.000
34.49487 338.000
34.51482 324.000
34.53476 290.000
34.55471 344.000
34.57466 334.000
34.59460 319.000
34.61455 309.000
34.63450 317.000
34.65444 300.000
34.67439 368.000
34.69434 371.000
34.71429 334.000
34.73423 384.000
34.75418 368.000
34.77413 381.000
34.79407 440.000
34.81402 406.000
34.83397 402.000
34.85391 385.000
34.87386 409.000
34.89381 419.000
34.91376 344.000
34.93370 359.000
34.95365 386.000
34.97360 344.000
34.99354 298.000
35.01349 321.000
35.03344 295.000
35.05338 301.000
35.07333 307.000
35.09328 298.000
35.11322 323.000
35.13317 272.000
35.15312 305.000
35.17307 295.000
35.19301 303.000
35.21296 316.000
35.23291 312.000
35.25285 307.000
35.27280 311.000
35.29275 304.000
35.31269 304.000
35.33264 307.000
35.35259 295.000
35.37254 286.000
35.39248 301.000
35.41243 283.000
35.43238 314.000
35.45232 283.000
35.47227 298.000
35.49222 314.000
35.51216 290.000
35.53211 336.000
35.55206 323.000
35.57201 322.000
35.59195 348.000
35.61190 332.000
35.63185 344.000
35.65179 356.000
35.67174 349.000
35.69169 343.000
35.71163 392.000
35.73158 399.000
35.75153 422.000
35.77147 512.000
35.79142 542.000
35.81137 615.000
35.83132 662.000
35.85126 730.000
35.87121 838.000
35.89116 834.000
35.91110 780.000
35.93105 747.000
35.95100 662.000
35.97094 662.000
35.99089 562.000
36.01084 537.000
36.03079 460.000
36.05073 437.000
36.07068 413.000
36.09063 392.000
36.11057 339.000
36.13052 327.000
36.15047 371.000
36.17041 330.000
36.19036 326.000
36.21031 338.000
36.23025 363.000
36.25020 357.000
36.27015 345.000
36.29010 339.000
36.31004 367.000
36.32999 364.000
36.34994 367.000
36.36988 362.000
36.38983 381.000
36.40978 353.000
36.42972 405.000
36.44967 359.000
36.46962 381.000
36.48957 358.000
36.50951 368.000
36.52946 395.000
36.54941 359.000
36.56935 345.000
36.58930 372.000
36.60925 350.000
36.62919 401.000
36.64914 392.000
36.66909 384.000
36.68903 381.000
36.70898 419.000
36.72893 435.000
36.74888 445.000
36.76882 471.000
36.78877 476.000
36.80872 502.000
36.82866 486.000
36.84861 555.000
36.86856 542.000
36.88850 593.000
36.90845 630.000
36.92840 661.000
36.94835 724.000
36.96829 823.000
36.98824 836.000
37.00819 956.000
37.02813 1204.000
37.04808 1641.000
37.06803 2261.000
37.08797 3541.000
37.10792 4805.000
37.12787 5750.000
37.14781 5999.000
37.16776 5811.000
37.18771 5381.000
37.20766 5021.000
37.22760 4541.000
37.24755 3801.000
37.26750 3130.000
37.28744 2439.000
37.30739 1743.000
37.32734 1275.000
37.34728 1022.000
37.36723 815.000
37.38718 633.000
37.40713 543.000
37.42707 472.000
37.44702 505.000
37.46697 437.000
37.48691 470.000
37.50686 390.000
37.52681 400.000
37.54675 421.000
37.56670 397.000
37.58665 391.000
37.60660 358.000
37.62654 373.000
37.64649 371.000
37.66644 368.000
37.68638 349.000
37.70633 384.000
37.72628 357.000
37.74622 351.000
37.76617 346.000
37.78612 324.000
37.80606 331.000
37.82601 323.000
37.84596 344.000
37.86591 341.000
37.88585 348.000
37.90580 359.000
37.92575 307.000
37.94569 299.000
37.96564 336.000
37.98559 305.000
38.00553 302.000
38.02548 300.000
38.04543 289.000
38.06538 324.000
38.08532 287.000
38.10527 327.000
38.12522 301.000
38.14516 315.000
38.16511 306.000
38.18506 311.000
38.20500 314.000
38.22495 314.000
38.24490 302.000
38.26484 294.000
38.28479 301.000
38.30474 297.000
38.32469 271.000
38.34463 301.000
38.36458 325.000
38.38453 311.000
38.40447 358.000
38.42442 297.000
38.44437 283.000
38.46431 341.000
38.48426 315.000
38.50421 304.000
38.52416 331.000
38.54410 309.000
38.56405 318.000
38.58400 291.000
38.60394 297.000
38.62389 304.000
38.64384 266.000
38.66378 322.000
38.68373 318.000
38.70368 285.000
38.72362 354.000
38.74357 312.000
38.76352 298.000
38.78347 340.000
38.80341 350.000
38.82336 339.000
38.84331 335.000
38.86325 314.000
38.88320 330.000
38.90315 344.000
38.92309 321.000
38.94304 304.000
38.96299 340.000
38.98294 335.000
39.00288 317.000
39.02283 337.000
39.04278 364.000
39.06272 351.000
39.08267 355.000
39.10262 360.000
39.12256 379.000
39.14251 352.000
39.16246 378.000
39.18241 376.000
39.20235 361.000
39.22230 380.000
39.24225 430.000
39.26219 493.000
39.28214 499.000
39.30209 499.000
39.32203 636.000
39.34198 729.000
39.36193 802.000
39.38187 879.000
39.40182 1008.000
39.42177 1197.000
39.44172 1199.000
39.46166 1195.000
39.48161 1218.000
39.50156 1172.000
39.52150 1053.000
39.54145 929.000
39.56140 851.000
39.58134 818.000
39.60129 701.000
39.62124 592.000
39.64119 519.000
39.66113 446.000
39.68108 430.000
39.70103 385.000
39.72097 382.000
39.74092 338.000
39.76087 347.000
39.78081 350.000
39.80076 351.000
39.82071 300.000
39.84065 332.000
39.86060 352.000
39.88055 319.000
39.90050 304.000
39.92044 325.000
39.94039 338.000
39.96034 321.000
39.98028 325.000
40.00023 323.000
40.02018 346.000
40.04012 297.000
40.06007 290.000
40.08002 301.000
40.09997 273.000
40.11991 307.000
40.13986 293.000
40.15981 308.000
40.17975 309.000
40.19970 271.000
40.21965 307.000
40.23959 322.000
40.25954 291.000
40.27949 306.000
40.29943 265.000
40.31938 286.000
40.33933 280.000
40.35928 286.000
40.37922 267.000
40.39917 278.000
40.41912 287.000
40.43906 273.000
40.45901 286.000
40.47896 294.000
40.49890 292.000
40.51885 299.000
40.53880 299.000
40.55875 256.000
40.57869 306.000
40.59864 290.000
40.61859 288.000
40.63853 293.000
40.65848 273.000
40.67843 282.000
40.69837 303.000
40.71832 292.000
40.73827 289.000
40.75822 290.000
40.77816 297.000
40.79811 276.000
40.81806 307.000
40.83800 299.000
40.85795 314.000
40.87790 292.000
40.89784 279.000
40.91779 303.000
40.93774 286.000
40.95768 294.000
40.97763 307.000
40.99758 250.000
41.01753 273.000
41.03747 312.000
41.05742 289.000
41.07737 316.000
41.09731 314.000
41.11726 280.000
41.13721 275.000
41.15715 310.000
41.17710 292.000
41.19705 305.000
41.21700 314.000
41.23694 292.000
41.25689 297.000
41.27684 301.000
41.29678 292.000
41.31673 300.000
41.33668 298.000
41.35662 274.000
41.37657 298.000
41.39652 278.000
41.41646 276.000
41.43641 316.000
41.45636 293.000
41.47631 293.000
41.49625 299.000
41.51620 278.000
41.53615 284.000
41.55609 299.000
41.57604 313.000
41.59599 294.000
41.61593 305.000
41.63588 304.000
41.65583 300.000
41.67578 279.000
41.69572 288.000
41.71567 303.000
41.73562 297.000
41.75556 291.000
41.77551 310.000
41.79546 306.000
41.81540 322.000
41.83535 326.000
41.85530 310.000
41.87524 280.000
41.89519 310.000
41.91514 354.000
41.93509 324.000
41.95503 278.000
41.97498 326.000
41.99493 296.000
42.01487 325.000
42.03482 328.000
42.05477 309.000
42.07471 290.000
42.09466 314.000
42.11461 360.000
42.13456 353.000
42.15450 336.000
42.17445 316.000
42.19440 352.000
42.21434 304.000
42.23429 315.000
42.25424 370.000
42.27418 324.000
42.29413 325.000
42.31408 328.000
42.33403 345.000
42.35397 342.000
42.37392 385.000
42.39387 337.000
42.41381 354.000
42.43376 379.000
42.45371 377.000
42.47365 374.000
42.49360 374.000
42.51355 368.000
42.53349 367.000
42.55344 370.000
42.57339 405.000
42.59334 399.000
42.61328 467.000
42.63323 427.000
42.65318 466.000
42.67312 438.000
42.69307 486.000
42.71302 488.000
42.73296 502.000
42.75291 517.000
42.77286 518.000
42.79281 531.000
42.81275 560.000
42.83270 598.000
42.85265 663.000
42.87259 719.000
42.89254 759.000
42.91249 851.000
42.93243 876.000
42.95238 998.000
42.97233 1141.000
42.99227 1246.000
43.01222 1474.000
43.03217 1797.000
43.05212 2404.000
43.07206 3208.000
43.09201 4328.000
43.11196 5732.000
43.13190 6962.000
43.15185 7844.000
43.17180 8095.000
43.19174 7953.000
43.21169 7289.000
43.23164 6587.000
43.25159 6080.000
43.27153 5537.000
43.29148 4618.000
43.31143 3982.000
43.33137 3008.000
43.35132 2372.000
43.37127 1787.000
43.39121 1390.000
43.41116 1053.000
43.43111 971.000
43.45105 872.000
43.47100 797.000
43.49095 794.000
43.51090 827.000
43.53084 771.000
43.55079 835.000
43.57074 792.000
43.59068 805.000
43.61063 755.000
43.63058 647.000
43.65052 641.000
43.67047 642.000
43.69042 579.000
43.71037 569.000
43.73031 475.000
43.75026 450.000
43.77021 428.000
43.79015 395.000
43.81010 382.000
43.83005 386.000
43.84999 375.000
43.86994 387.000
43.88989 377.000
43.90984 356.000
43.92978 352.000
43.94973 346.000
43.96968 350.000
43.98962 331.000
44.00957 321.000
44.02952 319.000
44.04946 333.000
44.06941 322.000
44.08936 288.000
44.10930 350.000
44.12925 333.000
44.14920 331.000
44.16915 319.000
44.18909 309.000
44.20904 337.000
44.22899 339.000
44.24893 289.000
44.26888 300.000
44.28883 311.000
44.30877 322.000
44.32872 321.000
44.34867 300.000
44.36862 313.000
44.38856 326.000
44.40851 326.000
44.42846 295.000
44.44840 296.000
44.46835 300.000
44.48830 320.000
44.50824 321.000
44.52819 316.000
44.54814 295.000
44.56808 319.000
44.58803 286.000
44.60798 279.000
44.62793 310.000
44.64787 320.000
44.66782 294.000
44.68777 299.000
44.70771 314.000
44.72766 294.000
44.74761 333.000
44.76755 336.000
44.78750 316.000
44.80745 284.000
44.82740 317.000
44.84734 291.000
44.86729 300.000
44.88724 313.000
44.90718 320.000
44.92713 301.000
44.94708 308.000
44.96702 309.000
44.98697 314.000
45.00692 311.000
45.02686 327.000
45.04681 329.000
45.06676 331.000
45.08671 306.000
45.10665 338.000
45.12660 349.000
45.14655 346.000
45.16649 349.000
45.18644 397.000
45.20639 312.000
45.22633 332.000
45.24628 346.000
45.26623 273.000
45.28618 357.000
45.30612 346.000
45.32607 340.000
45.34602 337.000
45.36596 305.000
45.38591 326.000
45.40586 285.000
45.42580 307.000
45.44575 294.000
45.46570 255.000
45.48565 306.000
45.50559 333.000
45.52554 291.000
45.54549 275.000
45.56543 307.000
45.58538 297.000
45.60533 323.000
45.62527 286.000
45.64522 281.000
45.66517 300.000
45.68511 294.000
45.70506 302.000
45.72501 293.000
45.74496 286.000
45.76490 285.000
45.78485 284.000
45.80480 293.000
45.82474 289.000
45.84469 294.000
45.86464 256.000
45.88458 284.000
45.90453 279.000
45.92448 267.000
45.94443 283.000
45.96437 283.000
45.98432 290.000
46.00427 290.000
46.02421 266.000
46.04416 272.000
46.06411 270.000
46.08405 279.000
46.10400 283.000
46.12395 274.000
46.14389 272.000
46.16384 278.000
46.18379 257.000
46.20374 269.000
46.22368 314.000
46.24363 243.000
46.26358 252.000
46.28352 251.000
46.30347 297.000
46.32342 304.000
46.34336 251.000
46.36331 284.000
46.38326 305.000
46.40321 293.000
46.42315 266.000
46.44310 277.000
46.46305 290.000
46.48299 284.000
46.50294 299.000
46.52289 306.000
46.54283 273.000
46.56278 263.000
46.58273 290.000
46.60267 294.000
46.62262 285.000
46.64257 272.000
46.66252 280.000
46.68246 266.000
46.70241 287.000
46.72236 238.000
46.74230 281.000
46.76225 291.000
46.78220 300.000
46.80214 278.000
46.82209 300.000
46.84204 312.000
46.86199 303.000
46.88193 309.000
46.90188 249.000
46.92183 265.000
46.94177 264.000
46.96172 280.000
46.98167 286.000
47.00161 262.000
47.02156 273.000
47.04151 261.000
47.06146 254.000
47.08140 300.000
47.10135 247.000
47.12130 266.000
47.14124 295.000
47.16119 324.000
47.18114 256.000
47.20108 302.000
47.22103 312.000
47.24098 294.000
47.26092 270.000
47.28087 292.000
47.30082 270.000
47.32077 260.000
47.34071 248.000
47.36066 264.000
47.38061 279.000
47.40055 291.000
47.42050 298.000
47.44045 259.000
47.46039 319.000
47.48034 296.000
47.50029 237.000
47.52024 310.000
47.54018 286.000
47.56013 261.000
47.58008 280.000
47.60002 289.000
47.61997 272.000
47.63992 273.000
47.65986 274.000
47.67981 296.000
47.69976 297.000
47.71970 305.000
47.73965 266.000
47.75960 274.000
47.77955 296.000
47.79949 274.000
47.81944 296.000
47.83939 267.000
47.85933 275.000
47.87928 271.000
47.89923 321.000
47.91917 308.000
47.93912 284.000
47.95907 299.000
47.97902 302.000
47.99896 318.000
48.01891 302.000
48.03886 292.000
48.05880 323.000
48.07875 369.000
48.09870 348.000
48.11864 290.000
48.13859 282.000
48.15854 309.000
48.17848 310.000
48.19843 312.000
48.21838 305.000
48.23833 308.000
48.25827 309.000
48.27822 288.000
48.29817 301.000
48.31811 314.000
48.33806 315.000
48.35801 342.000
48.37795 302.000
48.39790 322.000
48.41785 343.000
48.43780 320.000
48.45774 320.000
48.47769 353.000
48.49764 350.000
48.51758 355.000
48.53753 360.000
48.55748 376.000
48.57742 377.000
48.59737 400.000
48.61732 377.000
48.63726 405.000
48.65721 431.000
48.67716 463.000
48.69711 499.000
48.71705 545.000
48.73700 604.000
48.75695 709.000
48.77689 842.000
48.79684 960.000
48.81679 943.000
48.83673 1054.000
48.85668 1080.000
48.87663 997.000
48.89658 1023.000
48.91652 917.000
48.93647 895.000
48.95642 931.000
48.97636 860.000
48.99631 748.000
49.01626 709.000
49.03620 632.000
49.05615 589.000
49.07610 509.000
49.09605 467.000
49.11599 439.000
49.13594 406.000
49.15589 354.000
49.17583 330.000
49.19578 332.000
49.21573 341.000
49.23567 338.000
49.25562 317.000
49.27557 310.000
49.29551 326.000
49.31546 327.000
49.33541 347.000
49.35536 337.000
49.37530 297.000
49.39525 304.000
49.41520 331.000
49.43514 284.000
49.45509 280.000
49.47504 321.000
49.49498 324.000
49.51493 328.000
49.53488 293.000
49.55483 328.000
49.57477 275.000
49.59472 301.000
49.61467 334.000
49.63461 290.000
49.65456 285.000
49.67451 287.000
49.69445 282.000
49.71440 278.000
49.73435 272.000
49.75429 317.000
49.77424 244.000
49.79419 300.000
49.81414 298.000
49.83408 266.000
49.85403 296.000
49.87398 309.000
49.89392 267.000
49.91387 269.000
49.93382 265.000
49.95376 279.000
49.97371 304.000
49.99366 288.000
50.01361 275.000
50.03355 260.000
50.05350 268.000
50.07345 269.000
50.09339 269.000
50.11334 265.000
50.13329 277.000
50.15323 295.000
50.17318 280.000
50.19313 287.000
50.21307 312.000
50.23302 295.000
50.25297 276.000
50.27292 314.000
50.29286 299.000
50.31281 294.000
50.33276 287.000
50.35270 314.000
50.37265 272.000
50.39260 274.000
50.41254 257.000
50.43249 282.000
50.45244 302.000
50.47239 289.000
50.49233 255.000
50.51228 238.000
50.53223 291.000
50.55217 287.000
50.57212 259.000
50.59207 252.000
50.61201 280.000
50.63196 314.000
50.65191 282.000
50.67186 265.000
50.69180 277.000
50.71175 265.000
50.73170 309.000
50.75164 246.000
50.77159 265.000
50.79154 262.000
50.81148 248.000
50.83143 283.000
50.85138 285.000
50.87132 298.000
50.89127 297.000
50.91122 279.000
50.93117 298.000
50.95111 296.000
50.97106 283.000
50.99101 279.000
51.01095 274.000
51.03090 284.000
51.05085 250.000
51.07079 268.000
51.09074 257.000
51.11069 242.000
51.13064 272.000
51.15058 286.000
51.17053 273.000
51.19048 255.000
51.21042 251.000
51.23037 286.000
51.25032 264.000
51.27026 260.000
51.29021 260.000
51.31016 268.000
51.33010 282.000
51.35005 275.000
51.37000 267.000
51.38995 265.000
51.40989 262.000
51.42984 276.000
51.44979 283.000
51.46973 262.000
51.48968 297.000
51.50963 260.000
51.52957 262.000
51.54952 268.000
51.56947 260.000
51.58942 297.000
51.60936 262.000
51.62931 261.000
51.64926 267.000
51.66920 239.000
51.68915 282.000
51.70910 241.000
51.72904 285.000
51.74899 294.000
51.76894 278.000
51.78888 282.000
51.80883 276.000
51.82878 253.000
51.84873 288.000
51.86867 314.000
51.88862 302.000
51.90857 292.000
51.92851 278.000
51.94846 281.000
51.96841 294.000
51.98835 313.000
52.00830 331.000
52.02825 284.000
52.04820 329.000
52.06814 323.000
52.08809 276.000
52.10804 275.000
52.12798 305.000
52.14793 299.000
52.16788 293.000
52.18782 343.000
52.20777 326.000
52.22772 297.000
52.24767 291.000
52.26761 271.000
52.28756 311.000
52.30751 262.000
52.32745 293.000
52.34740 256.000
52.36735 305.000
52.38729 262.000
52.40724 291.000
52.42719 271.000
52.44713 266.000
52.46708 266.000
52.48703 283.000
52.50698 270.000
52.52692 269.000
52.54687 269.000
52.56682 261.000
52.58676 273.000
52.60671 276.000
52.62666 280.000
52.64660 283.000
52.66655 278.000
52.68650 254.000
52.70645 278.000
52.72639 296.000
52.74634 286.000
52.76629 297.000
52.78623 268.000
52.80618 269.000
52.82613 288.000
52.84607 283.000
52.86602 271.000
52.88597 283.000
52.90591 281.000
52.92586 292.000
52.94581 268.000
52.96576 308.000
52.98570 275.000
53.00565 277.000
53.02560 259.000
53.04554 266.000
53.06549 324.000
53.08544 272.000
53.10538 240.000
53.12533 265.000
53.14528 279.000
53.16523 298.000
53.18517 262.000
53.20512 267.000
53.22507 248.000
53.24501 272.000
53.26496 309.000
53.28491 271.000
53.30485 264.000
53.32480 254.000
53.34475 262.000
53.36469 274.000
53.38464 265.000
53.40459 274.000
53.42454 272.000
53.44448 242.000
53.46443 272.000
53.48438 270.000
53.50432 296.000
53.52427 275.000
53.54422 268.000
53.56416 291.000
53.58411 280.000
53.60406 278.000
53.62401 268.000
53.64395 274.000
53.66390 264.000
53.68385 275.000
53.70379 292.000
53.72374 280.000
53.74369 274.000
53.76363 264.000
53.78358 265.000
53.80353 277.000
53.82348 271.000
53.84342 263.000
53.86337 269.000
53.88332 259.000
53.90326 286.000
53.92321 280.000
53.94316 242.000
53.96310 281.000
53.98305 249.000
54.00300 311.000
54.02294 257.000
54.04289 286.000
54.06284 277.000
54.08279 290.000
54.10273 290.000
54.12268 262.000
54.14263 279.000
54.16257 277.000
54.18252 269.000
54.20247 267.000
54.22241 288.000
54.24236 254.000
54.26231 287.000
54.28226 271.000
54.30220 266.000
54.32215 241.000
54.34210 276.000
54.36204 263.000
54.38199 293.000
54.40194 289.000
54.42188 252.000
54.44183 281.000
54.46178 272.000
54.48172 306.000
54.50167 245.000
54.52162 293.000
54.54157 277.000
54.56151 260.000
54.58146 278.000
54.60141 269.000
54.62135 291.000
54.64130 290.000
54.66125 262.000
54.68119 267.000
54.70114 276.000
54.72109 285.000
54.74104 250.000
54.76098 287.000
54.78093 277.000
54.80088 270.000
54.82082 237.000
54.84077 260.000
54.86072 271.000
54.88066 300.000
54.90061 298.000
54.92056 268.000
54.94050 268.000
54.96045 296.000
54.98040 270.000
55.00035 279.000
55.02029 237.000
55.04024 285.000
55.06019 263.000
55.08013 307.000
55.10008 274.000
55.12003 282.000
55.13997 290.000
55.15992 233.000
55.17987 314.000
55.19982 306.000
55.21976 276.000
55.23971 288.000
55.25966 272.000
55.27960 291.000
55.29955 272.000
55.31950 274.000
55.33944 278.000
55.35939 280.000
55.37934 271.000
55.39929 264.000
55.41923 274.000
55.43918 286.000
55.45913 267.000
55.47907 317.000
55.49902 274.000
55.51897 266.000
55.53891 290.000
55.55886 270.000
55.57881 269.000
55.59875 262.000
55.61870 283.000
55.63865 271.000
55.65860 246.000
55.67854 265.000
55.69849 278.000
55.71844 278.000
55.73838 299.000
55.75833 265.000
55.77828 256.000
55.79822 274.000
55.81817 259.000
55.83812 273.000
55.85807 268.000
55.87801 281.000
55.89796 292.000
55.91791 284.000
55.93785 259.000
55.95780 273.000
55.97775 262.000
55.99769 272.000
56.01764 267.000
56.03759 290.000
56.05753 262.000
56.07748 253.000
56.09743 235.000
56.11738 245.000
56.13732 251.000
56.15727 283.000
56.17722 291.000
56.19716 273.000
56.21711 264.000
56.23706 268.000
56.25700 249.000
56.27695 244.000
56.29690 262.000
56.31685 278.000
56.33679 268.000
56.35674 285.000
56.37669 278.000
56.39663 271.000
56.41658 282.000
56.43653 280.000
56.45647 259.000
56.47642 291.000
56.49637 260.000
56.51631 274.000
56.53626 272.000
56.55621 239.000
56.57616 261.000
56.59610 262.000
56.61605 243.000
56.63600 263.000
56.65594 263.000
56.67589 265.000
56.69584 275.000
56.71578 269.000
56.73573 288.000
56.75568 278.000
56.77563 290.000
56.79557 262.000
56.81552 313.000
56.83547 263.000
56.85541 279.000
56.87536 297.000
56.89531 269.000
56.91525 305.000
56.93520 230.000
56.95515 266.000
56.97510 297.000
56.99504 284.000
57.01499 273.000
57.03494 281.000
57.05488 253.000
57.07483 274.000
57.09478 273.000
57.11472 299.000
57.13467 280.000
57.15462 295.000
57.17456 266.000
57.19451 288.000
57.21446 279.000
57.23441 272.000
57.25435 275.000
57.27430 280.000
57.29425 297.000
57.31419 266.000
57.33414 257.000
57.35409 291.000
57.37403 261.000
57.39398 280.000
57.41393 248.000
57.43388 289.000
57.45382 283.000
57.47377 273.000
57.49372 285.000
57.51366 293.000
57.53361 294.000
57.55356 279.000
57.57350 275.000
57.59345 293.000
57.61340 285.000
57.63334 290.000
57.65329 290.000
57.67324 295.000
57.69319 275.000
57.71313 281.000
57.73308 258.000
57.75303 271.000
57.77297 271.000
57.79292 290.000
57.81287 284.000
57.83281 267.000
57.85276 293.000
57.87271 247.000
57.89266 313.000
57.91260 285.000
57.93255 306.000
57.95250 288.000
57.97244 299.000
57.99239 267.000
58.01234 274.000
58.03228 281.000
58.05223 265.000
58.07218 271.000
58.09212 295.000
58.11207 255.000
58.13202 278.000
58.15197 292.000
58.17191 271.000
58.19186 243.000
58.21181 270.000
58.23175 265.000
58.25170 314.000
58.27165 279.000
58.29159 270.000
58.31154 279.000
58.33149 259.000
58.35144 265.000
58.37138 260.000
58.39133 240.000
58.41128 263.000
58.43122 239.000
58.45117 270.000
58.47112 259.000
58.49106 268.000
58.51101 268.000
58.53096 262.000
58.55090 282.000
58.57085 294.000
58.59080 252.000
58.61075 291.000
58.63069 259.000
58.65064 273.000
58.67059 274.000
58.69053 321.000
58.71048 300.000
58.73043 277.000
58.75037 272.000
58.77032 266.000
58.79027 240.000
58.81022 278.000
58.83016 261.000
58.85011 243.000
58.87006 272.000
58.89000 235.000
58.90995 278.000
58.92990 268.000
58.94984 259.000
58.96979 285.000
58.98974 272.000
59.00969 268.000
59.02963 287.000
59.04958 274.000
59.06953 276.000
59.08947 334.000
59.10942 321.000
59.12937 288.000
59.14931 264.000
59.16926 285.000
59.18921 260.000
59.20915 257.000
59.22910 293.000
59.24905 260.000
59.26900 279.000
59.28894 296.000
59.30889 298.000
59.32884 260.000
59.34878 260.000
59.36873 282.000
59.38868 262.000
59.40862 278.000
59.42857 287.000
59.44852 288.000
59.46847 269.000
59.48841 272.000
59.50836 278.000
59.52831 292.000
59.54825 259.000
59.56820 294.000
59.58815 285.000
59.60809 242.000
59.62804 300.000
59.64799 270.000
59.66793 292.000
59.68788 274.000
59.70783 258.000
59.72778 263.000
59.74772 263.000
59.76767 269.000
59.78762 285.000
59.80756 277.000
59.82751 281.000
59.84746 288.000
59.86740 251.000
59.88735 291.000
59.90730 283.000
59.92725 272.000
59.94719 277.000
59.96714 263.000
59.98709 276.000
60.00703 275.000
60.02698 296.000
60.04693 272.000
60.06687 319.000
60.08682 269.000
60.10677 281.000
60.12671 290.000
60.14666 281.000
60.16661 293.000
60.18656 278.000
60.20650 275.000
60.22645 277.000
60.24640 261.000
60.26634 282.000
60.28629 235.000
60.30624 298.000
60.32618 267.000
60.34613 275.000
60.36608 299.000
60.38603 302.000
60.40597 264.000
60.42592 271.000
60.44587 289.000
60.46581 261.000
60.48576 279.000
60.50571 267.000
60.52565 283.000
60.54560 266.000
60.56555 321.000
60.58550 271.000
60.60544 273.000
60.62539 284.000
60.64534 272.000
60.66528 282.000
60.68523 274.000
60.70518 282.000
60.72512 286.000
60.74507 284.000
60.76502 304.000
60.78496 292.000
60.80491 314.000
60.82486 293.000
60.84481 285.000
60.86475 262.000
60.88470 262.000
60.90465 290.000
60.92459 288.000
60.94454 287.000
60.96449 275.000
60.98443 299.000
61.00438 281.000
61.02433 304.000
61.04428 293.000
61.06422 297.000
61.08417 283.000
61.10412 299.000
61.12406 275.000
61.14401 291.000
61.16396 290.000
61.18390 263.000
61.20385 279.000
61.22380 273.000
61.24374 305.000
61.26369 290.000
61.28364 301.000
61.30359 283.000
61.32353 279.000
61.34348 303.000
61.36343 297.000
61.38337 287.000
61.40332 312.000
61.42327 320.000
61.44321 323.000
61.46316 302.000
61.48311 315.000
61.50306 264.000
61.52300 286.000
61.54295 321.000
61.56290 307.000
61.58284 321.000
61.60279 296.000
61.62274 321.000
61.64268 328.000
61.66263 307.000
61.68258 290.000
61.70252 335.000
61.72247 351.000
61.74242 358.000
61.76237 339.000
61.78231 342.000
61.80226 338.000
61.82221 363.000
61.84215 325.000
61.86210 372.000
61.88205 387.000
61.90199 370.000
61.92194 384.000
61.94189 373.000
61.96184 437.000
61.98178 407.000
62.00173 486.000
62.02168 475.000
62.04162 510.000
62.06157 530.000
62.08152 588.000
62.10146 621.000
62.12141 651.000
62.14136 598.000
62.16131 668.000
62.18125 662.000
62.20120 630.000
62.22115 578.000
62.24109 626.000
62.26104 651.000
62.28099 586.000
62.30093 645.000
62.32088 588.000
62.34083 600.000
62.36077 646.000
62.38072 641.000
62.40067 627.000
62.42062 633.000
62.44056 649.000
62.46051 724.000
62.48046 723.000
62.50040 819.000
62.52035 931.000
62.54030 1101.000
62.56024 1237.000
62.58019 1555.000
62.60014 2010.000
62.62009 2302.000
62.64003 2798.000
62.65998 3163.000
62.67993 3343.000
62.69987 3499.000
62.71982 3392.000
62.73977 3230.000
62.75971 2964.000
62.77966 2734.000
62.79961 2481.000
62.81955 2327.000
62.83950 2403.000
62.85945 2188.000
62.87940 2067.000
62.89934 1892.000
62.91929 1628.000
62.93924 1389.000
62.95918 1126.000
62.97913 965.000
62.99908 786.000
63.01902 646.000
63.03897 567.000
63.05892 545.000
63.07887 425.000
63.09881 467.000
63.11876 377.000
63.13871 383.000
63.15865 384.000
63.17860 380.000
63.19855 353.000
63.21849 365.000
63.23844 321.000
63.25839 346.000
63.27833 345.000
63.29828 348.000
63.31823 360.000
63.33818 360.000
63.35812 331.000
63.37807 335.000
63.39802 327.000
63.41796 312.000
63.43791 314.000
63.45786 317.000
63.47780 341.000
63.49775 315.000
63.51770 317.000
63.53765 323.000
63.55759 303.000
63.57754 299.000
63.59749 313.000
63.61743 287.000
63.63738 295.000
63.65733 299.000
63.67727 295.000
63.69722 282.000
63.71717 292.000
63.73712 299.000
63.75706 274.000
63.77701 326.000
63.79696 327.000
63.81690 298.000
63.83685 294.000
63.85680 280.000
63.87674 268.000
63.89669 298.000
63.91664 301.000
63.93658 288.000
63.95653 301.000
63.97648 306.000
63.99643 308.000
64.01637 295.000
64.03632 312.000
64.05627 292.000
64.07621 313.000
64.09616 331.000
64.11611 328.000
64.13605 347.000
64.15600 344.000
64.17595 316.000
64.19590 354.000
64.21584 338.000
64.23579 320.000
64.25574 348.000
64.27568 352.000
64.29563 369.000
64.31558 369.000
64.33552 407.000
64.35547 464.000
64.37542 460.000
64.39536 506.000
64.41531 521.000
64.43526 489.000
64.45521 508.000
64.47515 475.000
64.49510 492.000
64.51505 519.000
64.53499 483.000
64.55494 505.000
64.57489 515.000
64.59483 505.000
64.61478 477.000
64.63473 445.000
64.65468 441.000
64.67462 428.000
64.69457 411.000
64.71452 389.000
64.73446 409.000
64.75441 384.000
64.77436 371.000
64.79430 356.000
64.81425 328.000
64.83420 326.000
64.85414 322.000
64.87409 311.000
64.89404 326.000
64.91399 306.000
64.93393 319.000
64.95388 297.000
64.97383 298.000
64.99377 281.000
65.01372 307.000
65.03367 286.000
65.05361 310.000
65.07356 286.000
65.09351 337.000
65.11346 276.000
65.13340 312.000
65.15335 290.000
65.17330 288.000
65.19324 317.000
65.21319 318.000
65.23314 298.000
65.25308 291.000
65.27303 275.000
65.29298 311.000
65.31293 338.000
65.33287 286.000
65.35282 293.000
65.37277 290.000
65.39271 326.000
65.41266 288.000
65.43261 305.000
65.45255 278.000
65.47250 304.000
65.49245 304.000
65.51239 306.000
65.53234 323.000
65.55229 293.000
65.57224 358.000
65.59218 281.000
65.61213 305.000
65.63208 297.000
65.65202 321.000
65.67197 315.000
65.69192 303.000
65.71186 295.000
65.73181 305.000
65.75176 305.000
65.77171 311.000
65.79165 308.000
65.81160 305.000
65.83155 308.000
65.85149 269.000
65.87144 298.000
65.89139 297.000
65.91133 319.000
65.93128 303.000
65.95123 295.000
65.97117 324.000
65.99112 304.000
66.01107 337.000
66.03102 302.000
66.05096 308.000
66.07091 289.000
66.09086 290.000
66.11080 290.000
66.13075 271.000
66.15070 296.000
66.17064 285.000
66.19059 303.000
66.21054 293.000
66.23049 311.000
66.25043 273.000
66.27038 301.000
66.29033 249.000
66.31027 277.000
66.33022 258.000
66.35017 265.000
66.37011 310.000
66.39006 302.000
66.41001 275.000
66.42995 320.000
66.44990 274.000
66.46985 293.000
66.48980 297.000
66.50974 303.000
66.52969 260.000
66.54964 297.000
66.56958 287.000
66.58953 339.000
66.60948 321.000
66.62942 321.000
66.64937 313.000
66.66932 353.000
66.68927 343.000
66.70921 362.000
66.72916 349.000
66.74911 426.000
66.76905 420.000
66.78900 385.000
66.80895 425.000
66.82889 429.000
66.84884 441.000
66.86879 428.000
66.88874 449.000
66.90868 467.000
66.92863 444.000
66.94858 452.000
66.96852 444.000
66.98847 486.000
67.00842 460.000
67.02836 452.000
67.04831 427.000
67.06826 424.000
67.08820 358.000
67.10815 422.000
67.12810 398.000
67.14805 355.000
67.16799 352.000
67.18794 383.000
67.20789 357.000
67.22783 321.000
67.24778 321.000
67.26773 303.000
67.28767 344.000
67.30762 293.000
67.32757 318.000
67.34752 308.000
67.36746 293.000
67.38741 286.000
67.40736 269.000
67.42730 293.000
67.44725 296.000
67.46720 292.000
67.48714 301.000
67.50709 289.000
67.52704 296.000
67.54698 275.000
67.56693 289.000
67.58688 252.000
67.60683 283.000
67.62677 266.000
67.64672 291.000
67.66667 249.000
67.68661 300.000
67.70656 242.000
67.72651 284.000
67.74645 298.000
67.76640 262.000
67.78635 278.000
67.80630 281.000
67.82624 255.000
67.84619 235.000
67.86614 268.000
67.88608 263.000
67.90603 286.000
67.92598 293.000
67.94592 275.000
67.96587 284.000
67.98582 288.000
68.00576 294.000
68.02571 264.000
68.04566 298.000
68.06561 271.000
68.08555 300.000
68.10550 252.000
68.12545 292.000
68.14539 262.000
68.16534 273.000
68.18529 289.000
68.20523 283.000
68.22518 267.000
68.24513 262.000
68.26508 288.000
68.28502 236.000
68.30497 284.000
68.32492 250.000
68.34486 279.000
68.36481 291.000
68.38476 261.000
68.40470 233.000
68.42465 247.000
68.44460 291.000
68.46455 288.000
68.48449 258.000
68.50444 281.000
68.52439 283.000
68.54433 266.000
68.56428 268.000
68.58423 271.000
68.60417 282.000
68.62412 265.000
68.64407 275.000
68.66401 257.000
68.68396 237.000
68.70391 290.000
68.72386 253.000
68.74380 292.000
68.76375 277.000
68.78370 318.000
68.80364 295.000
68.82359 244.000
68.84354 269.000
68.86348 294.000
68.88343 282.000
68.90338 277.000
68.92333 276.000
68.94327 277.000
68.96322 279.000
68.98317 276.000
69.00311 276.000
69.02306 264.000
69.04301 286.000
69.06295 242.000
69.08290 284.000
69.10285 281.000
69.12279 269.000
69.14274 273.000
69.16269 297.000
69.18264 256.000
69.20258 283.000
69.22253 275.000
69.24248 268.000
69.26242 281.000
69.28237 276.000
69.30232 277.000
69.32226 271.000
69.34221 243.000
69.36216 281.000
69.38211 259.000
69.40205 270.000
69.42200 261.000
69.44195 291.000
69.46189 247.000
69.48184 277.000
69.50179 287.000
69.52173 280.000
69.54168 259.000
69.56163 263.000
69.58157 268.000
69.60152 238.000
69.62147 264.000
69.64142 276.000
69.66136 290.000
69.68131 253.000
69.70126 265.000
69.72120 270.000
69.74115 263.000
69.76110 247.000
69.78104 266.000
69.80099 287.000
69.82094 235.000
69.84089 261.000
69.86083 292.000
69.88078 291.000
69.90073 298.000
69.92067 253.000
69.94062 283.000
69.96057 289.000
69.98051 246.000
70.00046 263.000
70.02041 302.000
70.04035 265.000
70.06030 244.000
70.08025 279.000
70.10020 262.000
70.12014 269.000
70.14009 253.000
70.16004 262.000
70.17998 262.000
70.19993 298.000
70.21988 294.000
70.23982 285.000
70.25977 282.000
70.27972 231.000
70.29967 275.000
70.31961 264.000
70.33956 261.000
70.35951 283.000
70.37945 288.000
70.39940 287.000
70.41935 250.000
70.43929 275.000
70.45924 253.000
70.47919 273.000
70.49914 275.000
70.51908 272.000
70.53903 292.000
70.55898 256.000
70.57892 292.000
70.59887 223.000
70.61882 305.000
70.63876 268.000
70.65871 279.000
70.67866 273.000
70.69860 257.000
70.71855 266.000
70.73850 271.000
70.75845 289.000
70.77839 289.000
70.79834 287.000
70.81829 259.000
70.83823 272.000
70.85818 298.000
70.87813 261.000
70.89807 278.000
70.91802 281.000
70.93797 260.000
70.95792 254.000
70.97786 248.000
70.99781 321.000
71.01776 265.000
71.03770 274.000
71.05765 285.000
71.07760 281.000
71.09754 271.000
71.11749 281.000
71.13744 274.000
71.15738 261.000
71.17733 238.000
71.19728 280.000
71.21723 282.000
71.23717 249.000
71.25712 288.000
71.27707 274.000
71.29701 250.000
71.31696 288.000
71.33691 232.000
71.35685 271.000
71.37680 284.000
71.39675 300.000
71.41670 290.000
71.43664 286.000
71.45659 259.000
71.47654 275.000
71.49648 255.000
71.51643 242.000
71.53638 258.000
71.55632 301.000
71.57627 265.000
71.59622 293.000
71.61616 282.000
71.63611 245.000
71.65606 282.000
71.67601 291.000
71.69595 270.000
71.71590 290.000
71.73585 276.000
71.75579 277.000
71.77574 267.000
71.79569 305.000
71.81563 264.000
71.83558 276.000
71.85553 256.000
71.87548 297.000
71.89542 289.000
71.91537 297.000
71.93532 265.000
71.95526 273.000
71.97521 268.000
71.99516 245.000
72.01510 267.000
72.03505 292.000
72.05500 271.000
72.07495 242.000
72.09489 285.000
72.11484 289.000
72.13479 270.000
72.15473 229.000
72.17468 262.000
72.19463 272.000
72.21457 251.000
72.23452 272.000
72.25447 275.000
72.27441 285.000
72.29436 262.000
72.31431 259.000
72.33426 263.000
72.35420 236.000
72.37415 275.000
72.39410 252.000
72.41404 250.000
72.43399 236.000
72.45394 274.000
72.47388 276.000
72.49383 277.000
72.51378 265.000
72.53373 281.000
72.55367 275.000
72.57362 293.000
72.59357 264.000
72.61351 285.000
72.63346 291.000
72.65341 259.000
72.67335 251.000
72.69330 286.000
72.71325 256.000
72.73319 272.000
72.75314 246.000
72.77309 289.000
72.79304 260.000
72.81298 279.000
72.83293 285.000
72.85288 279.000
72.87282 285.000
72.89277 251.000
72.91272 279.000
72.93266 268.000
72.95261 269.000
72.97256 282.000
72.99251 263.000
73.01245 290.000
73.03240 286.000
73.05235 235.000
73.07229 259.000
73.09224 267.000
73.11219 294.000
73.13213 282.000
73.15208 279.000
73.17203 293.000
73.19197 280.000
73.21192 280.000
73.23187 292.000
73.25182 280.000
73.27176 263.000
73.29171 290.000
73.31166 288.000
73.33160 286.000
73.35155 274.000
73.37150 260.000
73.39144 298.000
73.41139 301.000
73.43134 286.000
73.45129 274.000
73.47123 264.000
73.49118 298.000
73.51113 283.000
73.53107 306.000
73.55102 291.000
73.57097 266.000
73.59091 294.000
73.61086 314.000
73.63081 293.000
73.65076 315.000
73.67070 345.000
73.69065 334.000
73.71060 295.000
73.73054 304.000
73.75049 319.000
73.77044 345.000
73.79038 348.000
73.81033 358.000
73.83028 347.000
73.85022 339.000
73.87017 354.000
73.89012 328.000
73.91007 314.000
73.93001 317.000
73.94996 314.000
73.96991 312.000
73.98985 313.000
74.00980 314.000
74.02975 337.000
74.04969 322.000
74.06964 315.000
74.08959 307.000
74.10954 343.000
74.12948 311.000
74.14943 269.000
74.16938 313.000
74.18932 333.000
74.20927 294.000
74.22922 294.000
74.24916 300.000
74.26911 284.000
74.28906 300.000
74.30900 302.000
74.32895 312.000
74.34890 267.000
74.36885 270.000
74.38879 290.000
74.40874 255.000
74.42869 280.000
74.44863 306.000
74.46858 287.000
74.48853 306.000
74.50847 335.000
74.52842 303.000
74.54837 272.000
74.56832 309.000
74.58826 299.000
74.60821 296.000
74.62816 312.000
74.64810 315.000
74.66805 270.000
74.68800 316.000
74.70794 317.000
74.72789 296.000
74.74784 333.000
74.76778 313.000
74.78773 338.000
74.80768 357.000
74.82763 363.000
74.84757 364.000
74.86752 371.000
74.88747 399.000
74.90741 417.000
74.92736 382.000
74.94731 425.000
74.96725 445.000
74.98720 458.000
75.00715 556.000
75.02710 616.000
75.04704 755.000
75.06699 836.000
75.08694 852.000
75.10688 1004.000
75.12683 1104.000
75.14678 1276.000
75.16672 1278.000
75.18667 1285.000
75.20662 1267.000
75.22657 1249.000
75.24651 1181.000
75.26646 1131.000
75.28641 1027.000
75.30635 1007.000
75.32630 966.000
75.34625 892.000
75.36619 875.000
75.38614 862.000
75.40609 828.000
75.42603 828.000
75.44598 746.000
75.46593 710.000
75.48588 668.000
75.50582 599.000
75.52577 538.000
75.54572 463.000
75.56566 442.000
75.58561 385.000
75.60556 389.000
75.62550 388.000
75.64545 345.000
75.66540 359.000
75.68535 305.000
75.70529 303.000
75.72524 306.000
75.74519 353.000
75.76513 293.000
75.78508 325.000
75.80503 274.000
75.82497 290.000
75.84492 300.000
75.86487 300.000
75.88481 331.000
75.90476 299.000
75.92471 296.000
75.94466 294.000
75.96460 328.000
75.98455 312.000
76.00450 298.000
76.02444 320.000
76.04439 295.000
76.06434 326.000
76.08428 309.000
76.10423 331.000
76.12418 282.000
76.14413 311.000
76.16407 331.000
76.18402 317.000
76.20397 312.000
76.22391 320.000
76.24386 295.000
76.26381 327.000
76.28375 286.000
76.30370 276.000
76.32365 298.000
76.34359 333.000
76.36354 286.000
76.38349 309.000
76.40344 283.000
76.42338 282.000
76.44333 266.000
76.46328 265.000
76.48322 299.000
76.50317 306.000
76.52312 293.000
76.54306 248.000
76.56301 293.000
76.58296 264.000
76.60291 259.000
76.62285 267.000
76.64280 285.000
76.66275 276.000
76.68269 308.000
76.70264 304.000
76.72259 299.000
76.74253 278.000
76.76248 292.000
76.78243 272.000
76.80238 262.000
76.82232 276.000
76.84227 276.000
76.86222 298.000
76.88216 305.000
76.90211 262.000
76.92206 281.000
76.94200 274.000
76.96195 265.000
76.98190 253.000
77.00184 275.000
77.02179 275.000
77.04174 280.000
77.06169 271.000
77.08163 268.000
77.10158 271.000
77.12153 291.000
77.14147 317.000
77.16142 272.000
77.18137 275.000
77.20131 279.000
77.22126 253.000
77.24121 287.000
77.26116 273.000
77.28110 281.000
77.30105 312.000
77.32100 281.000
77.34094 279.000
77.36089 267.000
77.38084 272.000
77.40078 281.000
77.42073 269.000
77.44068 253.000
77.46062 264.000
77.48057 283.000
77.50052 263.000
77.52047 259.000
77.54041 277.000
77.56036 267.000
77.58031 275.000
77.60025 301.000
77.62020 269.000
77.64015 287.000
77.66009 287.000
77.68004 242.000
77.69999 268.000
77.71994 291.000
77.73988 234.000
77.75983 284.000
77.77978 287.000
77.79972 281.000
77.81967 322.000
77.83962 304.000
77.85956 288.000
77.87951 305.000
77.89946 282.000
77.91940 316.000
77.93935 296.000
77.95930 281.000
77.97925 310.000
77.99919 289.000
78.01914 246.000
78.03909 321.000
78.05903 317.000
78.07898 304.000
78.09893 364.000
78.11887 329.000
78.13882 347.000
78.15877 323.000
78.17872 341.000
78.19866 343.000
78.21861 360.000
78.23856 353.000
78.25850 381.000
78.27845 368.000
78.29840 392.000
78.31834 389.000
78.33829 418.000
78.35824 456.000
78.37819 400.000
78.39813 413.000
78.41808 412.000
78.43803 406.000
78.45797 378.000
78.47792 383.000
78.49787 369.000
78.51781 382.000
78.53776 360.000
78.55771 369.000
78.57765 359.000
78.59760 366.000
78.61755 370.000
78.63750 371.000
78.65744 407.000
78.67739 374.000
78.69734 344.000
78.71728 344.000
78.73723 344.000
78.75718 358.000
78.77712 342.000
78.79707 358.000
78.81702 354.000
78.83697 325.000
78.85691 372.000
78.87686 382.000
78.89681 378.000
78.91675 369.000
78.93670 363.000
78.95665 424.000
78.97659 446.000
78.99654 488.000
79.01649 544.000
79.03643 599.000
79.05638 761.000
79.07633 763.000
79.09628 869.000
79.11622 1008.000
79.13617 984.000
79.15612 1055.000
79.17606 959.000
79.19601 916.000
79.21596 900.000
79.23590 841.000
79.25585 784.000
79.27580 757.000
79.29575 772.000
79.31569 756.000
79.33564 791.000
79.35559 706.000
79.37553 652.000
79.39548 694.000
79.41543 665.000
79.43537 594.000
79.45532 522.000
79.47527 568.000
79.49521 491.000
79.51516 469.000
79.53511 449.000
79.55506 428.000
79.57500 351.000
79.59495 364.000
79.61490 337.000
79.63484 344.000
79.65479 338.000
79.67474 352.000
79.69468 265.000
79.71463 318.000
79.73458 295.000
79.75453 264.000
79.77447 271.000
79.79442 310.000
79.81437 269.000
79.83431 263.000
79.85426 269.000
79.87421 310.000
79.89415 319.000
79.91410 269.000
79.93405 266.000
79.95399 295.000
79.97394 268.000
79.99389 269.000
80.01384 280.000
80.03378 288.000
80.05373 277.000
80.07368 307.000
80.09362 293.000
80.11357 304.000
80.13352 280.000
80.15346 291.000
80.17341 261.000
80.19336 277.000
80.21331 284.000
80.23325 289.000
80.25320 293.000
80.27315 270.000
80.29309 311.000
80.31304 281.000
80.33299 303.000
80.35293 254.000
80.37288 241.000
80.39283 282.000
80.41278 278.000
80.43272 262.000
80.45267 252.000
80.47262 281.000
80.49256 258.000
80.51251 277.000
80.53246 283.000
80.55240 249.000
80.57235 276.000
80.59230 278.000
80.61224 266.000
80.63219 267.000
80.65214 291.000
80.67209 297.000
80.69203 284.000
80.71198 260.000
80.73193 261.000
80.75187 285.000
80.77182 289.000
80.79177 277.000
80.81171 279.000
80.83166 260.000
80.85161 299.000
80.87156 275.000
80.89150 291.000
80.91145 268.000
80.93140 288.000
80.95134 246.000
80.97129 276.000
80.99124 285.000
81.01118 260.000
81.03113 254.000
81.05108 261.000
81.07102 324.000
81.09097 280.000
81.11092 259.000
81.13087 300.000
81.15081 279.000
81.17076 286.000
81.19071 298.000
81.21065 275.000
81.23060 279.000
81.25055 323.000
81.27049 230.000
81.29044 265.000
81.31039 259.000
81.33034 271.000
81.35028 279.000
81.37023 286.000
81.39018 264.000
81.41012 282.000
81.43007 249.000
81.45002 249.000
81.46996 271.000
81.48991 284.000
81.50986 304.000
81.52980 286.000
81.54975 259.000
81.56970 274.000
81.58965 248.000
81.60959 297.000
81.62954 276.000
81.64949 288.000
81.66943 268.000
81.68938 274.000
81.70933 266.000
81.72927 235.000
81.74922 271.000
81.76917 276.000
81.78912 257.000
81.80906 258.000
81.82901 264.000
81.84896 289.000
81.86890 278.000
81.88885 280.000
81.90880 260.000
81.92874 250.000
81.94869 260.000
81.96864 295.000
81.98859 288.000
82.00853 248.000
82.02848 263.000
82.04843 256.000
82.06837 281.000
82.08832 253.000
82.10827 253.000
82.12821 298.000
82.14816 280.000
82.16811 314.000
82.18805 281.000
82.20800 247.000
82.22795 295.000
82.24790 274.000
82.26784 260.000
82.28779 270.000
82.30774 254.000
82.32768 271.000
82.34763 274.000
82.36758 266.000
82.38752 275.000
82.40747 263.000
82.42742 274.000
82.44737 278.000
82.46731 284.000
82.48726 260.000
82.50721 267.000
82.52715 258.000
82.54710 288.000
82.56705 263.000
82.58699 273.000
82.60694 284.000
82.62689 271.000
82.64683 296.000
82.66678 265.000
82.68673 273.000
82.70668 266.000
82.72662 267.000
82.74657 276.000
82.76652 269.000
82.78646 263.000
82.80641 284.000
82.82636 274.000
82.84630 278.000
82.86625 277.000
82.88620 226.000
82.90615 288.000
82.92609 270.000
82.94604 254.000
82.96599 256.000
82.98593 270.000
83.00588 281.000
83.02583 221.000
83.04577 239.000
83.06572 228.000
83.08567 263.000
83.10561 264.000
83.12556 275.000
83.14551 277.000
83.16546 305.000
83.18540 247.000
83.20535 268.000
83.22530 242.000
83.24524 293.000
83.26519 249.000
83.28514 258.000
83.30508 266.000
83.32503 261.000
83.34498 254.000
83.36493 279.000
83.38487 253.000
83.40482 279.000
83.42477 275.000
83.44471 283.000
83.46466 265.000
83.48461 262.000
83.50455 287.000
83.52450 261.000
83.54445 281.000
83.56440 275.000
83.58434 231.000
83.60429 272.000
83.62424 261.000
83.64418 299.000
83.66413 287.000
83.68408 275.000
83.70402 261.000
83.72397 295.000
83.74392 259.000
83.76386 279.000
83.78381 277.000
83.80376 269.000
83.82371 238.000
83.84365 274.000
83.86360 297.000
83.88355 270.000
83.90349 267.000
83.92344 270.000
83.94339 261.000
83.96333 251.000
83.98328 289.000
84.00323 273.000
84.02318 264.000
84.04312 284.000
84.06307 261.000
84.08302 242.000
84.10296 271.000
84.12291 301.000
84.14286 274.000
84.16280 293.000
84.18275 259.000
84.20270 292.000
84.22264 231.000
84.24259 279.000
84.26254 248.000
84.28249 288.000
84.30243 292.000
84.32238 239.000
84.34233 264.000
84.36227 290.000
84.38222 281.000
84.40217 276.000
84.42211 264.000
84.44206 309.000
84.46201 274.000
84.48196 308.000
84.50190 302.000
84.52185 261.000
84.54180 254.000
84.56174 282.000
84.58169 276.000
84.60164 277.000
84.62158 305.000
84.64153 280.000
84.66148 310.000
84.68142 297.000
84.70137 292.000
84.72132 300.000
84.74127 312.000
84.76121 321.000
84.78116 292.000
84.80111 310.000
84.82105 285.000
84.84100 310.000
84.86095 352.000
84.88089 351.000
84.90084 320.000
84.92079 345.000
84.94074 328.000
84.96068 361.000
84.98063 341.000
85.00058 329.000
85.02052 349.000
85.04047 324.000
85.06042 315.000
85.08036 304.000
85.10031 344.000
85.12026 292.000
85.14021 286.000
85.16015 320.000
85.18010 313.000
85.20005 297.000
85.21999 309.000
85.23994 302.000
85.25989 316.000
85.27983 264.000
85.29978 306.000
85.31973 297.000
85.33967 295.000
85.35962 279.000
85.37957 282.000
85.39952 274.000
85.41946 251.000
85.43941 282.000
85.45936 311.000
85.47930 249.000
85.49925 268.000
85.51920 274.000
85.53914 251.000
85.55909 274.000
85.57904 249.000
85.59899 230.000
85.61893 251.000
85.63888 264.000
85.65883 271.000
85.67877 264.000
85.69872 261.000
85.71867 271.000
85.73861 231.000
85.75856 272.000
85.77851 297.000
85.79845 268.000
85.81840 276.000
85.83835 267.000
85.85830 280.000
85.87824 255.000
85.89819 244.000
85.91814 292.000
85.93808 251.000
85.95803 284.000
85.97798 219.000
85.99792 275.000
86.01787 257.000
86.03782 284.000
86.05777 260.000
86.07771 268.000
86.09766 263.000
86.11761 241.000
86.13755 261.000
86.15750 269.000
86.17745 268.000
86.19739 258.000
86.21734 262.000
86.23729 273.000
86.25723 256.000
86.27718 282.000
86.29713 285.000
86.31708 260.000
86.33702 276.000
86.35697 277.000
86.37692 242.000
86.39686 260.000
86.41681 293.000
86.43676 276.000
86.45670 261.000
86.47665 280.000
86.49660 277.000
86.51655 298.000
86.53649 276.000
86.55644 261.000
86.57639 279.000
86.59633 261.000
86.61628 276.000
86.63623 260.000
86.65617 259.000
86.67612 261.000
86.69607 274.000
86.71602 292.000
86.73596 256.000
86.75591 251.000
86.77586 262.000
86.79580 281.000
86.81575 247.000
86.83570 271.000
86.85564 245.000
86.87559 258.000
86.89554 281.000
86.91548 268.000
86.93543 273.000
86.95538 233.000
86.97533 297.000
86.99527 281.000
87.01522 297.000
87.03517 238.000
87.05511 294.000
87.07506 284.000
87.09501 263.000
87.11495 280.000
87.13490 288.000
87.15485 261.000
87.17480 280.000
87.19474 290.000
87.21469 272.000
87.23464 286.000
87.25458 308.000
87.27453 274.000
87.29448 302.000
87.31442 294.000
87.33437 304.000
87.35432 295.000
87.37426 301.000
87.39421 291.000
87.41416 331.000
87.43411 295.000
87.45405 302.000
87.47400 304.000
87.49395 272.000
87.51389 281.000
87.53384 261.000
87.55379 297.000
87.57373 303.000
87.59368 272.000
87.61363 268.000
87.63358 277.000
87.65352 284.000
87.67347 273.000
87.69342 289.000
87.71336 273.000
87.73331 263.000
87.75326 294.000
87.77320 276.000
87.79315 258.000
87.81310 270.000
87.83304 277.000
87.85299 280.000
87.87294 314.000
87.89289 272.000
87.91283 326.000
87.93278 264.000
87.95273 296.000
87.97267 260.000
87.99262 269.000
88.01257 291.000
88.03251 268.000
88.05246 271.000
88.07241 293.000
88.09236 312.000
88.11230 289.000
88.13225 266.000
88.15220 237.000
88.17214 281.000
88.19209 274.000
88.21204 281.000
88.23198 220.000
88.25193 279.000
88.27188 266.000
88.29183 296.000
88.31177 264.000
88.33172 275.000
88.35167 253.000
88.37161 245.000
88.39156 263.000
88.41151 262.000
88.43145 288.000
88.45140 219.000
88.47135 267.000
88.49129 272.000
88.51124 295.000
88.53119 274.000
88.55114 272.000
88.57108 270.000
88.59103 267.000
88.61098 268.000
88.63092 265.000
88.65087 266.000
88.67082 237.000
88.69076 258.000
88.71071 276.000
88.73066 256.000
88.75061 256.000
88.77055 263.000
88.79050 280.000
88.81045 273.000
88.83039 282.000
88.85034 276.000
88.87029 287.000
88.89023 287.000
88.91018 256.000
88.93013 255.000
88.95007 247.000
88.97002 270.000
88.98997 264.000
89.00992 305.000
89.02986 289.000
89.04981 259.000
89.06976 278.000
89.08970 251.000
89.10965 254.000
89.12960 277.000
89.14954 270.000
89.16949 272.000
89.18944 276.000
89.20939 296.000
89.22933 274.000
89.24928 252.000
89.26923 265.000
89.28917 266.000
89.30912 279.000
89.32907 295.000
89.34901 251.000
89.36896 248.000
89.38891 240.000
89.40885 265.000
89.42880 243.000
89.44875 244.000
89.46870 246.000
89.48864 268.000
89.50859 265.000
89.52854 276.000
89.54848 272.000
89.56843 265.000
89.58838 249.000
89.60832 263.000
89.62827 270.000
89.64822 285.000
89.66817 269.000
89.68811 283.000
89.70806 257.000
89.72801 266.000
89.74795 252.000
89.76790 253.000
89.78785 273.000
89.80779 253.000
89.82774 251.000
89.84769 265.000
89.86764 289.000
89.88758 272.000
89.90753 286.000
89.92748 283.000
89.94742 285.000
89.96737 221.000
89.98732 283.000
90.00726 260.000
