10.00000 120.000
10.01995 143.000
10.03989 136.000
10.05984 152.000
10.07979 145.000
10.09973 143.000
10.11968 145.000
10.13963 144.000
10.15958 145.000
10.17952 143.000
10.19947 138.000
10.21942 161.000
10.23936 118.000
10.25931 120.000
10.27926 125.000
10.29920 124.000
10.31915 128.000
10.33910 131.000
10.35905 137.000
10.37899 148.000
10.39894 130.000
10.41889 138.000
10.43883 133.000
10.45878 132.000
10.47873 139.000
10.49867 143.000
10.51862 113.000
10.53857 143.000
10.55851 141.000
10.57846 138.000
10.59841 141.000
10.61836 157.000
10.63830 160.000
10.65825 153.000
10.67820 121.000
10.69814 156.000
10.71809 169.000
10.73804 152.000
10.75798 138.000
10.77793 124.000
10.79788 144.000
10.81783 155.000
10.83777 156.000
10.85772 138.000
10.87767 150.000
10.89761 140.000
10.91756 169.000
10.93751 134.000
10.95745 154.000
10.97740 132.000
10.99735 148.000
11.01730 134.000
11.03724 139.000
11.05719 141.000
11.07714 162.000
11.09708 152.000
11.11703 161.000
11.13698 152.000
11.15692 130.000
11.17687 162.000
11.19682 136.000
11.21676 128.000
11.23671 159.000
11.25666 133.000
11.27661 143.000
11.29655 132.000
11.31650 158.000
11.33645 145.000
11.35639 124.000
11.37634 142.000
11.39629 133.000
11.41623 151.000
11.43618 139.000
11.45613 134.000
11.47608 150.000
11.49602 126.000
11.51597 141.000
11.53592 143.000
11.55586 132.000
11.57581 141.000
11.59576 147.000
11.61570 150.000
11.63565 146.000
11.65560 127.000
11.67554 162.000
11.69549 141.000
11.71544 147.000
11.73539 161.000
11.75533 167.000
11.77528 143.000
11.79523 149.000
11.81517 132.000
11.83512 148.000
11.85507 143.000
11.87501 135.000
11.89496 166.000
11.91491 131.000
11.93486 132.000
11.95480 143.000
11.97475 147.000
11.99470 141.000
12.01464 141.000
12.03459 143.000
12.05454 129.000
12.07448 150.000
12.09443 143.000
12.11438 144.000
12.13432 140.000
12.15427 159.000
12.17422 151.000
12.19417 144.000
12.21411 139.000
12.23406 129.000
12.25401 140.000
12.27395 135.000
12.29390 156.000
12.31385 144.000
12.33379 129.000
12.35374 140.000
12.37369 124.000
12.39364 148.000
12.41358 133.000
12.43353 137.000
12.45348 164.000
12.47342 140.000
12.49337 146.000
12.51332 146.000
12.53326 129.000
12.55321 161.000
12.57316 151.000
12.59311 123.000
12.61305 135.000
12.63300 160.000
12.65295 164.000
12.67289 152.000
12.69284 168.000
12.71279 128.000
12.73273 147.000
12.75268 152.000
12.77263 158.000
12.79257 119.000
12.81252 145.000
12.83247 153.000
12.85242 139.000
12.87236 159.000
12.89231 154.000
12.91226 147.000
12.93220 141.000
12.95215 167.000
12.97210 161.000
12.99204 159.000
13.01199 148.000
13.03194 130.000
13.05189 135.000
13.07183 139.000
13.09178 160.000
13.11173 141.000
13.13167 139.000
13.15162 138.000
13.17157 144.000
13.19151 160.000
13.21146 140.000
13.23141 169.000
13.25135 157.000
13.27130 127.000
13.29125 167.000
13.31120 137.000
13.33114 150.000
13.35109 145.000
13.37104 140.000
13.39098 152.000
13.41093 160.000
13.43088 140.000
13.45082 139.000
13.47077 154.000
13.49072 154.000
13.51067 144.000
13.53061 150.000
13.55056 164.000
13.57051 164.000
13.59045 122.000
13.61040 124.000
13.63035 155.000
13.65029 157.000
13.67024 141.000
13.69019 145.000
13.71013 139.000
13.73008 143.000
13.75003 139.000
13.76998 136.000
13.78992 144.000
13.80987 146.000
13.82982 152.000
13.84976 157.000
13.86971 145.000
13.88966 135.000
13.90960 125.000
13.92955 148.000
13.94950 153.000
13.96945 143.000
13.98939 173.000
14.00934 143.000
14.02929 149.000
14.04923 169.000
14.06918 142.000
14.08913 166.000
14.10907 133.000
14.12902 152.000
14.14897 137.000
14.16892 141.000
14.18886 148.000
14.20881 156.000
14.22876 145.000
14.24870 135.000
14.26865 150.000
14.28860 139.000
14.30854 136.000
14.32849 132.000
14.34844 145.000
14.36838 160.000
14.38833 128.000
14.40828 147.000
14.42823 164.000
14.44817 146.000
14.46812 156.000
14.48807 150.000
14.50801 157.000
14.52796 166.000
14.54791 143.000
14.56785 127.000
14.58780 165.000
14.60775 158.000
14.62770 147.000
14.64764 135.000
14.66759 169.000
14.68754 161.000
14.70748 164.000
14.72743 163.000
14.74738 171.000
14.76732 169.000
14.78727 143.000
14.80722 155.000
14.82716 177.000
14.84711 121.000
14.86706 156.000
14.88701 151.000
14.90695 167.000
14.92690 163.000
14.94685 144.000
14.96679 166.000
14.98674 175.000
15.00669 148.000
15.02663 158.000
15.04658 156.000
15.06653 151.000
15.08648 166.000
15.10642 152.000
15.12637 174.000
15.14632 174.000
15.16626 182.000
15.18621 170.000
15.20616 174.000
15.22610 153.000
15.24605 142.000
15.26600 181.000
15.28594 186.000
15.30589 175.000
15.32584 154.000
15.34579 182.000
15.36573 169.000
15.38568 181.000
15.40563 198.000
15.42557 178.000
15.44552 171.000
15.46547 184.000
15.48541 192.000
15.50536 196.000
15.52531 212.000
15.54526 219.000
15.56520 222.000
15.58515 267.000
15.60510 264.000
15.62504 299.000
15.64499 343.000
15.66494 368.000
15.68488 457.000
15.70483 637.000
15.72478 864.000
15.74472 1226.000
15.76467 1750.000
15.78462 2314.000
15.80457 2870.000
15.82451 3238.000
15.84446 3149.000
15.86441 2608.000
15.88435 1711.000
15.90430 1092.000
15.92425 643.000
15.94419 434.000
15.96414 343.000
15.98409 358.000
16.00404 322.000
16.02398 350.000
16.04393 365.000
16.06388 405.000
16.08382 481.000
16.10377 496.000
16.12372 554.000
16.14366 534.000
16.16361 527.000
16.18356 458.000
16.20351 353.000
16.22345 281.000
16.24340 245.000
16.26335 220.000
16.28329 211.000
16.30324 181.000
16.32319 188.000
16.34313 186.000
16.36308 191.000
16.38303 180.000
16.40297 200.000
16.42292 166.000
16.44287 163.000
16.46282 192.000
16.48276 170.000
16.50271 167.000
16.52266 156.000
16.54260 149.000
16.56255 147.000
16.58250 164.000
16.60244 157.000
16.62239 170.000
16.64234 157.000
16.66229 176.000
16.68223 167.000
16.70218 191.000
16.72213 183.000
16.74207 178.000
16.76202 228.000
16.78197 207.000
16.80191 197.000
16.82186 215.000
16.84181 198.000
16.86175 182.000
16.88170 178.000
16.90165 180.000
16.92160 170.000
16.94154 182.000
16.96149 175.000
16.98144 162.000
17.00138 159.000
17.02133 134.000
17.04128 151.000
17.06122 140.000
17.08117 161.000
17.10112 146.000
17.12107 155.000
17.14101 143.000
17.16096 145.000
17.18091 163.000
17.20085 159.000
17.22080 169.000
17.24075 167.000
17.26069 132.000
17.28064 156.000
17.30059 149.000
17.32053 162.000
17.34048 160.000
17.36043 134.000
17.38038 150.000
17.40032 157.000
17.42027 118.000
17.44022 138.000
17.46016 149.000
17.48011 166.000
17.50006 148.000
17.52000 152.000
17.53995 160.000
17.55990 153.000
17.57985 165.000
17.59979 135.000
17.61974 140.000
17.63969 182.000
17.65963 158.000
17.67958 130.000
17.69953 136.000
17.71947 149.000
17.73942 139.000
17.75937 153.000
17.77932 152.000
17.79926 162.000
17.81921 155.000
17.83916 153.000
17.85910 144.000
17.87905 164.000
17.89900 148.000
17.91894 141.000
17.93889 162.000
17.95884 163.000
17.97878 146.000
17.99873 138.000
18.01868 144.000
18.03863 164.000
18.05857 147.000
18.07852 183.000
18.09847 151.000
18.11841 167.000
18.13836 138.000
18.15831 149.000
18.17825 163.000
18.19820 149.000
18.21815 171.000
18.23810 161.000
18.25804 167.000
18.27799 206.000
18.29794 199.000
18.31788 254.000
18.33783 287.000
18.35778 331.000
18.37772 372.000
18.39767 328.000
18.41762 325.000
18.43756 264.000
18.45751 212.000
18.47746 211.000
18.49741 181.000
18.51735 177.000
18.53730 145.000
18.55725 175.000
18.57719 142.000
18.59714 147.000
18.61709 180.000
18.63703 178.000
18.65698 164.000
18.67693 142.000
18.69688 165.000
18.71682 153.000
18.73677 153.000
18.75672 172.000
18.77666 141.000
18.79661 166.000
18.81656 160.000
18.83650 167.000
18.85645 152.000
18.87640 158.000
18.89634 163.000
18.91629 161.000
18.93624 139.000
18.95619 143.000
18.97613 179.000
18.99608 161.000
19.01603 197.000
19.03597 189.000
19.05592 165.000
19.07587 161.000
19.09581 138.000
19.11576 151.000
19.13571 162.000
19.15566 139.000
19.17560 168.000
19.19555 172.000
19.21550 159.000
19.23544 157.000
19.25539 156.000
19.27534 135.000
19.29528 164.000
19.31523 159.000
19.33518 151.000
19.35513 147.000
19.37507 155.000
19.39502 166.000
19.41497 144.000
19.43491 147.000
19.45486 175.000
19.47481 162.000
19.49475 141.000
19.51470 171.000
19.53465 177.000
19.55459 180.000
19.57454 149.000
19.59449 152.000
19.61444 174.000
19.63438 166.000
19.65433 190.000
19.67428 172.000
19.69422 160.000
19.71417 133.000
19.73412 151.000
19.75406 146.000
19.77401 154.000
19.79396 176.000
19.81391 169.000
19.83385 152.000
19.85380 164.000
19.87375 161.000
19.89369 170.000
19.91364 169.000
19.93359 158.000
19.95353 161.000
19.97348 156.000
19.99343 149.000
20.01337 154.000
20.03332 164.000
20.05327 137.000
20.07322 155.000
20.09316 173.000
20.11311 144.000
20.13306 175.000
20.15300 157.000
20.17295 189.000
20.19290 167.000
20.21284 146.000
20.23279 150.000
20.25274 158.000
20.27269 155.000
20.29263 154.000
20.31258 151.000
20.33253 138.000
20.35247 142.000
20.37242 163.000
20.39237 167.000
20.41231 189.000
20.43226 165.000
20.45221 180.000
20.47215 171.000
20.49210 155.000
20.51205 137.000
20.53200 160.000
20.55194 180.000
20.57189 165.000
20.59184 162.000
20.61178 183.000
20.63173 168.000
20.65168 167.000
20.67162 172.000
20.69157 177.000
20.71152 189.000
20.73147 217.000
20.75141 213.000
20.77136 192.000
20.79131 215.000
20.81125 224.000
20.83120 245.000
20.85115 217.000
20.87109 254.000
20.89104 265.000
20.91099 263.000
20.93094 246.000
20.95088 294.000
20.97083 291.000
20.99078 296.000
21.01072 304.000
21.03067 290.000
21.05062 317.000
21.07056 288.000
21.09051 265.000
21.11046 247.000
21.13040 246.000
21.15035 192.000
21.17030 200.000
21.19025 182.000
21.21019 165.000
21.23014 189.000
21.25009 187.000
21.27003 183.000
21.28998 148.000
21.30993 143.000
21.32987 159.000
21.34982 187.000
21.36977 158.000
21.38972 159.000
21.40966 184.000
21.42961 171.000
21.44956 155.000
21.46950 155.000
21.48945 162.000
21.50940 144.000
21.52934 157.000
21.54929 145.000
21.56924 163.000
21.58918 188.000
21.60913 194.000
21.62908 145.000
21.64903 163.000
21.66897 163.000
21.68892 138.000
21.70887 189.000
21.72881 157.000
21.74876 141.000
21.76871 178.000
21.78865 164.000
21.80860 131.000
21.82855 136.000
21.84850 149.000
21.86844 156.000
21.88839 160.000
21.90834 182.000
21.92828 170.000
21.94823 190.000
21.96818 179.000
21.98812 171.000
22.00807 173.000
22.02802 165.000
22.04796 157.000
22.06791 148.000
22.08786 153.000
22.10781 153.000
22.12775 183.000
22.14770 170.000
22.16765 157.000
22.18759 146.000
22.20754 161.000
22.22749 141.000
22.24743 163.000
22.26738 178.000
22.28733 184.000
22.30728 169.000
22.32722 152.000
22.34717 166.000
22.36712 161.000
22.38706 162.000
22.40701 166.000
22.42696 153.000
22.44690 180.000
22.46685 170.000
22.48680 167.000
22.50675 163.000
22.52669 152.000
22.54664 170.000
22.56659 166.000
22.58653 173.000
22.60648 151.000
22.62643 167.000
22.64637 184.000
22.66632 157.000
22.68627 152.000
22.70621 176.000
22.72616 181.000
22.74611 151.000
22.76606 166.000
22.78600 190.000
22.80595 170.000
22.82590 185.000
22.84584 167.000
22.86579 182.000
22.88574 174.000
22.90568 158.000
22.92563 174.000
22.94558 173.000
22.96553 171.000
22.98547 146.000
23.00542 177.000
23.02537 195.000
23.04531 166.000
23.06526 167.000
23.08521 173.000
23.10515 161.000
23.12510 175.000
23.14505 149.000
23.16499 159.000
23.18494 158.000
23.20489 167.000
23.22484 152.000
23.24478 167.000
23.26473 168.000
23.28468 146.000
23.30462 163.000
23.32457 158.000
23.34452 159.000
23.36446 157.000
23.38441 154.000
23.40436 145.000
23.42431 164.000
23.44425 174.000
23.46420 164.000
23.48415 175.000
23.50409 157.000
23.52404 159.000
23.54399 174.000
23.56393 151.000
23.58388 158.000
23.60383 187.000
23.62377 172.000
23.64372 160.000
23.66367 148.000
23.68362 189.000
23.70356 195.000
23.72351 146.000
23.74346 154.000
23.76340 178.000
23.78335 149.000
23.80330 135.000
23.82324 144.000
23.84319 169.000
23.86314 153.000
23.88309 162.000
23.90303 162.000
23.92298 147.000
23.94293 180.000
23.96287 177.000
23.98282 175.000
24.00277 162.000
24.02271 157.000
24.04266 171.000
24.06261 137.000
24.08256 170.000
24.10250 170.000
24.12245 169.000
24.14240 171.000
24.16234 177.000
24.18229 164.000
24.20224 154.000
24.22218 178.000
24.24213 183.000
24.26208 178.000
24.28202 183.000
24.30197 160.000
24.32192 162.000
24.34187 153.000
24.36181 159.000
24.38176 179.000
24.40171 180.000
24.42165 178.000
24.44160 162.000
24.46155 165.000
24.48149 167.000
24.50144 164.000
24.52139 192.000
24.54134 138.000
24.56128 155.000
24.58123 158.000
24.60118 164.000
24.62112 180.000
24.64107 151.000
24.66102 172.000
24.68096 162.000
24.70091 185.000
24.72086 164.000
24.74080 170.000
24.76075 199.000
24.78070 181.000
24.80065 181.000
24.82059 180.000
24.84054 189.000
24.86049 185.000
24.88043 169.000
24.90038 215.000
24.92033 205.000
24.94027 183.000
24.96022 199.000
24.98017 175.000
25.00012 198.000
25.02006 180.000
25.04001 161.000
25.05996 183.000
25.07990 171.000
25.09985 179.000
25.11980 182.000
25.13974 189.000
25.15969 164.000
25.17964 153.000
25.19958 143.000
25.21953 164.000
25.23948 177.000
25.25943 180.000
25.27937 165.000
25.29932 161.000
25.31927 155.000
25.33921 157.000
25.35916 158.000
25.37911 157.000
25.39905 184.000
25.41900 158.000
25.43895 159.000
25.45890 185.000
25.47884 181.000
25.49879 190.000
25.51874 186.000
25.53868 160.000
25.55863 178.000
25.57858 164.000
25.59852 168.000
25.61847 199.000
25.63842 161.000
25.65837 182.000
25.67831 165.000
25.69826 161.000
25.71821 162.000
25.73815 157.000
25.75810 179.000
25.77805 165.000
25.79799 179.000
25.81794 170.000
25.83789 181.000
25.85783 155.000
25.87778 169.000
25.89773 164.000
25.91768 164.000
25.93762 176.000
25.95757 147.000
25.97752 166.000
25.99746 162.000
26.01741 144.000
26.03736 178.000
26.05730 157.000
26.07725 170.000
26.09720 160.000
26.11715 168.000
26.13709 169.000
26.15704 168.000
26.17699 174.000
26.19693 170.000
26.21688 180.000
26.23683 156.000
26.25677 190.000
26.27672 166.000
26.29667 161.000
26.31661 181.000
26.33656 176.000
26.35651 189.000
26.37646 201.000
26.39640 157.000
26.41635 175.000
26.43630 184.000
26.45624 167.000
26.47619 174.000
26.49614 175.000
26.51608 172.000
26.53603 146.000
26.55598 171.000
26.57593 189.000
26.59587 186.000
26.61582 178.000
26.63577 183.000
26.65571 146.000
26.67566 199.000
26.69561 175.000
26.71555 174.000
26.73550 194.000
26.75545 157.000
26.77539 163.000
26.79534 176.000
26.81529 164.000
26.83524 179.000
26.85518 164.000
26.87513 169.000
26.89508 180.000
26.91502 177.000
26.93497 157.000
26.95492 170.000
26.97486 186.000
26.99481 178.000
27.01476 186.000
27.03471 196.000
27.05465 190.000
27.07460 193.000
27.09455 157.000
27.11449 177.000
27.13444 180.000
27.15439 170.000
27.17433 193.000
27.19428 168.000
27.21423 163.000
27.23417 153.000
27.25412 182.000
27.27407 199.000
27.29402 167.000
27.31396 166.000
27.33391 186.000
27.35386 168.000
27.37380 164.000
27.39375 189.000
27.41370 144.000
27.43364 150.000
27.45359 179.000
27.47354 164.000
27.49349 208.000
27.51343 194.000
27.53338 191.000
27.55333 169.000
27.57327 168.000
27.59322 161.000
27.61317 166.000
27.63311 161.000
27.65306 169.000
27.67301 189.000
27.69296 163.000
27.71290 166.000
27.73285 189.000
27.75280 165.000
27.77274 175.000
27.79269 193.000
27.81264 181.000
27.83258 171.000
27.85253 178.000
27.87248 143.000
27.89242 189.000
27.91237 181.000
27.93232 142.000
27.95227 175.000
27.97221 195.000
27.99216 197.000
28.01211 189.000
28.03205 164.000
28.05200 187.000
28.07195 210.000
28.09189 163.000
28.11184 174.000
28.13179 161.000
28.15174 180.000
28.17168 177.000
28.19163 178.000
28.21158 163.000
28.23152 176.000
28.25147 175.000
28.27142 187.000
28.29136 164.000
28.31131 187.000
28.33126 156.000
28.35120 179.000
28.37115 185.000
28.39110 173.000
28.41105 187.000
28.43099 203.000
28.45094 205.000
28.47089 181.000
28.49083 207.000
28.51078 163.000
28.53073 185.000
28.55067 188.000
28.57062 169.000
28.59057 190.000
28.61052 181.000
28.63046 201.000
28.65041 181.000
28.67036 209.000
28.69030 169.000
28.71025 182.000
28.73020 193.000
28.75014 184.000
28.77009 165.000
28.79004 187.000
28.80998 214.000
28.82993 210.000
28.84988 192.000
28.86983 175.000
28.88977 207.000
28.90972 173.000
28.92967 181.000
28.94961 179.000
28.96956 210.000
28.98951 164.000
29.00945 200.000
29.02940 161.000
29.04935 214.000
29.06930 184.000
29.08924 183.000
29.10919 183.000
29.12914 173.000
29.14908 192.000
29.16903 203.000
29.18898 194.000
29.20892 209.000
29.22887 228.000
29.24882 248.000
29.26877 271.000
29.28871 300.000
29.30866 278.000
29.32861 332.000
29.34855 273.000
29.36850 295.000
29.38845 264.000
29.40839 260.000
29.42834 244.000
29.44829 223.000
29.46823 244.000
29.48818 229.000
29.50813 199.000
29.52808 223.000
29.54802 202.000
29.56797 198.000
29.58792 234.000
29.60786 208.000
29.62781 205.000
29.64776 190.000
29.66770 160.000
29.68765 202.000
29.70760 190.000
29.72755 200.000
29.74749 200.000
29.76744 193.000
29.78739 185.000
29.80733 172.000
29.82728 171.000
29.84723 198.000
29.86717 199.000
29.88712 197.000
29.90707 188.000
29.92701 218.000
29.94696 215.000
29.96691 190.000
29.98686 206.000
30.00680 216.000
30.02675 218.000
30.04670 215.000
30.06664 233.000
30.08659 216.000
30.10654 254.000
30.12648 262.000
30.14643 265.000
30.16638 313.000
30.18633 341.000
30.20627 437.000
30.22622 545.000
30.24617 614.000
30.26611 680.000
30.28606 631.000
30.30601 552.000
30.32595 527.000
30.34590 512.000
30.36585 431.000
30.38579 332.000
30.40574 283.000
30.42569 270.000
30.44564 222.000
30.46558 206.000
30.48553 217.000
30.50548 218.000
30.52542 198.000
30.54537 186.000
30.56532 185.000
30.58526 198.000
30.60521 198.000
30.62516 204.000
30.64511 190.000
30.66505 169.000
30.68500 214.000
30.70495 187.000
30.72489 194.000
30.74484 175.000
30.76479 192.000
30.78473 189.000
30.80468 215.000
30.82463 212.000
30.84458 183.000
30.86452 211.000
30.88447 169.000
30.90442 195.000
30.92436 193.000
30.94431 188.000
30.96426 175.000
30.98420 209.000
31.00415 169.000
31.02410 184.000
31.04404 201.000
31.06399 188.000
31.08394 192.000
31.10389 183.000
31.12383 196.000
31.14378 178.000
31.16373 192.000
31.18367 194.000
31.20362 196.000
31.22357 185.000
31.24351 201.000
31.26346 199.000
31.28341 205.000
31.30336 175.000
31.32330 222.000
31.34325 197.000
31.36320 179.000
31.38314 204.000
31.40309 202.000
31.42304 208.000
31.44298 179.000
31.46293 203.000
31.48288 181.000
31.50282 205.000
31.52277 196.000
31.54272 209.000
31.56267 194.000
31.58261 188.000
31.60256 201.000
31.62251 204.000
31.64245 196.000
31.66240 184.000
31.68235 175.000
31.70229 185.000
31.72224 199.000
31.74219 201.000
31.76214 206.000
31.78208 210.000
31.80203 230.000
31.82198 193.000
31.84192 220.000
31.86187 253.000
31.88182 230.000
31.90176 241.000
31.92171 292.000
31.94166 347.000
31.96160 388.000
31.98155 459.000
32.00150 441.000
32.02145 481.000
32.04139 434.000
32.06134 420.000
32.08129 432.000
32.10123 366.000
32.12118 344.000
32.14113 282.000
32.16107 236.000
32.18102 222.000
32.20097 223.000
32.22092 224.000
32.24086 208.000
32.26081 195.000
32.28076 199.000
32.30070 173.000
32.32065 192.000
32.34060 217.000
32.36054 202.000
32.38049 194.000
32.40044 198.000
32.42039 214.000
32.44033 171.000
32.46028 221.000
32.48023 222.000
32.50017 216.000
32.52012 191.000
32.54007 222.000
32.56001 206.000
32.57996 205.000
32.59991 226.000
32.61985 251.000
32.63980 230.000
32.65975 203.000
32.67970 213.000
32.69964 215.000
32.71959 236.000
32.73954 229.000
32.75948 216.000
32.77943 208.000
32.79938 192.000
32.81932 190.000
32.83927 204.000
32.85922 215.000
32.87917 191.000
32.89911 210.000
32.91906 186.000
32.93901 180.000
32.95895 157.000
32.97890 196.000
32.99885 177.000
33.01879 208.000
33.03874 181.000
33.05869 207.000
33.07863 192.000
33.09858 181.000
33.11853 191.000
33.13848 198.000
33.15842 190.000
33.17837 209.000
33.19832 198.000
33.21826 175.000
33.23821 182.000
33.25816 149.000
33.27810 204.000
33.29805 194.000
33.31800 202.000
33.33795 184.000
33.35789 192.000
33.37784 177.000
33.39779 205.000
33.41773 189.000
33.43768 180.000
33.45763 204.000
33.47757 179.000
33.49752 174.000
33.51747 186.000
33.53741 173.000
33.55736 172.000
33.57731 176.000
33.59726 184.000
33.61720 189.000
33.63715 180.000
33.65710 200.000
33.67704 163.000
33.69699 188.000
33.71694 182.000
33.73688 173.000
33.75683 198.000
33.77678 179.000
33.79673 188.000
33.81667 177.000
33.83662 179.000
33.85657 177.000
33.87651 180.000
33.89646 198.000
33.91641 183.000
33.93635 205.000
33.95630 207.000
33.97625 210.000
33.99620 179.000
34.01614 230.000
34.03609 189.000
34.05604 225.000
34.07598 216.000
34.09593 183.000
34.11588 246.000
34.13582 214.000
34.15577 187.000
34.17572 213.000
34.19566 212.000
34.21561 224.000
34.23556 210.000
34.25551 232.000
34.27545 252.000
34.29540 266.000
34.31535 248.000
34.33529 220.000
34.35524 263.000
34.37519 248.000
34.39513 236.000
34.41508 263.000
34.43503 245.000
34.45498 256.000
34.47492 231.000
34.49487 256.000
34.51482 277.000
34.53476 245.000
34.55471 262.000
34.57466 272.000
34.59460 310.000
34.61455 286.000
34.63450 325.000
34.65444 347.000
34.67439 338.000
34.69434 332.000
34.71429 276.000
34.73423 294.000
34.75418 292.000
34.77413 300.000
34.79407 287.000
34.81402 262.000
34.83397 270.000
34.85391 274.000
34.87386 277.000
34.89381 250.000
34.91376 250.000
34.93370 229.000
34.95365 220.000
34.97360 220.000
34.99354 235.000
35.01349 216.000
35.03344 228.000
35.05338 201.000
35.07333 210.000
35.09328 197.000
35.11322 236.000
35.13317 195.000
35.15312 237.000
35.17307 209.000
35.19301 223.000
35.21296 244.000
35.23291 213.000
35.25285 259.000
35.27280 247.000
35.29275 201.000
35.31269 257.000
35.33264 257.000
35.35259 242.000
35.37254 299.000
35.39248 266.000
35.41243 309.000
35.43238 353.000
35.45232 370.000
35.47227 390.000
35.49222 506.000
35.51216 566.000
35.53211 662.000
35.55206 788.000
35.57201 949.000
35.59195 1159.000
35.61190 1362.000
35.63185 1657.000
35.65179 1710.000
35.67174 1784.000
35.69169 1651.000
35.71163 1510.000
35.73158 1412.000
35.75153 1304.000
35.77147 1182.000
35.79142 963.000
35.81137 768.000
35.83132 663.000
35.85126 551.000
35.87121 467.000
35.89116 432.000
35.91110 394.000
35.93105 322.000
35.95100 332.000
35.97094 283.000
35.99089 257.000
36.01084 234.000
36.03079 239.000
36.05073 244.000
36.07068 220.000
36.09063 239.000
36.11057 227.000
36.13052 229.000
36.15047 243.000
36.17041 225.000
36.19036 243.000
36.21031 220.000
36.23025 223.000
36.25020 224.000
36.27015 231.000
36.29010 222.000
36.31004 245.000
36.32999 230.000
36.34994 225.000
36.36988 225.000
36.38983 233.000
36.40978 250.000
36.42972 226.000
36.44967 216.000
36.46962 238.000
36.48957 229.000
36.50951 234.000
36.52946 221.000
36.54941 230.000
36.56935 225.000
36.58930 207.000
36.60925 242.000
36.62919 258.000
36.64914 210.000
36.66909 197.000
36.68903 257.000
36.70898 252.000
36.72893 251.000
36.74888 249.000
36.76882 263.000
36.78877 249.000
36.80872 276.000
36.82866 272.000
36.84861 261.000
36.86856 299.000
36.88850 316.000
36.90845 344.000
36.92840 400.000
36.94835 379.000
36.96829 434.000
36.98824 470.000
37.00819 496.000
37.02813 547.000
37.04808 636.000
37.06803 788.000
37.08797 1065.000
37.10792 1405.000
37.12787 1858.000
37.14781 2635.000
37.16776 3172.000
37.18771 3464.000
37.20766 3185.000
37.22760 2889.000
37.24755 2555.000
37.26750 2388.000
37.28744 2103.000
37.30739 1684.000
37.32734 1321.000
37.34728 993.000
37.36723 761.000
37.38718 575.000
37.40713 492.000
37.42707 366.000
37.44702 345.000
37.46697 294.000
37.48691 275.000
37.50686 278.000
37.52681 282.000
37.54675 217.000
37.56670 247.000
37.58665 233.000
37.60660 232.000
37.62654 185.000
37.64649 210.000
37.66644 233.000
37.68638 218.000
37.70633 208.000
37.72628 206.000
37.74622 218.000
37.76617 211.000
37.78612 199.000
37.80606 197.000
37.82601 187.000
37.84596 176.000
37.86591 185.000
37.88585 199.000
37.90580 212.000
37.92575 178.000
37.94569 197.000
37.96564 187.000
37.98559 170.000
38.00553 198.000
38.02548 203.000
38.04543 192.000
38.06538 191.000
38.08532 200.000
38.10527 172.000
38.12522 195.000
38.14516 176.000
38.16511 178.000
38.18506 175.000
38.20500 196.000
38.22495 171.000
38.24490 170.000
38.26484 196.000
38.28479 173.000
38.30474 180.000
38.32469 170.000
38.34463 184.000
38.36458 175.000
38.38453 165.000
38.40447 189.000
38.42442 187.000
38.44437 187.000
38.46431 166.000
38.48426 174.000
38.50421 195.000
38.52416 179.000
38.54410 206.000
38.56405 180.000
38.58400 207.000
38.60394 171.000
38.62389 185.000
38.64384 178.000
38.66378 209.000
38.68373 186.000
38.70368 177.000
38.72362 201.000
38.74357 191.000
38.76352 193.000
38.78347 191.000
38.80341 197.000
38.82336 198.000
38.84331 226.000
38.86325 196.000
38.88320 196.000
38.90315 218.000
38.92309 235.000
38.94304 204.000
38.96299 243.000
38.98294 227.000
39.00288 204.000
39.02283 236.000
39.04278 248.000
39.06272 283.000
39.08267 312.000
39.10262 349.000
39.12256 365.000
39.14251 412.000
39.16246 406.000
39.18241 464.000
39.20235 493.000
39.22230 533.000
39.24225 560.000
39.26219 581.000
39.28214 611.000
39.30209 613.000
39.32203 669.000
39.34198 662.000
39.36193 634.000
39.38187 609.000
39.40182 657.000
39.42177 596.000
39.44172 538.000
39.46166 478.000
39.48161 423.000
39.50156 357.000
39.52150 343.000
39.54145 290.000
39.56140 272.000
39.58134 228.000
39.60129 211.000
39.62124 218.000
39.64119 210.000
39.66113 185.000
39.68108 192.000
39.70103 203.000
39.72097 179.000
39.74092 195.000
39.76087 190.000
39.78081 173.000
39.80076 207.000
39.82071 192.000
39.84065 156.000
39.86060 188.000
39.88055 182.000
39.90050 187.000
39.92044 182.000
39.94039 190.000
39.96034 184.000
39.98028 203.000
40.00023 191.000
40.02018 178.000
40.04012 202.000
40.06007 170.000
40.08002 185.000
40.09997 177.000
40.11991 180.000
40.13986 157.000
40.15981 156.000
40.17975 163.000
40.19970 160.000
40.21965 181.000
40.23959 183.000
40.25954 185.000
40.27949 194.000
40.29943 168.000
40.31938 155.000
40.33933 170.000
40.35928 184.000
40.37922 174.000
40.39917 185.000
40.41912 196.000
40.43906 163.000
40.45901 166.000
40.47896 164.000
40.49890 174.000
40.51885 167.000
40.53880 157.000
40.55875 200.000
40.57869 175.000
40.59864 150.000
40.61859 161.000
40.63853 177.000
40.65848 169.000
40.67843 187.000
40.69837 178.000
40.71832 170.000
40.73827 188.000
40.75822 183.000
40.77816 186.000
40.79811 164.000
40.81806 185.000
40.83800 165.000
40.85795 172.000
40.87790 171.000
40.89784 152.000
40.91779 155.000
40.93774 168.000
40.95768 213.000
40.97763 172.000
40.99758 182.000
41.01753 171.000
41.03747 202.000
41.05742 181.000
41.07737 164.000
41.09731 176.000
41.11726 174.000
41.13721 157.000
41.15715 163.000
41.17710 188.000
41.19705 173.000
41.21700 171.000
41.23694 197.000
41.25689 178.000
41.27684 208.000
41.29678 175.000
41.31673 198.000
41.33668 180.000
41.35662 178.000
41.37657 181.000
41.39652 163.000
41.41646 201.000
41.43641 178.000
41.45636 188.000
41.47631 184.000
41.49625 186.000
41.51620 177.000
41.53615 173.000
41.55609 250.000
41.57604 231.000
41.59599 242.000
41.61593 264.000
41.63588 350.000
41.65583 378.000
41.67578 357.000
41.69572 405.000
41.71567 368.000
41.73562 399.000
41.75556 353.000
41.77551 341.000
41.79546 351.000
41.81540 305.000
41.83535 278.000
41.85530 272.000
41.87524 250.000
41.89519 225.000
41.91514 204.000
41.93509 210.000
41.95503 200.000
41.97498 206.000
41.99493 235.000
42.01487 186.000
42.03482 202.000
42.05477 203.000
42.07471 160.000
42.09466 196.000
42.11461 206.000
42.13456 197.000
42.15450 183.000
42.17445 181.000
42.19440 194.000
42.21434 187.000
42.23429 183.000
42.25424 201.000
42.27418 197.000
42.29413 173.000
42.31408 216.000
42.33403 184.000
42.35397 214.000
42.37392 212.000
42.39387 203.000
42.41381 211.000
42.43376 188.000
42.45371 207.000
42.47365 201.000
42.49360 215.000
42.51355 218.000
42.53349 224.000
42.55344 186.000
42.57339 227.000
42.59334 216.000
42.61328 214.000
42.63323 211.000
42.65318 219.000
42.67312 209.000
42.69307 225.000
42.71302 245.000
42.73296 239.000
42.75291 237.000
42.77286 282.000
42.79281 262.000
42.81275 253.000
42.83270 262.000
42.85265 284.000
42.87259 331.000
42.89254 346.000
42.91249 339.000
42.93243 310.000
42.95238 407.000
42.97233 430.000
42.99227 448.000
43.01222 558.000
43.03217 587.000
43.05212 668.000
43.07206 805.000
43.09201 1008.000
43.11196 1342.000
43.13190 1907.000
43.15185 2700.000
43.17180 3697.000
43.19174 4936.000
43.21169 5561.000
43.23164 5581.000
43.25159 4709.000
43.27153 4040.000
43.29148 3568.000
43.31143 3633.000
43.33137 3531.000
43.35132 3025.000
43.37127 2416.000
43.39121 1817.000
43.41116 1363.000
43.43111 1141.000
43.45105 936.000
43.47100 803.000
43.49095 673.000
43.51090 618.000
43.53084 566.000
43.55079 484.000
43.57074 447.000
43.59068 386.000
43.61063 360.000
43.63058 362.000
43.65052 306.000
43.67047 268.000
43.69042 266.000
43.71037 305.000
43.73031 237.000
43.75026 232.000
43.77021 251.000
43.79015 230.000
43.81010 203.000
43.83005 199.000
43.84999 213.000
43.86994 168.000
43.88989 234.000
43.90984 197.000
43.92978 211.000
43.94973 181.000
43.96968 207.000
43.98962 200.000
44.00957 192.000
44.02952 190.000
44.04946 206.000
44.06941 186.000
44.08936 205.000
44.10930 192.000
44.12925 201.000
44.14920 206.000
44.16915 194.000
44.18909 198.000
44.20904 213.000
44.22899 184.000
44.24893 197.000
44.26888 190.000
44.28883 181.000
44.30877 166.000
44.32872 164.000
44.34867 174.000
44.36862 180.000
44.38856 210.000
44.40851 166.000
44.42846 205.000
44.44840 204.000
44.46835 199.000
44.48830 185.000
44.50824 161.000
44.52819 181.000
44.54814 168.000
44.56808 200.000
44.58803 177.000
44.60798 165.000
44.62793 168.000
44.64787 181.000
44.66782 178.000
44.68777 151.000
44.70771 175.000
44.72766 170.000
44.74761 172.000
44.76755 179.000
44.78750 169.000
44.80745 206.000
44.82740 181.000
44.84734 174.000
44.86729 173.000
44.88724 183.000
44.90718 190.000
44.92713 172.000
44.94708 184.000
44.96702 199.000
44.98697 198.000
45.00692 224.000
45.02686 164.000
45.04681 183.000
45.06676 198.000
45.08671 181.000
45.10665 168.000
45.12660 175.000
45.14655 200.000
45.16649 223.000
45.18644 189.000
45.20639 175.000
45.22633 154.000
45.24628 190.000
45.26623 202.000
45.28618 185.000
45.30612 158.000
45.32607 167.000
45.34602 181.000
45.36596 172.000
45.38591 168.000
45.40586 165.000
45.42580 164.000
45.44575 177.000
45.46570 174.000
45.48565 172.000
45.50559 169.000
45.52554 183.000
45.54549 174.000
45.56543 180.000
45.58538 165.000
45.60533 151.000
45.62527 196.000
45.64522 181.000
45.66517 188.000
45.68511 173.000
45.70506 158.000
45.72501 168.000
45.74496 205.000
45.76490 171.000
45.78485 175.000
45.80480 175.000
45.82474 166.000
45.84469 158.000
45.86464 178.000
45.88458 183.000
45.90453 157.000
45.92448 180.000
45.94443 153.000
45.96437 158.000
45.98432 159.000
46.00427 167.000
46.02421 144.000
46.04416 174.000
46.06411 201.000
46.08405 189.000
46.10400 155.000
46.12395 179.000
46.14389 145.000
46.16384 163.000
46.18379 171.000
46.20374 162.000
46.22368 159.000
46.24363 173.000
46.26358 154.000
46.28352 162.000
46.30347 155.000
46.32342 170.000
46.34336 169.000
46.36331 156.000
46.38326 165.000
46.40321 170.000
46.42315 160.000
46.44310 159.000
46.46305 171.000
46.48299 169.000
46.50294 178.000
46.52289 153.000
46.54283 159.000
46.56278 168.000
46.58273 150.000
46.60267 172.000
46.62262 154.000
46.64257 156.000
46.66252 178.000
46.68246 158.000
46.70241 154.000
46.72236 158.000
46.74230 156.000
46.76225 152.000
46.78220 158.000
46.80214 159.000
46.82209 167.000
46.84204 178.000
46.86199 166.000
46.88193 184.000
46.90188 160.000
46.92183 177.000
46.94177 157.000
46.96172 169.000
46.98167 180.000
47.00161 142.000
47.02156 194.000
47.04151 140.000
47.06146 154.000
47.08140 127.000
47.10135 161.000
47.12130 183.000
47.14124 157.000
47.16119 182.000
47.18114 186.000
47.20108 159.000
47.22103 158.000
47.24098 178.000
47.26092 173.000
47.28087 175.000
47.30082 146.000
47.32077 169.000
47.34071 189.000
47.36066 159.000
47.38061 167.000
47.40055 165.000
47.42050 170.000
47.44045 154.000
47.46039 182.000
47.48034 179.000
47.50029 184.000
47.52024 152.000
47.54018 159.000
47.56013 155.000
47.58008 154.000
47.60002 170.000
47.61997 171.000
47.63992 161.000
47.65986 168.000
47.67981 178.000
47.69976 151.000
47.71970 176.000
47.73965 178.000
47.75960 157.000
47.77955 186.000
47.79949 174.000
47.81944 175.000
47.83939 175.000
47.85933 175.000
47.87928 150.000
47.89923 163.000
47.91917 184.000
47.93912 135.000
47.95907 204.000
47.97902 193.000
47.99896 190.000
48.01891 191.000
48.03886 190.000
48.05880 207.000
48.07875 176.000
48.09870 202.000
48.11864 205.000
48.13859 176.000
48.15854 170.000
48.17848 194.000
48.19843 200.000
48.21838 186.000
48.23833 168.000
48.25827 171.000
48.27822 191.000
48.29817 154.000
48.31811 217.000
48.33806 172.000
48.35801 213.000
48.37795 197.000
48.39790 191.000
48.41785 207.000
48.43780 172.000
48.45774 230.000
48.47769 222.000
48.49764 240.000
48.51758 227.000
48.53753 255.000
48.55748 282.000
48.57742 311.000
48.59737 364.000
48.61732 425.000
48.63726 447.000
48.65721 485.000
48.67716 570.000
48.69711 562.000
48.71705 611.000
48.73700 666.000
48.75695 656.000
48.77689 694.000
48.79684 612.000
48.81679 574.000
48.83673 551.000
48.85668 497.000
48.87663 435.000
48.89658 431.000
48.91652 407.000
48.93647 376.000
48.95642 341.000
48.97636 305.000
48.99631 302.000
49.01626 253.000
49.03620 232.000
49.05615 217.000
49.07610 220.000
49.09605 216.000
49.11599 181.000
49.13594 191.000
49.15589 223.000
49.17583 190.000
49.19578 187.000
49.21573 182.000
49.23567 181.000
49.25562 185.000
49.27557 206.000
49.29551 184.000
49.31546 169.000
49.33541 203.000
49.35536 162.000
49.37530 175.000
49.39525 165.000
49.41520 177.000
49.43514 168.000
49.45509 184.000
49.47504 179.000
49.49498 181.000
49.51493 165.000
49.53488 176.000
49.55483 186.000
49.57477 157.000
49.59472 175.000
49.61467 164.000
49.63461 199.000
49.65456 149.000
49.67451 170.000
49.69445 181.000
49.71440 160.000
49.73435 141.000
49.75429 191.000
49.77424 177.000
49.79419 154.000
49.81414 158.000
49.83408 149.000
49.85403 181.000
49.87398 176.000
49.89392 193.000
49.91387 168.000
49.93382 148.000
49.95376 161.000
49.97371 160.000
49.99366 159.000
50.01361 163.000
50.03355 184.000
50.05350 175.000
50.07345 161.000
50.09339 168.000
50.11334 149.000
50.13329 177.000
50.15323 167.000
50.17318 162.000
50.19313 139.000
50.21307 174.000
50.23302 152.000
50.25297 152.000
50.27292 166.000
50.29286 146.000
50.31281 147.000
50.33276 176.000
50.35270 149.000
50.37265 172.000
50.39260 172.000
50.41254 133.000
50.43249 157.000
50.45244 183.000
50.47239 179.000
50.49233 172.000
50.51228 149.000
50.53223 163.000
50.55217 151.000
50.57212 170.000
50.59207 147.000
50.61201 158.000
50.63196 166.000
50.65191 167.000
50.67186 157.000
50.69180 160.000
50.71175 146.000
50.73170 149.000
50.75164 158.000
50.77159 187.000
50.79154 151.000
50.81148 151.000
50.83143 145.000
50.85138 175.000
50.87132 152.000
50.89127 155.000
50.91122 153.000
50.93117 159.000
50.95111 151.000
50.97106 157.000
50.99101 195.000
51.01095 168.000
51.03090 161.000
51.05085 168.000
51.07079 176.000
51.09074 187.000
51.11069 158.000
51.13064 177.000
51.15058 154.000
51.17053 167.000
51.19048 155.000
51.21042 148.000
51.23037 151.000
51.25032 188.000
51.27026 166.000
51.29021 138.000
51.31016 164.000
51.33010 145.000
51.35005 160.000
51.37000 172.000
51.38995 146.000
51.40989 166.000
51.42984 162.000
51.44979 179.000
51.46973 172.000
51.48968 178.000
51.50963 159.000
51.52957 172.000
51.54952 140.000
51.56947 150.000
51.58942 162.000
51.60936 155.000
51.62931 148.000
51.64926 171.000
51.66920 183.000
51.68915 174.000
51.70910 179.000
51.72904 177.000
51.74899 178.000
51.76894 159.000
51.78888 182.000
51.80883 163.000
51.82878 180.000
51.84873 172.000
51.86867 179.000
51.88862 161.000
51.90857 161.000
51.92851 188.000
51.94846 168.000
51.96841 169.000
51.98835 176.000
52.00830 184.000
52.02825 167.000
52.04820 178.000
52.06814 173.000
52.08809 181.000
52.10804 166.000
52.12798 196.000
52.14793 165.000
52.16788 201.000
52.18782 174.000
52.20777 197.000
52.22772 171.000
52.24767 169.000
52.26761 164.000
52.28756 164.000
52.30751 161.000
52.32745 202.000
52.34740 169.000
52.36735 171.000
52.38729 159.000
52.40724 147.000
52.42719 175.000
52.44713 187.000
52.46708 134.000
52.48703 159.000
52.50698 143.000
52.52692 157.000
52.54687 138.000
52.56682 162.000
52.58676 138.000
52.60671 156.000
52.62666 174.000
52.64660 158.000
52.66655 146.000
52.68650 148.000
52.70645 172.000
52.72639 170.000
52.74634 178.000
52.76629 161.000
52.78623 159.000
52.80618 161.000
52.82613 183.000
52.84607 177.000
52.86602 161.000
52.88597 163.000
52.90591 183.000
52.92586 196.000
52.94581 183.000
52.96576 188.000
52.98570 183.000
53.00565 195.000
53.02560 190.000
53.04554 191.000
53.06549 179.000
53.08544 163.000
53.10538 213.000
53.12533 197.000
53.14528 180.000
53.16523 200.000
53.18517 168.000
53.20512 173.000
53.22507 166.000
53.24501 169.000
53.26496 168.000
53.28491 189.000
53.30485 202.000
53.32480 179.000
53.34475 181.000
53.36469 172.000
53.38464 165.000
53.40459 154.000
53.42454 160.000
53.44448 168.000
53.46443 152.000
53.48438 176.000
53.50432 165.000
53.52427 160.000
53.54422 178.000
53.56416 146.000
53.58411 169.000
53.60406 189.000
53.62401 180.000
53.64395 196.000
53.66390 167.000
53.68385 178.000
53.70379 203.000
53.72374 195.000
53.74369 238.000
53.76363 235.000
53.78358 249.000
53.80353 257.000
53.82348 271.000
53.84342 280.000
53.86337 253.000
53.88332 243.000
53.90326 242.000
53.92321 249.000
53.94316 197.000
53.96310 212.000
53.98305 203.000
54.00300 219.000
54.02294 214.000
54.04289 205.000
54.06284 190.000
54.08279 160.000
54.10273 163.000
54.12268 175.000
54.14263 150.000
54.16257 168.000
54.18252 153.000
54.20247 162.000
54.22241 164.000
54.24236 155.000
54.26231 157.000
54.28226 166.000
54.30220 165.000
54.32215 166.000
54.34210 171.000
54.36204 164.000
54.38199 152.000
54.40194 161.000
54.42188 170.000
54.44183 186.000
54.46178 152.000
54.48172 187.000
54.50167 153.000
54.52162 144.000
54.54157 173.000
54.56151 157.000
54.58146 174.000
54.60141 193.000
54.62135 160.000
54.64130 179.000
54.66125 170.000
54.68119 166.000
54.70114 146.000
54.72109 155.000
54.74104 180.000
54.76098 170.000
54.78093 168.000
54.80088 177.000
54.82082 167.000
54.84077 167.000
54.86072 159.000
54.88066 183.000
54.90061 168.000
54.92056 151.000
54.94050 152.000
54.96045 169.000
54.98040 179.000
55.00035 157.000
55.02029 166.000
55.04024 174.000
55.06019 158.000
55.08013 166.000
55.10008 161.000
55.12003 169.000
55.13997 145.000
55.15992 155.000
55.17987 132.000
55.19982 156.000
55.21976 157.000
55.23971 174.000
55.25966 146.000
55.27960 157.000
55.29955 145.000
55.31950 146.000
55.33944 159.000
55.35939 178.000
55.37934 182.000
55.39929 162.000
55.41923 159.000
55.43918 162.000
55.45913 163.000
55.47907 157.000
55.49902 137.000
55.51897 152.000
55.53891 167.000
55.55886 189.000
55.57881 168.000
55.59875 189.000
55.61870 164.000
55.63865 158.000
55.65860 146.000
55.67854 161.000
55.69849 132.000
55.71844 173.000
55.73838 167.000
55.75833 185.000
55.77828 155.000
55.79822 173.000
55.81817 171.000
55.83812 163.000
55.85807 143.000
55.87801 188.000
55.89796 162.000
55.91791 165.000
55.93785 135.000
55.95780 161.000
55.97775 158.000
55.99769 167.000
56.01764 142.000
56.03759 141.000
56.05753 160.000
56.07748 179.000
56.09743 172.000
56.11738 171.000
56.13732 167.000
56.15727 175.000
56.17722 184.000
56.19716 168.000
56.21711 149.000
56.23706 185.000
56.25700 151.000
56.27695 159.000
56.29690 141.000
56.31685 172.000
56.33679 163.000
56.35674 166.000
56.37669 164.000
56.39663 160.000
56.41658 184.000
56.43653 173.000
56.45647 177.000
56.47642 186.000
56.49637 154.000
56.51631 164.000
56.53626 169.000
56.55621 166.000
56.57616 184.000
56.59610 175.000
56.61605 176.000
56.63600 141.000
56.65594 179.000
56.67589 180.000
56.69584 151.000
56.71578 168.000
56.73573 166.000
56.75568 151.000
56.77563 179.000
56.79557 158.000
56.81552 172.000
56.83547 170.000
56.85541 157.000
56.87536 171.000
56.89531 188.000
56.91525 158.000
56.93520 168.000
56.95515 157.000
56.97510 159.000
56.99504 171.000
57.01499 171.000
57.03494 177.000
57.05488 195.000
57.07483 185.000
57.09478 210.000
57.11472 225.000
57.13467 228.000
57.15462 244.000
57.17456 274.000
57.19451 288.000
57.21446 264.000
57.23441 341.000
57.25435 336.000
57.27430 374.000
57.29425 387.000
57.31419 460.000
57.33414 428.000
57.35409 473.000
57.37403 456.000
57.39398 456.000
57.41393 450.000
57.43388 429.000
57.45382 387.000
57.47377 379.000
57.49372 402.000
57.51366 370.000
57.53361 372.000
57.55356 302.000
57.57350 305.000
57.59345 290.000
57.61340 299.000
57.63334 257.000
57.65329 251.000
57.67324 232.000
57.69319 233.000
57.71313 223.000
57.73308 249.000
57.75303 198.000
57.77297 196.000
57.79292 200.000
57.81287 198.000
57.83281 196.000
57.85276 186.000
57.87271 182.000
57.89266 167.000
57.91260 189.000
57.93255 174.000
57.95250 155.000
57.97244 175.000
57.99239 150.000
58.01234 181.000
58.03228 143.000
58.05223 165.000
58.07218 186.000
58.09212 178.000
58.11207 152.000
58.13202 166.000
58.15197 192.000
58.17191 171.000
58.19186 154.000
58.21181 165.000
58.23175 163.000
58.25170 160.000
58.27165 180.000
58.29159 168.000
58.31154 172.000
58.33149 154.000
58.35144 142.000
58.37138 180.000
58.39133 146.000
58.41128 171.000
58.43122 177.000
58.45117 156.000
58.47112 198.000
58.49106 150.000
58.51101 182.000
58.53096 160.000
58.55090 146.000
58.57085 137.000
58.59080 179.000
58.61075 175.000
58.63069 181.000
58.65064 186.000
58.67059 165.000
58.69053 166.000
58.71048 147.000
58.73043 170.000
58.75037 164.000
58.77032 147.000
58.79027 163.000
58.81022 164.000
58.83016 166.000
58.85011 180.000
58.87006 171.000
58.89000 170.000
58.90995 178.000
58.92990 165.000
58.94984 159.000
58.96979 150.000
58.98974 181.000
59.00969 152.000
59.02963 164.000
59.04958 164.000
59.06953 169.000
59.08947 165.000
59.10942 142.000
59.12937 165.000
59.14931 157.000
59.16926 160.000
59.18921 167.000
59.20915 165.000
59.22910 190.000
59.24905 164.000
59.26900 157.000
59.28894 164.000
59.30889 140.000
59.32884 139.000
59.34878 172.000
59.36873 171.000
59.38868 152.000
59.40862 155.000
59.42857 153.000
59.44852 165.000
59.46847 157.000
59.48841 152.000
59.50836 163.000
59.52831 165.000
59.54825 150.000
59.56820 169.000
59.58815 155.000
59.60809 187.000
59.62804 169.000
59.64799 165.000
59.66793 165.000
59.68788 172.000
59.70783 169.000
59.72778 175.000
59.74772 177.000
59.76767 154.000
59.78762 139.000
59.80756 178.000
59.82751 148.000
59.84746 185.000
59.86740 156.000
59.88735 156.000
59.90730 170.000
59.92725 161.000
59.94719 163.000
59.96714 151.000
59.98709 146.000
60.00703 170.000
60.02698 185.000
60.04693 175.000
60.06687 146.000
60.08682 154.000
60.10677 150.000
60.12671 163.000
60.14666 157.000
60.16661 170.000
60.18656 162.000
60.20650 165.000
60.22645 189.000
60.24640 160.000
60.26634 152.000
60.28629 175.000
60.30624 162.000
60.32618 163.000
60.34613 168.000
60.36608 164.000
60.38603 171.000
60.40597 188.000
60.42592 166.000
60.44587 158.000
60.46581 177.000
60.48576 148.000
60.50571 162.000
60.52565 159.000
60.54560 156.000
60.56555 172.000
60.58550 166.000
60.60544 154.000
60.62539 168.000
60.64534 178.000
60.66528 180.000
60.68523 166.000
60.70518 186.000
60.72512 159.000
60.74507 173.000
60.76502 156.000
60.78496 155.000
60.80491 167.000
60.82486 172.000
60.84481 173.000
60.86475 160.000
60.88470 168.000
60.90465 191.000
60.92459 144.000
60.94454 160.000
60.96449 156.000
60.98443 172.000
61.00438 190.000
61.02433 178.000
61.04428 170.000
61.06422 172.000
61.08417 174.000
61.10412 173.000
61.12406 182.000
61.14401 182.000
61.16396 167.000
61.18390 193.000
61.20385 166.000
61.22380 154.000
61.24374 163.000
61.26369 160.000
61.28364 180.000
61.30359 163.000
61.32353 186.000
61.34348 183.000
61.36343 189.000
61.38337 173.000
61.40332 186.000
61.42327 184.000
61.44321 187.000
61.46316 173.000
61.48311 171.000
61.50306 169.000
61.52300 203.000
61.54295 183.000
61.56290 183.000
61.58284 188.000
61.60279 184.000
61.62274 185.000
61.64268 181.000
61.66263 196.000
61.68258 209.000
61.70252 204.000
61.72247 185.000
61.74242 225.000
61.76237 191.000
61.78231 223.000
61.80226 232.000
61.82221 214.000
61.84215 231.000
61.86210 238.000
61.88205 276.000
61.90199 286.000
61.92194 286.000
61.94189 330.000
61.96184 324.000
61.98178 383.000
62.00173 375.000
62.02168 396.000
62.04162 449.000
62.06157 412.000
62.08152 414.000
62.10146 368.000
62.12141 348.000
62.14136 365.000
62.16131 365.000
62.18125 386.000
62.20120 338.000
62.22115 322.000
62.24109 305.000
62.26104 299.000
62.28099 335.000
62.30093 289.000
62.32088 290.000
62.34083 306.000
62.36077 256.000
62.38072 273.000
62.40067 251.000
62.42062 263.000
62.44056 272.000
62.46051 298.000
62.48046 271.000
62.50040 302.000
62.52035 327.000
62.54030 336.000
62.56024 400.000
62.58019 391.000
62.60014 435.000
62.62009 512.000
62.64003 601.000
62.65998 715.000
62.67993 914.000
62.69987 1132.000
62.71982 1297.000
62.73977 1597.000
62.75971 1842.000
62.77966 1963.000
62.79961 2044.000
62.81955 2061.000
62.83950 2019.000
62.85945 1753.000
62.87940 1728.000
62.89934 1540.000
62.91929 1592.000
62.93924 1516.000
62.95918 1601.000
62.97913 1559.000
62.99908 1535.000
63.01902 1332.000
63.03897 1179.000
63.05892 1069.000
63.07887 832.000
63.09881 755.000
63.11876 651.000
63.13871 635.000
63.15865 637.000
63.17860 537.000
63.19855 487.000
63.21849 460.000
63.23844 415.000
63.25839 410.000
63.27833 329.000
63.29828 307.000
63.31823 320.000
63.33818 268.000
63.35812 295.000
63.37807 248.000
63.39802 261.000
63.41796 240.000
63.43791 235.000
63.45786 248.000
63.47780 227.000
63.49775 209.000
63.51770 192.000
63.53765 210.000
63.55759 205.000
63.57754 215.000
63.59749 199.000
63.61743 175.000
63.63738 202.000
63.65733 173.000
63.67727 196.000
63.69722 189.000
63.71717 206.000
63.73712 206.000
63.75706 187.000
63.77701 216.000
63.79696 204.000
63.81690 244.000
63.83685 222.000
63.85680 204.000
63.87674 219.000
63.89669 243.000
63.91664 216.000
63.93658 216.000
63.95653 230.000
63.97648 241.000
63.99643 209.000
64.01637 245.000
64.03632 213.000
64.05627 246.000
64.07621 258.000
64.09616 285.000
64.11611 257.000
64.13605 268.000
64.15600 277.000
64.17595 257.000
64.19590 257.000
64.21584 226.000
64.23579 313.000
64.25574 266.000
64.27568 271.000
64.29563 252.000
64.31558 252.000
64.33552 296.000
64.35547 283.000
64.37542 273.000
64.39536 295.000
64.41531 264.000
64.43526 238.000
64.45521 257.000
64.47515 251.000
64.49510 246.000
64.51505 246.000
64.53499 242.000
64.55494 237.000
64.57489 223.000
64.59483 198.000
64.61478 188.000
64.63473 237.000
64.65468 204.000
64.67462 195.000
64.69457 205.000
64.71452 182.000
64.73446 177.000
64.75441 197.000
64.77436 181.000
64.79430 170.000
64.81425 160.000
64.83420 190.000
64.85414 201.000
64.87409 135.000
64.89404 192.000
64.91399 178.000
64.93393 187.000
64.95388 194.000
64.97383 161.000
64.99377 186.000
65.01372 167.000
65.03367 152.000
65.05361 180.000
65.07356 161.000
65.09351 174.000
65.11346 192.000
65.13340 169.000
65.15335 170.000
65.17330 172.000
65.19324 188.000
65.21319 166.000
65.23314 195.000
65.25308 195.000
65.27303 182.000
65.29298 173.000
65.31293 169.000
65.33287 168.000
65.35282 173.000
65.37277 187.000
65.39271 193.000
65.41266 194.000
65.43261 165.000
65.45255 185.000
65.47250 172.000
65.49245 172.000
65.51239 168.000
65.53234 185.000
65.55229 189.000
65.57224 194.000
65.59218 156.000
65.61213 202.000
65.63208 188.000
65.65202 210.000
65.67197 191.000
65.69192 211.000
65.71186 213.000
65.73181 207.000
65.75176 174.000
65.77171 206.000
65.79165 200.000
65.81160 205.000
65.83155 215.000
65.85149 186.000
65.87144 196.000
65.89139 178.000
65.91133 190.000
65.93128 171.000
65.95123 184.000
65.97117 197.000
65.99112 191.000
66.01107 179.000
66.03102 170.000
66.05096 178.000
66.07091 183.000
66.09086 196.000
66.11080 179.000
66.13075 202.000
66.15070 171.000
66.17064 181.000
66.19059 186.000
66.21054 188.000
66.23049 205.000
66.25043 216.000
66.27038 185.000
66.29033 173.000
66.31027 205.000
66.33022 211.000
66.35017 194.000
66.37011 212.000
66.39006 213.000
66.41001 223.000
66.42995 198.000
66.44990 205.000
66.46985 229.000
66.48980 231.000
66.50974 215.000
66.52969 194.000
66.54964 189.000
66.56958 191.000
66.58953 214.000
66.60948 215.000
66.62942 234.000
66.64937 220.000
66.66932 215.000
66.68927 229.000
66.70921 201.000
66.72916 206.000
66.74911 223.000
66.76905 239.000
66.78900 236.000
66.80895 237.000
66.82889 221.000
66.84884 242.000
66.86879 224.000
66.88874 213.000
66.90868 217.000
66.92863 229.000
66.94858 228.000
66.96852 215.000
66.98847 216.000
67.00842 217.000
67.02836 208.000
67.04831 234.000
67.06826 197.000
67.08820 215.000
67.10815 215.000
67.12810 169.000
67.14805 210.000
67.16799 157.000
67.18794 170.000
67.20789 195.000
67.22783 179.000
67.24778 167.000
67.26773 169.000
67.28767 168.000
67.30762 181.000
67.32757 185.000
67.34752 166.000
67.36746 178.000
67.38741 163.000
67.40736 179.000
67.42730 148.000
67.44725 148.000
67.46720 149.000
67.48714 184.000
67.50709 147.000
67.52704 154.000
67.54698 184.000
67.56693 169.000
67.58688 164.000
67.60683 151.000
67.62677 142.000
67.64672 171.000
67.66667 170.000
67.68661 170.000
67.70656 169.000
67.72651 173.000
67.74645 174.000
67.76640 167.000
67.78635 178.000
67.80630 153.000
67.82624 166.000
67.84619 183.000
67.86614 172.000
67.88608 153.000
67.90603 158.000
67.92598 170.000
67.94592 178.000
67.96587 168.000
67.98582 160.000
68.00576 180.000
68.02571 152.000
68.04566 164.000
68.06561 160.000
68.08555 161.000
68.10550 139.000
68.12545 155.000
68.14539 173.000
68.16534 175.000
68.18529 182.000
68.20523 163.000
68.22518 147.000
68.24513 173.000
68.26508 163.000
68.28502 146.000
68.30497 167.000
68.32492 167.000
68.34486 149.000
68.36481 141.000
68.38476 171.000
68.40470 157.000
68.42465 158.000
68.44460 161.000
68.46455 162.000
68.48449 163.000
68.50444 164.000
68.52439 156.000
68.54433 167.000
68.56428 142.000
68.58423 169.000
68.60417 132.000
68.62412 152.000
68.64407 179.000
68.66401 142.000
68.68396 141.000
68.70391 162.000
68.72386 157.000
68.74380 175.000
68.76375 168.000
68.78370 175.000
68.80364 170.000
68.82359 149.000
68.84354 152.000
68.86348 165.000
68.88343 161.000
68.90338 167.000
68.92333 125.000
68.94327 144.000
68.96322 134.000
68.98317 182.000
69.00311 164.000
69.02306 154.000
69.04301 151.000
69.06295 160.000
69.08290 138.000
69.10285 165.000
69.12279 150.000
69.14274 156.000
69.16269 154.000
69.18264 150.000
69.20258 144.000
69.22253 150.000
69.24248 137.000
69.26242 134.000
69.28237 167.000
69.30232 158.000
69.32226 167.000
69.34221 155.000
69.36216 176.000
69.38211 154.000
69.40205 169.000
69.42200 154.000
69.44195 165.000
69.46189 139.000
69.48184 158.000
69.50179 160.000
69.52173 188.000
69.54168 153.000
69.56163 149.000
69.58157 165.000
69.60152 154.000
69.62147 165.000
69.64142 181.000
69.66136 133.000
69.68131 157.000
69.70126 163.000
69.72120 168.000
69.74115 155.000
69.76110 142.000
69.78104 167.000
69.80099 173.000
69.82094 148.000
69.84089 186.000
69.86083 132.000
69.88078 167.000
69.90073 151.000
69.92067 147.000
69.94062 157.000
69.96057 174.000
69.98051 154.000
70.00046 139.000
70.02041 142.000
70.04035 154.000
70.06030 167.000
70.08025 159.000
70.10020 162.000
70.12014 144.000
70.14009 140.000
70.16004 158.000
70.17998 166.000
70.19993 172.000
70.21988 132.000
70.23982 131.000
70.25977 167.000
70.27972 169.000
70.29967 158.000
70.31961 153.000
70.33956 161.000
70.35951 165.000
70.37945 174.000
70.39940 165.000
70.41935 137.000
70.43929 136.000
70.45924 133.000
70.47919 151.000
70.49914 159.000
70.51908 130.000
70.53903 129.000
70.55898 176.000
70.57892 147.000
70.59887 158.000
70.61882 148.000
70.63876 138.000
70.65871 136.000
70.67866 175.000
70.69860 170.000
70.71855 161.000
70.73850 137.000
70.75845 166.000
70.77839 155.000
70.79834 145.000
70.81829 148.000
70.83823 137.000
70.85818 157.000
70.87813 163.000
70.89807 177.000
70.91802 154.000
70.93797 155.000
70.95792 190.000
70.97786 173.000
70.99781 153.000
71.01776 165.000
71.03770 160.000
71.05765 173.000
71.07760 158.000
71.09754 140.000
71.11749 139.000
71.13744 170.000
71.15738 153.000
71.17733 148.000
71.19728 175.000
71.21723 130.000
71.23717 168.000
71.25712 178.000
71.27707 131.000
71.29701 157.000
71.31696 157.000
71.33691 173.000
71.35685 164.000
71.37680 177.000
71.39675 165.000
71.41670 170.000
71.43664 184.000
71.45659 168.000
71.47654 195.000
71.49648 143.000
71.51643 192.000
71.53638 186.000
71.55632 177.000
71.57627 193.000
71.59622 174.000
71.61616 184.000
71.63611 167.000
71.65606 190.000
71.67601 166.000
71.69595 156.000
71.71590 185.000
71.73585 203.000
71.75579 169.000
71.77574 163.000
71.79569 179.000
71.81563 188.000
71.83558 161.000
71.85553 158.000
71.87548 162.000
71.89542 175.000
71.91537 164.000
71.93532 166.000
71.95526 155.000
71.97521 158.000
71.99516 156.000
72.01510 145.000
72.03505 178.000
72.05500 167.000
72.07495 159.000
72.09489 163.000
72.11484 166.000
72.13479 168.000
72.15473 144.000
72.17468 163.000
72.19463 161.000
72.21457 146.000
72.23452 148.000
72.25447 165.000
72.27441 160.000
72.29436 144.000
72.31431 169.000
72.33426 130.000
72.35420 164.000
72.37415 143.000
72.39410 163.000
72.41404 152.000
72.43399 167.000
72.45394 163.000
72.47388 166.000
72.49383 149.000
72.51378 141.000
72.53373 155.000
72.55367 181.000
72.57362 163.000
72.59357 144.000
72.61351 164.000
72.63346 158.000
72.65341 171.000
72.67335 170.000
72.69330 157.000
72.71325 156.000
72.73319 146.000
72.75314 170.000
72.77309 160.000
72.79304 177.000
72.81298 170.000
72.83293 164.000
72.85288 146.000
72.87282 168.000
72.89277 175.000
72.91272 174.000
72.93266 187.000
72.95261 159.000
72.97256 162.000
72.99251 173.000
73.01245 157.000
73.03240 168.000
73.05235 155.000
73.07229 181.000
73.09224 170.000
73.11219 167.000
73.13213 165.000
73.15208 176.000
73.17203 172.000
73.19197 191.000
73.21192 192.000
73.23187 156.000
73.25182 179.000
73.27176 189.000
73.29171 175.000
73.31166 159.000
73.33160 206.000
73.35155 179.000
73.37150 210.000
73.39144 179.000
73.41139 187.000
73.43134 204.000
73.45129 177.000
73.47123 200.000
73.49118 177.000
73.51113 207.000
73.53107 199.000
73.55102 209.000
73.57097 203.000
73.59091 238.000
73.61086 183.000
73.63081 196.000
73.65076 198.000
73.67070 208.000
73.69065 166.000
73.71060 178.000
73.73054 181.000
73.75049 194.000
73.77044 192.000
73.79038 207.000
73.81033 186.000
73.83028 177.000
73.85022 175.000
73.87017 172.000
73.89012 169.000
73.91007 192.000
73.93001 182.000
73.94996 182.000
73.96991 174.000
73.98985 166.000
74.00980 185.000
74.02975 170.000
74.04969 153.000
74.06964 164.000
74.08959 197.000
74.10954 168.000
74.12948 168.000
74.14943 183.000
74.16938 167.000
74.18932 172.000
74.20927 172.000
74.22922 166.000
74.24916 137.000
74.26911 151.000
74.28906 161.000
74.30900 174.000
74.32895 173.000
74.34890 165.000
74.36885 178.000
74.38879 153.000
74.40874 197.000
74.42869 196.000
74.44863 197.000
74.46858 213.000
74.48853 234.000
74.50847 205.000
74.52842 230.000
74.54837 264.000
74.56832 227.000
74.58826 210.000
74.60821 232.000
74.62816 209.000
74.64810 205.000
74.66805 199.000
74.68800 248.000
74.70794 230.000
74.72789 213.000
74.74784 208.000
74.76778 204.000
74.78773 231.000
74.80768 218.000
74.82763 192.000
74.84757 175.000
74.86752 179.000
74.88747 188.000
74.90741 197.000
74.92736 192.000
74.94731 207.000
74.96725 186.000
74.98720 191.000
75.00715 227.000
75.02710 205.000
75.04704 222.000
75.06699 213.000
75.08694 245.000
75.10688 249.000
75.12683 257.000
75.14678 293.000
75.16672 306.000
75.18667 366.000
75.20662 421.000
75.22657 513.000
75.24651 575.000
75.26646 578.000
75.28641 695.000
75.30635 715.000
75.32630 742.000
75.34625 778.000
75.36619 721.000
75.38614 659.000
75.40609 595.000
75.42603 518.000
75.44598 542.000
75.46593 514.000
75.48588 532.000
75.50582 540.000
75.52577 529.000
75.54572 508.000
75.56566 521.000
75.58561 463.000
75.60556 410.000
75.62550 378.000
75.64545 355.000
75.66540 321.000
75.68535 281.000
75.70529 282.000
75.72524 244.000
75.74519 235.000
75.76513 230.000
75.78508 217.000
75.80503 208.000
75.82497 175.000
75.84492 195.000
75.86487 192.000
75.88481 223.000
75.90476 204.000
75.92471 172.000
75.94466 192.000
75.96460 170.000
75.98455 143.000
76.00450 178.000
76.02444 180.000
76.04439 165.000
76.06434 180.000
76.08428 165.000
76.10423 175.000
76.12418 172.000
76.14413 169.000
76.16407 171.000
76.18402 151.000
76.20397 167.000
76.22391 179.000
76.24386 169.000
76.26381 157.000
76.28375 189.000
76.30370 168.000
76.32365 153.000
76.34359 159.000
76.36354 166.000
76.38349 158.000
76.40344 150.000
76.42338 151.000
76.44333 155.000
76.46328 146.000
76.48322 160.000
76.50317 164.000
76.52312 161.000
76.54306 161.000
76.56301 184.000
76.58296 165.000
76.60291 163.000
76.62285 166.000
76.64280 149.000
76.66275 157.000
76.68269 151.000
76.70264 176.000
76.72259 149.000
76.74253 180.000
76.76248 157.000
76.78243 149.000
76.80238 157.000
76.82232 159.000
76.84227 160.000
76.86222 166.000
76.88216 152.000
76.90211 157.000
76.92206 136.000
76.94200 167.000
76.96195 159.000
76.98190 159.000
77.00184 180.000
77.02179 132.000
77.04174 170.000
77.06169 168.000
77.08163 154.000
77.10158 166.000
77.12153 169.000
77.14147 167.000
77.16142 161.000
77.18137 157.000
77.20131 148.000
77.22126 158.000
77.24121 184.000
77.26116 185.000
77.28110 168.000
77.30105 145.000
77.32100 157.000
77.34094 154.000
77.36089 166.000
77.38084 184.000
77.40078 175.000
77.42073 157.000
77.44068 183.000
77.46062 153.000
77.48057 164.000
77.50052 155.000
77.52047 149.000
77.54041 172.000
77.56036 172.000
77.58031 162.000
77.60025 168.000
77.62020 166.000
77.64015 179.000
77.66009 178.000
77.68004 192.000
77.69999 165.000
77.71994 200.000
77.73988 178.000
77.75983 166.000
77.77978 167.000
77.79972 175.000
77.81967 170.000
77.83962 156.000
77.85956 162.000
77.87951 166.000
77.89946 184.000
77.91940 204.000
77.93935 188.000
77.95930 170.000
77.97925 195.000
77.99919 193.000
78.01914 216.000
78.03909 187.000
78.05903 199.000
78.07898 200.000
78.09893 167.000
78.11887 204.000
78.13882 218.000
78.15877 214.000
78.17872 210.000
78.19866 218.000
78.21861 206.000
78.23856 195.000
78.25850 220.000
78.27845 239.000
78.29840 227.000
78.31834 192.000
78.33829 270.000
78.35824 232.000
78.37819 253.000
78.39813 191.000
78.41808 222.000
78.43803 217.000
78.45797 204.000
78.47792 212.000
78.49787 238.000
78.51781 196.000
78.53776 198.000
78.55771 232.000
78.57765 212.000
78.59760 204.000
78.61755 186.000
78.63750 196.000
78.65744 198.000
78.67739 177.000
78.69734 183.000
78.71728 186.000
78.73723 194.000
78.75718 183.000
78.77712 169.000
78.79707 180.000
78.81702 170.000
78.83697 177.000
78.85691 166.000
78.87686 191.000
78.89681 171.000
78.91675 165.000
78.93670 169.000
78.95665 201.000
78.97659 178.000
78.99654 172.000
79.01649 213.000
79.03643 203.000
79.05638 181.000
79.07633 209.000
79.09628 237.000
79.11622 235.000
79.13617 280.000
79.15612 307.000
79.17606 351.000
79.19601 391.000
79.21596 422.000
79.23590 464.000
79.25585 457.000
79.27580 513.000
79.29575 533.000
79.31569 573.000
79.33564 543.000
79.35559 501.000
79.37553 497.000
79.39548 470.000
79.41543 443.000
79.43537 400.000
79.45532 444.000
79.47527 408.000
79.49521 441.000
79.51516 447.000
79.53511 429.000
79.55506 416.000
79.57500 387.000
79.59495 357.000
79.61490 314.000
79.63484 294.000
79.65479 258.000
79.67474 262.000
79.69468 266.000
79.71463 242.000
79.73458 218.000
79.75453 206.000
79.77447 172.000
79.79442 189.000
79.81437 184.000
79.83431 202.000
79.85426 167.000
79.87421 187.000
79.89415 158.000
79.91410 184.000
79.93405 196.000
79.95399 167.000
79.97394 163.000
79.99389 172.000
80.01384 179.000
80.03378 167.000
80.05373 154.000
80.07368 164.000
80.09362 163.000
80.11357 157.000
80.13352 168.000
80.15346 150.000
80.17341 176.000
80.19336 176.000
80.21331 167.000
80.23325 161.000
80.25320 142.000
80.27315 149.000
80.29309 172.000
80.31304 164.000
80.33299 142.000
80.35293 164.000
80.37288 139.000
80.39283 184.000
80.41278 177.000
80.43272 157.000
80.45267 141.000
80.47262 170.000
80.49256 156.000
80.51251 157.000
80.53246 159.000
80.55240 170.000
80.57235 166.000
80.59230 158.000
80.61224 149.000
80.63219 151.000
80.65214 152.000
80.67209 147.000
80.69203 151.000
80.71198 136.000
80.73193 167.000
80.75187 177.000
80.77182 163.000
80.79177 159.000
80.81171 137.000
80.83166 165.000
80.85161 169.000
80.87156 147.000
80.89150 160.000
80.91145 159.000
80.93140 146.000
80.95134 171.000
80.97129 153.000
80.99124 173.000
81.01118 138.000
81.03113 138.000
81.05108 144.000
81.07102 166.000
81.09097 172.000
81.11092 172.000
81.13087 168.000
81.15081 182.000
81.17076 154.000
81.19071 162.000
81.21065 140.000
81.23060 172.000
81.25055 167.000
81.27049 179.000
81.29044 173.000
81.31039 171.000
81.33034 154.000
81.35028 153.000
81.37023 154.000
81.39018 152.000
81.41012 168.000
81.43007 138.000
81.45002 136.000
81.46996 159.000
81.48991 148.000
81.50986 143.000
81.52980 137.000
81.54975 142.000
81.56970 145.000
81.58965 135.000
81.60959 146.000
81.62954 153.000
81.64949 166.000
81.66943 134.000
81.68938 138.000
81.70933 174.000
81.72927 136.000
81.74922 140.000
81.76917 164.000
81.78912 162.000
81.80906 155.000
81.82901 149.000
81.84896 156.000
81.86890 128.000
81.88885 136.000
81.90880 155.000
81.92874 163.000
81.94869 170.000
81.96864 166.000
81.98859 144.000
82.00853 152.000
82.02848 134.000
82.04843 167.000
82.06837 167.000
82.08832 141.000
82.10827 147.000
82.12821 168.000
82.14816 152.000
82.16811 139.000
82.18805 143.000
82.20800 135.000
82.22795 157.000
82.24790 156.000
82.26784 146.000
82.28779 176.000
82.30774 150.000
82.32768 167.000
82.34763 161.000
82.36758 156.000
82.38752 151.000
82.40747 159.000
82.42742 159.000
82.44737 138.000
82.46731 141.000
82.48726 159.000
82.50721 169.000
82.52715 150.000
82.54710 155.000
82.56705 151.000
82.58699 128.000
82.60694 160.000
82.62689 158.000
82.64683 162.000
82.66678 169.000
82.68673 134.000
82.70668 176.000
82.72662 137.000
82.74657 140.000
82.76652 168.000
82.78646 156.000
82.80641 140.000
82.82636 143.000
82.84630 170.000
82.86625 165.000
82.88620 142.000
82.90615 154.000
82.92609 149.000
82.94604 146.000
82.96599 140.000
82.98593 145.000
83.00588 151.000
83.02583 160.000
83.04577 162.000
83.06572 155.000
83.08567 136.000
83.10561 145.000
83.12556 146.000
83.14551 158.000
83.16546 144.000
83.18540 157.000
83.20535 162.000
83.22530 141.000
83.24524 138.000
83.26519 152.000
83.28514 140.000
83.30508 163.000
83.32503 145.000
83.34498 150.000
83.36493 169.000
83.38487 139.000
83.40482 149.000
83.42477 145.000
83.44471 159.000
83.46466 158.000
83.48461 160.000
83.50455 143.000
83.52450 168.000
83.54445 157.000
83.56440 141.000
83.58434 156.000
83.60429 155.000
83.62424 154.000
83.64418 147.000
83.66413 163.000
83.68408 139.000
83.70402 151.000
83.72397 168.000
83.74392 136.000
83.76386 155.000
83.78381 157.000
83.80376 186.000
83.82371 160.000
83.84365 137.000
83.86360 172.000
83.88355 157.000
83.90349 151.000
83.92344 146.000
83.94339 185.000
83.96333 147.000
83.98328 147.000
84.00323 154.000
84.02318 160.000
84.04312 144.000
84.06307 169.000
84.08302 147.000
84.10296 150.000
84.12291 147.000
84.14286 177.000
84.16280 150.000
84.18275 165.000
84.20270 157.000
84.22264 179.000
84.24259 147.000
84.26254 196.000
84.28249 177.000
84.30243 197.000
84.32238 160.000
84.34233 182.000
84.36227 180.000
84.38222 161.000
84.40217 205.000
84.42211 162.000
84.44206 174.000
84.46201 204.000
84.48196 172.000
84.50190 185.000
84.52185 180.000
84.54180 157.000
84.56174 192.000
84.58169 202.000
84.60164 184.000
84.62158 210.000
84.64153 178.000
84.66148 171.000
84.68142 169.000
84.70137 163.000
84.72132 184.000
84.74127 186.000
84.76121 169.000
84.78116 159.000
84.80111 187.000
84.82105 191.000
84.84100 174.000
84.86095 201.000
84.88089 172.000
84.90084 208.000
84.92079 181.000
84.94074 196.000
84.96068 183.000
84.98063 182.000
85.00058 180.000
85.02052 189.000
85.04047 163.000
85.06042 153.000
85.08036 151.000
85.10031 153.000
85.12026 168.000
85.14021 182.000
85.16015 133.000
85.18010 146.000
85.20005 149.000
85.21999 154.000
85.23994 151.000
85.25989 157.000
85.27983 149.000
85.29978 168.000
85.31973 176.000
85.33967 142.000
85.35962 141.000
85.37957 146.000
85.39952 132.000
85.41946 143.000
85.43941 156.000
85.45936 148.000
85.47930 158.000
85.49925 153.000
85.51920 185.000
85.53914 140.000
85.55909 158.000
85.57904 142.000
85.59899 166.000
85.61893 163.000
85.63888 145.000
85.65883 133.000
85.67877 175.000
85.69872 170.000
85.71867 134.000
85.73861 158.000
85.75856 140.000
85.77851 132.000
85.79845 148.000
85.81840 148.000
85.83835 149.000
85.85830 127.000
85.87824 151.000
85.89819 167.000
85.91814 147.000
85.93808 143.000
85.95803 157.000
85.97798 150.000
85.99792 139.000
86.01787 134.000
86.03782 180.000
86.05777 141.000
86.07771 161.000
86.09766 136.000
86.11761 151.000
86.13755 129.000
86.15750 148.000
86.17745 153.000
86.19739 149.000
86.21734 151.000
86.23729 161.000
86.25723 152.000
86.27718 162.000
86.29713 127.000
86.31708 161.000
86.33702 154.000
86.35697 157.000
86.37692 132.000
86.39686 129.000
86.41681 153.000
86.43676 144.000
86.45670 146.000
86.47665 160.000
86.49660 155.000
86.51655 137.000
86.53649 170.000
86.55644 140.000
86.57639 133.000
86.59633 169.000
86.61628 161.000
86.63623 155.000
86.65617 152.000
86.67612 158.000
86.69607 150.000
86.71602 149.000
86.73596 165.000
86.75591 166.000
86.77586 169.000
86.79580 173.000
86.81575 145.000
86.83570 152.000
86.85564 160.000
86.87559 139.000
86.89554 160.000
86.91548 151.000
86.93543 166.000
86.95538 190.000
86.97533 153.000
86.99527 189.000
87.01522 173.000
87.03517 145.000
87.05511 129.000
87.07506 182.000
87.09501 183.000
87.11495 183.000
87.13490 186.000
87.15485 194.000
87.17480 175.000
87.19474 151.000
87.21469 160.000
87.23464 177.000
87.25458 174.000
87.27453 158.000
87.29448 163.000
87.31442 173.000
87.33437 185.000
87.35432 135.000
87.37426 175.000
87.39421 193.000
87.41416 187.000
87.43411 187.000
87.45405 195.000
87.47400 172.000
87.49395 185.000
87.51389 184.000
87.53384 170.000
87.55379 191.000
87.57373 188.000
87.59368 158.000
87.61363 193.000
87.63358 170.000
87.65352 190.000
87.67347 158.000
87.69342 189.000
87.71336 178.000
87.73331 171.000
87.75326 176.000
87.77320 165.000
87.79315 182.000
87.81310 175.000
87.83304 170.000
87.85299 180.000
87.87294 173.000
87.89289 173.000
87.91283 151.000
87.93278 175.000
87.95273 174.000
87.97267 160.000
87.99262 163.000
88.01257 182.000
88.03251 171.000
88.05246 173.000
88.07241 146.000
88.09236 193.000
88.11230 162.000
88.13225 147.000
88.15220 142.000
88.17214 164.000
88.19209 157.000
88.21204 147.000
88.23198 148.000
88.25193 134.000
88.27188 170.000
88.29183 131.000
88.31177 146.000
88.33172 166.000
88.35167 136.000
88.37161 151.000
88.39156 153.000
88.41151 136.000
88.43145 156.000
88.45140 159.000
88.47135 151.000
88.49129 153.000
88.51124 161.000
88.53119 128.000
88.55114 172.000
88.57108 133.000
88.59103 144.000
88.61098 136.000
88.63092 146.000
88.65087 131.000
88.67082 127.000
88.69076 139.000
88.71071 167.000
88.73066 154.000
88.75061 182.000
88.77055 154.000
88.79050 142.000
88.81045 162.000
88.83039 145.000
88.85034 145.000
88.87029 145.000
88.89023 148.000
88.91018 154.000
88.93013 148.000
88.95007 133.000
88.97002 164.000
88.98997 160.000
89.00992 153.000
89.02986 152.000
89.04981 157.000
89.06976 161.000
89.08970 176.000
89.10965 159.000
89.12960 146.000
89.14954 156.000
89.16949 159.000
89.18944 154.000
89.20939 154.000
89.22933 160.000
89.24928 159.000
89.26923 159.000
89.28917 140.000
89.30912 149.000
89.32907 197.000
89.34901 163.000
89.36896 141.000
89.38891 132.000
89.40885 170.000
89.42880 151.000
89.44875 160.000
89.46870 149.000
89.48864 162.000
89.50859 175.000
89.52854 156.000
89.54848 159.000
89.56843 140.000
89.58838 146.000
89.60832 161.000
89.62827 143.000
89.64822 155.000
89.66817 137.000
89.68811 128.000
89.70806 151.000
89.72801 160.000
89.74795 152.000
89.76790 143.000
89.78785 155.000
89.80779 156.000
89.82774 160.000
89.84769 165.000
89.86764 154.000
89.88758 188.000
89.90753 143.000
89.92748 176.000
89.94742 147.000
89.96737 144.000
89.98732 182.000
90.00726 188.000
