10.00000 216.000
10.01995 208.000
10.03989 192.000
10.05984 169.000
10.07979 190.000
10.09973 189.000
10.11968 198.000
10.13963 194.000
10.15958 199.000
10.17952 199.000
10.19947 192.000
10.21942 188.000
10.23936 220.000
10.25931 199.000
10.27926 196.000
10.29920 174.000
10.31915 205.000
10.33910 192.000
10.35905 226.000
10.37899 207.000
10.39894 204.000
10.41889 219.000
10.43883 188.000
10.45878 198.000
10.47873 185.000
10.49867 188.000
10.51862 218.000
10.53857 222.000
10.55851 207.000
10.57846 211.000
10.59841 181.000
10.61836 196.000
10.63830 202.000
10.65825 200.000
10.67820 210.000
10.69814 198.000
10.71809 180.000
10.73804 185.000
10.75798 179.000
10.77793 199.000
10.79788 235.000
10.81783 203.000
10.83777 198.000
10.85772 186.000
10.87767 211.000
10.89761 185.000
10.91756 213.000
10.93751 201.000
10.95745 219.000
10.97740 220.000
10.99735 191.000
11.01730 204.000
11.03724 202.000
11.05719 208.000
11.07714 202.000
11.09708 217.000
11.11703 206.000
11.13698 196.000
11.15692 194.000
11.17687 195.000
11.19682 207.000
11.21676 192.000
11.23671 191.000
11.25666 175.000
11.27661 220.000
11.29655 192.000
11.31650 201.000
11.33645 183.000
11.35639 174.000
11.37634 200.000
11.39629 162.000
11.41623 189.000
11.43618 213.000
11.45613 185.000
11.47608 208.000
11.49602 216.000
11.51597 196.000
11.53592 203.000
11.55586 184.000
11.57581 198.000
11.59576 202.000
11.61570 213.000
11.63565 199.000
11.65560 188.000
11.67554 205.000
11.69549 190.000
11.71544 187.000
11.73539 191.000
11.75533 206.000
11.77528 225.000
11.79523 172.000
11.81517 201.000
11.83512 193.000
11.85507 198.000
11.87501 219.000
11.89496 216.000
11.91491 190.000
11.93486 203.000
11.95480 206.000
11.97475 190.000
11.99470 203.000
12.01464 169.000
12.03459 192.000
12.05454 206.000
12.07448 218.000
12.09443 231.000
12.11438 199.000
12.13432 202.000
12.15427 206.000
12.17422 201.000
12.19417 174.000
12.21411 220.000
12.23406 192.000
12.25401 193.000
12.27395 171.000
12.29390 197.000
12.31385 201.000
12.33379 214.000
12.35374 225.000
12.37369 211.000
12.39364 207.000
12.41358 187.000
12.43353 199.000
12.45348 206.000
12.47342 214.000
12.49337 208.000
12.51332 213.000
12.53326 203.000
12.55321 199.000
12.57316 205.000
12.59311 174.000
12.61305 174.000
12.63300 189.000
12.65295 193.000
12.67289 192.000
12.69284 222.000
12.71279 233.000
12.73273 190.000
12.75268 223.000
12.77263 205.000
12.79257 218.000
12.81252 182.000
12.83247 227.000
12.85242 223.000
12.87236 224.000
12.89231 203.000
12.91226 220.000
12.93220 210.000
12.95215 185.000
12.97210 209.000
12.99204 184.000
13.01199 199.000
13.03194 214.000
13.05189 184.000
13.07183 197.000
13.09178 223.000
13.11173 197.000
13.13167 192.000
13.15162 188.000
13.17157 198.000
13.19151 202.000
13.21146 219.000
13.23141 213.000
13.25135 213.000
13.27130 232.000
13.29125 220.000
13.31120 201.000
13.33114 222.000
13.35109 194.000
13.37104 201.000
13.39098 198.000
13.41093 223.000
13.43088 218.000
13.45082 208.000
13.47077 192.000
13.49072 203.000
13.51067 210.000
13.53061 188.000
13.55056 201.000
13.57051 208.000
13.59045 199.000
13.61040 176.000
13.63035 225.000
13.65029 184.000
13.67024 197.000
13.69019 226.000
13.71013 209.000
13.73008 203.000
13.75003 210.000
13.76998 212.000
13.78992 213.000
13.80987 210.000
13.82982 208.000
13.84976 190.000
13.86971 204.000
13.88966 221.000
13.90960 221.000
13.92955 189.000
13.94950 228.000
13.96945 189.000
13.98939 192.000
14.00934 214.000
14.02929 224.000
14.04923 184.000
14.06918 227.000
14.08913 230.000
14.10907 210.000
14.12902 195.000
14.14897 225.000
14.16892 195.000
14.18886 205.000
14.20881 221.000
14.22876 178.000
14.24870 229.000
14.26865 246.000
14.28860 220.000
14.30854 219.000
14.32849 212.000
14.34844 195.000
14.36838 230.000
14.38833 223.000
14.40828 202.000
14.42823 195.000
14.44817 198.000
14.46812 235.000
14.48807 200.000
14.50801 226.000
14.52796 240.000
14.54791 200.000
14.56785 218.000
14.58780 202.000
14.60775 241.000
14.62770 201.000
14.64764 214.000
14.66759 182.000
14.68754 205.000
14.70748 222.000
14.72743 219.000
14.74738 213.000
14.76732 222.000
14.78727 222.000
14.80722 200.000
14.82716 213.000
14.84711 221.000
14.86706 206.000
14.88701 219.000
14.90695 228.000
14.92690 248.000
14.94685 235.000
14.96679 210.000
14.98674 221.000
15.00669 222.000
15.02663 246.000
15.04658 215.000
15.06653 231.000
15.08648 229.000
15.10642 250.000
15.12637 216.000
15.14632 225.000
15.16626 244.000
15.18621 228.000
15.20616 230.000
15.22610 244.000
15.24605 255.000
15.26600 242.000
15.28594 257.000
15.30589 225.000
15.32584 270.000
15.34579 262.000
15.36573 268.000
15.38568 252.000
15.40563 251.000
15.42557 257.000
15.44552 271.000
15.46547 294.000
15.48541 304.000
15.50536 286.000
15.52531 307.000
15.54526 364.000
15.56520 403.000
15.58515 408.000
15.60510 509.000
15.62504 571.000
15.64499 687.000
15.66494 948.000
15.68488 1390.000
15.70483 1930.000
15.72478 2729.000
15.74472 3900.000
15.76467 4641.000
15.78462 4736.000
15.80457 3933.000
15.82451 2754.000
15.84446 1746.000
15.86441 943.000
15.88435 666.000
15.90430 490.000
15.92425 394.000
15.94419 364.000
15.96414 335.000
15.98409 332.000
16.00404 282.000
16.02398 269.000
16.04393 288.000
16.06388 277.000
16.08382 267.000
16.10377 293.000
16.12372 257.000
16.14366 283.000
16.16361 222.000
16.18356 258.000
16.20351 235.000
16.22345 255.000
16.24340 237.000
16.26335 227.000
16.28329 270.000
16.30324 233.000
16.32319 211.000
16.34313 227.000
16.36308 218.000
16.38303 213.000
16.40297 239.000
16.42292 233.000
16.44287 257.000
16.46282 229.000
16.48276 202.000
16.50271 229.000
16.52266 246.000
16.54260 206.000
16.56255 192.000
16.58250 176.000
16.60244 204.000
16.62239 218.000
16.64234 230.000
16.66229 243.000
16.68223 207.000
16.70218 218.000
16.72213 220.000
16.74207 221.000
16.76202 239.000
16.78197 191.000
16.80191 228.000
16.82186 195.000
16.84181 185.000
16.86175 216.000
16.88170 219.000
16.90165 211.000
16.92160 229.000
16.94154 209.000
16.96149 208.000
16.98144 229.000
17.00138 213.000
17.02133 204.000
17.04128 219.000
17.06122 217.000
17.08117 210.000
17.10112 197.000
17.12107 227.000
17.14101 218.000
17.16096 217.000
17.18091 207.000
17.20085 219.000
17.22080 203.000
17.24075 198.000
17.26069 208.000
17.28064 215.000
17.30059 195.000
17.32053 211.000
17.34048 210.000
17.36043 228.000
17.38038 201.000
17.40032 215.000
17.42027 242.000
17.44022 199.000
17.46016 184.000
17.48011 203.000
17.50006 200.000
17.52000 221.000
17.53995 241.000
17.55990 203.000
17.57985 216.000
17.59979 203.000
17.61974 202.000
17.63969 232.000
17.65963 205.000
17.67958 206.000
17.69953 228.000
17.71947 211.000
17.73942 212.000
17.75937 203.000
17.77932 224.000
17.79926 206.000
17.81921 229.000
17.83916 201.000
17.85910 219.000
17.87905 207.000
17.89900 211.000
17.91894 224.000
17.93889 223.000
17.95884 214.000
17.97878 219.000
17.99873 203.000
18.01868 218.000
18.03863 219.000
18.05857 216.000
18.07852 205.000
18.09847 218.000
18.11841 197.000
18.13836 234.000
18.15831 220.000
18.17825 234.000
18.19820 219.000
18.21815 226.000
18.23810 271.000
18.25804 290.000
18.27799 314.000
18.29794 348.000
18.31788 394.000
18.33783 516.000
18.35778 518.000
18.37772 578.000
18.39767 472.000
18.41762 411.000
18.43756 363.000
18.45751 297.000
18.47746 259.000
18.49741 234.000
18.51735 224.000
18.53730 209.000
18.55725 253.000
18.57719 245.000
18.59714 230.000
18.61709 194.000
18.63703 214.000
18.65698 253.000
18.67693 213.000
18.69688 237.000
18.71682 217.000
18.73677 223.000
18.75672 212.000
18.77666 237.000
18.79661 214.000
18.81656 237.000
18.83650 209.000
18.85645 201.000
18.87640 197.000
18.89634 213.000
18.91629 192.000
18.93624 210.000
18.95619 205.000
18.97613 215.000
18.99608 169.000
19.01603 234.000
19.03597 234.000
19.05592 203.000
19.07587 204.000
19.09581 203.000
19.11576 225.000
19.13571 218.000
19.15566 215.000
19.17560 235.000
19.19555 199.000
19.21550 199.000
19.23544 176.000
19.25539 207.000
19.27534 220.000
19.29528 229.000
19.31523 206.000
19.33518 217.000
19.35513 212.000
19.37507 203.000
19.39502 220.000
19.41497 208.000
19.43491 221.000
19.45486 218.000
19.47481 209.000
19.49475 212.000
19.51470 231.000
19.53465 229.000
19.55459 232.000
19.57454 203.000
19.59449 209.000
19.61444 188.000
19.63438 215.000
19.65433 205.000
19.67428 190.000
19.69422 218.000
19.71417 217.000
19.73412 210.000
19.75406 205.000
19.77401 217.000
19.79396 216.000
19.81391 227.000
19.83385 239.000
19.85380 206.000
19.87375 196.000
19.89369 222.000
19.91364 215.000
19.93359 191.000
19.95353 229.000
19.97348 210.000
19.99343 204.000
20.01337 218.000
20.03332 216.000
20.05327 212.000
20.07322 188.000
20.09316 214.000
20.11311 201.000
20.13306 229.000
20.15300 259.000
20.17295 223.000
20.19290 227.000
20.21284 221.000
20.23279 215.000
20.25274 235.000
20.27269 205.000
20.29263 214.000
20.31258 245.000
20.33253 199.000
20.35247 230.000
20.37242 218.000
20.39237 208.000
20.41231 214.000
20.43226 226.000
20.45221 199.000
20.47215 194.000
20.49210 264.000
20.51205 209.000
20.53200 215.000
20.55194 227.000
20.57189 221.000
20.59184 210.000
20.61178 232.000
20.63173 194.000
20.65168 201.000
20.67162 236.000
20.69157 225.000
20.71152 211.000
20.73147 210.000
20.75141 227.000
20.77136 228.000
20.79131 212.000
20.81125 234.000
20.83120 225.000
20.85115 207.000
20.87109 203.000
20.89104 215.000
20.91099 224.000
20.93094 229.000
20.95088 234.000
20.97083 259.000
20.99078 259.000
21.01072 248.000
21.03067 262.000
21.05062 287.000
21.07056 300.000
21.09051 305.000
21.11046 256.000
21.13040 248.000
21.15035 259.000
21.17030 197.000
21.19025 188.000
21.21019 222.000
21.23014 227.000
21.25009 246.000
21.27003 197.000
21.28998 210.000
21.30993 207.000
21.32987 223.000
21.34982 227.000
21.36977 203.000
21.38972 197.000
21.40966 204.000
21.42961 211.000
21.44956 222.000
21.46950 229.000
21.48945 212.000
21.50940 228.000
21.52934 249.000
21.54929 218.000
21.56924 220.000
21.58918 214.000
21.60913 233.000
21.62908 210.000
21.64903 262.000
21.66897 208.000
21.68892 246.000
21.70887 210.000
21.72881 194.000
21.74876 197.000
21.76871 221.000
21.78865 211.000
21.80860 203.000
21.82855 202.000
21.84850 211.000
21.86844 227.000
21.88839 226.000
21.90834 216.000
21.92828 217.000
21.94823 226.000
21.96818 195.000
21.98812 210.000
22.00807 229.000
22.02802 195.000
22.04796 239.000
22.06791 196.000
22.08786 204.000
22.10781 219.000
22.12775 225.000
22.14770 197.000
22.16765 210.000
22.18759 231.000
22.20754 199.000
22.22749 243.000
22.24743 229.000
22.26738 228.000
22.28733 213.000
22.30728 233.000
22.32722 219.000
22.34717 203.000
22.36712 227.000
22.38706 210.000
22.40701 221.000
22.42696 218.000
22.44690 212.000
22.46685 203.000
22.48680 227.000
22.50675 204.000
22.52669 228.000
22.54664 206.000
22.56659 190.000
22.58653 204.000
22.60648 205.000
22.62643 239.000
22.64637 219.000
22.66632 215.000
22.68627 231.000
22.70621 224.000
22.72616 225.000
22.74611 219.000
22.76606 230.000
22.78600 205.000
22.80595 230.000
22.82590 237.000
22.84584 223.000
22.86579 230.000
22.88574 203.000
22.90568 195.000
22.92563 240.000
22.94558 220.000
22.96553 231.000
22.98547 240.000
23.00542 223.000
23.02537 206.000
23.04531 228.000
23.06526 225.000
23.08521 226.000
23.10515 223.000
23.12510 220.000
23.14505 245.000
23.16499 231.000
23.18494 208.000
23.20489 239.000
23.22484 235.000
23.24478 245.000
23.26473 199.000
23.28468 208.000
23.30462 200.000
23.32457 224.000
23.34452 206.000
23.36446 238.000
23.38441 211.000
23.40436 225.000
23.42431 211.000
23.44425 210.000
23.46420 225.000
23.48415 218.000
23.50409 184.000
23.52404 232.000
23.54399 206.000
23.56393 241.000
23.58388 209.000
23.60383 220.000
23.62377 205.000
23.64372 211.000
23.66367 253.000
23.68362 205.000
23.70356 233.000
23.72351 170.000
23.74346 224.000
23.76340 216.000
23.78335 235.000
23.80330 212.000
23.82324 209.000
23.84319 241.000
23.86314 225.000
23.88309 241.000
23.90303 239.000
23.92298 212.000
23.94293 183.000
23.96287 221.000
23.98282 239.000
24.00277 214.000
24.02271 215.000
24.04266 217.000
24.06261 218.000
24.08256 200.000
24.10250 236.000
24.12245 218.000
24.14240 212.000
24.16234 234.000
24.18229 229.000
24.20224 229.000
24.22218 216.000
24.24213 234.000
24.26208 215.000
24.28202 210.000
24.30197 194.000
24.32192 247.000
24.34187 243.000
24.36181 197.000
24.38176 219.000
24.40171 228.000
24.42165 225.000
24.44160 247.000
24.46155 220.000
24.48149 241.000
24.50144 223.000
24.52139 195.000
24.54134 210.000
24.56128 212.000
24.58123 261.000
24.60118 223.000
24.62112 231.000
24.64107 242.000
24.66102 210.000
24.68096 227.000
24.70091 215.000
24.72086 216.000
24.74080 238.000
24.76075 224.000
24.78070 216.000
24.80065 204.000
24.82059 246.000
24.84054 231.000
24.86049 219.000
24.88043 227.000
24.90038 243.000
24.92033 223.000
24.94027 233.000
24.96022 235.000
24.98017 239.000
25.00012 208.000
25.02006 226.000
25.04001 212.000
25.05996 221.000
25.07990 228.000
25.09985 255.000
25.11980 241.000
25.13974 251.000
25.15969 247.000
25.17964 245.000
25.19958 228.000
25.21953 236.000
25.23948 238.000
25.25943 223.000
25.27937 220.000
25.29932 215.000
25.31927 262.000
25.33921 194.000
25.35916 227.000
25.37911 226.000
25.39905 249.000
25.41900 207.000
25.43895 232.000
25.45890 222.000
25.47884 214.000
25.49879 221.000
25.51874 253.000
25.53868 220.000
25.55863 241.000
25.57858 221.000
25.59852 213.000
25.61847 240.000
25.63842 256.000
25.65837 215.000
25.67831 230.000
25.69826 215.000
25.71821 244.000
25.73815 218.000
25.75810 235.000
25.77805 237.000
25.79799 238.000
25.81794 219.000
25.83789 215.000
25.85783 235.000
25.87778 219.000
25.89773 244.000
25.91768 227.000
25.93762 226.000
25.95757 249.000
25.97752 237.000
25.99746 239.000
26.01741 199.000
26.03736 241.000
26.05730 242.000
26.07725 231.000
26.09720 246.000
26.11715 248.000
26.13709 231.000
26.15704 233.000
26.17699 236.000
26.19693 240.000
26.21688 198.000
26.23683 250.000
26.25677 223.000
26.27672 251.000
26.29667 210.000
26.31661 235.000
26.33656 253.000
26.35651 236.000
26.37646 225.000
26.39640 259.000
26.41635 243.000
26.43630 277.000
26.45624 236.000
26.47619 214.000
26.49614 222.000
26.51608 230.000
26.53603 241.000
26.55598 230.000
26.57593 225.000
26.59587 223.000
26.61582 247.000
26.63577 254.000
26.65571 227.000
26.67566 227.000
26.69561 238.000
26.71555 228.000
26.73550 229.000
26.75545 228.000
26.77539 222.000
26.79534 223.000
26.81529 223.000
26.83524 227.000
26.85518 226.000
26.87513 224.000
26.89508 231.000
26.91502 236.000
26.93497 220.000
26.95492 231.000
26.97486 243.000
26.99481 228.000
27.01476 240.000
27.03471 217.000
27.05465 219.000
27.07460 222.000
27.09455 227.000
27.11449 242.000
27.13444 216.000
27.15439 236.000
27.17433 229.000
27.19428 238.000
27.21423 257.000
27.23417 217.000
27.25412 260.000
27.27407 216.000
27.29402 264.000
27.31396 243.000
27.33391 227.000
27.35386 218.000
27.37380 209.000
27.39375 246.000
27.41370 244.000
27.43364 252.000
27.45359 258.000
27.47354 256.000
27.49349 248.000
27.51343 227.000
27.53338 211.000
27.55333 235.000
27.57327 221.000
27.59322 240.000
27.61317 223.000
27.63311 228.000
27.65306 235.000
27.67301 245.000
27.69296 234.000
27.71290 258.000
27.73285 234.000
27.75280 250.000
27.77274 243.000
27.79269 239.000
27.81264 219.000
27.83258 241.000
27.85253 233.000
27.87248 252.000
27.89242 240.000
27.91237 264.000
27.93232 249.000
27.95227 241.000
27.97221 246.000
27.99216 249.000
28.01211 239.000
28.03205 263.000
28.05200 244.000
28.07195 224.000
28.09189 247.000
28.11184 259.000
28.13179 214.000
28.15174 213.000
28.17168 240.000
28.19163 242.000
28.21158 254.000
28.23152 222.000
28.25147 244.000
28.27142 244.000
28.29136 233.000
28.31131 248.000
28.33126 259.000
28.35120 247.000
28.37115 226.000
28.39110 222.000
28.41105 254.000
28.43099 253.000
28.45094 250.000
28.47089 247.000
28.49083 215.000
28.51078 231.000
28.53073 237.000
28.55067 241.000
28.57062 241.000
28.59057 244.000
28.61052 240.000
28.63046 262.000
28.65041 234.000
28.67036 235.000
28.69030 227.000
28.71025 241.000
28.73020 249.000
28.75014 235.000
28.77009 222.000
28.79004 236.000
28.80998 237.000
28.82993 222.000
28.84988 260.000
28.86983 265.000
28.88977 222.000
28.90972 236.000
28.92967 271.000
28.94961 259.000
28.96956 233.000
28.98951 252.000
29.00945 224.000
29.02940 246.000
29.04935 249.000
29.06930 243.000
29.08924 242.000
29.10919 245.000
29.12914 235.000
29.14908 242.000
29.16903 211.000
29.18898 247.000
29.20892 223.000
29.22887 224.000
29.24882 280.000
29.26877 237.000
29.28871 233.000
29.30866 237.000
29.32861 241.000
29.34855 241.000
29.36850 251.000
29.38845 224.000
29.40839 243.000
29.42834 250.000
29.44829 249.000
29.46823 246.000
29.48818 231.000
29.50813 239.000
29.52808 226.000
29.54802 241.000
29.56797 238.000
29.58792 224.000
29.60786 223.000
29.62781 220.000
29.64776 260.000
29.66770 229.000
29.68765 225.000
29.70760 249.000
29.72755 240.000
29.74749 262.000
29.76744 272.000
29.78739 241.000
29.80733 251.000
29.82728 272.000
29.84723 256.000
29.86717 265.000
29.88712 227.000
29.90707 242.000
29.92701 242.000
29.94696 255.000
29.96691 281.000
29.98686 271.000
30.00680 266.000
30.02675 272.000
30.04670 289.000
30.06664 317.000
30.08659 334.000
30.10654 334.000
30.12648 341.000
30.14643 433.000
30.16638 559.000
30.18633 682.000
30.20627 801.000
30.22622 774.000
30.24617 781.000
30.26611 789.000
30.28606 786.000
30.30601 680.000
30.32595 615.000
30.34590 533.000
30.36585 435.000
30.38579 439.000
30.40574 382.000
30.42569 322.000
30.44564 329.000
30.46558 285.000
30.48553 275.000
30.50548 286.000
30.52542 253.000
30.54537 274.000
30.56532 274.000
30.58526 272.000
30.60521 283.000
30.62516 223.000
30.64511 252.000
30.66505 263.000
30.68500 246.000
30.70495 243.000
30.72489 251.000
30.74484 266.000
30.76479 224.000
30.78473 263.000
30.80468 272.000
30.82463 250.000
30.84458 253.000
30.86452 288.000
30.88447 254.000
30.90442 257.000
30.92436 241.000
30.94431 243.000
30.96426 220.000
30.98420 268.000
31.00415 252.000
31.02410 282.000
31.04404 240.000
31.06399 263.000
31.08394 230.000
31.10389 230.000
31.12383 244.000
31.14378 241.000
31.16373 261.000
31.18367 228.000
31.20362 232.000
31.22357 261.000
31.24351 271.000
31.26346 232.000
31.28341 218.000
31.30336 250.000
31.32330 254.000
31.34325 256.000
31.36320 289.000
31.38314 265.000
31.40309 250.000
31.42304 267.000
31.44298 230.000
31.46293 234.000
31.48288 260.000
31.50282 255.000
31.52277 268.000
31.54272 263.000
31.56267 259.000
31.58261 271.000
31.60256 251.000
31.62251 251.000
31.64245 276.000
31.66240 246.000
31.68235 231.000
31.70229 237.000
31.72224 284.000
31.74219 264.000
31.76214 291.000
31.78208 320.000
31.80203 340.000
31.82198 357.000
31.84192 399.000
31.86187 469.000
31.88182 531.000
31.90176 647.000
31.92171 637.000
31.94166 611.000
31.96160 581.000
31.98155 528.000
32.00150 490.000
32.02145 451.000
32.04139 408.000
32.06134 357.000
32.08129 306.000
32.10123 277.000
32.12118 282.000
32.14113 271.000
32.16107 276.000
32.18102 239.000
32.20097 251.000
32.22092 248.000
32.24086 281.000
32.26081 230.000
32.28076 278.000
32.30070 287.000
32.32065 253.000
32.34060 298.000
32.36054 247.000
32.38049 288.000
32.40044 271.000
32.42039 297.000
32.44033 308.000
32.46028 300.000
32.48023 289.000
32.50017 289.000
32.52012 275.000
32.54007 296.000
32.56001 274.000
32.57996 254.000
32.59991 255.000
32.61985 268.000
32.63980 271.000
32.65975 258.000
32.67970 227.000
32.69964 239.000
32.71959 252.000
32.73954 257.000
32.75948 248.000
32.77943 243.000
32.79938 266.000
32.81932 239.000
32.83927 252.000
32.85922 246.000
32.87917 261.000
32.89911 253.000
32.91906 252.000
32.93901 253.000
32.95895 265.000
32.97890 239.000
32.99885 244.000
33.01879 244.000
33.03874 256.000
33.05869 248.000
33.07863 233.000
33.09858 262.000
33.11853 250.000
33.13848 259.000
33.15842 224.000
33.17837 266.000
33.19832 250.000
33.21826 242.000
33.23821 226.000
33.25816 252.000
33.27810 263.000
33.29805 270.000
33.31800 253.000
33.33795 223.000
33.35789 240.000
33.37784 230.000
33.39779 258.000
33.41773 258.000
33.43768 236.000
33.45763 238.000
33.47757 257.000
33.49752 264.000
33.51747 233.000
33.53741 247.000
33.55736 246.000
33.57731 264.000
33.59726 270.000
33.61720 263.000
33.63715 241.000
33.65710 250.000
33.67704 256.000
33.69699 283.000
33.71694 241.000
33.73688 236.000
33.75683 242.000
33.77678 262.000
33.79673 249.000
33.81667 244.000
33.83662 232.000
33.85657 231.000
33.87651 238.000
33.89646 233.000
33.91641 245.000
33.93635 275.000
33.95630 238.000
33.97625 239.000
33.99620 239.000
34.01614 260.000
34.03609 225.000
34.05604 242.000
34.07598 260.000
34.09593 263.000
34.11588 271.000
34.13582 242.000
34.15577 261.000
34.17572 267.000
34.19566 219.000
34.21561 271.000
34.23556 245.000
34.25551 246.000
34.27545 257.000
34.29540 250.000
34.31535 234.000
34.33529 258.000
34.35524 267.000
34.37519 264.000
34.39513 274.000
34.41508 288.000
34.43503 256.000
34.45498 258.000
34.47492 251.000
34.49487 264.000
34.51482 259.000
34.53476 276.000
34.55471 278.000
34.57466 275.000
34.59460 265.000
34.61455 282.000
34.63450 272.000
34.65444 282.000
34.67439 276.000
34.69434 278.000
34.71429 292.000
34.73423 301.000
34.75418 290.000
34.77413 311.000
34.79407 324.000
34.81402 310.000
34.83397 304.000
34.85391 300.000
34.87386 273.000
34.89381 303.000
34.91376 278.000
34.93370 298.000
34.95365 267.000
34.97360 269.000
34.99354 272.000
35.01349 270.000
35.03344 303.000
35.05338 285.000
35.07333 299.000
35.09328 326.000
35.11322 292.000
35.13317 327.000
35.15312 312.000
35.17307 308.000
35.19301 323.000
35.21296 347.000
35.23291 391.000
35.25285 394.000
35.27280 398.000
35.29275 456.000
35.31269 513.000
35.33264 593.000
35.35259 625.000
35.37254 721.000
35.39248 736.000
35.41243 887.000
35.43238 952.000
35.45232 951.000
35.47227 1098.000
35.49222 1104.000
35.51216 1218.000
35.53211 1352.000
35.55206 1642.000
35.57201 1944.000
35.59195 2313.000
35.61190 2198.000
35.63185 2268.000
35.65179 2291.000
35.67174 2206.000
35.69169 2166.000
35.71163 2131.000
35.73158 1873.000
35.75153 1594.000
35.77147 1502.000
35.79142 1333.000
35.81137 1165.000
35.83132 1086.000
35.85126 932.000
35.87121 784.000
35.89116 654.000
35.91110 654.000
35.93105 537.000
35.95100 441.000
35.97094 450.000
35.99089 339.000
36.01084 328.000
36.03079 350.000
36.05073 331.000
36.07068 332.000
36.09063 272.000
36.11057 283.000
36.13052 279.000
36.15047 295.000
36.17041 308.000
36.19036 303.000
36.21031 268.000
36.23025 289.000
36.25020 297.000
36.27015 287.000
36.29010 291.000
36.31004 289.000
36.32999 267.000
36.34994 298.000
36.36988 247.000
36.38983 290.000
36.40978 276.000
36.42972 292.000
36.44967 277.000
36.46962 269.000
36.48957 267.000
36.50951 298.000
36.52946 307.000
36.54941 286.000
36.56935 265.000
36.58930 298.000
36.60925 277.000
36.62919 269.000
36.64914 282.000
36.66909 330.000
36.68903 298.000
36.70898 303.000
36.72893 305.000
36.74888 315.000
36.76882 306.000
36.78877 336.000
36.80872 311.000
36.82866 310.000
36.84861 338.000
36.86856 297.000
36.88850 329.000
36.90845 346.000
36.92840 378.000
36.94835 438.000
36.96829 440.000
36.98824 539.000
37.00819 690.000
37.02813 823.000
37.04808 1017.000
37.06803 1101.000
37.08797 1166.000
37.10792 1159.000
37.12787 1042.000
37.14781 1032.000
37.16776 987.000
37.18771 904.000
37.20766 876.000
37.22760 708.000
37.24755 614.000
37.26750 583.000
37.28744 499.000
37.30739 498.000
37.32734 470.000
37.34728 454.000
37.36723 422.000
37.38718 386.000
37.40713 372.000
37.42707 353.000
37.44702 340.000
37.46697 337.000
37.48691 321.000
37.50686 353.000
37.52681 291.000
37.54675 285.000
37.56670 313.000
37.58665 286.000
37.60660 299.000
37.62654 262.000
37.64649 283.000
37.66644 270.000
37.68638 283.000
37.70633 259.000
37.72628 260.000
37.74622 284.000
37.76617 249.000
37.78612 243.000
37.80606 263.000
37.82601 270.000
37.84596 264.000
37.86591 259.000
37.88585 230.000
37.90580 256.000
37.92575 243.000
37.94569 245.000
37.96564 258.000
37.98559 248.000
38.00553 269.000
38.02548 275.000
38.04543 261.000
38.06538 258.000
38.08532 252.000
38.10527 267.000
38.12522 284.000
38.14516 275.000
38.16511 276.000
38.18506 273.000
38.20500 300.000
38.22495 287.000
38.24490 302.000
38.26484 286.000
38.28479 285.000
38.30474 341.000
38.32469 314.000
38.34463 336.000
38.36458 315.000
38.38453 361.000
38.40447 409.000
38.42442 376.000
38.44437 365.000
38.46431 392.000
38.48426 486.000
38.50421 480.000
38.52416 542.000
38.54410 599.000
38.56405 673.000
38.58400 784.000
38.60394 792.000
38.62389 791.000
38.64384 777.000
38.66378 774.000
38.68373 758.000
38.70368 708.000
38.72362 661.000
38.74357 677.000
38.76352 607.000
38.78347 608.000
38.80341 534.000
38.82336 561.000
38.84331 515.000
38.86325 527.000
38.88320 513.000
38.90315 505.000
38.92309 482.000
38.94304 458.000
38.96299 463.000
38.98294 452.000
39.00288 419.000
39.02283 413.000
39.04278 350.000
39.06272 413.000
39.08267 400.000
39.10262 426.000
39.12256 396.000
39.14251 426.000
39.16246 428.000
39.18241 466.000
39.20235 504.000
39.22230 548.000
39.24225 677.000
39.26219 739.000
39.28214 787.000
39.30209 885.000
39.32203 973.000
39.34198 1004.000
39.36193 1041.000
39.38187 1088.000
39.40182 948.000
39.42177 942.000
39.44172 788.000
39.46166 746.000
39.48161 609.000
39.50156 580.000
39.52150 512.000
39.54145 441.000
39.56140 380.000
39.58134 347.000
39.60129 337.000
39.62124 311.000
39.64119 309.000
39.66113 297.000
39.68108 285.000
39.70103 297.000
39.72097 271.000
39.74092 281.000
39.76087 279.000
39.78081 262.000
39.80076 256.000
39.82071 266.000
39.84065 271.000
39.86060 246.000
39.88055 251.000
39.90050 269.000
39.92044 265.000
39.94039 248.000
39.96034 252.000
39.98028 211.000
40.00023 253.000
40.02018 225.000
40.04012 222.000
40.06007 247.000
40.08002 258.000
40.09997 229.000
40.11991 227.000
40.13986 239.000
40.15981 256.000
40.17975 217.000
40.19970 265.000
40.21965 241.000
40.23959 213.000
40.25954 266.000
40.27949 238.000
40.29943 256.000
40.31938 260.000
40.33933 219.000
40.35928 240.000
40.37922 252.000
40.39917 220.000
40.41912 217.000
40.43906 242.000
40.45901 260.000
40.47896 245.000
40.49890 246.000
40.51885 245.000
40.53880 218.000
40.55875 226.000
40.57869 261.000
40.59864 258.000
40.61859 225.000
40.63853 245.000
40.65848 227.000
40.67843 211.000
40.69837 221.000
40.71832 227.000
40.73827 266.000
40.75822 240.000
40.77816 249.000
40.79811 243.000
40.81806 214.000
40.83800 268.000
40.85795 226.000
40.87790 243.000
40.89784 231.000
40.91779 227.000
40.93774 226.000
40.95768 230.000
40.97763 240.000
40.99758 236.000
41.01753 232.000
41.03747 231.000
41.05742 235.000
41.07737 238.000
41.09731 231.000
41.11726 230.000
41.13721 228.000
41.15715 221.000
41.17710 231.000
41.19705 214.000
41.21700 231.000
41.23694 246.000
41.25689 243.000
41.27684 218.000
41.29678 251.000
41.31673 211.000
41.33668 218.000
41.35662 235.000
41.37657 242.000
41.39652 255.000
41.41646 247.000
41.43641 236.000
41.45636 234.000
41.47631 236.000
41.49625 247.000
41.51620 262.000
41.53615 269.000
41.55609 256.000
41.57604 243.000
41.59599 236.000
41.61593 249.000
41.63588 239.000
41.65583 232.000
41.67578 252.000
41.69572 235.000
41.71567 245.000
41.73562 226.000
41.75556 247.000
41.77551 216.000
41.79546 237.000
41.81540 244.000
41.83535 243.000
41.85530 233.000
41.87524 221.000
41.89519 250.000
41.91514 282.000
41.93509 252.000
41.95503 238.000
41.97498 246.000
41.99493 243.000
42.01487 243.000
42.03482 233.000
42.05477 242.000
42.07471 233.000
42.09466 228.000
42.11461 264.000
42.13456 244.000
42.15450 222.000
42.17445 236.000
42.19440 253.000
42.21434 255.000
42.23429 220.000
42.25424 265.000
42.27418 302.000
42.29413 255.000
42.31408 268.000
42.33403 251.000
42.35397 253.000
42.37392 259.000
42.39387 236.000
42.41381 248.000
42.43376 237.000
42.45371 268.000
42.47365 253.000
42.49360 279.000
42.51355 284.000
42.53349 259.000
42.55344 266.000
42.57339 271.000
42.59334 259.000
42.61328 257.000
42.63323 276.000
42.65318 283.000
42.67312 278.000
42.69307 286.000
42.71302 286.000
42.73296 300.000
42.75291 317.000
42.77286 295.000
42.79281 342.000
42.81275 355.000
42.83270 386.000
42.85265 422.000
42.87259 393.000
42.89254 481.000
42.91249 521.000
42.93243 545.000
42.95238 658.000
42.97233 676.000
42.99227 771.000
43.01222 815.000
43.03217 947.000
43.05212 1033.000
43.07206 1129.000
43.09201 1237.000
43.11196 1288.000
43.13190 1292.000
43.15185 1251.000
43.17180 1243.000
43.19174 1148.000
43.21169 1183.000
43.23164 1181.000
43.25159 1167.000
43.27153 1058.000
43.29148 1021.000
43.31143 950.000
43.33137 963.000
43.35132 966.000
43.37127 915.000
43.39121 894.000
43.41116 866.000
43.43111 836.000
43.45105 812.000
43.47100 800.000
43.49095 704.000
43.51090 673.000
43.53084 608.000
43.55079 506.000
43.57074 523.000
43.59068 459.000
43.61063 458.000
43.63058 415.000
43.65052 355.000
43.67047 344.000
43.69042 303.000
43.71037 319.000
43.73031 277.000
43.75026 284.000
43.77021 270.000
43.79015 276.000
43.81010 279.000
43.83005 256.000
43.84999 248.000
43.86994 297.000
43.88989 241.000
43.90984 255.000
43.92978 234.000
43.94973 276.000
43.96968 243.000
43.98962 242.000
44.00957 252.000
44.02952 223.000
44.04946 210.000
44.06941 264.000
44.08936 264.000
44.10930 248.000
44.12925 261.000
44.14920 230.000
44.16915 246.000
44.18909 258.000
44.20904 234.000
44.22899 257.000
44.24893 229.000
44.26888 253.000
44.28883 266.000
44.30877 240.000
44.32872 191.000
44.34867 248.000
44.36862 225.000
44.38856 245.000
44.40851 250.000
44.42846 221.000
44.44840 247.000
44.46835 243.000
44.48830 231.000
44.50824 229.000
44.52819 233.000
44.54814 212.000
44.56808 245.000
44.58803 236.000
44.60798 229.000
44.62793 224.000
44.64787 257.000
44.66782 251.000
44.68777 254.000
44.70771 247.000
44.72766 227.000
44.74761 262.000
44.76755 248.000
44.78750 237.000
44.80745 225.000
44.82740 242.000
44.84734 229.000
44.86729 246.000
44.88724 227.000
44.90718 231.000
44.92713 278.000
44.94708 229.000
44.96702 253.000
44.98697 232.000
45.00692 263.000
45.02686 237.000
45.04681 249.000
45.06676 258.000
45.08671 242.000
45.10665 265.000
45.12660 280.000
45.14655 261.000
45.16649 264.000
45.18644 262.000
45.20639 290.000
45.22633 238.000
45.24628 231.000
45.26623 264.000
45.28618 238.000
45.30612 248.000
45.32607 233.000
45.34602 243.000
45.36596 214.000
45.38591 230.000
45.40586 236.000
45.42580 219.000
45.44575 235.000
45.46570 251.000
45.48565 265.000
45.50559 218.000
45.52554 235.000
45.54549 237.000
45.56543 250.000
45.58538 234.000
45.60533 216.000
45.62527 248.000
45.64522 211.000
45.66517 210.000
45.68511 214.000
45.70506 246.000
45.72501 227.000
45.74496 230.000
45.76490 214.000
45.78485 241.000
45.80480 202.000
45.82474 236.000
45.84469 218.000
45.86464 238.000
45.88458 204.000
45.90453 221.000
45.92448 238.000
45.94443 230.000
45.96437 283.000
45.98432 225.000
46.00427 224.000
46.02421 240.000
46.04416 246.000
46.06411 259.000
46.08405 237.000
46.10400 208.000
46.12395 237.000
46.14389 256.000
46.16384 234.000
46.18379 241.000
46.20374 225.000
46.22368 263.000
46.24363 251.000
46.26358 242.000
46.28352 239.000
46.30347 247.000
46.32342 223.000
46.34336 233.000
46.36331 210.000
46.38326 222.000
46.40321 248.000
46.42315 214.000
46.44310 237.000
46.46305 258.000
46.48299 251.000
46.50294 217.000
46.52289 242.000
46.54283 212.000
46.56278 227.000
46.58273 224.000
46.60267 206.000
46.62262 225.000
46.64257 209.000
46.66252 219.000
46.68246 223.000
46.70241 213.000
46.72236 245.000
46.74230 238.000
46.76225 216.000
46.78220 246.000
46.80214 192.000
46.82209 222.000
46.84204 233.000
46.86199 190.000
46.88193 241.000
46.90188 210.000
46.92183 263.000
46.94177 261.000
46.96172 241.000
46.98167 219.000
47.00161 230.000
47.02156 214.000
47.04151 235.000
47.06146 265.000
47.08140 264.000
47.10135 219.000
47.12130 215.000
47.14124 214.000
47.16119 251.000
47.18114 241.000
47.20108 245.000
47.22103 237.000
47.24098 243.000
47.26092 235.000
47.28087 231.000
47.30082 228.000
47.32077 252.000
47.34071 237.000
47.36066 217.000
47.38061 233.000
47.40055 213.000
47.42050 194.000
47.44045 260.000
47.46039 248.000
47.48034 225.000
47.50029 228.000
47.52024 230.000
47.54018 226.000
47.56013 251.000
47.58008 242.000
47.60002 211.000
47.61997 236.000
47.63992 272.000
47.65986 238.000
47.67981 236.000
47.69976 249.000
47.71970 236.000
47.73965 237.000
47.75960 234.000
47.77955 227.000
47.79949 246.000
47.81944 241.000
47.83939 256.000
47.85933 244.000
47.87928 232.000
47.89923 259.000
47.91917 218.000
47.93912 249.000
47.95907 238.000
47.97902 234.000
47.99896 267.000
48.01891 246.000
48.03886 264.000
48.05880 245.000
48.07875 268.000
48.09870 238.000
48.11864 245.000
48.13859 265.000
48.15854 244.000
48.17848 259.000
48.19843 263.000
48.21838 251.000
48.23833 234.000
48.25827 273.000
48.27822 269.000
48.29817 312.000
48.31811 268.000
48.33806 318.000
48.35801 305.000
48.37795 306.000
48.39790 307.000
48.41785 315.000
48.43780 303.000
48.45774 329.000
48.47769 317.000
48.49764 366.000
48.51758 459.000
48.53753 430.000
48.55748 442.000
48.57742 475.000
48.59737 512.000
48.61732 590.000
48.63726 658.000
48.65721 818.000
48.67716 834.000
48.69711 899.000
48.71705 999.000
48.73700 999.000
48.75695 1020.000
48.77689 1053.000
48.79684 998.000
48.81679 872.000
48.83673 791.000
48.85668 785.000
48.87663 775.000
48.89658 680.000
48.91652 616.000
48.93647 534.000
48.95642 501.000
48.97636 414.000
48.99631 384.000
49.01626 370.000
49.03620 326.000
49.05615 327.000
49.07610 277.000
49.09605 305.000
49.11599 336.000
49.13594 293.000
49.15589 257.000
49.17583 261.000
49.19578 273.000
49.21573 278.000
49.23567 252.000
49.25562 240.000
49.27557 276.000
49.29551 255.000
49.31546 257.000
49.33541 263.000
49.35536 264.000
49.37530 258.000
49.39525 269.000
49.41520 241.000
49.43514 240.000
49.45509 260.000
49.47504 237.000
49.49498 252.000
49.51493 266.000
49.53488 229.000
49.55483 253.000
49.57477 192.000
49.59472 230.000
49.61467 245.000
49.63461 246.000
49.65456 271.000
49.67451 264.000
49.69445 238.000
49.71440 252.000
49.73435 218.000
49.75429 226.000
49.77424 221.000
49.79419 227.000
49.81414 275.000
49.83408 220.000
49.85403 237.000
49.87398 248.000
49.89392 237.000
49.91387 226.000
49.93382 237.000
49.95376 231.000
49.97371 229.000
49.99366 224.000
50.01361 206.000
50.03355 227.000
50.05350 227.000
50.07345 217.000
50.09339 229.000
50.11334 225.000
50.13329 237.000
50.15323 238.000
50.17318 238.000
50.19313 242.000
50.21307 231.000
50.23302 219.000
50.25297 250.000
50.27292 213.000
50.29286 227.000
50.31281 275.000
50.33276 223.000
50.35270 224.000
50.37265 233.000
50.39260 256.000
50.41254 239.000
50.43249 233.000
50.45244 229.000
50.47239 212.000
50.49233 270.000
50.51228 239.000
50.53223 219.000
50.55217 231.000
50.57212 235.000
50.59207 222.000
50.61201 252.000
50.63196 257.000
50.65191 237.000
50.67186 253.000
50.69180 238.000
50.71175 218.000
50.73170 244.000
50.75164 226.000
50.77159 219.000
50.79154 194.000
50.81148 227.000
50.83143 240.000
50.85138 237.000
50.87132 227.000
50.89127 232.000
50.91122 242.000
50.93117 222.000
50.95111 216.000
50.97106 246.000
50.99101 238.000
51.01095 224.000
51.03090 258.000
51.05085 223.000
51.07079 220.000
51.09074 235.000
51.11069 257.000
51.13064 217.000
51.15058 249.000
51.17053 267.000
51.19048 202.000
51.21042 221.000
51.23037 246.000
51.25032 268.000
51.27026 226.000
51.29021 219.000
51.31016 230.000
51.33010 227.000
51.35005 230.000
51.37000 232.000
51.38995 215.000
51.40989 228.000
51.42984 217.000
51.44979 236.000
51.46973 203.000
51.48968 239.000
51.50963 253.000
51.52957 227.000
51.54952 252.000
51.56947 235.000
51.58942 247.000
51.60936 268.000
51.62931 269.000
51.64926 216.000
51.66920 231.000
51.68915 244.000
51.70910 243.000
51.72904 219.000
51.74899 241.000
51.76894 236.000
51.78888 238.000
51.80883 198.000
51.82878 198.000
51.84873 220.000
51.86867 216.000
51.88862 231.000
51.90857 201.000
51.92851 226.000
51.94846 242.000
51.96841 255.000
51.98835 215.000
52.00830 228.000
52.02825 231.000
52.04820 216.000
52.06814 226.000
52.08809 234.000
52.10804 206.000
52.12798 234.000
52.14793 200.000
52.16788 234.000
52.18782 225.000
52.20777 215.000
52.22772 208.000
52.24767 252.000
52.26761 242.000
52.28756 244.000
52.30751 219.000
52.32745 218.000
52.34740 207.000
52.36735 237.000
52.38729 220.000
52.40724 218.000
52.42719 245.000
52.44713 220.000
52.46708 241.000
52.48703 235.000
52.50698 197.000
52.52692 250.000
52.54687 203.000
52.56682 232.000
52.58676 214.000
52.60671 220.000
52.62666 237.000
52.64660 212.000
52.66655 246.000
52.68650 253.000
52.70645 231.000
52.72639 266.000
52.74634 238.000
52.76629 226.000
52.78623 232.000
52.80618 246.000
52.82613 235.000
52.84607 209.000
52.86602 255.000
52.88597 253.000
52.90591 251.000
52.92586 205.000
52.94581 236.000
52.96576 226.000
52.98570 223.000
53.00565 255.000
53.02560 243.000
53.04554 224.000
53.06549 243.000
53.08544 222.000
53.10538 252.000
53.12533 206.000
53.14528 239.000
53.16523 244.000
53.18517 229.000
53.20512 268.000
53.22507 273.000
53.24501 270.000
53.26496 246.000
53.28491 260.000
53.30485 238.000
53.32480 258.000
53.34475 276.000
53.36469 264.000
53.38464 270.000
53.40459 255.000
53.42454 255.000
53.44448 263.000
53.46443 281.000
53.48438 252.000
53.50432 254.000
53.52427 266.000
53.54422 256.000
53.56416 236.000
53.58411 287.000
53.60406 285.000
53.62401 277.000
53.64395 308.000
53.66390 302.000
53.68385 367.000
53.70379 352.000
53.72374 336.000
53.74369 320.000
53.76363 346.000
53.78358 343.000
53.80353 336.000
53.82348 363.000
53.84342 360.000
53.86337 344.000
53.88332 321.000
53.90326 341.000
53.92321 335.000
53.94316 302.000
53.96310 289.000
53.98305 315.000
54.00300 237.000
54.02294 266.000
54.04289 267.000
54.06284 255.000
54.08279 272.000
54.10273 282.000
54.12268 263.000
54.14263 265.000
54.16257 257.000
54.18252 214.000
54.20247 212.000
54.22241 248.000
54.24236 224.000
54.26231 235.000
54.28226 250.000
54.30220 198.000
54.32215 250.000
54.34210 233.000
54.36204 211.000
54.38199 226.000
54.40194 208.000
54.42188 236.000
54.44183 224.000
54.46178 233.000
54.48172 223.000
54.50167 248.000
54.52162 215.000
54.54157 236.000
54.56151 232.000
54.58146 238.000
54.60141 225.000
54.62135 191.000
54.64130 257.000
54.66125 227.000
54.68119 237.000
54.70114 234.000
54.72109 216.000
54.74104 186.000
54.76098 247.000
54.78093 250.000
54.80088 258.000
54.82082 224.000
54.84077 232.000
54.86072 208.000
54.88066 234.000
54.90061 256.000
54.92056 214.000
54.94050 212.000
54.96045 246.000
54.98040 221.000
55.00035 204.000
55.02029 219.000
55.04024 249.000
55.06019 240.000
55.08013 217.000
55.10008 203.000
55.12003 239.000
55.13997 254.000
55.15992 230.000
55.17987 215.000
55.19982 226.000
55.21976 210.000
55.23971 223.000
55.25966 226.000
55.27960 199.000
55.29955 217.000
55.31950 203.000
55.33944 247.000
55.35939 245.000
55.37934 218.000
55.39929 244.000
55.41923 218.000
55.43918 255.000
55.45913 219.000
55.47907 229.000
55.49902 224.000
55.51897 246.000
55.53891 197.000
55.55886 220.000
55.57881 242.000
55.59875 237.000
55.61870 217.000
55.63865 217.000
55.65860 207.000
55.67854 215.000
55.69849 226.000
55.71844 234.000
55.73838 229.000
55.75833 208.000
55.77828 217.000
55.79822 222.000
55.81817 219.000
55.83812 234.000
55.85807 228.000
55.87801 241.000
55.89796 241.000
55.91791 232.000
55.93785 239.000
55.95780 205.000
55.97775 243.000
55.99769 234.000
56.01764 239.000
56.03759 252.000
56.05753 244.000
56.07748 242.000
56.09743 218.000
56.11738 222.000
56.13732 219.000
56.15727 218.000
56.17722 221.000
56.19716 215.000
56.21711 241.000
56.23706 215.000
56.25700 231.000
56.27695 207.000
56.29690 245.000
56.31685 234.000
56.33679 237.000
56.35674 222.000
56.37669 211.000
56.39663 222.000
56.41658 252.000
56.43653 272.000
56.45647 231.000
56.47642 224.000
56.49637 245.000
56.51631 239.000
56.53626 234.000
56.55621 249.000
56.57616 248.000
56.59610 222.000
56.61605 264.000
56.63600 229.000
56.65594 263.000
56.67589 225.000
56.69584 240.000
56.71578 224.000
56.73573 222.000
56.75568 212.000
56.77563 213.000
56.79557 226.000
56.81552 253.000
56.83547 258.000
56.85541 271.000
56.87536 228.000
56.89531 245.000
56.91525 242.000
56.93520 254.000
56.95515 223.000
56.97510 249.000
56.99504 265.000
57.01499 246.000
57.03494 268.000
57.05488 278.000
57.07483 275.000
57.09478 277.000
57.11472 294.000
57.13467 290.000
57.15462 285.000
57.17456 339.000
57.19451 403.000
57.21446 422.000
57.23441 472.000
57.25435 559.000
57.27430 540.000
57.29425 580.000
57.31419 528.000
57.33414 577.000
57.35409 609.000
57.37403 568.000
57.39398 563.000
57.41393 569.000
57.43388 591.000
57.45382 517.000
57.47377 531.000
57.49372 519.000
57.51366 459.000
57.53361 468.000
57.55356 453.000
57.57350 399.000
57.59345 353.000
57.61340 353.000
57.63334 350.000
57.65329 323.000
57.67324 324.000
57.69319 299.000
57.71313 299.000
57.73308 292.000
57.75303 292.000
57.77297 268.000
57.79292 252.000
57.81287 269.000
57.83281 276.000
57.85276 245.000
57.87271 261.000
57.89266 245.000
57.91260 279.000
57.93255 248.000
57.95250 240.000
57.97244 253.000
57.99239 221.000
58.01234 261.000
58.03228 258.000
58.05223 283.000
58.07218 261.000
58.09212 256.000
58.11207 302.000
58.13202 294.000
58.15197 298.000
58.17191 293.000
58.19186 300.000
58.21181 256.000
58.23175 326.000
58.25170 297.000
58.27165 313.000
58.29159 278.000
58.31154 264.000
58.33149 273.000
58.35144 284.000
58.37138 278.000
58.39133 321.000
58.41128 292.000
58.43122 255.000
58.45117 264.000
58.47112 241.000
58.49106 246.000
58.51101 237.000
58.53096 241.000
58.55090 253.000
58.57085 220.000
58.59080 253.000
58.61075 235.000
58.63069 235.000
58.65064 221.000
58.67059 219.000
58.69053 250.000
58.71048 232.000
58.73043 235.000
58.75037 270.000
58.77032 269.000
58.79027 242.000
58.81022 256.000
58.83016 208.000
58.85011 244.000
58.87006 227.000
58.89000 225.000
58.90995 218.000
58.92990 238.000
58.94984 242.000
58.96979 226.000
58.98974 232.000
59.00969 211.000
59.02963 247.000
59.04958 254.000
59.06953 260.000
59.08947 247.000
59.10942 226.000
59.12937 232.000
59.14931 211.000
59.16926 239.000
59.18921 246.000
59.20915 236.000
59.22910 251.000
59.24905 249.000
59.26900 222.000
59.28894 205.000
59.30889 236.000
59.32884 206.000
59.34878 251.000
59.36873 222.000
59.38868 229.000
59.40862 233.000
59.42857 249.000
59.44852 230.000
59.46847 212.000
59.48841 247.000
59.50836 229.000
59.52831 247.000
59.54825 214.000
59.56820 207.000
59.58815 236.000
59.60809 216.000
59.62804 242.000
59.64799 251.000
59.66793 219.000
59.68788 249.000
59.70783 252.000
59.72778 219.000
59.74772 228.000
59.76767 234.000
59.78762 271.000
59.80756 223.000
59.82751 229.000
59.84746 217.000
59.86740 240.000
59.88735 221.000
59.90730 220.000
59.92725 233.000
59.94719 249.000
59.96714 232.000
59.98709 219.000
60.00703 218.000
60.02698 249.000
60.04693 227.000
60.06687 247.000
60.08682 244.000
60.10677 237.000
60.12671 251.000
60.14666 257.000
60.16661 240.000
60.18656 232.000
60.20650 256.000
60.22645 253.000
60.24640 225.000
60.26634 231.000
60.28629 219.000
60.30624 223.000
60.32618 253.000
60.34613 221.000
60.36608 242.000
60.38603 229.000
60.40597 229.000
60.42592 222.000
60.44587 212.000
60.46581 235.000
60.48576 265.000
60.50571 240.000
60.52565 223.000
60.54560 227.000
60.56555 253.000
60.58550 229.000
60.60544 244.000
60.62539 274.000
60.64534 216.000
60.66528 264.000
60.68523 212.000
60.70518 241.000
60.72512 238.000
60.74507 240.000
60.76502 240.000
60.78496 197.000
60.80491 236.000
60.82486 235.000
60.84481 249.000
60.86475 240.000
60.88470 239.000
60.90465 252.000
60.92459 229.000
60.94454 228.000
60.96449 251.000
60.98443 279.000
61.00438 270.000
61.02433 238.000
61.04428 236.000
61.06422 263.000
61.08417 227.000
61.10412 244.000
61.12406 257.000
61.14401 240.000
61.16396 263.000
61.18390 252.000
61.20385 272.000
61.22380 288.000
61.24374 259.000
61.26369 269.000
61.28364 253.000
61.30359 289.000
61.32353 249.000
61.34348 299.000
61.36343 294.000
61.38337 294.000
61.40332 297.000
61.42327 305.000
61.44321 307.000
61.46316 345.000
61.48311 312.000
61.50306 344.000
61.52300 366.000
61.54295 342.000
61.56290 344.000
61.58284 331.000
61.60279 314.000
61.62274 321.000
61.64268 357.000
61.66263 349.000
61.68258 346.000
61.70252 330.000
61.72247 348.000
61.74242 352.000
61.76237 345.000
61.78231 351.000
61.80226 371.000
61.82221 360.000
61.84215 365.000
61.86210 393.000
61.88205 446.000
61.90199 413.000
61.92194 454.000
61.94189 482.000
61.96184 478.000
61.98178 548.000
62.00173 503.000
62.02168 467.000
62.04162 425.000
62.06157 451.000
62.08152 461.000
62.10146 435.000
62.12141 417.000
62.14136 410.000
62.16131 432.000
62.18125 399.000
62.20120 371.000
62.22115 389.000
62.24109 362.000
62.26104 348.000
62.28099 341.000
62.30093 326.000
62.32088 347.000
62.34083 331.000
62.36077 348.000
62.38072 352.000
62.40067 354.000
62.42062 388.000
62.44056 378.000
62.46051 440.000
62.48046 430.000
62.50040 504.000
62.52035 508.000
62.54030 601.000
62.56024 595.000
62.58019 611.000
62.60014 652.000
62.62009 724.000
62.64003 713.000
62.65998 699.000
62.67993 667.000
62.69987 691.000
62.71982 631.000
62.73977 609.000
62.75971 675.000
62.77966 627.000
62.79961 701.000
62.81955 632.000
62.83950 715.000
62.85945 753.000
62.87940 749.000
62.89934 748.000
62.91929 693.000
62.93924 713.000
62.95918 714.000
62.97913 717.000
62.99908 691.000
63.01902 692.000
63.03897 631.000
63.05892 688.000
63.07887 674.000
63.09881 623.000
63.11876 651.000
63.13871 556.000
63.15865 532.000
63.17860 493.000
63.19855 469.000
63.21849 449.000
63.23844 428.000
63.25839 414.000
63.27833 395.000
63.29828 357.000
63.31823 356.000
63.33818 355.000
63.35812 374.000
63.37807 324.000
63.39802 314.000
63.41796 296.000
63.43791 283.000
63.45786 267.000
63.47780 303.000
63.49775 245.000
63.51770 261.000
63.53765 287.000
63.55759 282.000
63.57754 239.000
63.59749 268.000
63.61743 247.000
63.63738 246.000
63.65733 236.000
63.67727 243.000
63.69722 262.000
63.71717 251.000
63.73712 229.000
63.75706 246.000
63.77701 256.000
63.79696 264.000
63.81690 250.000
63.83685 246.000
63.85680 214.000
63.87674 253.000
63.89669 275.000
63.91664 281.000
63.93658 241.000
63.95653 267.000
63.97648 271.000
63.99643 297.000
64.01637 256.000
64.03632 258.000
64.05627 268.000
64.07621 276.000
64.09616 284.000
64.11611 277.000
64.13605 336.000
64.15600 329.000
64.17595 335.000
64.19590 336.000
64.21584 388.000
64.23579 331.000
64.25574 356.000
64.27568 379.000
64.29563 360.000
64.31558 336.000
64.33552 384.000
64.35547 454.000
64.37542 395.000
64.39536 434.000
64.41531 419.000
64.43526 433.000
64.45521 396.000
64.47515 355.000
64.49510 417.000
64.51505 382.000
64.53499 352.000
64.55494 341.000
64.57489 299.000
64.59483 331.000
64.61478 312.000
64.63473 283.000
64.65468 303.000
64.67462 277.000
64.69457 276.000
64.71452 261.000
64.73446 284.000
64.75441 257.000
64.77436 253.000
64.79430 242.000
64.81425 233.000
64.83420 231.000
64.85414 247.000
64.87409 253.000
64.89404 238.000
64.91399 236.000
64.93393 244.000
64.95388 238.000
64.97383 241.000
64.99377 212.000
65.01372 229.000
65.03367 252.000
65.05361 267.000
65.07356 221.000
65.09351 254.000
65.11346 262.000
65.13340 236.000
65.15335 232.000
65.17330 254.000
65.19324 261.000
65.21319 242.000
65.23314 231.000
65.25308 244.000
65.27303 258.000
65.29298 228.000
65.31293 227.000
65.33287 255.000
65.35282 238.000
65.37277 216.000
65.39271 275.000
65.41266 253.000
65.43261 262.000
65.45255 253.000
65.47250 258.000
65.49245 284.000
65.51239 290.000
65.53234 279.000
65.55229 268.000
65.57224 243.000
65.59218 270.000
65.61213 267.000
65.63208 302.000
65.65202 300.000
65.67197 275.000
65.69192 279.000
65.71186 288.000
65.73181 256.000
65.75176 284.000
65.77171 283.000
65.79165 285.000
65.81160 268.000
65.83155 286.000
65.85149 289.000
65.87144 291.000
65.89139 256.000
65.91133 271.000
65.93128 274.000
65.95123 276.000
65.97117 286.000
65.99112 261.000
66.01107 279.000
66.03102 268.000
66.05096 291.000
66.07091 257.000
66.09086 285.000
66.11080 271.000
66.13075 300.000
66.15070 301.000
66.17064 301.000
66.19059 318.000
66.21054 289.000
66.23049 334.000
66.25043 345.000
66.27038 319.000
66.29033 311.000
66.31027 294.000
66.33022 311.000
66.35017 347.000
66.37011 335.000
66.39006 335.000
66.41001 311.000
66.42995 305.000
66.44990 338.000
66.46985 324.000
66.48980 372.000
66.50974 334.000
66.52969 288.000
66.54964 350.000
66.56958 349.000
66.58953 311.000
66.60948 321.000
66.62942 370.000
66.64937 376.000
66.66932 367.000
66.68927 362.000
66.70921 341.000
66.72916 379.000
66.74911 393.000
66.76905 388.000
66.78900 372.000
66.80895 403.000
66.82889 382.000
66.84884 391.000
66.86879 415.000
66.88874 366.000
66.90868 402.000
66.92863 330.000
66.94858 348.000
66.96852 329.000
66.98847 352.000
67.00842 331.000
67.02836 326.000
67.04831 292.000
67.06826 295.000
67.08820 289.000
67.10815 272.000
67.12810 276.000
67.14805 264.000
67.16799 259.000
67.18794 266.000
67.20789 249.000
67.22783 228.000
67.24778 247.000
67.26773 277.000
67.28767 269.000
67.30762 246.000
67.32757 248.000
67.34752 260.000
67.36746 238.000
67.38741 256.000
67.40736 233.000
67.42730 247.000
67.44725 256.000
67.46720 263.000
67.48714 251.000
67.50709 239.000
67.52704 237.000
67.54698 268.000
67.56693 263.000
67.58688 260.000
67.60683 293.000
67.62677 267.000
67.64672 264.000
67.66667 250.000
67.68661 263.000
67.70656 246.000
67.72651 260.000
67.74645 288.000
67.76640 255.000
67.78635 283.000
67.80630 267.000
67.82624 302.000
67.84619 297.000
67.86614 277.000
67.88608 288.000
67.90603 305.000
67.92598 282.000
67.94592 291.000
67.96587 304.000
67.98582 347.000
68.00576 282.000
68.02571 296.000
68.04566 314.000
68.06561 307.000
68.08555 286.000
68.10550 282.000
68.12545 268.000
68.14539 285.000
68.16534 280.000
68.18529 265.000
68.20523 264.000
68.22518 267.000
68.24513 264.000
68.26508 252.000
68.28502 261.000
68.30497 233.000
68.32492 270.000
68.34486 266.000
68.36481 214.000
68.38476 263.000
68.40470 264.000
68.42465 232.000
68.44460 236.000
68.46455 244.000
68.48449 223.000
68.50444 247.000
68.52439 217.000
68.54433 223.000
68.56428 251.000
68.58423 246.000
68.60417 222.000
68.62412 241.000
68.64407 216.000
68.66401 226.000
68.68396 220.000
68.70391 227.000
68.72386 230.000
68.74380 229.000
68.76375 214.000
68.78370 239.000
68.80364 228.000
68.82359 237.000
68.84354 246.000
68.86348 212.000
68.88343 237.000
68.90338 219.000
68.92333 236.000
68.94327 243.000
68.96322 217.000
68.98317 232.000
69.00311 223.000
69.02306 223.000
69.04301 225.000
69.06295 245.000
69.08290 256.000
69.10285 198.000
69.12279 230.000
69.14274 218.000
69.16269 221.000
69.18264 218.000
69.20258 252.000
69.22253 209.000
69.24248 227.000
69.26242 227.000
69.28237 241.000
69.30232 220.000
69.32226 228.000
69.34221 216.000
69.36216 262.000
69.38211 244.000
69.40205 245.000
69.42200 251.000
69.44195 210.000
69.46189 222.000
69.48184 238.000
69.50179 227.000
69.52173 239.000
69.54168 203.000
69.56163 241.000
69.58157 239.000
69.60152 232.000
69.62147 243.000
69.64142 222.000
69.66136 253.000
69.68131 191.000
69.70126 234.000
69.72120 221.000
69.74115 244.000
69.76110 243.000
69.78104 235.000
69.80099 220.000
69.82094 223.000
69.84089 255.000
69.86083 230.000
69.88078 216.000
69.90073 219.000
69.92067 225.000
69.94062 242.000
69.96057 265.000
69.98051 227.000
70.00046 188.000
70.02041 216.000
70.04035 227.000
70.06030 228.000
70.08025 253.000
70.10020 216.000
70.12014 231.000
70.14009 211.000
70.16004 201.000
70.17998 224.000
70.19993 201.000
70.21988 225.000
70.23982 232.000
70.25977 197.000
70.27972 241.000
70.29967 186.000
70.31961 234.000
70.33956 221.000
70.35951 228.000
70.37945 226.000
70.39940 221.000
70.41935 226.000
70.43929 226.000
70.45924 216.000
70.47919 223.000
70.49914 225.000
70.51908 253.000
70.53903 226.000
70.55898 222.000
70.57892 215.000
70.59887 230.000
70.61882 225.000
70.63876 211.000
70.65871 252.000
70.67866 238.000
70.69860 225.000
70.71855 228.000
70.73850 239.000
70.75845 232.000
70.77839 217.000
70.79834 261.000
70.81829 212.000
70.83823 220.000
70.85818 226.000
70.87813 234.000
70.89807 226.000
70.91802 242.000
70.93797 228.000
70.95792 223.000
70.97786 233.000
70.99781 212.000
71.01776 206.000
71.03770 233.000
71.05765 239.000
71.07760 259.000
71.09754 205.000
71.11749 237.000
71.13744 246.000
71.15738 213.000
71.17733 236.000
71.19728 239.000
71.21723 228.000
71.23717 228.000
71.25712 197.000
71.27707 233.000
71.29701 250.000
71.31696 251.000
71.33691 250.000
71.35685 244.000
71.37680 256.000
71.39675 243.000
71.41670 239.000
71.43664 246.000
71.45659 228.000
71.47654 243.000
71.49648 251.000
71.51643 273.000
71.53638 246.000
71.55632 257.000
71.57627 248.000
71.59622 253.000
71.61616 250.000
71.63611 256.000
71.65606 267.000
71.67601 243.000
71.69595 268.000
71.71590 221.000
71.73585 259.000
71.75579 260.000
71.77574 230.000
71.79569 219.000
71.81563 256.000
71.83558 239.000
71.85553 238.000
71.87548 241.000
71.89542 243.000
71.91537 253.000
71.93532 246.000
71.95526 213.000
71.97521 227.000
71.99516 237.000
72.01510 231.000
72.03505 246.000
72.05500 241.000
72.07495 237.000
72.09489 218.000
72.11484 227.000
72.13479 237.000
72.15473 234.000
72.17468 237.000
72.19463 258.000
72.21457 277.000
72.23452 263.000
72.25447 287.000
72.27441 237.000
72.29436 265.000
72.31431 280.000
72.33426 275.000
72.35420 265.000
72.37415 272.000
72.39410 244.000
72.41404 256.000
72.43399 286.000
72.45394 234.000
72.47388 233.000
72.49383 233.000
72.51378 248.000
72.53373 246.000
72.55367 260.000
72.57362 215.000
72.59357 263.000
72.61351 248.000
72.63346 234.000
72.65341 219.000
72.67335 232.000
72.69330 250.000
72.71325 222.000
72.73319 208.000
72.75314 240.000
72.77309 225.000
72.79304 223.000
72.81298 216.000
72.83293 215.000
72.85288 224.000
72.87282 247.000
72.89277 232.000
72.91272 229.000
72.93266 228.000
72.95261 251.000
72.97256 218.000
72.99251 234.000
73.01245 225.000
73.03240 231.000
73.05235 235.000
73.07229 243.000
73.09224 239.000
73.11219 246.000
73.13213 223.000
73.15208 223.000
73.17203 245.000
73.19197 250.000
73.21192 237.000
73.23187 233.000
73.25182 205.000
73.27176 255.000
73.29171 218.000
73.31166 226.000
73.33160 226.000
73.35155 228.000
73.37150 228.000
73.39144 258.000
73.41139 248.000
73.43134 257.000
73.45129 260.000
73.47123 269.000
73.49118 236.000
73.51113 263.000
73.53107 253.000
73.55102 248.000
73.57097 295.000
73.59091 268.000
73.61086 300.000
73.63081 284.000
73.65076 276.000
73.67070 286.000
73.69065 296.000
73.71060 264.000
73.73054 290.000
73.75049 287.000
73.77044 287.000
73.79038 262.000
73.81033 277.000
73.83028 283.000
73.85022 265.000
73.87017 243.000
73.89012 274.000
73.91007 263.000
73.93001 276.000
73.94996 270.000
73.96991 264.000
73.98985 240.000
74.00980 255.000
74.02975 243.000
74.04969 226.000
74.06964 231.000
74.08959 234.000
74.10954 224.000
74.12948 231.000
74.14943 216.000
74.16938 276.000
74.18932 221.000
74.20927 251.000
74.22922 223.000
74.24916 230.000
74.26911 248.000
74.28906 237.000
74.30900 239.000
74.32895 265.000
74.34890 280.000
74.36885 257.000
74.38879 284.000
74.40874 293.000
74.42869 261.000
74.44863 301.000
74.46858 316.000
74.48853 276.000
74.50847 329.000
74.52842 311.000
74.54837 281.000
74.56832 329.000
74.58826 322.000
74.60821 304.000
74.62816 332.000
74.64810 311.000
74.66805 317.000
74.68800 335.000
74.70794 332.000
74.72789 295.000
74.74784 308.000
74.76778 308.000
74.78773 325.000
74.80768 292.000
74.82763 330.000
74.84757 316.000
74.86752 350.000
74.88747 310.000
74.90741 307.000
74.92736 338.000
74.94731 358.000
74.96725 344.000
74.98720 326.000
75.00715 331.000
75.02710 380.000
75.04704 354.000
75.06699 357.000
75.08694 381.000
75.10688 461.000
75.12683 355.000
75.14678 400.000
75.16672 388.000
75.18667 409.000
75.20662 372.000
75.22657 369.000
75.24651 387.000
75.26646 389.000
75.28641 356.000
75.30635 352.000
75.32630 371.000
75.34625 385.000
75.36619 334.000
75.38614 385.000
75.40609 353.000
75.42603 323.000
75.44598 365.000
75.46593 343.000
75.48588 317.000
75.50582 368.000
75.52577 312.000
75.54572 313.000
75.56566 291.000
75.58561 304.000
75.60556 279.000
75.62550 317.000
75.64545 304.000
75.66540 279.000
75.68535 260.000
75.70529 251.000
75.72524 283.000
75.74519 298.000
75.76513 279.000
75.78508 262.000
75.80503 242.000
75.82497 243.000
75.84492 269.000
75.86487 269.000
75.88481 267.000
75.90476 256.000
75.92471 264.000
75.94466 271.000
75.96460 281.000
75.98455 239.000
76.00450 240.000
76.02444 260.000
76.04439 253.000
76.06434 249.000
76.08428 260.000
76.10423 248.000
76.12418 223.000
76.14413 257.000
76.16407 245.000
76.18402 235.000
76.20397 252.000
76.22391 234.000
76.24386 219.000
76.26381 236.000
76.28375 234.000
76.30370 281.000
76.32365 219.000
76.34359 206.000
76.36354 222.000
76.38349 241.000
76.40344 219.000
76.42338 225.000
76.44333 228.000
76.46328 233.000
76.48322 220.000
76.50317 232.000
76.52312 249.000
76.54306 204.000
76.56301 238.000
76.58296 218.000
76.60291 245.000
76.62285 233.000
76.64280 239.000
76.66275 239.000
76.68269 224.000
76.70264 232.000
76.72259 236.000
76.74253 247.000
76.76248 247.000
76.78243 240.000
76.80238 223.000
76.82232 214.000
76.84227 232.000
76.86222 212.000
76.88216 233.000
76.90211 226.000
76.92206 235.000
76.94200 256.000
76.96195 227.000
76.98190 227.000
77.00184 222.000
77.02179 206.000
77.04174 226.000
77.06169 225.000
77.08163 226.000
77.10158 229.000
77.12153 225.000
77.14147 212.000
77.16142 259.000
77.18137 221.000
77.20131 228.000
77.22126 220.000
77.24121 213.000
77.26116 234.000
77.28110 240.000
77.30105 234.000
77.32100 229.000
77.34094 252.000
77.36089 221.000
77.38084 219.000
77.40078 219.000
77.42073 255.000
77.44068 236.000
77.46062 262.000
77.48057 220.000
77.50052 255.000
77.52047 212.000
77.54041 206.000
77.56036 207.000
77.58031 237.000
77.60025 252.000
77.62020 229.000
77.64015 232.000
77.66009 206.000
77.68004 237.000
77.69999 232.000
77.71994 229.000
77.73988 232.000
77.75983 236.000
77.77978 214.000
77.79972 268.000
77.81967 258.000
77.83962 233.000
77.85956 247.000
77.87951 282.000
77.89946 265.000
77.91940 254.000
77.93935 258.000
77.95930 271.000
77.97925 307.000
77.99919 260.000
78.01914 278.000
78.03909 290.000
78.05903 292.000
78.07898 305.000
78.09893 287.000
78.11887 309.000
78.13882 329.000
78.15877 316.000
78.17872 331.000
78.19866 324.000
78.21861 301.000
78.23856 340.000
78.25850 367.000
78.27845 331.000
78.29840 323.000
78.31834 310.000
78.33829 318.000
78.35824 310.000
78.37819 326.000
78.39813 305.000
78.41808 285.000
78.43803 293.000
78.45797 296.000
78.47792 276.000
78.49787 266.000
78.51781 274.000
78.53776 284.000
78.55771 276.000
78.57765 279.000
78.59760 259.000
78.61755 271.000
78.63750 235.000
78.65744 260.000
78.67739 263.000
78.69734 244.000
78.71728 255.000
78.73723 237.000
78.75718 265.000
78.77712 240.000
78.79707 235.000
78.81702 248.000
78.83697 240.000
78.85691 225.000
78.87686 257.000
78.89681 259.000
78.91675 278.000
78.93670 268.000
78.95665 290.000
78.97659 315.000
78.99654 301.000
79.01649 299.000
79.03643 328.000
79.05638 296.000
79.07633 326.000
79.09628 357.000
79.11622 343.000
79.13617 308.000
79.15612 288.000
79.17606 299.000
79.19601 291.000
79.21596 324.000
79.23590 333.000
79.25585 294.000
79.27580 295.000
79.29575 317.000
79.31569 299.000
79.33564 286.000
79.35559 290.000
79.37553 295.000
79.39548 287.000
79.41543 324.000
79.43537 288.000
79.45532 305.000
79.47527 249.000
79.49521 273.000
79.51516 281.000
79.53511 253.000
79.55506 255.000
79.57500 260.000
79.59495 273.000
79.61490 286.000
79.63484 249.000
79.65479 249.000
79.67474 265.000
79.69468 274.000
79.71463 247.000
79.73458 238.000
79.75453 244.000
79.77447 223.000
79.79442 233.000
79.81437 265.000
79.83431 228.000
79.85426 218.000
79.87421 254.000
79.89415 228.000
79.91410 231.000
79.93405 250.000
79.95399 241.000
79.97394 262.000
79.99389 240.000
80.01384 217.000
80.03378 222.000
80.05373 207.000
80.07368 229.000
80.09362 200.000
80.11357 219.000
80.13352 233.000
80.15346 236.000
80.17341 246.000
80.19336 240.000
80.21331 258.000
80.23325 238.000
80.25320 225.000
80.27315 226.000
80.29309 247.000
80.31304 245.000
80.33299 217.000
80.35293 256.000
80.37288 238.000
80.39283 222.000
80.41278 232.000
80.43272 237.000
80.45267 224.000
80.47262 208.000
80.49256 210.000
80.51251 240.000
80.53246 240.000
80.55240 209.000
80.57235 208.000
80.59230 239.000
80.61224 190.000
80.63219 230.000
80.65214 243.000
80.67209 208.000
80.69203 201.000
80.71198 221.000
80.73193 235.000
80.75187 220.000
80.77182 243.000
80.79177 224.000
80.81171 220.000
80.83166 225.000
80.85161 244.000
80.87156 237.000
80.89150 247.000
80.91145 245.000
80.93140 243.000
80.95134 233.000
80.97129 254.000
80.99124 222.000
81.01118 217.000
81.03113 240.000
81.05108 224.000
81.07102 224.000
81.09097 199.000
81.11092 236.000
81.13087 215.000
81.15081 236.000
81.17076 218.000
81.19071 225.000
81.21065 208.000
81.23060 210.000
81.25055 242.000
81.27049 220.000
81.29044 223.000
81.31039 195.000
81.33034 214.000
81.35028 225.000
81.37023 209.000
81.39018 231.000
81.41012 221.000
81.43007 208.000
81.45002 256.000
81.46996 270.000
81.48991 209.000
81.50986 227.000
81.52980 233.000
81.54975 188.000
81.56970 242.000
81.58965 228.000
81.60959 214.000
81.62954 228.000
81.64949 227.000
81.66943 232.000
81.68938 241.000
81.70933 211.000
81.72927 198.000
81.74922 221.000
81.76917 208.000
81.78912 215.000
81.80906 231.000
81.82901 199.000
81.84896 221.000
81.86890 234.000
81.88885 236.000
81.90880 198.000
81.92874 228.000
81.94869 231.000
81.96864 212.000
81.98859 223.000
82.00853 253.000
82.02848 226.000
82.04843 215.000
82.06837 255.000
82.08832 220.000
82.10827 254.000
82.12821 216.000
82.14816 235.000
82.16811 215.000
82.18805 246.000
82.20800 242.000
82.22795 231.000
82.24790 216.000
82.26784 267.000
82.28779 246.000
82.30774 234.000
82.32768 208.000
82.34763 249.000
82.36758 249.000
82.38752 254.000
82.40747 242.000
82.42742 250.000
82.44737 215.000
82.46731 260.000
82.48726 249.000
82.50721 239.000
82.52715 255.000
82.54710 242.000
82.56705 266.000
82.58699 260.000
82.60694 241.000
82.62689 239.000
82.64683 281.000
82.66678 216.000
82.68673 258.000
82.70668 233.000
82.72662 215.000
82.74657 235.000
82.76652 234.000
82.78646 256.000
82.80641 227.000
82.82636 269.000
82.84630 225.000
82.86625 256.000
82.88620 241.000
82.90615 264.000
82.92609 262.000
82.94604 243.000
82.96599 222.000
82.98593 241.000
83.00588 218.000
83.02583 246.000
83.04577 273.000
83.06572 214.000
83.08567 240.000
83.10561 254.000
83.12556 254.000
83.14551 224.000
83.16546 249.000
83.18540 251.000
83.20535 234.000
83.22530 244.000
83.24524 201.000
83.26519 235.000
83.28514 256.000
83.30508 256.000
83.32503 219.000
83.34498 250.000
83.36493 227.000
83.38487 217.000
83.40482 214.000
83.42477 252.000
83.44471 238.000
83.46466 247.000
83.48461 257.000
83.50455 237.000
83.52450 232.000
83.54445 242.000
83.56440 247.000
83.58434 239.000
83.60429 238.000
83.62424 224.000
83.64418 216.000
83.66413 243.000
83.68408 212.000
83.70402 268.000
83.72397 212.000
83.74392 216.000
83.76386 245.000
83.78381 224.000
83.80376 235.000
83.82371 227.000
83.84365 249.000
83.86360 227.000
83.88355 227.000
83.90349 239.000
83.92344 243.000
83.94339 236.000
83.96333 242.000
83.98328 264.000
84.00323 255.000
84.02318 211.000
84.04312 224.000
84.06307 239.000
84.08302 237.000
84.10296 203.000
84.12291 245.000
84.14286 235.000
84.16280 246.000
84.18275 215.000
84.20270 218.000
84.22264 234.000
84.24259 255.000
84.26254 221.000
84.28249 223.000
84.30243 239.000
84.32238 241.000
84.34233 234.000
84.36227 262.000
84.38222 233.000
84.40217 231.000
84.42211 251.000
84.44206 226.000
84.46201 241.000
84.48196 245.000
84.50190 213.000
84.52185 254.000
84.54180 250.000
84.56174 257.000
84.58169 269.000
84.60164 311.000
84.62158 247.000
84.64153 276.000
84.66148 294.000
84.68142 271.000
84.70137 279.000
84.72132 276.000
84.74127 290.000
84.76121 291.000
84.78116 266.000
84.80111 306.000
84.82105 267.000
84.84100 282.000
84.86095 289.000
84.88089 325.000
84.90084 282.000
84.92079 266.000
84.94074 255.000
84.96068 273.000
84.98063 263.000
85.00058 249.000
85.02052 256.000
85.04047 260.000
85.06042 240.000
85.08036 239.000
85.10031 246.000
85.12026 287.000
85.14021 260.000
85.16015 204.000
85.18010 219.000
85.20005 236.000
85.21999 239.000
85.23994 221.000
85.25989 218.000
85.27983 238.000
85.29978 239.000
85.31973 253.000
85.33967 209.000
85.35962 218.000
85.37957 254.000
85.39952 214.000
85.41946 224.000
85.43941 247.000
85.45936 236.000
85.47930 197.000
85.49925 252.000
85.51920 227.000
85.53914 207.000
85.55909 217.000
85.57904 193.000
85.59899 221.000
85.61893 240.000
85.63888 213.000
85.65883 240.000
85.67877 197.000
85.69872 234.000
85.71867 236.000
85.73861 246.000
85.75856 204.000
85.77851 205.000
85.79845 225.000
85.81840 210.000
85.83835 239.000
85.85830 206.000
85.87824 205.000
85.89819 242.000
85.91814 231.000
85.93808 234.000
85.95803 243.000
85.97798 222.000
85.99792 208.000
86.01787 245.000
86.03782 207.000
86.05777 233.000
86.07771 198.000
86.09766 255.000
86.11761 254.000
86.13755 223.000
86.15750 210.000
86.17745 226.000
86.19739 214.000
86.21734 257.000
86.23729 239.000
86.25723 222.000
86.27718 199.000
86.29713 233.000
86.31708 217.000
86.33702 203.000
86.35697 237.000
86.37692 219.000
86.39686 262.000
86.41681 205.000
86.43676 240.000
86.45670 209.000
86.47665 218.000
86.49660 243.000
86.51655 230.000
86.53649 208.000
86.55644 232.000
86.57639 213.000
86.59633 226.000
86.61628 246.000
86.63623 231.000
86.65617 230.000
86.67612 217.000
86.69607 223.000
86.71602 217.000
86.73596 205.000
86.75591 225.000
86.77586 216.000
86.79580 243.000
86.81575 223.000
86.83570 234.000
86.85564 257.000
86.87559 240.000
86.89554 219.000
86.91548 242.000
86.93543 229.000
86.95538 227.000
86.97533 227.000
86.99527 209.000
87.01522 235.000
87.03517 228.000
87.05511 260.000
87.07506 222.000
87.09501 218.000
87.11495 259.000
87.13490 247.000
87.15485 242.000
87.17480 236.000
87.19474 263.000
87.21469 245.000
87.23464 240.000
87.25458 259.000
87.27453 261.000
87.29448 244.000
87.31442 240.000
87.33437 261.000
87.35432 235.000
87.37426 249.000
87.39421 271.000
87.41416 240.000
87.43411 278.000
87.45405 258.000
87.47400 248.000
87.49395 268.000
87.51389 237.000
87.53384 254.000
87.55379 267.000
87.57373 264.000
87.59368 270.000
87.61363 262.000
87.63358 263.000
87.65352 271.000
87.67347 245.000
87.69342 245.000
87.71336 245.000
87.73331 253.000
87.75326 241.000
87.77320 254.000
87.79315 213.000
87.81310 250.000
87.83304 213.000
87.85299 244.000
87.87294 230.000
87.89289 243.000
87.91283 260.000
87.93278 225.000
87.95273 225.000
87.97267 192.000
87.99262 247.000
88.01257 264.000
88.03251 238.000
88.05246 225.000
88.07241 236.000
88.09236 229.000
88.11230 231.000
88.13225 213.000
88.15220 228.000
88.17214 229.000
88.19209 257.000
88.21204 201.000
88.23198 218.000
88.25193 222.000
88.27188 200.000
88.29183 215.000
88.31177 259.000
88.33172 197.000
88.35167 210.000
88.37161 236.000
88.39156 239.000
88.41151 230.000
88.43145 222.000
88.45140 220.000
88.47135 240.000
88.49129 244.000
88.51124 205.000
88.53119 219.000
88.55114 224.000
88.57108 233.000
88.59103 226.000
88.61098 218.000
88.63092 209.000
88.65087 206.000
88.67082 220.000
88.69076 205.000
88.71071 225.000
88.73066 218.000
88.75061 218.000
88.77055 207.000
88.79050 235.000
88.81045 220.000
88.83039 237.000
88.85034 232.000
88.87029 209.000
88.89023 206.000
88.91018 240.000
88.93013 207.000
88.95007 221.000
88.97002 238.000
88.98997 215.000
89.00992 230.000
89.02986 221.000
89.04981 224.000
89.06976 224.000
89.08970 249.000
89.10965 203.000
89.12960 235.000
89.14954 215.000
89.16949 236.000
89.18944 232.000
89.20939 241.000
89.22933 229.000
89.24928 223.000
89.26923 231.000
89.28917 239.000
89.30912 256.000
89.32907 228.000
89.34901 221.000
89.36896 238.000
89.38891 268.000
89.40885 245.000
89.42880 232.000
89.44875 254.000
89.46870 249.000
89.48864 205.000
89.50859 227.000
89.52854 244.000
89.54848 222.000
89.56843 225.000
89.58838 265.000
89.60832 236.000
89.62827 217.000
89.64822 226.000
89.66817 267.000
89.68811 230.000
89.70806 226.000
89.72801 219.000
89.74795 242.000
89.76790 236.000
89.78785 230.000
89.80779 240.000
89.82774 211.000
89.84769 229.000
89.86764 235.000
89.88758 234.000
89.90753 200.000
89.92748 235.000
89.94742 208.000
89.96737 233.000
89.98732 222.000
90.00726 234.000
