10.00000 442.000
10.01995 425.000
10.03989 432.000
10.05984 387.000
10.07979 456.000
10.09973 403.000
10.11968 465.000
10.13963 449.000
10.15958 416.000
10.17952 428.000
10.19947 408.000
10.21942 420.000
10.23936 437.000
10.25931 403.000
10.27926 409.000
10.29920 428.000
10.31915 417.000
10.33910 449.000
10.35905 385.000
10.37899 455.000
10.39894 443.000
10.41889 408.000
10.43883 427.000
10.45878 399.000
10.47873 459.000
10.49867 404.000
10.51862 431.000
10.53857 444.000
10.55851 460.000
10.57846 429.000
10.59841 454.000
10.61836 427.000
10.63830 415.000
10.65825 441.000
10.67820 451.000
10.69814 403.000
10.71809 438.000
10.73804 425.000
10.75798 406.000
10.77793 428.000
10.79788 447.000
10.81783 422.000
10.83777 423.000
10.85772 402.000
10.87767 441.000
10.89761 416.000
10.91756 424.000
10.93751 435.000
10.95745 464.000
10.97740 430.000
10.99735 441.000
11.01730 404.000
11.03724 442.000
11.05719 421.000
11.07714 428.000
11.09708 456.000
11.11703 425.000
11.13698 419.000
11.15692 403.000
11.17687 438.000
11.19682 443.000
11.21676 409.000
11.23671 427.000
11.25666 443.000
11.27661 415.000
11.29655 462.000
11.31650 409.000
11.33645 415.000
11.35639 414.000
11.37634 438.000
11.39629 402.000
11.41623 398.000
11.43618 435.000
11.45613 434.000
11.47608 411.000
11.49602 412.000
11.51597 414.000
11.53592 465.000
11.55586 468.000
11.57581 424.000
11.59576 427.000
11.61570 443.000
11.63565 443.000
11.65560 458.000
11.67554 397.000
11.69549 386.000
11.71544 455.000
11.73539 474.000
11.75533 440.000
11.77528 478.000
11.79523 427.000
11.81517 404.000
11.83512 463.000
11.85507 448.000
11.87501 407.000
11.89496 432.000
11.91491 454.000
11.93486 455.000
11.95480 444.000
11.97475 433.000
11.99470 420.000
12.01464 454.000
12.03459 464.000
12.05454 451.000
12.07448 450.000
12.09443 462.000
12.11438 454.000
12.13432 407.000
12.15427 409.000
12.17422 446.000
12.19417 427.000
12.21411 433.000
12.23406 451.000
12.25401 428.000
12.27395 452.000
12.29390 452.000
12.31385 395.000
12.33379 429.000
12.35374 465.000
12.37369 424.000
12.39364 448.000
12.41358 448.000
12.43353 439.000
12.45348 456.000
12.47342 444.000
12.49337 447.000
12.51332 449.000
12.53326 417.000
12.55321 453.000
12.57316 452.000
12.59311 409.000
12.61305 445.000
12.63300 429.000
12.65295 437.000
12.67289 459.000
12.69284 428.000
12.71279 406.000
12.73273 396.000
12.75268 410.000
12.77263 404.000
12.79257 445.000
12.81252 433.000
12.83247 432.000
12.85242 414.000
12.87236 453.000
12.89231 454.000
12.91226 398.000
12.93220 456.000
12.95215 398.000
12.97210 420.000
12.99204 410.000
13.01199 411.000
13.03194 459.000
13.05189 420.000
13.07183 438.000
13.09178 443.000
13.11173 421.000
13.13167 428.000
13.15162 477.000
13.17157 432.000
13.19151 460.000
13.21146 384.000
13.23141 434.000
13.25135 414.000
13.27130 440.000
13.29125 427.000
13.31120 426.000
13.33114 456.000
13.35109 400.000
13.37104 445.000
13.39098 469.000
13.41093 416.000
13.43088 415.000
13.45082 403.000
13.47077 438.000
13.49072 428.000
13.51067 411.000
13.53061 432.000
13.55056 453.000
13.57051 415.000
13.59045 459.000
13.61040 447.000
13.63035 451.000
13.65029 431.000
13.67024 460.000
13.69019 396.000
13.71013 420.000
13.73008 447.000
13.75003 462.000
13.76998 434.000
13.78992 432.000
13.80987 397.000
13.82982 429.000
13.84976 448.000
13.86971 415.000
13.88966 435.000
13.90960 430.000
13.92955 467.000
13.94950 422.000
13.96945 403.000
13.98939 423.000
14.00934 436.000
14.02929 396.000
14.04923 449.000
14.06918 427.000
14.08913 463.000
14.10907 413.000
14.12902 450.000
14.14897 462.000
14.16892 469.000
14.18886 431.000
14.20881 450.000
14.22876 417.000
14.24870 439.000
14.26865 431.000
14.28860 448.000
14.30854 467.000
14.32849 411.000
14.34844 428.000
14.36838 441.000
14.38833 449.000
14.40828 441.000
14.42823 470.000
14.44817 438.000
14.46812 420.000
14.48807 467.000
14.50801 414.000
14.52796 423.000
14.54791 443.000
14.56785 455.000
14.58780 481.000
14.60775 436.000
14.62770 418.000
14.64764 430.000
14.66759 441.000
14.68754 427.000
14.70748 417.000
14.72743 421.000
14.74738 413.000
14.76732 417.000
14.78727 481.000
14.80722 435.000
14.82716 417.000
14.84711 457.000
14.86706 405.000
14.88701 412.000
14.90695 438.000
14.92690 423.000
14.94685 443.000
14.96679 411.000
14.98674 393.000
15.00669 471.000
15.02663 424.000
15.04658 435.000
15.06653 464.000
15.08648 488.000
15.10642 424.000
15.12637 432.000
15.14632 437.000
15.16626 470.000
15.18621 456.000
15.20616 450.000
15.22610 446.000
15.24605 453.000
15.26600 488.000
15.28594 492.000
15.30589 472.000
15.32584 495.000
15.34579 449.000
15.36573 457.000
15.38568 483.000
15.40563 459.000
15.42557 482.000
15.44552 466.000
15.46547 451.000
15.48541 500.000
15.50536 487.000
15.52531 502.000
15.54526 505.000
15.56520 487.000
15.58515 476.000
15.60510 507.000
15.62504 517.000
15.64499 509.000
15.66494 587.000
15.68488 592.000
15.70483 677.000
15.72478 810.000
15.74472 978.000
15.76467 1278.000
15.78462 1933.000
15.80457 2755.000
15.82451 3631.000
15.84446 3928.000
15.86441 3203.000
15.88435 2286.000
15.90430 1463.000
15.92425 951.000
15.94419 674.000
15.96414 596.000
15.98409 552.000
16.00404 507.000
16.02398 483.000
16.04393 482.000
16.06388 502.000
16.08382 498.000
16.10377 502.000
16.12372 461.000
16.14366 442.000
16.16361 483.000
16.18356 474.000
16.20351 464.000
16.22345 465.000
16.24340 475.000
16.26335 493.000
16.28329 472.000
16.30324 452.000
16.32319 463.000
16.34313 455.000
16.36308 443.000
16.38303 529.000
16.40297 455.000
16.42292 471.000
16.44287 468.000
16.46282 454.000
16.48276 444.000
16.50271 445.000
16.52266 458.000
16.54260 457.000
16.56255 465.000
16.58250 484.000
16.60244 461.000
16.62239 443.000
16.64234 467.000
16.66229 440.000
16.68223 439.000
16.70218 463.000
16.72213 443.000
16.74207 464.000
16.76202 461.000
16.78197 451.000
16.80191 491.000
16.82186 527.000
16.84181 452.000
16.86175 470.000
16.88170 465.000
16.90165 476.000
16.92160 458.000
16.94154 439.000
16.96149 440.000
16.98144 456.000
17.00138 490.000
17.02133 409.000
17.04128 409.000
17.06122 494.000
17.08117 433.000
17.10112 454.000
17.12107 466.000
17.14101 459.000
17.16096 450.000
17.18091 423.000
17.20085 399.000
17.22080 452.000
17.24075 428.000
17.26069 423.000
17.28064 414.000
17.30059 465.000
17.32053 424.000
17.34048 446.000
17.36043 467.000
17.38038 428.000
17.40032 453.000
17.42027 462.000
17.44022 418.000
17.46016 447.000
17.48011 473.000
17.50006 431.000
17.52000 461.000
17.53995 462.000
17.55990 423.000
17.57985 450.000
17.59979 448.000
17.61974 441.000
17.63969 392.000
17.65963 452.000
17.67958 461.000
17.69953 433.000
17.71947 419.000
17.73942 463.000
17.75937 417.000
17.77932 434.000
17.79926 458.000
17.81921 486.000
17.83916 414.000
17.85910 451.000
17.87905 446.000
17.89900 429.000
17.91894 415.000
17.93889 450.000
17.95884 431.000
17.97878 453.000
17.99873 469.000
18.01868 447.000
18.03863 452.000
18.05857 437.000
18.07852 431.000
18.09847 451.000
18.11841 479.000
18.13836 447.000
18.15831 432.000
18.17825 458.000
18.19820 459.000
18.21815 468.000
18.23810 406.000
18.25804 449.000
18.27799 447.000
18.29794 511.000
18.31788 503.000
18.33783 536.000
18.35778 609.000
18.37772 728.000
18.39767 685.000
18.41762 644.000
18.43756 625.000
18.45751 541.000
18.47746 507.000
18.49741 491.000
18.51735 484.000
18.53730 467.000
18.55725 463.000
18.57719 443.000
18.59714 447.000
18.61709 458.000
18.63703 443.000
18.65698 453.000
18.67693 469.000
18.69688 479.000
18.71682 475.000
18.73677 469.000
18.75672 439.000
18.77666 419.000
18.79661 451.000
18.81656 435.000
18.83650 473.000
18.85645 452.000
18.87640 440.000
18.89634 435.000
18.91629 457.000
18.93624 424.000
18.95619 461.000
18.97613 449.000
18.99608 431.000
19.01603 448.000
19.03597 473.000
19.05592 463.000
19.07587 439.000
19.09581 447.000
19.11576 454.000
19.13571 467.000
19.15566 445.000
19.17560 454.000
19.19555 456.000
19.21550 448.000
19.23544 444.000
19.25539 453.000
19.27534 474.000
19.29528 450.000
19.31523 407.000
19.33518 452.000
19.35513 407.000
19.37507 448.000
19.39502 436.000
19.41497 481.000
19.43491 447.000
19.45486 422.000
19.47481 479.000
19.49475 448.000
19.51470 434.000
19.53465 449.000
19.55459 471.000
19.57454 480.000
19.59449 474.000
19.61444 459.000
19.63438 469.000
19.65433 475.000
19.67428 434.000
19.69422 433.000
19.71417 435.000
19.73412 473.000
19.75406 478.000
19.77401 443.000
19.79396 459.000
19.81391 432.000
19.83385 495.000
19.85380 473.000
19.87375 434.000
19.89369 464.000
19.91364 468.000
19.93359 468.000
19.95353 466.000
19.97348 466.000
19.99343 469.000
20.01337 433.000
20.03332 486.000
20.05327 436.000
20.07322 459.000
20.09316 461.000
20.11311 430.000
20.13306 484.000
20.15300 457.000
20.17295 464.000
20.19290 413.000
20.21284 485.000
20.23279 426.000
20.25274 494.000
20.27269 449.000
20.29263 456.000
20.31258 469.000
20.33253 422.000
20.35247 455.000
20.37242 449.000
20.39237 429.000
20.41231 473.000
20.43226 444.000
20.45221 443.000
20.47215 455.000
20.49210 460.000
20.51205 471.000
20.53200 442.000
20.55194 440.000
20.57189 484.000
20.59184 459.000
20.61178 475.000
20.63173 464.000
20.65168 450.000
20.67162 436.000
20.69157 453.000
20.71152 472.000
20.73147 517.000
20.75141 446.000
20.77136 464.000
20.79131 456.000
20.81125 476.000
20.83120 486.000
20.85115 511.000
20.87109 504.000
20.89104 522.000
20.91099 603.000
20.93094 600.000
20.95088 605.000
20.97083 690.000
20.99078 744.000
21.01072 843.000
21.03067 889.000
21.05062 838.000
21.07056 805.000
21.09051 736.000
21.11046 667.000
21.13040 585.000
21.15035 537.000
21.17030 550.000
21.19025 489.000
21.21019 477.000
21.23014 510.000
21.25009 475.000
21.27003 407.000
21.28998 439.000
21.30993 474.000
21.32987 500.000
21.34982 504.000
21.36977 442.000
21.38972 477.000
21.40966 451.000
21.42961 439.000
21.44956 442.000
21.46950 430.000
21.48945 419.000
21.50940 448.000
21.52934 492.000
21.54929 459.000
21.56924 509.000
21.58918 409.000
21.60913 461.000
21.62908 410.000
21.64903 450.000
21.66897 449.000
21.68892 458.000
21.70887 446.000
21.72881 437.000
21.74876 437.000
21.76871 467.000
21.78865 479.000
21.80860 436.000
21.82855 421.000
21.84850 438.000
21.86844 447.000
21.88839 487.000
21.90834 452.000
21.92828 465.000
21.94823 485.000
21.96818 458.000
21.98812 457.000
22.00807 474.000
22.02802 481.000
22.04796 411.000
22.06791 478.000
22.08786 475.000
22.10781 418.000
22.12775 450.000
22.14770 456.000
22.16765 474.000
22.18759 465.000
22.20754 469.000
22.22749 536.000
22.24743 452.000
22.26738 459.000
22.28733 477.000
22.30728 472.000
22.32722 445.000
22.34717 454.000
22.36712 415.000
22.38706 447.000
22.40701 452.000
22.42696 490.000
22.44690 468.000
22.46685 485.000
22.48680 470.000
22.50675 472.000
22.52669 490.000
22.54664 476.000
22.56659 492.000
22.58653 449.000
22.60648 462.000
22.62643 443.000
22.64637 480.000
22.66632 432.000
22.68627 444.000
22.70621 473.000
22.72616 503.000
22.74611 492.000
22.76606 436.000
22.78600 517.000
22.80595 473.000
22.82590 463.000
22.84584 464.000
22.86579 460.000
22.88574 467.000
22.90568 461.000
22.92563 457.000
22.94558 484.000
22.96553 442.000
22.98547 448.000
23.00542 467.000
23.02537 472.000
23.04531 461.000
23.06526 463.000
23.08521 471.000
23.10515 434.000
23.12510 484.000
23.14505 455.000
23.16499 521.000
23.18494 506.000
23.20489 432.000
23.22484 442.000
23.24478 437.000
23.26473 503.000
23.28468 447.000
23.30462 464.000
23.32457 517.000
23.34452 476.000
23.36446 479.000
23.38441 469.000
23.40436 441.000
23.42431 466.000
23.44425 461.000
23.46420 463.000
23.48415 489.000
23.50409 496.000
23.52404 446.000
23.54399 443.000
23.56393 435.000
23.58388 440.000
23.60383 468.000
23.62377 495.000
23.64372 464.000
23.66367 449.000
23.68362 452.000
23.70356 474.000
23.72351 449.000
23.74346 498.000
23.76340 490.000
23.78335 464.000
23.80330 436.000
23.82324 512.000
23.84319 496.000
23.86314 442.000
23.88309 515.000
23.90303 477.000
23.92298 487.000
23.94293 456.000
23.96287 432.000
23.98282 475.000
24.00277 491.000
24.02271 462.000
24.04266 487.000
24.06261 465.000
24.08256 462.000
24.10250 475.000
24.12245 464.000
24.14240 432.000
24.16234 469.000
24.18229 507.000
24.20224 478.000
24.22218 462.000
24.24213 485.000
24.26208 478.000
24.28202 485.000
24.30197 468.000
24.32192 498.000
24.34187 491.000
24.36181 455.000
24.38176 496.000
24.40171 486.000
24.42165 494.000
24.44160 481.000
24.46155 466.000
24.48149 448.000
24.50144 503.000
24.52139 469.000
24.54134 491.000
24.56128 467.000
24.58123 449.000
24.60118 491.000
24.62112 475.000
24.64107 483.000
24.66102 461.000
24.68096 477.000
24.70091 508.000
24.72086 529.000
24.74080 482.000
24.76075 460.000
24.78070 508.000
24.80065 457.000
24.82059 452.000
24.84054 462.000
24.86049 464.000
24.88043 477.000
24.90038 493.000
24.92033 489.000
24.94027 479.000
24.96022 499.000
24.98017 461.000
25.00012 481.000
25.02006 492.000
25.04001 469.000
25.05996 529.000
25.07990 465.000
25.09985 516.000
25.11980 499.000
25.13974 509.000
25.15969 496.000
25.17964 500.000
25.19958 500.000
25.21953 497.000
25.23948 480.000
25.25943 520.000
25.27937 511.000
25.29932 484.000
25.31927 477.000
25.33921 450.000
25.35916 476.000
25.37911 456.000
25.39905 486.000
25.41900 511.000
25.43895 480.000
25.45890 472.000
25.47884 475.000
25.49879 461.000
25.51874 479.000
25.53868 454.000
25.55863 489.000
25.57858 511.000
25.59852 502.000
25.61847 511.000
25.63842 481.000
25.65837 480.000
25.67831 460.000
25.69826 488.000
25.71821 492.000
25.73815 481.000
25.75810 490.000
25.77805 488.000
25.79799 509.000
25.81794 463.000
25.83789 484.000
25.85783 500.000
25.87778 482.000
25.89773 477.000
25.91768 514.000
25.93762 485.000
25.95757 489.000
25.97752 462.000
25.99746 520.000
26.01741 485.000
26.03736 494.000
26.05730 481.000
26.07725 496.000
26.09720 443.000
26.11715 510.000
26.13709 484.000
26.15704 478.000
26.17699 494.000
26.19693 462.000
26.21688 499.000
26.23683 502.000
26.25677 477.000
26.27672 479.000
26.29667 507.000
26.31661 529.000
26.33656 478.000
26.35651 496.000
26.37646 486.000
26.39640 520.000
26.41635 510.000
26.43630 522.000
26.45624 514.000
26.47619 511.000
26.49614 527.000
26.51608 485.000
26.53603 497.000
26.55598 531.000
26.57593 513.000
26.59587 544.000
26.61582 479.000
26.63577 546.000
26.65571 506.000
26.67566 485.000
26.69561 531.000
26.71555 515.000
26.73550 512.000
26.75545 525.000
26.77539 486.000
26.79534 490.000
26.81529 483.000
26.83524 506.000
26.85518 514.000
26.87513 512.000
26.89508 492.000
26.91502 496.000
26.93497 459.000
26.95492 518.000
26.97486 458.000
26.99481 440.000
27.01476 510.000
27.03471 507.000
27.05465 489.000
27.07460 538.000
27.09455 503.000
27.11449 497.000
27.13444 550.000
27.15439 552.000
27.17433 481.000
27.19428 544.000
27.21423 506.000
27.23417 500.000
27.25412 513.000
27.27407 556.000
27.29402 580.000
27.31396 527.000
27.33391 554.000
27.35386 481.000
27.37380 523.000
27.39375 522.000
27.41370 506.000
27.43364 557.000
27.45359 500.000
27.47354 461.000
27.49349 498.000
27.51343 493.000
27.53338 488.000
27.55333 502.000
27.57327 502.000
27.59322 554.000
27.61317 520.000
27.63311 505.000
27.65306 504.000
27.67301 548.000
27.69296 464.000
27.71290 521.000
27.73285 521.000
27.75280 517.000
27.77274 522.000
27.79269 513.000
27.81264 485.000
27.83258 492.000
27.85253 501.000
27.87248 506.000
27.89242 503.000
27.91237 484.000
27.93232 482.000
27.95227 534.000
27.97221 508.000
27.99216 488.000
28.01211 491.000
28.03205 510.000
28.05200 474.000
28.07195 477.000
28.09189 541.000
28.11184 515.000
28.13179 554.000
28.15174 502.000
28.17168 530.000
28.19163 509.000
28.21158 547.000
28.23152 508.000
28.25147 488.000
28.27142 502.000
28.29136 554.000
28.31131 539.000
28.33126 489.000
28.35120 539.000
28.37115 534.000
28.39110 533.000
28.41105 493.000
28.43099 541.000
28.45094 521.000
28.47089 556.000
28.49083 553.000
28.51078 475.000
28.53073 541.000
28.55067 498.000
28.57062 473.000
28.59057 507.000
28.61052 519.000
28.63046 488.000
28.65041 514.000
28.67036 543.000
28.69030 521.000
28.71025 500.000
28.73020 495.000
28.75014 554.000
28.77009 514.000
28.79004 530.000
28.80998 487.000
28.82993 522.000
28.84988 544.000
28.86983 512.000
28.88977 512.000
28.90972 545.000
28.92967 471.000
28.94961 581.000
28.96956 559.000
28.98951 505.000
29.00945 548.000
29.02940 505.000
29.04935 531.000
29.06930 524.000
29.08924 521.000
29.10919 565.000
29.12914 559.000
29.14908 556.000
29.16903 549.000
29.18898 529.000
29.20892 540.000
29.22887 512.000
29.24882 572.000
29.26877 536.000
29.28871 527.000
29.30866 591.000
29.32861 564.000
29.34855 585.000
29.36850 577.000
29.38845 568.000
29.40839 560.000
29.42834 608.000
29.44829 594.000
29.46823 556.000
29.48818 520.000
29.50813 585.000
29.52808 538.000
29.54802 559.000
29.56797 571.000
29.58792 519.000
29.60786 622.000
29.62781 552.000
29.64776 528.000
29.66770 562.000
29.68765 524.000
29.70760 565.000
29.72755 561.000
29.74749 558.000
29.76744 533.000
29.78739 524.000
29.80733 554.000
29.82728 488.000
29.84723 521.000
29.86717 546.000
29.88712 551.000
29.90707 553.000
29.92701 543.000
29.94696 514.000
29.96691 561.000
29.98686 545.000
30.00680 538.000
30.02675 525.000
30.04670 589.000
30.06664 564.000
30.08659 550.000
30.10654 585.000
30.12648 562.000
30.14643 588.000
30.16638 613.000
30.18633 687.000
30.20627 822.000
30.22622 964.000
30.24617 981.000
30.26611 959.000
30.28606 869.000
30.30601 872.000
30.32595 886.000
30.34590 743.000
30.36585 677.000
30.38579 607.000
30.40574 601.000
30.42569 565.000
30.44564 567.000
30.46558 556.000
30.48553 568.000
30.50548 541.000
30.52542 578.000
30.54537 551.000
30.56532 544.000
30.58526 548.000
30.60521 579.000
30.62516 540.000
30.64511 555.000
30.66505 527.000
30.68500 525.000
30.70495 525.000
30.72489 586.000
30.74484 531.000
30.76479 522.000
30.78473 528.000
30.80468 524.000
30.82463 577.000
30.84458 546.000
30.86452 541.000
30.88447 537.000
30.90442 537.000
30.92436 540.000
30.94431 549.000
30.96426 515.000
30.98420 568.000
31.00415 520.000
31.02410 529.000
31.04404 508.000
31.06399 563.000
31.08394 541.000
31.10389 507.000
31.12383 546.000
31.14378 564.000
31.16373 529.000
31.18367 522.000
31.20362 591.000
31.22357 523.000
31.24351 564.000
31.26346 534.000
31.28341 528.000
31.30336 593.000
31.32330 533.000
31.34325 566.000
31.36320 588.000
31.38314 539.000
31.40309 576.000
31.42304 513.000
31.44298 592.000
31.46293 532.000
31.48288 551.000
31.50282 530.000
31.52277 564.000
31.54272 555.000
31.56267 548.000
31.58261 537.000
31.60256 550.000
31.62251 538.000
31.64245 569.000
31.66240 548.000
31.68235 559.000
31.70229 588.000
31.72224 552.000
31.74219 507.000
31.76214 543.000
31.78208 557.000
31.80203 528.000
31.82198 591.000
31.84192 602.000
31.86187 559.000
31.88182 574.000
31.90176 637.000
31.92171 644.000
31.94166 656.000
31.96160 778.000
31.98155 801.000
32.00150 788.000
32.02145 766.000
32.04139 770.000
32.06134 726.000
32.08129 710.000
32.10123 690.000
32.12118 658.000
32.14113 594.000
32.16107 553.000
32.18102 583.000
32.20097 527.000
32.22092 606.000
32.24086 582.000
32.26081 535.000
32.28076 631.000
32.30070 592.000
32.32065 621.000
32.34060 622.000
32.36054 673.000
32.38049 729.000
32.40044 712.000
32.42039 799.000
32.44033 900.000
32.46028 961.000
32.48023 974.000
32.50017 895.000
32.52012 880.000
32.54007 817.000
32.56001 754.000
32.57996 760.000
32.59991 699.000
32.61985 687.000
32.63980 632.000
32.65975 569.000
32.67970 597.000
32.69964 536.000
32.71959 516.000
32.73954 558.000
32.75948 545.000
32.77943 549.000
32.79938 512.000
32.81932 572.000
32.83927 571.000
32.85922 546.000
32.87917 560.000
32.89911 584.000
32.91906 584.000
32.93901 524.000
32.95895 547.000
32.97890 507.000
32.99885 545.000
33.01879 532.000
33.03874 569.000
33.05869 536.000
33.07863 566.000
33.09858 525.000
33.11853 553.000
33.13848 489.000
33.15842 577.000
33.17837 540.000
33.19832 557.000
33.21826 540.000
33.23821 574.000
33.25816 538.000
33.27810 519.000
33.29805 520.000
33.31800 518.000
33.33795 535.000
33.35789 512.000
33.37784 514.000
33.39779 537.000
33.41773 554.000
33.43768 556.000
33.45763 517.000
33.47757 553.000
33.49752 550.000
33.51747 546.000
33.53741 522.000
33.55736 548.000
33.57731 554.000
33.59726 508.000
33.61720 550.000
33.63715 581.000
33.65710 542.000
33.67704 537.000
33.69699 530.000
33.71694 560.000
33.73688 516.000
33.75683 526.000
33.77678 549.000
33.79673 501.000
33.81667 585.000
33.83662 518.000
33.85657 526.000
33.87651 521.000
33.89646 505.000
33.91641 549.000
33.93635 531.000
33.95630 580.000
33.97625 556.000
33.99620 537.000
34.01614 540.000
34.03609 539.000
34.05604 515.000
34.07598 557.000
34.09593 533.000
34.11588 549.000
34.13582 549.000
34.15577 504.000
34.17572 606.000
34.19566 568.000
34.21561 571.000
34.23556 608.000
34.25551 543.000
34.27545 600.000
34.29540 578.000
34.31535 587.000
34.33529 555.000
34.35524 566.000
34.37519 558.000
34.39513 585.000
34.41508 608.000
34.43503 570.000
34.45498 702.000
34.47492 678.000
34.49487 669.000
34.51482 706.000
34.53476 652.000
34.55471 726.000
34.57466 720.000
34.59460 777.000
34.61455 775.000
34.63450 847.000
34.65444 812.000
34.67439 820.000
34.69434 885.000
34.71429 861.000
34.73423 885.000
34.75418 886.000
34.77413 832.000
34.79407 799.000
34.81402 745.000
34.83397 729.000
34.85391 736.000
34.87386 722.000
34.89381 725.000
34.91376 690.000
34.93370 657.000
34.95365 664.000
34.97360 696.000
34.99354 693.000
35.01349 690.000
35.03344 677.000
35.05338 726.000
35.07333 691.000
35.09328 751.000
35.11322 782.000
35.13317 797.000
35.15312 748.000
35.17307 847.000
35.19301 851.000
35.21296 914.000
35.23291 975.000
35.25285 1003.000
35.27280 1038.000
35.29275 1177.000
35.31269 1309.000
35.33264 1502.000
35.35259 1833.000
35.37254 2369.000
35.39248 3025.000
35.41243 3327.000
35.43238 3361.000
35.45232 3471.000
35.47227 4040.000
35.49222 4834.000
35.51216 5449.000
35.53211 5286.000
35.55206 4801.000
35.57201 4547.000
35.59195 4492.000
35.61190 4675.000
35.63185 4316.000
35.65179 3526.000
35.67174 2974.000
35.69169 2544.000
35.71163 2374.000
35.73158 2051.000
35.75153 1810.000
35.77147 1473.000
35.79142 1261.000
35.81137 1199.000
35.83132 1001.000
35.85126 933.000
35.87121 878.000
35.89116 868.000
35.91110 813.000
35.93105 759.000
35.95100 734.000
35.97094 698.000
35.99089 661.000
36.01084 643.000
36.03079 640.000
36.05073 670.000
36.07068 607.000
36.09063 628.000
36.11057 648.000
36.13052 609.000
36.15047 634.000
36.17041 580.000
36.19036 585.000
36.21031 607.000
36.23025 604.000
36.25020 591.000
36.27015 620.000
36.29010 637.000
36.31004 569.000
36.32999 581.000
36.34994 593.000
36.36988 604.000
36.38983 629.000
36.40978 609.000
36.42972 623.000
36.44967 590.000
36.46962 575.000
36.48957 593.000
36.50951 613.000
36.52946 592.000
36.54941 609.000
36.56935 618.000
36.58930 607.000
36.60925 577.000
36.62919 560.000
36.64914 546.000
36.66909 602.000
36.68903 588.000
36.70898 605.000
36.72893 573.000
36.74888 559.000
36.76882 601.000
36.78877 579.000
36.80872 590.000
36.82866 585.000
36.84861 575.000
36.86856 585.000
36.88850 585.000
36.90845 576.000
36.92840 594.000
36.94835 633.000
36.96829 606.000
36.98824 601.000
37.00819 657.000
37.02813 667.000
37.04808 718.000
37.06803 737.000
37.08797 782.000
37.10792 858.000
37.12787 882.000
37.14781 941.000
37.16776 941.000
37.18771 914.000
37.20766 919.000
37.22760 825.000
37.24755 845.000
37.26750 848.000
37.28744 832.000
37.30739 759.000
37.32734 724.000
37.34728 733.000
37.36723 684.000
37.38718 653.000
37.40713 618.000
37.42707 629.000
37.44702 640.000
37.46697 614.000
37.48691 593.000
37.50686 592.000
37.52681 602.000
37.54675 607.000
37.56670 617.000
37.58665 549.000
37.60660 590.000
37.62654 586.000
37.64649 586.000
37.66644 610.000
37.68638 572.000
37.70633 568.000
37.72628 567.000
37.74622 579.000
37.76617 611.000
37.78612 587.000
37.80606 592.000
37.82601 603.000
37.84596 592.000
37.86591 546.000
37.88585 612.000
37.90580 623.000
37.92575 614.000
37.94569 622.000
37.96564 652.000
37.98559 621.000
38.00553 641.000
38.02548 692.000
38.04543 676.000
38.06538 740.000
38.08532 698.000
38.10527 661.000
38.12522 731.000
38.14516 743.000
38.16511 751.000
38.18506 721.000
38.20500 749.000
38.22495 751.000
38.24490 751.000
38.26484 812.000
38.28479 821.000
38.30474 850.000
38.32469 891.000
38.34463 872.000
38.36458 1008.000
38.38453 988.000
38.40447 1055.000
38.42442 1147.000
38.44437 1140.000
38.46431 1283.000
38.48426 1391.000
38.50421 1498.000
38.52416 1716.000
38.54410 1992.000
38.56405 2455.000
38.58400 2880.000
38.60394 3698.000
38.62389 4232.000
38.64384 4429.000
38.66378 4405.000
38.68373 4315.000
38.70368 4017.000
38.72362 3954.000
38.74357 3520.000
38.76352 3133.000
38.78347 2648.000
38.80341 2215.000
38.82336 1885.000
38.84331 1793.000
38.86325 1530.000
38.88320 1499.000
38.90315 1541.000
38.92309 1460.000
38.94304 1497.000
38.96299 1516.000
38.98294 1612.000
39.00288 1553.000
39.02283 1454.000
39.04278 1333.000
39.06272 1288.000
39.08267 1194.000
39.10262 1239.000
39.12256 1105.000
39.14251 1015.000
39.16246 904.000
39.18241 893.000
39.20235 888.000
39.22230 918.000
39.24225 923.000
39.26219 1005.000
39.28214 1017.000
39.30209 1004.000
39.32203 1086.000
39.34198 1052.000
39.36193 976.000
39.38187 1001.000
39.40182 992.000
39.42177 902.000
39.44172 825.000
39.46166 768.000
39.48161 758.000
39.50156 719.000
39.52150 640.000
39.54145 629.000
39.56140 586.000
39.58134 623.000
39.60129 629.000
39.62124 629.000
39.64119 561.000
39.66113 622.000
39.68108 553.000
39.70103 541.000
39.72097 609.000
39.74092 554.000
39.76087 558.000
39.78081 560.000
39.80076 536.000
39.82071 553.000
39.84065 557.000
39.86060 592.000
39.88055 538.000
39.90050 558.000
39.92044 543.000
39.94039 568.000
39.96034 555.000
39.98028 525.000
40.00023 504.000
40.02018 564.000
40.04012 561.000
40.06007 614.000
40.08002 545.000
40.09997 549.000
40.11991 557.000
40.13986 594.000
40.15981 566.000
40.17975 498.000
40.19970 495.000
40.21965 514.000
40.23959 500.000
40.25954 491.000
40.27949 505.000
40.29943 505.000
40.31938 535.000
40.33933 539.000
40.35928 556.000
40.37922 561.000
40.39917 561.000
40.41912 562.000
40.43906 545.000
40.45901 550.000
40.47896 536.000
40.49890 548.000
40.51885 526.000
40.53880 538.000
40.55875 534.000
40.57869 537.000
40.59864 515.000
40.61859 487.000
40.63853 551.000
40.65848 525.000
40.67843 505.000
40.69837 548.000
40.71832 551.000
40.73827 494.000
40.75822 558.000
40.77816 540.000
40.79811 525.000
40.81806 522.000
40.83800 506.000
40.85795 556.000
40.87790 506.000
40.89784 534.000
40.91779 558.000
40.93774 504.000
40.95768 529.000
40.97763 495.000
40.99758 528.000
41.01753 502.000
41.03747 489.000
41.05742 522.000
41.07737 529.000
41.09731 549.000
41.11726 540.000
41.13721 527.000
41.15715 527.000
41.17710 498.000
41.19705 496.000
41.21700 522.000
41.23694 514.000
41.25689 519.000
41.27684 486.000
41.29678 502.000
41.31673 489.000
41.33668 501.000
41.35662 545.000
41.37657 548.000
41.39652 508.000
41.41646 510.000
41.43641 533.000
41.45636 488.000
41.47631 536.000
41.49625 551.000
41.51620 556.000
41.53615 487.000
41.55609 492.000
41.57604 528.000
41.59599 572.000
41.61593 520.000
41.63588 492.000
41.65583 499.000
41.67578 535.000
41.69572 508.000
41.71567 545.000
41.73562 510.000
41.75556 532.000
41.77551 486.000
41.79546 527.000
41.81540 505.000
41.83535 529.000
41.85530 539.000
41.87524 563.000
41.89519 533.000
41.91514 548.000
41.93509 540.000
41.95503 498.000
41.97498 557.000
41.99493 522.000
42.01487 513.000
42.03482 534.000
42.05477 490.000
42.07471 537.000
42.09466 529.000
42.11461 481.000
42.13456 514.000
42.15450 525.000
42.17445 493.000
42.19440 529.000
42.21434 498.000
42.23429 528.000
42.25424 536.000
42.27418 535.000
42.29413 502.000
42.31408 535.000
42.33403 492.000
42.35397 558.000
42.37392 558.000
42.39387 548.000
42.41381 495.000
42.43376 526.000
42.45371 510.000
42.47365 540.000
42.49360 509.000
42.51355 546.000
42.53349 553.000
42.55344 509.000
42.57339 574.000
42.59334 542.000
42.61328 586.000
42.63323 542.000
42.65318 561.000
42.67312 518.000
42.69307 521.000
42.71302 514.000
42.73296 556.000
42.75291 538.000
42.77286 548.000
42.79281 547.000
42.81275 587.000
42.83270 582.000
42.85265 616.000
42.87259 572.000
42.89254 615.000
42.91249 620.000
42.93243 621.000
42.95238 646.000
42.97233 619.000
42.99227 668.000
43.01222 670.000
43.03217 713.000
43.05212 781.000
43.07206 799.000
43.09201 809.000
43.11196 860.000
43.13190 891.000
43.15185 913.000
43.17180 1036.000
43.19174 969.000
43.21169 964.000
43.23164 1001.000
43.25159 981.000
43.27153 1024.000
43.29148 1093.000
43.31143 1065.000
43.33137 1070.000
43.35132 1014.000
43.37127 944.000
43.39121 973.000
43.41116 972.000
43.43111 900.000
43.45105 890.000
43.47100 874.000
43.49095 786.000
43.51090 744.000
43.53084 731.000
43.55079 731.000
43.57074 656.000
43.59068 633.000
43.61063 612.000
43.63058 600.000
43.65052 626.000
43.67047 614.000
43.69042 568.000
43.71037 541.000
43.73031 559.000
43.75026 569.000
43.77021 521.000
43.79015 545.000
43.81010 535.000
43.83005 540.000
43.84999 532.000
43.86994 520.000
43.88989 524.000
43.90984 495.000
43.92978 524.000
43.94973 516.000
43.96968 491.000
43.98962 526.000
44.00957 540.000
44.02952 483.000
44.04946 518.000
44.06941 570.000
44.08936 483.000
44.10930 538.000
44.12925 517.000
44.14920 542.000
44.16915 507.000
44.18909 501.000
44.20904 505.000
44.22899 526.000
44.24893 499.000
44.26888 515.000
44.28883 497.000
44.30877 514.000
44.32872 485.000
44.34867 503.000
44.36862 489.000
44.38856 515.000
44.40851 535.000
44.42846 518.000
44.44840 516.000
44.46835 564.000
44.48830 523.000
44.50824 518.000
44.52819 503.000
44.54814 502.000
44.56808 523.000
44.58803 518.000
44.60798 554.000
44.62793 548.000
44.64787 513.000
44.66782 522.000
44.68777 548.000
44.70771 521.000
44.72766 509.000
44.74761 546.000
44.76755 498.000
44.78750 488.000
44.80745 520.000
44.82740 507.000
44.84734 533.000
44.86729 488.000
44.88724 547.000
44.90718 509.000
44.92713 484.000
44.94708 526.000
44.96702 506.000
44.98697 525.000
45.00692 559.000
45.02686 480.000
45.04681 513.000
45.06676 505.000
45.08671 528.000
45.10665 535.000
45.12660 511.000
45.14655 574.000
45.16649 502.000
45.18644 519.000
45.20639 573.000
45.22633 475.000
45.24628 544.000
45.26623 515.000
45.28618 556.000
45.30612 518.000
45.32607 505.000
45.34602 503.000
45.36596 528.000
45.38591 488.000
45.40586 488.000
45.42580 524.000
45.44575 513.000
45.46570 500.000
45.48565 496.000
45.50559 517.000
45.52554 513.000
45.54549 488.000
45.56543 548.000
45.58538 538.000
45.60533 525.000
45.62527 480.000
45.64522 519.000
45.66517 510.000
45.68511 542.000
45.70506 517.000
45.72501 523.000
45.74496 529.000
45.76490 525.000
45.78485 503.000
45.80480 538.000
45.82474 504.000
45.84469 508.000
45.86464 490.000
45.88458 511.000
45.90453 503.000
45.92448 502.000
45.94443 498.000
45.96437 555.000
45.98432 526.000
46.00427 514.000
46.02421 513.000
46.04416 498.000
46.06411 521.000
46.08405 500.000
46.10400 554.000
46.12395 518.000
46.14389 532.000
46.16384 580.000
46.18379 537.000
46.20374 558.000
46.22368 557.000
46.24363 587.000
46.26358 584.000
46.28352 585.000
46.30347 527.000
46.32342 559.000
46.34336 555.000
46.36331 518.000
46.38326 569.000
46.40321 496.000
46.42315 550.000
46.44310 510.000
46.46305 526.000
46.48299 503.000
46.50294 536.000
46.52289 508.000
46.54283 542.000
46.56278 530.000
46.58273 556.000
46.60267 563.000
46.62262 509.000
46.64257 500.000
46.66252 527.000
46.68246 491.000
46.70241 541.000
46.72236 478.000
46.74230 497.000
46.76225 550.000
46.78220 533.000
46.80214 506.000
46.82209 513.000
46.84204 525.000
46.86199 487.000
46.88193 512.000
46.90188 543.000
46.92183 512.000
46.94177 522.000
46.96172 546.000
46.98167 487.000
47.00161 533.000
47.02156 503.000
47.04151 517.000
47.06146 492.000
47.08140 499.000
47.10135 556.000
47.12130 530.000
47.14124 534.000
47.16119 489.000
47.18114 494.000
47.20108 515.000
47.22103 553.000
47.24098 492.000
47.26092 504.000
47.28087 519.000
47.30082 508.000
47.32077 474.000
47.34071 493.000
47.36066 509.000
47.38061 496.000
47.40055 528.000
47.42050 494.000
47.44045 498.000
47.46039 534.000
47.48034 497.000
47.50029 533.000
47.52024 489.000
47.54018 494.000
47.56013 523.000
47.58008 530.000
47.60002 521.000
47.61997 538.000
47.63992 498.000
47.65986 516.000
47.67981 488.000
47.69976 482.000
47.71970 507.000
47.73965 514.000
47.75960 510.000
47.77955 530.000
47.79949 538.000
47.81944 514.000
47.83939 511.000
47.85933 506.000
47.87928 528.000
47.89923 553.000
47.91917 520.000
47.93912 525.000
47.95907 536.000
47.97902 567.000
47.99896 543.000
48.01891 565.000
48.03886 559.000
48.05880 584.000
48.07875 533.000
48.09870 540.000
48.11864 524.000
48.13859 535.000
48.15854 597.000
48.17848 581.000
48.19843 524.000
48.21838 538.000
48.23833 552.000
48.25827 514.000
48.27822 570.000
48.29817 530.000
48.31811 545.000
48.33806 527.000
48.35801 590.000
48.37795 591.000
48.39790 578.000
48.41785 589.000
48.43780 579.000
48.45774 567.000
48.47769 650.000
48.49764 619.000
48.51758 628.000
48.53753 658.000
48.55748 728.000
48.57742 695.000
48.59737 718.000
48.61732 835.000
48.63726 905.000
48.65721 965.000
48.67716 1068.000
48.69711 1130.000
48.71705 1276.000
48.73700 1297.000
48.75695 1403.000
48.77689 1533.000
48.79684 1662.000
48.81679 1728.000
48.83673 1704.000
48.85668 1703.000
48.87663 1644.000
48.89658 1588.000
48.91652 1541.000
48.93647 1410.000
48.95642 1307.000
48.97636 1184.000
48.99631 1109.000
49.01626 1048.000
49.03620 953.000
49.05615 872.000
49.07610 817.000
49.09605 722.000
49.11599 727.000
49.13594 710.000
49.15589 639.000
49.17583 623.000
49.19578 682.000
49.21573 656.000
49.23567 621.000
49.25562 588.000
49.27557 602.000
49.29551 572.000
49.31546 609.000
49.33541 537.000
49.35536 544.000
49.37530 510.000
49.39525 554.000
49.41520 586.000
49.43514 565.000
49.45509 587.000
49.47504 578.000
49.49498 529.000
49.51493 530.000
49.53488 485.000
49.55483 552.000
49.57477 540.000
49.59472 566.000
49.61467 552.000
49.63461 549.000
49.65456 579.000
49.67451 580.000
49.69445 541.000
49.71440 521.000
49.73435 519.000
49.75429 610.000
49.77424 560.000
49.79419 561.000
49.81414 538.000
49.83408 555.000
49.85403 535.000
49.87398 576.000
49.89392 576.000
49.91387 559.000
49.93382 545.000
49.95376 514.000
49.97371 499.000
49.99366 527.000
50.01361 542.000
50.03355 522.000
50.05350 553.000
50.07345 508.000
50.09339 560.000
50.11334 530.000
50.13329 507.000
50.15323 581.000
50.17318 523.000
50.19313 513.000
50.21307 481.000
50.23302 501.000
50.25297 535.000
50.27292 571.000
50.29286 522.000
50.31281 465.000
50.33276 501.000
50.35270 522.000
50.37265 500.000
50.39260 504.000
50.41254 521.000
50.43249 574.000
50.45244 513.000
50.47239 552.000
50.49233 494.000
50.51228 498.000
50.53223 540.000
50.55217 529.000
50.57212 520.000
50.59207 519.000
50.61201 541.000
50.63196 488.000
50.65191 515.000
50.67186 510.000
50.69180 507.000
50.71175 512.000
50.73170 510.000
50.75164 506.000
50.77159 517.000
50.79154 546.000
50.81148 514.000
50.83143 522.000
50.85138 506.000
50.87132 598.000
50.89127 471.000
50.91122 526.000
50.93117 558.000
50.95111 503.000
50.97106 507.000
50.99101 503.000
51.01095 438.000
51.03090 556.000
51.05085 499.000
51.07079 467.000
51.09074 542.000
51.11069 551.000
51.13064 552.000
51.15058 518.000
51.17053 536.000
51.19048 581.000
51.21042 563.000
51.23037 560.000
51.25032 587.000
51.27026 535.000
51.29021 565.000
51.31016 559.000
51.33010 565.000
51.35005 527.000
51.37000 545.000
51.38995 552.000
51.40989 514.000
51.42984 528.000
51.44979 582.000
51.46973 567.000
51.48968 490.000
51.50963 527.000
51.52957 549.000
51.54952 478.000
51.56947 516.000
51.58942 510.000
51.60936 513.000
51.62931 516.000
51.64926 513.000
51.66920 535.000
51.68915 567.000
51.70910 493.000
51.72904 524.000
51.74899 513.000
51.76894 510.000
51.78888 557.000
51.80883 517.000
51.82878 526.000
51.84873 477.000
51.86867 488.000
51.88862 519.000
51.90857 483.000
51.92851 495.000
51.94846 553.000
51.96841 504.000
51.98835 492.000
52.00830 530.000
52.02825 539.000
52.04820 532.000
52.06814 511.000
52.08809 540.000
52.10804 528.000
52.12798 538.000
52.14793 506.000
52.16788 510.000
52.18782 501.000
52.20777 491.000
52.22772 533.000
52.24767 529.000
52.26761 549.000
52.28756 470.000
52.30751 525.000
52.32745 498.000
52.34740 520.000
52.36735 501.000
52.38729 539.000
52.40724 508.000
52.42719 557.000
52.44713 533.000
52.46708 496.000
52.48703 461.000
52.50698 517.000
52.52692 520.000
52.54687 491.000
52.56682 505.000
52.58676 553.000
52.60671 484.000
52.62666 515.000
52.64660 484.000
52.66655 516.000
52.68650 525.000
52.70645 520.000
52.72639 527.000
52.74634 519.000
52.76629 501.000
52.78623 537.000
52.80618 570.000
52.82613 572.000
52.84607 542.000
52.86602 510.000
52.88597 529.000
52.90591 502.000
52.92586 543.000
52.94581 538.000
52.96576 496.000
52.98570 530.000
53.00565 524.000
53.02560 557.000
53.04554 547.000
53.06549 571.000
53.08544 597.000
53.10538 579.000
53.12533 664.000
53.14528 628.000
53.16523 644.000
53.18517 624.000
53.20512 628.000
53.22507 655.000
53.24501 695.000
53.26496 647.000
53.28491 768.000
53.30485 736.000
53.32480 725.000
53.34475 699.000
53.36469 771.000
53.38464 697.000
53.40459 722.000
53.42454 728.000
53.44448 707.000
53.46443 733.000
53.48438 699.000
53.50432 664.000
53.52427 661.000
53.54422 652.000
53.56416 614.000
53.58411 601.000
53.60406 604.000
53.62401 571.000
53.64395 654.000
53.66390 588.000
53.68385 634.000
53.70379 646.000
53.72374 659.000
53.74369 629.000
53.76363 662.000
53.78358 597.000
53.80353 589.000
53.82348 603.000
53.84342 604.000
53.86337 595.000
53.88332 549.000
53.90326 527.000
53.92321 554.000
53.94316 502.000
53.96310 554.000
53.98305 511.000
54.00300 512.000
54.02294 504.000
54.04289 502.000
54.06284 508.000
54.08279 480.000
54.10273 495.000
54.12268 488.000
54.14263 469.000
54.16257 511.000
54.18252 501.000
54.20247 514.000
54.22241 472.000
54.24236 539.000
54.26231 489.000
54.28226 506.000
54.30220 521.000
54.32215 502.000
54.34210 516.000
54.36204 507.000
54.38199 528.000
54.40194 529.000
54.42188 489.000
54.44183 523.000
54.46178 511.000
54.48172 514.000
54.50167 504.000
54.52162 506.000
54.54157 513.000
54.56151 490.000
54.58146 513.000
54.60141 546.000
54.62135 502.000
54.64130 507.000
54.66125 506.000
54.68119 517.000
54.70114 507.000
54.72109 510.000
54.74104 506.000
54.76098 477.000
54.78093 533.000
54.80088 510.000
54.82082 502.000
54.84077 534.000
54.86072 480.000
54.88066 487.000
54.90061 433.000
54.92056 503.000
54.94050 489.000
54.96045 483.000
54.98040 514.000
55.00035 509.000
55.02029 510.000
55.04024 463.000
55.06019 532.000
55.08013 514.000
55.10008 501.000
55.12003 471.000
55.13997 484.000
55.15992 499.000
55.17987 508.000
55.19982 524.000
55.21976 502.000
55.23971 486.000
55.25966 453.000
55.27960 485.000
55.29955 495.000
55.31950 502.000
55.33944 466.000
55.35939 510.000
55.37934 521.000
55.39929 498.000
55.41923 490.000
55.43918 520.000
55.45913 489.000
55.47907 513.000
55.49902 464.000
55.51897 499.000
55.53891 466.000
55.55886 512.000
55.57881 502.000
55.59875 503.000
55.61870 481.000
55.63865 521.000
55.65860 518.000
55.67854 513.000
55.69849 511.000
55.71844 513.000
55.73838 489.000
55.75833 512.000
55.77828 477.000
55.79822 537.000
55.81817 477.000
55.83812 488.000
55.85807 505.000
55.87801 506.000
55.89796 481.000
55.91791 447.000
55.93785 494.000
55.95780 521.000
55.97775 492.000
55.99769 485.000
56.01764 518.000
56.03759 497.000
56.05753 490.000
56.07748 518.000
56.09743 504.000
56.11738 475.000
56.13732 493.000
56.15727 514.000
56.17722 502.000
56.19716 500.000
56.21711 487.000
56.23706 527.000
56.25700 496.000
56.27695 523.000
56.29690 499.000
56.31685 506.000
56.33679 519.000
56.35674 545.000
56.37669 482.000
56.39663 496.000
56.41658 488.000
56.43653 486.000
56.45647 520.000
56.47642 551.000
56.49637 515.000
56.51631 487.000
56.53626 491.000
56.55621 488.000
56.57616 507.000
56.59610 589.000
56.61605 553.000
56.63600 526.000
56.65594 530.000
56.67589 494.000
56.69584 544.000
56.71578 558.000
56.73573 516.000
56.75568 526.000
56.77563 489.000
56.79557 507.000
56.81552 510.000
56.83547 551.000
56.85541 527.000
56.87536 501.000
56.89531 536.000
56.91525 555.000
56.93520 531.000
56.95515 519.000
56.97510 512.000
56.99504 565.000
57.01499 509.000
57.03494 519.000
57.05488 552.000
57.07483 535.000
57.09478 520.000
57.11472 563.000
57.13467 566.000
57.15462 569.000
57.17456 579.000
57.19451 653.000
57.21446 639.000
57.23441 693.000
57.25435 745.000
57.27430 818.000
57.29425 825.000
57.31419 750.000
57.33414 703.000
57.35409 695.000
57.37403 706.000
57.39398 726.000
57.41393 720.000
57.43388 732.000
57.45382 716.000
57.47377 661.000
57.49372 615.000
57.51366 613.000
57.53361 619.000
57.55356 609.000
57.57350 576.000
57.59345 579.000
57.61340 576.000
57.63334 541.000
57.65329 529.000
57.67324 559.000
57.69319 567.000
57.71313 509.000
57.73308 561.000
57.75303 559.000
57.77297 557.000
57.79292 596.000
57.81287 552.000
57.83281 562.000
57.85276 539.000
57.87271 534.000
57.89266 617.000
57.91260 557.000
57.93255 560.000
57.95250 567.000
57.97244 612.000
57.99239 599.000
58.01234 589.000
58.03228 618.000
58.05223 610.000
58.07218 685.000
58.09212 696.000
58.11207 677.000
58.13202 688.000
58.15197 759.000
58.17191 811.000
58.19186 876.000
58.21181 884.000
58.23175 926.000
58.25170 923.000
58.27165 835.000
58.29159 802.000
58.31154 832.000
58.33149 794.000
58.35144 781.000
58.37138 721.000
58.39133 728.000
58.41128 773.000
58.43122 715.000
58.45117 678.000
58.47112 637.000
58.49106 583.000
58.51101 649.000
58.53096 597.000
58.55090 553.000
58.57085 565.000
58.59080 555.000
58.61075 552.000
58.63069 532.000
58.65064 571.000
58.67059 522.000
58.69053 500.000
58.71048 513.000
58.73043 505.000
58.75037 497.000
58.77032 520.000
58.79027 497.000
58.81022 505.000
58.83016 512.000
58.85011 516.000
58.87006 501.000
58.89000 516.000
58.90995 461.000
58.92990 534.000
58.94984 546.000
58.96979 535.000
58.98974 528.000
59.00969 525.000
59.02963 512.000
59.04958 519.000
59.06953 547.000
59.08947 503.000
59.10942 532.000
59.12937 567.000
59.14931 513.000
59.16926 518.000
59.18921 477.000
59.20915 531.000
59.22910 547.000
59.24905 479.000
59.26900 501.000
59.28894 497.000
59.30889 543.000
59.32884 517.000
59.34878 515.000
59.36873 512.000
59.38868 511.000
59.40862 504.000
59.42857 489.000
59.44852 479.000
59.46847 551.000
59.48841 522.000
59.50836 506.000
59.52831 474.000
59.54825 489.000
59.56820 471.000
59.58815 527.000
59.60809 490.000
59.62804 540.000
59.64799 507.000
59.66793 496.000
59.68788 496.000
59.70783 549.000
59.72778 496.000
59.74772 472.000
59.76767 511.000
59.78762 527.000
59.80756 514.000
59.82751 505.000
59.84746 527.000
59.86740 507.000
59.88735 511.000
59.90730 476.000
59.92725 530.000
59.94719 501.000
59.96714 505.000
59.98709 521.000
60.00703 497.000
60.02698 496.000
60.04693 522.000
60.06687 481.000
60.08682 527.000
60.10677 504.000
60.12671 512.000
60.14666 537.000
60.16661 505.000
60.18656 497.000
60.20650 541.000
60.22645 491.000
60.24640 473.000
60.26634 443.000
60.28629 522.000
60.30624 509.000
60.32618 528.000
60.34613 561.000
60.36608 509.000
60.38603 500.000
60.40597 483.000
60.42592 503.000
60.44587 507.000
60.46581 511.000
60.48576 506.000
60.50571 477.000
60.52565 500.000
60.54560 565.000
60.56555 502.000
60.58550 533.000
60.60544 497.000
60.62539 506.000
60.64534 512.000
60.66528 493.000
60.68523 507.000
60.70518 548.000
60.72512 524.000
60.74507 528.000
60.76502 504.000
60.78496 502.000
60.80491 525.000
60.82486 537.000
60.84481 521.000
60.86475 493.000
60.88470 523.000
60.90465 534.000
60.92459 563.000
60.94454 518.000
60.96449 523.000
60.98443 544.000
61.00438 539.000
61.02433 539.000
61.04428 532.000
61.06422 532.000
61.08417 589.000
61.10412 537.000
61.12406 551.000
61.14401 552.000
61.16396 539.000
61.18390 603.000
61.20385 558.000
61.22380 564.000
61.24374 607.000
61.26369 598.000
61.28364 598.000
61.30359 629.000
61.32353 688.000
61.34348 672.000
61.36343 628.000
61.38337 694.000
61.40332 762.000
61.42327 763.000
61.44321 848.000
61.46316 947.000
61.48311 1007.000
61.50306 1196.000
61.52300 1164.000
61.54295 1181.000
61.56290 1237.000
61.58284 1190.000
61.60279 1014.000
61.62274 1009.000
61.64268 945.000
61.66263 946.000
61.68258 962.000
61.70252 950.000
61.72247 906.000
61.74242 842.000
61.76237 859.000
61.78231 772.000
61.80226 759.000
61.82221 751.000
61.84215 705.000
61.86210 712.000
61.88205 674.000
61.90199 709.000
61.92194 693.000
61.94189 680.000
61.96184 766.000
61.98178 664.000
62.00173 690.000
62.02168 690.000
62.04162 689.000
62.06157 677.000
62.08152 623.000
62.10146 663.000
62.12141 688.000
62.14136 692.000
62.16131 652.000
62.18125 669.000
62.20120 625.000
62.22115 604.000
62.24109 589.000
62.26104 593.000
62.28099 623.000
62.30093 609.000
62.32088 587.000
62.34083 613.000
62.36077 567.000
62.38072 591.000
62.40067 612.000
62.42062 586.000
62.44056 566.000
62.46051 622.000
62.48046 627.000
62.50040 572.000
62.52035 628.000
62.54030 671.000
62.56024 634.000
62.58019 654.000
62.60014 694.000
62.62009 690.000
62.64003 660.000
62.65998 717.000
62.67993 700.000
62.69987 670.000
62.71982 732.000
62.73977 705.000
62.75971 762.000
62.77966 788.000
62.79961 706.000
62.81955 799.000
62.83950 733.000
62.85945 830.000
62.87940 900.000
62.89934 906.000
62.91929 922.000
62.93924 916.000
62.95918 829.000
62.97913 850.000
62.99908 768.000
63.01902 740.000
63.03897 750.000
63.05892 797.000
63.07887 788.000
63.09881 787.000
63.11876 756.000
63.13871 732.000
63.15865 650.000
63.17860 637.000
63.19855 612.000
63.21849 565.000
63.23844 607.000
63.25839 609.000
63.27833 576.000
63.29828 557.000
63.31823 542.000
63.33818 571.000
63.35812 548.000
63.37807 501.000
63.39802 516.000
63.41796 518.000
63.43791 560.000
63.45786 516.000
63.47780 517.000
63.49775 522.000
63.51770 561.000
63.53765 548.000
63.55759 548.000
63.57754 516.000
63.59749 514.000
63.61743 565.000
63.63738 504.000
63.65733 515.000
63.67727 585.000
63.69722 572.000
63.71717 553.000
63.73712 512.000
63.75706 518.000
63.77701 546.000
63.79696 583.000
63.81690 521.000
63.83685 518.000
63.85680 525.000
63.87674 513.000
63.89669 525.000
63.91664 537.000
63.93658 522.000
63.95653 534.000
63.97648 505.000
63.99643 563.000
64.01637 548.000
64.03632 529.000
64.05627 561.000
64.07621 536.000
64.09616 556.000
64.11611 544.000
64.13605 621.000
64.15600 594.000
64.17595 593.000
64.19590 571.000
64.21584 581.000
64.23579 564.000
64.25574 584.000
64.27568 628.000
64.29563 589.000
64.31558 546.000
64.33552 598.000
64.35547 574.000
64.37542 600.000
64.39536 584.000
64.41531 577.000
64.43526 595.000
64.45521 558.000
64.47515 573.000
64.49510 588.000
64.51505 546.000
64.53499 565.000
64.55494 528.000
64.57489 563.000
64.59483 560.000
64.61478 552.000
64.63473 539.000
64.65468 540.000
64.67462 523.000
64.69457 566.000
64.71452 509.000
64.73446 530.000
64.75441 541.000
64.77436 522.000
64.79430 506.000
64.81425 491.000
64.83420 538.000
64.85414 537.000
64.87409 549.000
64.89404 565.000
64.91399 521.000
64.93393 538.000
64.95388 570.000
64.97383 551.000
64.99377 518.000
65.01372 554.000
65.03367 521.000
65.05361 570.000
65.07356 552.000
65.09351 520.000
65.11346 571.000
65.13340 562.000
65.15335 508.000
65.17330 566.000
65.19324 588.000
65.21319 574.000
65.23314 544.000
65.25308 560.000
65.27303 607.000
65.29298 564.000
65.31293 607.000
65.33287 584.000
65.35282 613.000
65.37277 640.000
65.39271 605.000
65.41266 660.000
65.43261 673.000
65.45255 697.000
65.47250 626.000
65.49245 635.000
65.51239 722.000
65.53234 757.000
65.55229 756.000
65.57224 753.000
65.59218 799.000
65.61213 791.000
65.63208 797.000
65.65202 838.000
65.67197 879.000
65.69192 854.000
65.71186 865.000
65.73181 871.000
65.75176 820.000
65.77171 841.000
65.79165 810.000
65.81160 824.000
65.83155 828.000
65.85149 804.000
65.87144 778.000
65.89139 734.000
65.91133 748.000
65.93128 688.000
65.95123 735.000
65.97117 706.000
65.99112 705.000
66.01107 645.000
66.03102 668.000
66.05096 654.000
66.07091 626.000
66.09086 661.000
66.11080 683.000
66.13075 691.000
66.15070 685.000
66.17064 734.000
66.19059 756.000
66.21054 751.000
66.23049 785.000
66.25043 888.000
66.27038 885.000
66.29033 969.000
66.31027 946.000
66.33022 964.000
66.35017 1022.000
66.37011 1011.000
66.39006 946.000
66.41001 951.000
66.42995 944.000
66.44990 910.000
66.46985 835.000
66.48980 865.000
66.50974 843.000
66.52969 922.000
66.54964 898.000
66.56958 873.000
66.58953 792.000
66.60948 766.000
66.62942 698.000
66.64937 703.000
66.66932 665.000
66.68927 660.000
66.70921 685.000
66.72916 660.000
66.74911 644.000
66.76905 651.000
66.78900 613.000
66.80895 646.000
66.82889 641.000
66.84884 577.000
66.86879 594.000
66.88874 608.000
66.90868 581.000
66.92863 551.000
66.94858 596.000
66.96852 582.000
66.98847 572.000
67.00842 573.000
67.02836 538.000
67.04831 639.000
67.06826 556.000
67.08820 565.000
67.10815 540.000
67.12810 548.000
67.14805 553.000
67.16799 569.000
67.18794 584.000
67.20789 543.000
67.22783 566.000
67.24778 581.000
67.26773 569.000
67.28767 585.000
67.30762 562.000
67.32757 596.000
67.34752 556.000
67.36746 553.000
67.38741 549.000
67.40736 592.000
67.42730 545.000
67.44725 626.000
67.46720 617.000
67.48714 575.000
67.50709 623.000
67.52704 537.000
67.54698 568.000
67.56693 589.000
67.58688 611.000
67.60683 580.000
67.62677 648.000
67.64672 678.000
67.66667 699.000
67.68661 683.000
67.70656 770.000
67.72651 790.000
67.74645 775.000
67.76640 798.000
67.78635 808.000
67.80630 795.000
67.82624 859.000
67.84619 868.000
67.86614 852.000
67.88608 910.000
67.90603 891.000
67.92598 941.000
67.94592 925.000
67.96587 934.000
67.98582 918.000
68.00576 1035.000
68.02571 945.000
68.04566 953.000
68.06561 955.000
68.08555 874.000
68.10550 897.000
68.12545 921.000
68.14539 851.000
68.16534 791.000
68.18529 831.000
68.20523 714.000
68.22518 742.000
68.24513 758.000
68.26508 686.000
68.28502 690.000
68.30497 638.000
68.32492 676.000
68.34486 613.000
68.36481 570.000
68.38476 560.000
68.40470 574.000
68.42465 567.000
68.44460 552.000
68.46455 576.000
68.48449 562.000
68.50444 564.000
68.52439 532.000
68.54433 522.000
68.56428 552.000
68.58423 485.000
68.60417 535.000
68.62412 535.000
68.64407 533.000
68.66401 538.000
68.68396 496.000
68.70391 488.000
68.72386 537.000
68.74380 545.000
68.76375 550.000
68.78370 534.000
68.80364 509.000
68.82359 512.000
68.84354 531.000
68.86348 551.000
68.88343 515.000
68.90338 512.000
68.92333 523.000
68.94327 506.000
68.96322 535.000
68.98317 497.000
69.00311 474.000
69.02306 501.000
69.04301 482.000
69.06295 539.000
69.08290 558.000
69.10285 505.000
69.12279 510.000
69.14274 489.000
69.16269 487.000
69.18264 513.000
69.20258 501.000
69.22253 502.000
69.24248 495.000
69.26242 515.000
69.28237 479.000
69.30232 478.000
69.32226 562.000
69.34221 529.000
69.36216 486.000
69.38211 494.000
69.40205 474.000
69.42200 483.000
69.44195 545.000
69.46189 488.000
69.48184 511.000
69.50179 502.000
69.52173 526.000
69.54168 506.000
69.56163 528.000
69.58157 519.000
69.60152 489.000
69.62147 509.000
69.64142 515.000
69.66136 466.000
69.68131 483.000
69.70126 505.000
69.72120 518.000
69.74115 481.000
69.76110 493.000
69.78104 488.000
69.80099 515.000
69.82094 518.000
69.84089 478.000
69.86083 509.000
69.88078 537.000
69.90073 504.000
69.92067 514.000
69.94062 539.000
69.96057 514.000
69.98051 498.000
70.00046 483.000
70.02041 480.000
70.04035 495.000
70.06030 488.000
70.08025 483.000
70.10020 523.000
70.12014 507.000
70.14009 457.000
70.16004 460.000
70.17998 520.000
70.19993 479.000
70.21988 477.000
70.23982 508.000
70.25977 494.000
70.27972 500.000
70.29967 506.000
70.31961 453.000
70.33956 514.000
70.35951 495.000
70.37945 511.000
70.39940 512.000
70.41935 526.000
70.43929 487.000
70.45924 524.000
70.47919 491.000
70.49914 527.000
70.51908 522.000
70.53903 477.000
70.55898 493.000
70.57892 477.000
70.59887 494.000
70.61882 469.000
70.63876 509.000
70.65871 516.000
70.67866 502.000
70.69860 490.000
70.71855 501.000
70.73850 507.000
70.75845 488.000
70.77839 527.000
70.79834 511.000
70.81829 490.000
70.83823 497.000
70.85818 520.000
70.87813 434.000
70.89807 491.000
70.91802 490.000
70.93797 502.000
70.95792 524.000
70.97786 485.000
70.99781 471.000
71.01776 512.000
71.03770 512.000
71.05765 505.000
71.07760 494.000
71.09754 487.000
71.11749 509.000
71.13744 483.000
71.15738 508.000
71.17733 532.000
71.19728 452.000
71.21723 487.000
71.23717 465.000
71.25712 487.000
71.27707 532.000
71.29701 480.000
71.31696 501.000
71.33691 496.000
71.35685 538.000
71.37680 544.000
71.39675 546.000
71.41670 525.000
71.43664 517.000
71.45659 530.000
71.47654 554.000
71.49648 516.000
71.51643 495.000
71.53638 515.000
71.55632 480.000
71.57627 515.000
71.59622 520.000
71.61616 501.000
71.63611 514.000
71.65606 515.000
71.67601 494.000
71.69595 483.000
71.71590 545.000
71.73585 530.000
71.75579 539.000
71.77574 504.000
71.79569 521.000
71.81563 476.000
71.83558 534.000
71.85553 516.000
71.87548 507.000
71.89542 491.000
71.91537 531.000
71.93532 513.000
71.95526 562.000
71.97521 538.000
71.99516 538.000
72.01510 515.000
72.03505 520.000
72.05500 530.000
72.07495 517.000
72.09489 517.000
72.11484 524.000
72.13479 536.000
72.15473 554.000
72.17468 523.000
72.19463 548.000
72.21457 551.000
72.23452 596.000
72.25447 621.000
72.27441 606.000
72.29436 609.000
72.31431 676.000
72.33426 669.000
72.35420 701.000
72.37415 668.000
72.39410 700.000
72.41404 662.000
72.43399 690.000
72.45394 672.000
72.47388 611.000
72.49383 633.000
72.51378 620.000
72.53373 654.000
72.55367 607.000
72.57362 594.000
72.59357 639.000
72.61351 592.000
72.63346 634.000
72.65341 603.000
72.67335 581.000
72.69330 613.000
72.71325 519.000
72.73319 574.000
72.75314 513.000
72.77309 553.000
72.79304 553.000
72.81298 529.000
72.83293 526.000
72.85288 511.000
72.87282 496.000
72.89277 455.000
72.91272 537.000
72.93266 490.000
72.95261 491.000
72.97256 520.000
72.99251 508.000
73.01245 474.000
73.03240 478.000
73.05235 543.000
73.07229 536.000
73.09224 568.000
73.11219 513.000
73.13213 495.000
73.15208 555.000
73.17203 525.000
73.19197 519.000
73.21192 484.000
73.23187 528.000
73.25182 490.000
73.27176 523.000
73.29171 512.000
73.31166 509.000
73.33160 495.000
73.35155 516.000
73.37150 494.000
73.39144 547.000
73.41139 524.000
73.43134 528.000
73.45129 514.000
73.47123 489.000
73.49118 549.000
73.51113 512.000
73.53107 546.000
73.55102 557.000
73.57097 520.000
73.59091 522.000
73.61086 523.000
73.63081 548.000
73.65076 519.000
73.67070 551.000
73.69065 522.000
73.71060 536.000
73.73054 545.000
73.75049 499.000
73.77044 555.000
73.79038 485.000
73.81033 519.000
73.83028 520.000
73.85022 577.000
73.87017 559.000
73.89012 499.000
73.91007 495.000
73.93001 529.000
73.94996 508.000
73.96991 526.000
73.98985 499.000
74.00980 535.000
74.02975 499.000
74.04969 510.000
74.06964 501.000
74.08959 510.000
74.10954 509.000
74.12948 528.000
74.14943 495.000
74.16938 524.000
74.18932 497.000
74.20927 507.000
74.22922 558.000
74.24916 560.000
74.26911 496.000
74.28906 492.000
74.30900 501.000
74.32895 559.000
74.34890 539.000
74.36885 571.000
74.38879 525.000
74.40874 574.000
74.42869 570.000
74.44863 585.000
74.46858 635.000
74.48853 623.000
74.50847 583.000
74.52842 556.000
74.54837 533.000
74.56832 539.000
74.58826 578.000
74.60821 624.000
74.62816 550.000
74.64810 615.000
74.66805 587.000
74.68800 622.000
74.70794 615.000
74.72789 592.000
74.74784 574.000
74.76778 590.000
74.78773 597.000
74.80768 624.000
74.82763 641.000
74.84757 587.000
74.86752 632.000
74.88747 712.000
74.90741 709.000
74.92736 795.000
74.94731 792.000
74.96725 722.000
74.98720 714.000
75.00715 704.000
75.02710 719.000
75.04704 719.000
75.06699 746.000
75.08694 763.000
75.10688 703.000
75.12683 806.000
75.14678 792.000
75.16672 864.000
75.18667 771.000
75.20662 798.000
75.22657 829.000
75.24651 793.000
75.26646 759.000
75.28641 739.000
75.30635 703.000
75.32630 710.000
75.34625 677.000
75.36619 641.000
75.38614 691.000
75.40609 702.000
75.42603 684.000
75.44598 603.000
75.46593 637.000
75.48588 636.000
75.50582 682.000
75.52577 627.000
75.54572 584.000
75.56566 636.000
75.58561 580.000
75.60556 538.000
75.62550 559.000
75.64545 560.000
75.66540 550.000
75.68535 523.000
75.70529 517.000
75.72524 546.000
75.74519 498.000
75.76513 539.000
75.78508 567.000
75.80503 533.000
75.82497 546.000
75.84492 514.000
75.86487 541.000
75.88481 526.000
75.90476 534.000
75.92471 513.000
75.94466 476.000
75.96460 503.000
75.98455 548.000
76.00450 512.000
76.02444 454.000
76.04439 506.000
76.06434 536.000
76.08428 481.000
76.10423 511.000
76.12418 520.000
76.14413 476.000
76.16407 486.000
76.18402 508.000
76.20397 498.000
76.22391 532.000
76.24386 518.000
76.26381 517.000
76.28375 479.000
76.30370 516.000
76.32365 538.000
76.34359 517.000
76.36354 501.000
76.38349 511.000
76.40344 463.000
76.42338 533.000
76.44333 527.000
76.46328 556.000
76.48322 491.000
76.50317 471.000
76.52312 497.000
76.54306 505.000
76.56301 510.000
76.58296 490.000
76.60291 507.000
76.62285 515.000
76.64280 444.000
76.66275 476.000
76.68269 495.000
76.70264 486.000
76.72259 471.000
76.74253 504.000
76.76248 447.000
76.78243 484.000
76.80238 467.000
76.82232 530.000
76.84227 493.000
76.86222 490.000
76.88216 460.000
76.90211 470.000
76.92206 474.000
76.94200 476.000
76.96195 485.000
76.98190 518.000
77.00184 507.000
77.02179 505.000
77.04174 499.000
77.06169 491.000
77.08163 513.000
77.10158 482.000
77.12153 485.000
77.14147 479.000
77.16142 493.000
77.18137 501.000
77.20131 502.000
77.22126 544.000
77.24121 498.000
77.26116 485.000
77.28110 527.000
77.30105 457.000
77.32100 501.000
77.34094 498.000
77.36089 474.000
77.38084 509.000
77.40078 466.000
77.42073 535.000
77.44068 443.000
77.46062 514.000
77.48057 534.000
77.50052 446.000
77.52047 458.000
77.54041 512.000
77.56036 513.000
77.58031 532.000
77.60025 500.000
77.62020 520.000
77.64015 534.000
77.66009 496.000
77.68004 482.000
77.69999 499.000
77.71994 537.000
77.73988 479.000
77.75983 501.000
77.77978 506.000
77.79972 522.000
77.81967 501.000
77.83962 521.000
77.85956 545.000
77.87951 514.000
77.89946 533.000
77.91940 521.000
77.93935 529.000
77.95930 512.000
77.97925 519.000
77.99919 472.000
78.01914 573.000
78.03909 528.000
78.05903 526.000
78.07898 520.000
78.09893 547.000
78.11887 519.000
78.13882 551.000
78.15877 504.000
78.17872 566.000
78.19866 504.000
78.21861 563.000
78.23856 535.000
78.25850 525.000
78.27845 539.000
78.29840 576.000
78.31834 528.000
78.33829 558.000
78.35824 541.000
78.37819 521.000
78.39813 566.000
78.41808 532.000
78.43803 483.000
78.45797 518.000
78.47792 550.000
78.49787 508.000
78.51781 518.000
78.53776 524.000
78.55771 499.000
78.57765 544.000
78.59760 546.000
78.61755 473.000
78.63750 468.000
78.65744 484.000
78.67739 488.000
78.69734 516.000
78.71728 490.000
78.73723 500.000
78.75718 483.000
78.77712 510.000
78.79707 512.000
78.81702 502.000
78.83697 529.000
78.85691 518.000
78.87686 533.000
78.89681 503.000
78.91675 503.000
78.93670 519.000
78.95665 544.000
78.97659 499.000
78.99654 519.000
79.01649 509.000
79.03643 615.000
79.05638 540.000
79.07633 548.000
79.09628 566.000
79.11622 524.000
79.13617 522.000
79.15612 539.000
79.17606 534.000
79.19601 521.000
79.21596 526.000
79.23590 545.000
79.25585 540.000
79.27580 499.000
79.29575 456.000
79.31569 521.000
79.33564 510.000
79.35559 508.000
79.37553 552.000
79.39548 511.000
79.41543 536.000
79.43537 532.000
79.45532 538.000
79.47527 557.000
79.49521 561.000
79.51516 527.000
79.53511 517.000
79.55506 507.000
79.57500 533.000
79.59495 511.000
79.61490 514.000
79.63484 508.000
79.65479 508.000
79.67474 552.000
79.69468 506.000
79.71463 496.000
79.73458 494.000
79.75453 539.000
79.77447 539.000
79.79442 511.000
79.81437 504.000
79.83431 524.000
79.85426 494.000
79.87421 493.000
79.89415 517.000
79.91410 514.000
79.93405 499.000
79.95399 549.000
79.97394 479.000
79.99389 527.000
80.01384 515.000
80.03378 501.000
80.05373 499.000
80.07368 497.000
80.09362 519.000
80.11357 485.000
80.13352 514.000
80.15346 499.000
80.17341 538.000
80.19336 487.000
80.21331 550.000
80.23325 538.000
80.25320 597.000
80.27315 540.000
80.29309 569.000
80.31304 543.000
80.33299 550.000
80.35293 537.000
80.37288 590.000
80.39283 539.000
80.41278 512.000
80.43272 524.000
80.45267 546.000
80.47262 546.000
80.49256 540.000
80.51251 520.000
80.53246 515.000
80.55240 548.000
80.57235 531.000
80.59230 531.000
80.61224 544.000
80.63219 493.000
80.65214 522.000
80.67209 548.000
80.69203 530.000
80.71198 534.000
80.73193 532.000
80.75187 528.000
80.77182 523.000
80.79177 500.000
80.81171 527.000
80.83166 477.000
80.85161 523.000
80.87156 534.000
80.89150 484.000
80.91145 481.000
80.93140 512.000
80.95134 491.000
80.97129 515.000
80.99124 486.000
81.01118 477.000
81.03113 482.000
81.05108 518.000
81.07102 494.000
81.09097 484.000
81.11092 504.000
81.13087 507.000
81.15081 511.000
81.17076 510.000
81.19071 486.000
81.21065 503.000
81.23060 482.000
81.25055 511.000
81.27049 503.000
81.29044 406.000
81.31039 522.000
81.33034 516.000
81.35028 468.000
81.37023 500.000
81.39018 444.000
81.41012 491.000
81.43007 468.000
81.45002 452.000
81.46996 492.000
81.48991 498.000
81.50986 486.000
81.52980 511.000
81.54975 500.000
81.56970 518.000
81.58965 500.000
81.60959 518.000
81.62954 485.000
81.64949 520.000
81.66943 514.000
81.68938 491.000
81.70933 490.000
81.72927 541.000
81.74922 485.000
81.76917 505.000
81.78912 521.000
81.80906 517.000
81.82901 528.000
81.84896 493.000
81.86890 471.000
81.88885 467.000
81.90880 543.000
81.92874 481.000
81.94869 474.000
81.96864 480.000
81.98859 458.000
82.00853 490.000
82.02848 580.000
82.04843 448.000
82.06837 487.000
82.08832 460.000
82.10827 513.000
82.12821 510.000
82.14816 516.000
82.16811 484.000
82.18805 509.000
82.20800 531.000
82.22795 552.000
82.24790 511.000
82.26784 493.000
82.28779 518.000
82.30774 491.000
82.32768 515.000
82.34763 544.000
82.36758 602.000
82.38752 565.000
82.40747 551.000
82.42742 621.000
82.44737 610.000
82.46731 558.000
82.48726 643.000
82.50721 656.000
82.52715 656.000
82.54710 642.000
82.56705 607.000
82.58699 624.000
82.60694 638.000
82.62689 621.000
82.64683 615.000
82.66678 611.000
82.68673 592.000
82.70668 637.000
82.72662 614.000
82.74657 600.000
82.76652 601.000
82.78646 629.000
82.80641 650.000
82.82636 674.000
82.84630 613.000
82.86625 612.000
82.88620 636.000
82.90615 603.000
82.92609 601.000
82.94604 593.000
82.96599 577.000
82.98593 597.000
83.00588 561.000
83.02583 583.000
83.04577 615.000
83.06572 591.000
83.08567 558.000
83.10561 552.000
83.12556 574.000
83.14551 587.000
83.16546 566.000
83.18540 584.000
83.20535 557.000
83.22530 562.000
83.24524 540.000
83.26519 586.000
83.28514 551.000
83.30508 559.000
83.32503 545.000
83.34498 584.000
83.36493 524.000
83.38487 538.000
83.40482 481.000
83.42477 523.000
83.44471 528.000
83.46466 516.000
83.48461 556.000
83.50455 569.000
83.52450 581.000
83.54445 578.000
83.56440 544.000
83.58434 595.000
83.60429 544.000
83.62424 546.000
83.64418 577.000
83.66413 569.000
83.68408 571.000
83.70402 581.000
83.72397 570.000
83.74392 585.000
83.76386 531.000
83.78381 553.000
83.80376 575.000
83.82371 606.000
83.84365 592.000
83.86360 603.000
83.88355 565.000
83.90349 527.000
83.92344 543.000
83.94339 542.000
83.96333 541.000
83.98328 548.000
84.00323 573.000
84.02318 547.000
84.04312 559.000
84.06307 528.000
84.08302 502.000
84.10296 531.000
84.12291 514.000
84.14286 522.000
84.16280 556.000
84.18275 503.000
84.20270 554.000
84.22264 512.000
84.24259 535.000
84.26254 503.000
84.28249 485.000
84.30243 517.000
84.32238 522.000
84.34233 496.000
84.36227 539.000
84.38222 556.000
84.40217 508.000
84.42211 534.000
84.44206 579.000
84.46201 563.000
84.48196 514.000
84.50190 529.000
84.52185 543.000
84.54180 528.000
84.56174 523.000
84.58169 531.000
84.60164 527.000
84.62158 533.000
84.64153 549.000
84.66148 499.000
84.68142 511.000
84.70137 559.000
84.72132 494.000
84.74127 483.000
84.76121 540.000
84.78116 474.000
84.80111 557.000
84.82105 542.000
84.84100 503.000
84.86095 471.000
84.88089 518.000
84.90084 524.000
84.92079 473.000
84.94074 517.000
84.96068 500.000
84.98063 513.000
85.00058 532.000
85.02052 519.000
85.04047 445.000
85.06042 507.000
85.08036 527.000
85.10031 501.000
85.12026 493.000
85.14021 506.000
85.16015 538.000
85.18010 510.000
85.20005 497.000
85.21999 456.000
85.23994 539.000
85.25989 521.000
85.27983 497.000
85.29978 519.000
85.31973 498.000
85.33967 495.000
85.35962 491.000
85.37957 511.000
85.39952 486.000
85.41946 519.000
85.43941 473.000
85.45936 510.000
85.47930 529.000
85.49925 477.000
85.51920 490.000
85.53914 514.000
85.55909 538.000
85.57904 525.000
85.59899 527.000
85.61893 485.000
85.63888 470.000
85.65883 509.000
85.67877 474.000
85.69872 500.000
85.71867 497.000
85.73861 520.000
85.75856 508.000
85.77851 500.000
85.79845 544.000
85.81840 467.000
85.83835 483.000
85.85830 476.000
85.87824 526.000
85.89819 515.000
85.91814 494.000
85.93808 454.000
85.95803 553.000
85.97798 531.000
85.99792 502.000
86.01787 507.000
86.03782 548.000
86.05777 470.000
86.07771 459.000
86.09766 517.000
86.11761 485.000
86.13755 496.000
86.15750 485.000
86.17745 476.000
86.19739 486.000
86.21734 494.000
86.23729 460.000
86.25723 499.000
86.27718 501.000
86.29713 497.000
86.31708 540.000
86.33702 531.000
86.35697 540.000
86.37692 492.000
86.39686 508.000
86.41681 488.000
86.43676 515.000
86.45670 473.000
86.47665 522.000
86.49660 512.000
86.51655 497.000
86.53649 507.000
86.55644 479.000
86.57639 519.000
86.59633 520.000
86.61628 545.000
86.63623 513.000
86.65617 593.000
86.67612 507.000
86.69607 512.000
86.71602 509.000
86.73596 503.000
86.75591 558.000
86.77586 499.000
86.79580 499.000
86.81575 548.000
86.83570 506.000
86.85564 523.000
86.87559 560.000
86.89554 537.000
86.91548 566.000
86.93543 512.000
86.95538 508.000
86.97533 521.000
86.99527 519.000
87.01522 563.000
87.03517 547.000
87.05511 524.000
87.07506 576.000
87.09501 523.000
87.11495 540.000
87.13490 562.000
87.15485 505.000
87.17480 527.000
87.19474 513.000
87.21469 509.000
87.23464 483.000
87.25458 535.000
87.27453 516.000
87.29448 498.000
87.31442 523.000
87.33437 515.000
87.35432 518.000
87.37426 492.000
87.39421 561.000
87.41416 486.000
87.43411 495.000
87.45405 531.000
87.47400 557.000
87.49395 510.000
87.51389 506.000
87.53384 478.000
87.55379 535.000
87.57373 537.000
87.59368 537.000
87.61363 533.000
87.63358 498.000
87.65352 526.000
87.67347 512.000
87.69342 504.000
87.71336 485.000
87.73331 529.000
87.75326 511.000
87.77320 533.000
87.79315 495.000
87.81310 493.000
87.83304 524.000
87.85299 526.000
87.87294 490.000
87.89289 504.000
87.91283 464.000
87.93278 530.000
87.95273 520.000
87.97267 487.000
87.99262 493.000
88.01257 533.000
88.03251 499.000
88.05246 502.000
88.07241 477.000
88.09236 512.000
88.11230 481.000
88.13225 477.000
88.15220 536.000
88.17214 441.000
88.19209 518.000
88.21204 563.000
88.23198 577.000
88.25193 474.000
88.27188 488.000
88.29183 503.000
88.31177 498.000
88.33172 512.000
88.35167 486.000
88.37161 544.000
88.39156 495.000
88.41151 490.000
88.43145 520.000
88.45140 480.000
88.47135 531.000
88.49129 451.000
88.51124 500.000
88.53119 473.000
88.55114 476.000
88.57108 490.000
88.59103 555.000
88.61098 503.000
88.63092 526.000
88.65087 501.000
88.67082 486.000
88.69076 458.000
88.71071 548.000
88.73066 487.000
88.75061 491.000
88.77055 492.000
88.79050 529.000
88.81045 501.000
88.83039 517.000
88.85034 520.000
88.87029 472.000
88.89023 492.000
88.91018 491.000
88.93013 513.000
88.95007 518.000
88.97002 515.000
88.98997 522.000
89.00992 501.000
89.02986 513.000
89.04981 476.000
89.06976 482.000
89.08970 503.000
89.10965 522.000
89.12960 518.000
89.14954 522.000
89.16949 524.000
89.18944 482.000
89.20939 545.000
89.22933 536.000
89.24928 588.000
89.26923 566.000
89.28917 556.000
89.30912 549.000
89.32907 571.000
89.34901 534.000
89.36896 527.000
89.38891 545.000
89.40885 571.000
89.42880 568.000
89.44875 565.000
89.46870 546.000
89.48864 604.000
89.50859 596.000
89.52854 556.000
89.54848 590.000
89.56843 589.000
89.58838 552.000
89.60832 575.000
89.62827 554.000
89.64822 554.000
89.66817 595.000
89.68811 577.000
89.70806 577.000
89.72801 595.000
89.74795 568.000
89.76790 542.000
89.78785 596.000
89.80779 598.000
89.82774 547.000
89.84769 595.000
89.86764 520.000
89.88758 570.000
89.90753 527.000
89.92748 582.000
89.94742 556.000
89.96737 562.000
89.98732 513.000
90.00726 582.000
