10.00000 152.000
10.01995 144.000
10.03989 157.000
10.05984 176.000
10.07979 156.000
10.09973 165.000
10.11968 178.000
10.13963 182.000
10.15958 157.000
10.17952 152.000
10.19947 176.000
10.21942 154.000
10.23936 180.000
10.25931 165.000
10.27926 168.000
10.29920 155.000
10.31915 189.000
10.33910 150.000
10.35905 144.000
10.37899 148.000
10.39894 167.000
10.41889 183.000
10.43883 166.000
10.45878 176.000
10.47873 165.000
10.49867 162.000
10.51862 169.000
10.53857 191.000
10.55851 156.000
10.57846 154.000
10.59841 153.000
10.61836 171.000
10.63830 162.000
10.65825 176.000
10.67820 164.000
10.69814 143.000
10.71809 166.000
10.73804 164.000
10.75798 164.000
10.77793 172.000
10.79788 153.000
10.81783 161.000
10.83777 158.000
10.85772 157.000
10.87767 151.000
10.89761 162.000
10.91756 165.000
10.93751 144.000
10.95745 154.000
10.97740 176.000
10.99735 149.000
11.01730 184.000
11.03724 159.000
11.05719 162.000
11.07714 176.000
11.09708 150.000
11.11703 162.000
11.13698 171.000
11.15692 139.000
11.17687 177.000
11.19682 178.000
11.21676 167.000
11.23671 203.000
11.25666 157.000
11.27661 157.000
11.29655 182.000
11.31650 156.000
11.33645 160.000
11.35639 182.000
11.37634 181.000
11.39629 195.000
11.41623 168.000
11.43618 161.000
11.45613 165.000
11.47608 163.000
11.49602 178.000
11.51597 156.000
11.53592 164.000
11.55586 169.000
11.57581 157.000
11.59576 165.000
11.61570 179.000
11.63565 173.000
11.65560 178.000
11.67554 177.000
11.69549 166.000
11.71544 166.000
11.73539 173.000
11.75533 157.000
11.77528 158.000
11.79523 164.000
11.81517 177.000
11.83512 155.000
11.85507 154.000
11.87501 174.000
11.89496 152.000
11.91491 168.000
11.93486 168.000
11.95480 189.000
11.97475 171.000
11.99470 178.000
12.01464 183.000
12.03459 185.000
12.05454 176.000
12.07448 187.000
12.09443 174.000
12.11438 178.000
12.13432 162.000
12.15427 165.000
12.17422 160.000
12.19417 170.000
12.21411 157.000
12.23406 169.000
12.25401 164.000
12.27395 167.000
12.29390 144.000
12.31385 198.000
12.33379 181.000
12.35374 160.000
12.37369 176.000
12.39364 159.000
12.41358 200.000
12.43353 160.000
12.45348 174.000
12.47342 164.000
12.49337 170.000
12.51332 184.000
12.53326 182.000
12.55321 175.000
12.57316 157.000
12.59311 173.000
12.61305 176.000
12.63300 171.000
12.65295 162.000
12.67289 158.000
12.69284 174.000
12.71279 176.000
12.73273 148.000
12.75268 165.000
12.77263 155.000
12.79257 173.000
12.81252 155.000
12.83247 179.000
12.85242 156.000
12.87236 168.000
12.89231 191.000
12.91226 149.000
12.93220 168.000
12.95215 163.000
12.97210 164.000
12.99204 153.000
13.01199 167.000
13.03194 182.000
13.05189 149.000
13.07183 173.000
13.09178 160.000
13.11173 158.000
13.13167 158.000
13.15162 153.000
13.17157 164.000
13.19151 147.000
13.21146 164.000
13.23141 146.000
13.25135 191.000
13.27130 148.000
13.29125 193.000
13.31120 173.000
13.33114 156.000
13.35109 198.000
13.37104 142.000
13.39098 138.000
13.41093 162.000
13.43088 192.000
13.45082 177.000
13.47077 176.000
13.49072 171.000
13.51067 143.000
13.53061 177.000
13.55056 159.000
13.57051 162.000
13.59045 159.000
13.61040 176.000
13.63035 178.000
13.65029 144.000
13.67024 163.000
13.69019 178.000
13.71013 180.000
13.73008 154.000
13.75003 135.000
13.76998 155.000
13.78992 159.000
13.80987 163.000
13.82982 198.000
13.84976 166.000
13.86971 152.000
13.88966 163.000
13.90960 169.000
13.92955 173.000
13.94950 162.000
13.96945 173.000
13.98939 166.000
14.00934 186.000
14.02929 123.000
14.04923 185.000
14.06918 177.000
14.08913 160.000
14.10907 155.000
14.12902 176.000
14.14897 171.000
14.16892 194.000
14.18886 160.000
14.20881 168.000
14.22876 175.000
14.24870 162.000
14.26865 150.000
14.28860 167.000
14.30854 183.000
14.32849 157.000
14.34844 169.000
14.36838 169.000
14.38833 158.000
14.40828 170.000
14.42823 167.000
14.44817 177.000
14.46812 157.000
14.48807 178.000
14.50801 174.000
14.52796 180.000
14.54791 158.000
14.56785 189.000
14.58780 173.000
14.60775 162.000
14.62770 162.000
14.64764 179.000
14.66759 173.000
14.68754 184.000
14.70748 171.000
14.72743 167.000
14.74738 176.000
14.76732 164.000
14.78727 162.000
14.80722 188.000
14.82716 164.000
14.84711 152.000
14.86706 182.000
14.88701 130.000
14.90695 170.000
14.92690 167.000
14.94685 170.000
14.96679 175.000
14.98674 181.000
15.00669 165.000
15.02663 173.000
15.04658 214.000
15.06653 200.000
15.08648 186.000
15.10642 201.000
15.12637 217.000
15.14632 190.000
15.16626 188.000
15.18621 187.000
15.20616 167.000
15.22610 186.000
15.24605 190.000
15.26600 188.000
15.28594 182.000
15.30589 244.000
15.32584 212.000
15.34579 215.000
15.36573 187.000
15.38568 209.000
15.40563 205.000
15.42557 203.000
15.44552 218.000
15.46547 203.000
15.48541 214.000
15.50536 235.000
15.52531 265.000
15.54526 268.000
15.56520 333.000
15.58515 356.000
15.60510 393.000
15.62504 531.000
15.64499 620.000
15.66494 813.000
15.68488 1160.000
15.70483 1884.000
15.72478 2728.000
15.74472 3980.000
15.76467 5117.000
15.78462 5546.000
15.80457 5217.000
15.82451 4525.000
15.84446 3517.000
15.86441 2639.000
15.88435 1744.000
15.90430 1143.000
15.92425 777.000
15.94419 477.000
15.96414 361.000
15.98409 351.000
16.00404 295.000
16.02398 328.000
16.04393 358.000
16.06388 401.000
16.08382 379.000
16.10377 374.000
16.12372 335.000
16.14366 307.000
16.16361 301.000
16.18356 279.000
16.20351 262.000
16.22345 268.000
16.24340 280.000
16.26335 218.000
16.28329 198.000
16.30324 200.000
16.32319 183.000
16.34313 153.000
16.36308 206.000
16.38303 183.000
16.40297 165.000
16.42292 168.000
16.44287 199.000
16.46282 170.000
16.48276 196.000
16.50271 165.000
16.52266 195.000
16.54260 183.000
16.56255 179.000
16.58250 162.000
16.60244 171.000
16.62239 165.000
16.64234 163.000
16.66229 183.000
16.68223 170.000
16.70218 147.000
16.72213 190.000
16.74207 155.000
16.76202 149.000
16.78197 147.000
16.80191 165.000
16.82186 190.000
16.84181 181.000
16.86175 167.000
16.88170 175.000
16.90165 170.000
16.92160 176.000
16.94154 182.000
16.96149 157.000
16.98144 137.000
17.00138 140.000
17.02133 174.000
17.04128 174.000
17.06122 150.000
17.08117 167.000
17.10112 164.000
17.12107 168.000
17.14101 163.000
17.16096 169.000
17.18091 172.000
17.20085 151.000
17.22080 162.000
17.24075 163.000
17.26069 174.000
17.28064 189.000
17.30059 188.000
17.32053 141.000
17.34048 166.000
17.36043 151.000
17.38038 170.000
17.40032 158.000
17.42027 158.000
17.44022 155.000
17.46016 159.000
17.48011 164.000
17.50006 165.000
17.52000 173.000
17.53995 174.000
17.55990 181.000
17.57985 170.000
17.59979 175.000
17.61974 179.000
17.63969 161.000
17.65963 165.000
17.67958 173.000
17.69953 159.000
17.71947 184.000
17.73942 147.000
17.75937 165.000
17.77932 193.000
17.79926 155.000
17.81921 161.000
17.83916 176.000
17.85910 177.000
17.87905 164.000
17.89900 152.000
17.91894 177.000
17.93889 181.000
17.95884 158.000
17.97878 167.000
17.99873 169.000
18.01868 144.000
18.03863 166.000
18.05857 163.000
18.07852 151.000
18.09847 169.000
18.11841 146.000
18.13836 179.000
18.15831 141.000
18.17825 175.000
18.19820 185.000
18.21815 163.000
18.23810 216.000
18.25804 194.000
18.27799 237.000
18.29794 249.000
18.31788 311.000
18.33783 408.000
18.35778 400.000
18.37772 387.000
18.39767 355.000
18.41762 303.000
18.43756 224.000
18.45751 203.000
18.47746 176.000
18.49741 169.000
18.51735 169.000
18.53730 184.000
18.55725 180.000
18.57719 158.000
18.59714 152.000
18.61709 182.000
18.63703 142.000
18.65698 157.000
18.67693 164.000
18.69688 163.000
18.71682 164.000
18.73677 160.000
18.75672 158.000
18.77666 167.000
18.79661 145.000
18.81656 135.000
18.83650 152.000
18.85645 126.000
18.87640 169.000
18.89634 162.000
18.91629 165.000
18.93624 173.000
18.95619 153.000
18.97613 167.000
18.99608 190.000
19.01603 153.000
19.03597 159.000
19.05592 166.000
19.07587 141.000
19.09581 150.000
19.11576 176.000
19.13571 158.000
19.15566 159.000
19.17560 149.000
19.19555 145.000
19.21550 152.000
19.23544 148.000
19.25539 173.000
19.27534 181.000
19.29528 162.000
19.31523 156.000
19.33518 164.000
19.35513 149.000
19.37507 175.000
19.39502 138.000
19.41497 172.000
19.43491 162.000
19.45486 178.000
19.47481 161.000
19.49475 175.000
19.51470 163.000
19.53465 173.000
19.55459 160.000
19.57454 140.000
19.59449 149.000
19.61444 169.000
19.63438 179.000
19.65433 165.000
19.67428 151.000
19.69422 155.000
19.71417 178.000
19.73412 195.000
19.75406 171.000
19.77401 156.000
19.79396 165.000
19.81391 170.000
19.83385 161.000
19.85380 177.000
19.87375 147.000
19.89369 166.000
19.91364 160.000
19.93359 149.000
19.95353 171.000
19.97348 181.000
19.99343 181.000
20.01337 155.000
20.03332 132.000
20.05327 183.000
20.07322 163.000
20.09316 158.000
20.11311 147.000
20.13306 162.000
20.15300 147.000
20.17295 160.000
20.19290 157.000
20.21284 167.000
20.23279 153.000
20.25274 184.000
20.27269 164.000
20.29263 169.000
20.31258 150.000
20.33253 164.000
20.35247 170.000
20.37242 180.000
20.39237 168.000
20.41231 167.000
20.43226 163.000
20.45221 161.000
20.47215 176.000
20.49210 162.000
20.51205 159.000
20.53200 148.000
20.55194 175.000
20.57189 159.000
20.59184 163.000
20.61178 145.000
20.63173 161.000
20.65168 156.000
20.67162 179.000
20.69157 153.000
20.71152 194.000
20.73147 157.000
20.75141 175.000
20.77136 193.000
20.79131 172.000
20.81125 165.000
20.83120 179.000
20.85115 173.000
20.87109 188.000
20.89104 199.000
20.91099 182.000
20.93094 202.000
20.95088 246.000
20.97083 197.000
20.99078 225.000
21.01072 191.000
21.03067 202.000
21.05062 194.000
21.07056 203.000
21.09051 181.000
21.11046 179.000
21.13040 171.000
21.15035 158.000
21.17030 197.000
21.19025 183.000
21.21019 176.000
21.23014 156.000
21.25009 158.000
21.27003 179.000
21.28998 150.000
21.30993 176.000
21.32987 138.000
21.34982 164.000
21.36977 152.000
21.38972 168.000
21.40966 169.000
21.42961 155.000
21.44956 181.000
21.46950 160.000
21.48945 172.000
21.50940 149.000
21.52934 164.000
21.54929 170.000
21.56924 159.000
21.58918 169.000
21.60913 148.000
21.62908 175.000
21.64903 178.000
21.66897 147.000
21.68892 182.000
21.70887 152.000
21.72881 171.000
21.74876 162.000
21.76871 148.000
21.78865 152.000
21.80860 170.000
21.82855 156.000
21.84850 166.000
21.86844 166.000
21.88839 153.000
21.90834 165.000
21.92828 147.000
21.94823 160.000
21.96818 157.000
21.98812 169.000
22.00807 155.000
22.02802 158.000
22.04796 161.000
22.06791 146.000
22.08786 180.000
22.10781 134.000
22.12775 147.000
22.14770 152.000
22.16765 159.000
22.18759 156.000
22.20754 164.000
22.22749 147.000
22.24743 157.000
22.26738 160.000
22.28733 189.000
22.30728 175.000
22.32722 157.000
22.34717 182.000
22.36712 155.000
22.38706 174.000
22.40701 156.000
22.42696 169.000
22.44690 161.000
22.46685 150.000
22.48680 161.000
22.50675 175.000
22.52669 163.000
22.54664 169.000
22.56659 178.000
22.58653 162.000
22.60648 198.000
22.62643 181.000
22.64637 172.000
22.66632 173.000
22.68627 160.000
22.70621 149.000
22.72616 162.000
22.74611 172.000
22.76606 148.000
22.78600 169.000
22.80595 150.000
22.82590 157.000
22.84584 146.000
22.86579 157.000
22.88574 163.000
22.90568 180.000
22.92563 171.000
22.94558 172.000
22.96553 155.000
22.98547 152.000
23.00542 147.000
23.02537 172.000
23.04531 171.000
23.06526 194.000
23.08521 152.000
23.10515 162.000
23.12510 171.000
23.14505 146.000
23.16499 173.000
23.18494 162.000
23.20489 152.000
23.22484 179.000
23.24478 168.000
23.26473 157.000
23.28468 169.000
23.30462 170.000
23.32457 170.000
23.34452 147.000
23.36446 158.000
23.38441 189.000
23.40436 167.000
23.42431 175.000
23.44425 161.000
23.46420 152.000
23.48415 158.000
23.50409 165.000
23.52404 155.000
23.54399 154.000
23.56393 154.000
23.58388 154.000
23.60383 163.000
23.62377 170.000
23.64372 161.000
23.66367 162.000
23.68362 149.000
23.70356 166.000
23.72351 153.000
23.74346 171.000
23.76340 153.000
23.78335 155.000
23.80330 152.000
23.82324 157.000
23.84319 150.000
23.86314 178.000
23.88309 181.000
23.90303 151.000
23.92298 168.000
23.94293 174.000
23.96287 155.000
23.98282 162.000
24.00277 171.000
24.02271 180.000
24.04266 194.000
24.06261 175.000
24.08256 161.000
24.10250 147.000
24.12245 194.000
24.14240 161.000
24.16234 179.000
24.18229 159.000
24.20224 170.000
24.22218 196.000
24.24213 145.000
24.26208 175.000
24.28202 171.000
24.30197 168.000
24.32192 165.000
24.34187 154.000
24.36181 148.000
24.38176 156.000
24.40171 151.000
24.42165 184.000
24.44160 179.000
24.46155 184.000
24.48149 176.000
24.50144 136.000
24.52139 151.000
24.54134 161.000
24.56128 160.000
24.58123 166.000
24.60118 147.000
24.62112 172.000
24.64107 159.000
24.66102 159.000
24.68096 165.000
24.70091 177.000
24.72086 173.000
24.74080 143.000
24.76075 168.000
24.78070 151.000
24.80065 146.000
24.82059 138.000
24.84054 161.000
24.86049 168.000
24.88043 133.000
24.90038 170.000
24.92033 162.000
24.94027 167.000
24.96022 183.000
24.98017 147.000
25.00012 151.000
25.02006 161.000
25.04001 174.000
25.05996 163.000
25.07990 160.000
25.09985 168.000
25.11980 158.000
25.13974 175.000
25.15969 136.000
25.17964 163.000
25.19958 171.000
25.21953 164.000
25.23948 176.000
25.25943 156.000
25.27937 160.000
25.29932 155.000
25.31927 150.000
25.33921 147.000
25.35916 192.000
25.37911 174.000
25.39905 174.000
25.41900 176.000
25.43895 178.000
25.45890 166.000
25.47884 153.000
25.49879 173.000
25.51874 197.000
25.53868 178.000
25.55863 175.000
25.57858 192.000
25.59852 169.000
25.61847 171.000
25.63842 176.000
25.65837 155.000
25.67831 167.000
25.69826 189.000
25.71821 155.000
25.73815 174.000
25.75810 180.000
25.77805 154.000
25.79799 170.000
25.81794 177.000
25.83789 169.000
25.85783 185.000
25.87778 186.000
25.89773 178.000
25.91768 129.000
25.93762 158.000
25.95757 179.000
25.97752 175.000
25.99746 185.000
26.01741 179.000
26.03736 152.000
26.05730 175.000
26.07725 175.000
26.09720 178.000
26.11715 154.000
26.13709 184.000
26.15704 160.000
26.17699 159.000
26.19693 174.000
26.21688 175.000
26.23683 176.000
26.25677 186.000
26.27672 153.000
26.29667 183.000
26.31661 167.000
26.33656 171.000
26.35651 175.000
26.37646 139.000
26.39640 171.000
26.41635 170.000
26.43630 168.000
26.45624 176.000
26.47619 153.000
26.49614 176.000
26.51608 174.000
26.53603 166.000
26.55598 176.000
26.57593 170.000
26.59587 166.000
26.61582 163.000
26.63577 145.000
26.65571 167.000
26.67566 171.000
26.69561 170.000
26.71555 161.000
26.73550 166.000
26.75545 183.000
26.77539 169.000
26.79534 193.000
26.81529 165.000
26.83524 182.000
26.85518 174.000
26.87513 185.000
26.89508 164.000
26.91502 174.000
26.93497 178.000
26.95492 168.000
26.97486 158.000
26.99481 179.000
27.01476 183.000
27.03471 178.000
27.05465 163.000
27.07460 167.000
27.09455 150.000
27.11449 155.000
27.13444 178.000
27.15439 189.000
27.17433 175.000
27.19428 163.000
27.21423 180.000
27.23417 196.000
27.25412 164.000
27.27407 165.000
27.29402 155.000
27.31396 190.000
27.33391 193.000
27.35386 161.000
27.37380 182.000
27.39375 190.000
27.41370 168.000
27.43364 176.000
27.45359 195.000
27.47354 183.000
27.49349 180.000
27.51343 179.000
27.53338 180.000
27.55333 179.000
27.57327 170.000
27.59322 153.000
27.61317 172.000
27.63311 169.000
27.65306 175.000
27.67301 186.000
27.69296 179.000
27.71290 178.000
27.73285 168.000
27.75280 182.000
27.77274 170.000
27.79269 191.000
27.81264 179.000
27.83258 153.000
27.85253 156.000
27.87248 159.000
27.89242 165.000
27.91237 167.000
27.93232 185.000
27.95227 176.000
27.97221 177.000
27.99216 154.000
28.01211 190.000
28.03205 167.000
28.05200 211.000
28.07195 148.000
28.09189 188.000
28.11184 163.000
28.13179 168.000
28.15174 164.000
28.17168 156.000
28.19163 156.000
28.21158 187.000
28.23152 163.000
28.25147 135.000
28.27142 145.000
28.29136 179.000
28.31131 161.000
28.33126 182.000
28.35120 188.000
28.37115 179.000
28.39110 173.000
28.41105 169.000
28.43099 171.000
28.45094 174.000
28.47089 194.000
28.49083 175.000
28.51078 178.000
28.53073 180.000
28.55067 160.000
28.57062 176.000
28.59057 171.000
28.61052 198.000
28.63046 170.000
28.65041 167.000
28.67036 161.000
28.69030 176.000
28.71025 154.000
28.73020 150.000
28.75014 195.000
28.77009 172.000
28.79004 166.000
28.80998 186.000
28.82993 184.000
28.84988 178.000
28.86983 167.000
28.88977 162.000
28.90972 170.000
28.92967 165.000
28.94961 173.000
28.96956 177.000
28.98951 176.000
29.00945 157.000
29.02940 172.000
29.04935 184.000
29.06930 203.000
29.08924 178.000
29.10919 170.000
29.12914 185.000
29.14908 179.000
29.16903 157.000
29.18898 197.000
29.20892 171.000
29.22887 177.000
29.24882 167.000
29.26877 166.000
29.28871 177.000
29.30866 163.000
29.32861 156.000
29.34855 160.000
29.36850 171.000
29.38845 177.000
29.40839 194.000
29.42834 173.000
29.44829 185.000
29.46823 186.000
29.48818 174.000
29.50813 188.000
29.52808 208.000
29.54802 175.000
29.56797 182.000
29.58792 168.000
29.60786 213.000
29.62781 188.000
29.64776 170.000
29.66770 175.000
29.68765 163.000
29.70760 193.000
29.72755 180.000
29.74749 197.000
29.76744 180.000
29.78739 178.000
29.80733 167.000
29.82728 175.000
29.84723 193.000
29.86717 193.000
29.88712 195.000
29.90707 177.000
29.92701 184.000
29.94696 200.000
29.96691 203.000
29.98686 212.000
30.00680 184.000
30.02675 233.000
30.04670 243.000
30.06664 237.000
30.08659 263.000
30.10654 288.000
30.12648 348.000
30.14643 399.000
30.16638 532.000
30.18633 577.000
30.20627 660.000
30.22622 676.000
30.24617 586.000
30.26611 542.000
30.28606 520.000
30.30601 440.000
30.32595 356.000
30.34590 294.000
30.36585 250.000
30.38579 234.000
30.40574 215.000
30.42569 163.000
30.44564 196.000
30.46558 201.000
30.48553 176.000
30.50548 204.000
30.52542 171.000
30.54537 191.000
30.56532 200.000
30.58526 171.000
30.60521 197.000
30.62516 164.000
30.64511 202.000
30.66505 166.000
30.68500 189.000
30.70495 180.000
30.72489 193.000
30.74484 179.000
30.76479 184.000
30.78473 201.000
30.80468 178.000
30.82463 186.000
30.84458 178.000
30.86452 178.000
30.88447 158.000
30.90442 178.000
30.92436 167.000
30.94431 182.000
30.96426 177.000
30.98420 185.000
31.00415 204.000
31.02410 191.000
31.04404 175.000
31.06399 163.000
31.08394 177.000
31.10389 166.000
31.12383 206.000
31.14378 199.000
31.16373 161.000
31.18367 133.000
31.20362 191.000
31.22357 195.000
31.24351 197.000
31.26346 206.000
31.28341 190.000
31.30336 219.000
31.32330 184.000
31.34325 173.000
31.36320 173.000
31.38314 164.000
31.40309 178.000
31.42304 168.000
31.44298 189.000
31.46293 177.000
31.48288 176.000
31.50282 209.000
31.52277 174.000
31.54272 186.000
31.56267 214.000
31.58261 199.000
31.60256 174.000
31.62251 190.000
31.64245 190.000
31.66240 189.000
31.68235 215.000
31.70229 194.000
31.72224 200.000
31.74219 223.000
31.76214 255.000
31.78208 268.000
31.80203 353.000
31.82198 430.000
31.84192 495.000
31.86187 536.000
31.88182 526.000
31.90176 546.000
31.92171 500.000
31.94166 544.000
31.96160 481.000
31.98155 468.000
32.00150 451.000
32.02145 392.000
32.04139 375.000
32.06134 334.000
32.08129 338.000
32.10123 270.000
32.12118 260.000
32.14113 235.000
32.16107 244.000
32.18102 216.000
32.20097 199.000
32.22092 204.000
32.24086 195.000
32.26081 188.000
32.28076 199.000
32.30070 166.000
32.32065 196.000
32.34060 194.000
32.36054 202.000
32.38049 187.000
32.40044 204.000
32.42039 206.000
32.44033 230.000
32.46028 250.000
32.48023 272.000
32.50017 279.000
32.52012 255.000
32.54007 270.000
32.56001 264.000
32.57996 257.000
32.59991 262.000
32.61985 235.000
32.63980 204.000
32.65975 213.000
32.67970 200.000
32.69964 201.000
32.71959 187.000
32.73954 170.000
32.75948 207.000
32.77943 192.000
32.79938 200.000
32.81932 166.000
32.83927 182.000
32.85922 177.000
32.87917 199.000
32.89911 181.000
32.91906 163.000
32.93901 191.000
32.95895 176.000
32.97890 204.000
32.99885 178.000
33.01879 182.000
33.03874 170.000
33.05869 192.000
33.07863 167.000
33.09858 190.000
33.11853 172.000
33.13848 175.000
33.15842 166.000
33.17837 177.000
33.19832 179.000
33.21826 189.000
33.23821 157.000
33.25816 156.000
33.27810 175.000
33.29805 173.000
33.31800 165.000
33.33795 152.000
33.35789 169.000
33.37784 174.000
33.39779 162.000
33.41773 170.000
33.43768 179.000
33.45763 183.000
33.47757 162.000
33.49752 179.000
33.51747 185.000
33.53741 184.000
33.55736 172.000
33.57731 200.000
33.59726 174.000
33.61720 164.000
33.63715 153.000
33.65710 185.000
33.67704 186.000
33.69699 186.000
33.71694 168.000
33.73688 192.000
33.75683 177.000
33.77678 160.000
33.79673 188.000
33.81667 186.000
33.83662 195.000
33.85657 184.000
33.87651 166.000
33.89646 174.000
33.91641 194.000
33.93635 189.000
33.95630 174.000
33.97625 171.000
33.99620 171.000
34.01614 215.000
34.03609 193.000
34.05604 171.000
34.07598 190.000
34.09593 174.000
34.11588 182.000
34.13582 184.000
34.15577 188.000
34.17572 172.000
34.19566 191.000
34.21561 204.000
34.23556 188.000
34.25551 189.000
34.27545 181.000
34.29540 193.000
34.31535 214.000
34.33529 176.000
34.35524 218.000
34.37519 190.000
34.39513 212.000
34.41508 186.000
34.43503 199.000
34.45498 203.000
34.47492 225.000
34.49487 221.000
34.51482 201.000
34.53476 232.000
34.55471 209.000
34.57466 243.000
34.59460 218.000
34.61455 213.000
34.63450 235.000
34.65444 230.000
34.67439 231.000
34.69434 207.000
34.71429 222.000
34.73423 214.000
34.75418 230.000
34.77413 223.000
34.79407 196.000
34.81402 221.000
34.83397 210.000
34.85391 198.000
34.87386 209.000
34.89381 186.000
34.91376 212.000
34.93370 165.000
34.95365 196.000
34.97360 215.000
34.99354 209.000
35.01349 217.000
35.03344 199.000
35.05338 215.000
35.07333 200.000
35.09328 205.000
35.11322 216.000
35.13317 224.000
35.15312 235.000
35.17307 235.000
35.19301 242.000
35.21296 232.000
35.23291 272.000
35.25285 234.000
35.27280 295.000
35.29275 306.000
35.31269 368.000
35.33264 377.000
35.35259 479.000
35.37254 631.000
35.39248 703.000
35.41243 953.000
35.43238 1105.000
35.45232 1211.000
35.47227 1453.000
35.49222 1747.000
35.51216 2004.000
35.53211 2376.000
35.55206 2663.000
35.57201 2715.000
35.59195 2876.000
35.61190 2783.000
35.63185 2536.000
35.65179 2258.000
35.67174 1947.000
35.69169 1714.000
35.71163 1414.000
35.73158 1103.000
35.75153 858.000
35.77147 687.000
35.79142 534.000
35.81137 438.000
35.83132 390.000
35.85126 310.000
35.87121 266.000
35.89116 260.000
35.91110 259.000
35.93105 242.000
35.95100 214.000
35.97094 234.000
35.99089 227.000
36.01084 218.000
36.03079 210.000
36.05073 206.000
36.07068 182.000
36.09063 187.000
36.11057 194.000
36.13052 176.000
36.15047 196.000
36.17041 195.000
36.19036 181.000
36.21031 176.000
36.23025 203.000
36.25020 201.000
36.27015 197.000
36.29010 213.000
36.31004 191.000
36.32999 175.000
36.34994 198.000
36.36988 161.000
36.38983 219.000
36.40978 210.000
36.42972 210.000
36.44967 212.000
36.46962 211.000
36.48957 207.000
36.50951 215.000
36.52946 218.000
36.54941 255.000
36.56935 229.000
36.58930 232.000
36.60925 260.000
36.62919 239.000
36.64914 210.000
36.66909 206.000
36.68903 198.000
36.70898 193.000
36.72893 226.000
36.74888 207.000
36.76882 222.000
36.78877 220.000
36.80872 232.000
36.82866 216.000
36.84861 216.000
36.86856 196.000
36.88850 233.000
36.90845 206.000
36.92840 185.000
36.94835 208.000
36.96829 213.000
36.98824 198.000
37.00819 199.000
37.02813 221.000
37.04808 202.000
37.06803 211.000
37.08797 203.000
37.10792 215.000
37.12787 249.000
37.14781 239.000
37.16776 241.000
37.18771 301.000
37.20766 301.000
37.22760 297.000
37.24755 289.000
37.26750 274.000
37.28744 275.000
37.30739 251.000
37.32734 247.000
37.34728 223.000
37.36723 209.000
37.38718 198.000
37.40713 203.000
37.42707 190.000
37.44702 197.000
37.46697 201.000
37.48691 183.000
37.50686 222.000
37.52681 199.000
37.54675 194.000
37.56670 196.000
37.58665 194.000
37.60660 202.000
37.62654 183.000
37.64649 195.000
37.66644 175.000
37.68638 197.000
37.70633 177.000
37.72628 190.000
37.74622 191.000
37.76617 175.000
37.78612 169.000
37.80606 207.000
37.82601 156.000
37.84596 191.000
37.86591 179.000
37.88585 177.000
37.90580 183.000
37.92575 192.000
37.94569 194.000
37.96564 188.000
37.98559 204.000
38.00553 168.000
38.02548 198.000
38.04543 212.000
38.06538 182.000
38.08532 209.000
38.10527 184.000
38.12522 207.000
38.14516 197.000
38.16511 189.000
38.18506 200.000
38.20500 198.000
38.22495 242.000
38.24490 207.000
38.26484 207.000
38.28479 183.000
38.30474 204.000
38.32469 193.000
38.34463 229.000
38.36458 236.000
38.38453 203.000
38.40447 210.000
38.42442 246.000
38.44437 210.000
38.46431 258.000
38.48426 263.000
38.50421 271.000
38.52416 298.000
38.54410 344.000
38.56405 371.000
38.58400 459.000
38.60394 503.000
38.62389 701.000
38.64384 784.000
38.66378 939.000
38.68373 1046.000
38.70368 1090.000
38.72362 1021.000
38.74357 969.000
38.76352 926.000
38.78347 902.000
38.80341 798.000
38.82336 760.000
38.84331 727.000
38.86325 634.000
38.88320 618.000
38.90315 604.000
38.92309 543.000
38.94304 549.000
38.96299 575.000
38.98294 575.000
39.00288 612.000
39.02283 653.000
39.04278 732.000
39.06272 822.000
39.08267 891.000
39.10262 916.000
39.12256 997.000
39.14251 983.000
39.16246 1220.000
39.18241 1238.000
39.20235 1292.000
39.22230 1185.000
39.24225 1151.000
39.26219 1036.000
39.28214 961.000
39.30209 853.000
39.32203 759.000
39.34198 734.000
39.36193 564.000
39.38187 456.000
39.40182 390.000
39.42177 360.000
39.44172 294.000
39.46166 283.000
39.48161 262.000
39.50156 250.000
39.52150 223.000
39.54145 228.000
39.56140 195.000
39.58134 198.000
39.60129 199.000
39.62124 165.000
39.64119 201.000
39.66113 199.000
39.68108 204.000
39.70103 182.000
39.72097 185.000
39.74092 199.000
39.76087 218.000
39.78081 166.000
39.80076 204.000
39.82071 183.000
39.84065 191.000
39.86060 186.000
39.88055 180.000
39.90050 217.000
39.92044 188.000
39.94039 191.000
39.96034 204.000
39.98028 177.000
40.00023 179.000
40.02018 166.000
40.04012 189.000
40.06007 178.000
40.08002 211.000
40.09997 203.000
40.11991 179.000
40.13986 175.000
40.15981 157.000
40.17975 186.000
40.19970 163.000
40.21965 160.000
40.23959 181.000
40.25954 170.000
40.27949 181.000
40.29943 155.000
40.31938 175.000
40.33933 173.000
40.35928 176.000
40.37922 170.000
40.39917 170.000
40.41912 191.000
40.43906 156.000
40.45901 202.000
40.47896 184.000
40.49890 161.000
40.51885 167.000
40.53880 179.000
40.55875 168.000
40.57869 183.000
40.59864 183.000
40.61859 158.000
40.63853 215.000
40.65848 177.000
40.67843 185.000
40.69837 149.000
40.71832 176.000
40.73827 162.000
40.75822 183.000
40.77816 179.000
40.79811 166.000
40.81806 167.000
40.83800 171.000
40.85795 187.000
40.87790 178.000
40.89784 178.000
40.91779 185.000
40.93774 159.000
40.95768 172.000
40.97763 181.000
40.99758 166.000
41.01753 158.000
41.03747 145.000
41.05742 168.000
41.07737 168.000
41.09731 166.000
41.11726 180.000
41.13721 165.000
41.15715 171.000
41.17710 175.000
41.19705 176.000
41.21700 184.000
41.23694 181.000
41.25689 178.000
41.27684 182.000
41.29678 174.000
41.31673 201.000
41.33668 177.000
41.35662 174.000
41.37657 185.000
41.39652 195.000
41.41646 196.000
41.43641 204.000
41.45636 210.000
41.47631 186.000
41.49625 226.000
41.51620 256.000
41.53615 245.000
41.55609 270.000
41.57604 259.000
41.59599 283.000
41.61593 300.000
41.63588 258.000
41.65583 235.000
41.67578 222.000
41.69572 235.000
41.71567 227.000
41.73562 217.000
41.75556 216.000
41.77551 198.000
41.79546 217.000
41.81540 193.000
41.83535 185.000
41.85530 196.000
41.87524 176.000
41.89519 167.000
41.91514 177.000
41.93509 189.000
41.95503 160.000
41.97498 182.000
41.99493 174.000
42.01487 157.000
42.03482 178.000
42.05477 162.000
42.07471 161.000
42.09466 186.000
42.11461 177.000
42.13456 179.000
42.15450 189.000
42.17445 169.000
42.19440 181.000
42.21434 188.000
42.23429 169.000
42.25424 189.000
42.27418 158.000
42.29413 161.000
42.31408 205.000
42.33403 176.000
42.35397 177.000
42.37392 170.000
42.39387 182.000
42.41381 184.000
42.43376 176.000
42.45371 172.000
42.47365 189.000
42.49360 167.000
42.51355 164.000
42.53349 178.000
42.55344 187.000
42.57339 212.000
42.59334 201.000
42.61328 176.000
42.63323 175.000
42.65318 199.000
42.67312 195.000
42.69307 181.000
42.71302 165.000
42.73296 192.000
42.75291 191.000
42.77286 180.000
42.79281 170.000
42.81275 203.000
42.83270 184.000
42.85265 195.000
42.87259 195.000
42.89254 221.000
42.91249 216.000
42.93243 221.000
42.95238 192.000
42.97233 211.000
42.99227 203.000
43.01222 234.000
43.03217 256.000
43.05212 276.000
43.07206 314.000
43.09201 319.000
43.11196 372.000
43.13190 411.000
43.15185 447.000
43.17180 471.000
43.19174 613.000
43.21169 660.000
43.23164 751.000
43.25159 838.000
43.27153 848.000
43.29148 826.000
43.31143 889.000
43.33137 826.000
43.35132 713.000
43.37127 710.000
43.39121 630.000
43.41116 539.000
43.43111 505.000
43.45105 436.000
43.47100 337.000
43.49095 340.000
43.51090 295.000
43.53084 272.000
43.55079 259.000
43.57074 212.000
43.59068 229.000
43.61063 228.000
43.63058 231.000
43.65052 202.000
43.67047 168.000
43.69042 181.000
43.71037 196.000
43.73031 189.000
43.75026 191.000
43.77021 156.000
43.79015 174.000
43.81010 184.000
43.83005 189.000
43.84999 155.000
43.86994 178.000
43.88989 180.000
43.90984 163.000
43.92978 172.000
43.94973 186.000
43.96968 174.000
43.98962 198.000
44.00957 168.000
44.02952 163.000
44.04946 175.000
44.06941 176.000
44.08936 182.000
44.10930 169.000
44.12925 171.000
44.14920 171.000
44.16915 174.000
44.18909 167.000
44.20904 174.000
44.22899 165.000
44.24893 197.000
44.26888 193.000
44.28883 158.000
44.30877 176.000
44.32872 182.000
44.34867 181.000
44.36862 183.000
44.38856 181.000
44.40851 161.000
44.42846 187.000
44.44840 212.000
44.46835 193.000
44.48830 168.000
44.50824 178.000
44.52819 189.000
44.54814 175.000
44.56808 183.000
44.58803 189.000
44.60798 154.000
44.62793 192.000
44.64787 191.000
44.66782 179.000
44.68777 169.000
44.70771 177.000
44.72766 176.000
44.74761 175.000
44.76755 185.000
44.78750 177.000
44.80745 171.000
44.82740 170.000
44.84734 150.000
44.86729 199.000
44.88724 197.000
44.90718 184.000
44.92713 169.000
44.94708 199.000
44.96702 176.000
44.98697 176.000
45.00692 172.000
45.02686 200.000
45.04681 178.000
45.06676 189.000
45.08671 191.000
45.10665 154.000
45.12660 165.000
45.14655 177.000
45.16649 144.000
45.18644 166.000
45.20639 158.000
45.22633 170.000
45.24628 179.000
45.26623 191.000
45.28618 194.000
45.30612 170.000
45.32607 182.000
45.34602 172.000
45.36596 157.000
45.38591 173.000
45.40586 169.000
45.42580 184.000
45.44575 178.000
45.46570 162.000
45.48565 166.000
45.50559 160.000
45.52554 182.000
45.54549 153.000
45.56543 152.000
45.58538 200.000
45.60533 178.000
45.62527 184.000
45.64522 171.000
45.66517 182.000
45.68511 175.000
45.70506 135.000
45.72501 168.000
45.74496 147.000
45.76490 167.000
45.78485 198.000
45.80480 167.000
45.82474 178.000
45.84469 163.000
45.86464 166.000
45.88458 163.000
45.90453 146.000
45.92448 182.000
45.94443 192.000
45.96437 162.000
45.98432 147.000
46.00427 171.000
46.02421 169.000
46.04416 162.000
46.06411 193.000
46.08405 168.000
46.10400 153.000
46.12395 167.000
46.14389 169.000
46.16384 167.000
46.18379 222.000
46.20374 200.000
46.22368 170.000
46.24363 199.000
46.26358 194.000
46.28352 185.000
46.30347 180.000
46.32342 193.000
46.34336 187.000
46.36331 169.000
46.38326 183.000
46.40321 191.000
46.42315 173.000
46.44310 201.000
46.46305 174.000
46.48299 179.000
46.50294 169.000
46.52289 157.000
46.54283 158.000
46.56278 171.000
46.58273 170.000
46.60267 156.000
46.62262 167.000
46.64257 181.000
46.66252 159.000
46.68246 144.000
46.70241 178.000
46.72236 173.000
46.74230 150.000
46.76225 183.000
46.78220 161.000
46.80214 173.000
46.82209 169.000
46.84204 184.000
46.86199 164.000
46.88193 178.000
46.90188 158.000
46.92183 166.000
46.94177 157.000
46.96172 168.000
46.98167 168.000
47.00161 165.000
47.02156 144.000
47.04151 182.000
47.06146 166.000
47.08140 189.000
47.10135 163.000
47.12130 169.000
47.14124 146.000
47.16119 190.000
47.18114 165.000
47.20108 156.000
47.22103 191.000
47.24098 174.000
47.26092 171.000
47.28087 182.000
47.30082 175.000
47.32077 181.000
47.34071 188.000
47.36066 207.000
47.38061 176.000
47.40055 186.000
47.42050 176.000
47.44045 169.000
47.46039 161.000
47.48034 193.000
47.50029 182.000
47.52024 166.000
47.54018 181.000
47.56013 178.000
47.58008 197.000
47.60002 178.000
47.61997 175.000
47.63992 178.000
47.65986 164.000
47.67981 185.000
47.69976 189.000
47.71970 197.000
47.73965 186.000
47.75960 211.000
47.77955 178.000
47.79949 206.000
47.81944 179.000
47.83939 173.000
47.85933 177.000
47.87928 183.000
47.89923 185.000
47.91917 178.000
47.93912 162.000
47.95907 162.000
47.97902 176.000
47.99896 184.000
48.01891 199.000
48.03886 219.000
48.05880 209.000
48.07875 187.000
48.09870 186.000
48.11864 198.000
48.13859 220.000
48.15854 205.000
48.17848 229.000
48.19843 193.000
48.21838 192.000
48.23833 237.000
48.25827 232.000
48.27822 257.000
48.29817 261.000
48.31811 260.000
48.33806 317.000
48.35801 325.000
48.37795 317.000
48.39790 364.000
48.41785 495.000
48.43780 505.000
48.45774 577.000
48.47769 699.000
48.49764 851.000
48.51758 991.000
48.53753 1146.000
48.55748 1119.000
48.57742 1154.000
48.59737 1129.000
48.61732 1105.000
48.63726 1113.000
48.65721 1046.000
48.67716 982.000
48.69711 975.000
48.71705 871.000
48.73700 831.000
48.75695 792.000
48.77689 716.000
48.79684 653.000
48.81679 596.000
48.83673 496.000
48.85668 462.000
48.87663 393.000
48.89658 428.000
48.91652 371.000
48.93647 343.000
48.95642 325.000
48.97636 255.000
48.99631 288.000
49.01626 240.000
49.03620 218.000
49.05615 225.000
49.07610 252.000
49.09605 196.000
49.11599 189.000
49.13594 206.000
49.15589 203.000
49.17583 179.000
49.19578 198.000
49.21573 179.000
49.23567 188.000
49.25562 171.000
49.27557 195.000
49.29551 172.000
49.31546 183.000
49.33541 164.000
49.35536 183.000
49.37530 162.000
49.39525 191.000
49.41520 196.000
49.43514 184.000
49.45509 177.000
49.47504 180.000
49.49498 176.000
49.51493 178.000
49.53488 188.000
49.55483 180.000
49.57477 171.000
49.59472 181.000
49.61467 157.000
49.63461 174.000
49.65456 175.000
49.67451 183.000
49.69445 197.000
49.71440 193.000
49.73435 188.000
49.75429 163.000
49.77424 179.000
49.79419 179.000
49.81414 167.000
49.83408 194.000
49.85403 172.000
49.87398 171.000
49.89392 163.000
49.91387 173.000
49.93382 185.000
49.95376 174.000
49.97371 159.000
49.99366 159.000
50.01361 162.000
50.03355 159.000
50.05350 169.000
50.07345 211.000
50.09339 212.000
50.11334 171.000
50.13329 168.000
50.15323 170.000
50.17318 176.000
50.19313 168.000
50.21307 161.000
50.23302 158.000
50.25297 168.000
50.27292 151.000
50.29286 183.000
50.31281 154.000
50.33276 164.000
50.35270 176.000
50.37265 164.000
50.39260 168.000
50.41254 168.000
50.43249 181.000
50.45244 178.000
50.47239 160.000
50.49233 184.000
50.51228 174.000
50.53223 165.000
50.55217 153.000
50.57212 169.000
50.59207 177.000
50.61201 194.000
50.63196 181.000
50.65191 164.000
50.67186 154.000
50.69180 170.000
50.71175 155.000
50.73170 197.000
50.75164 193.000
50.77159 181.000
50.79154 159.000
50.81148 164.000
50.83143 170.000
50.85138 192.000
50.87132 180.000
50.89127 151.000
50.91122 164.000
50.93117 189.000
50.95111 184.000
50.97106 180.000
50.99101 184.000
51.01095 182.000
51.03090 149.000
51.05085 189.000
51.07079 172.000
51.09074 199.000
51.11069 159.000
51.13064 158.000
51.15058 161.000
51.17053 173.000
51.19048 179.000
51.21042 192.000
51.23037 198.000
51.25032 188.000
51.27026 164.000
51.29021 161.000
51.31016 171.000
51.33010 191.000
51.35005 165.000
51.37000 192.000
51.38995 177.000
51.40989 182.000
51.42984 179.000
51.44979 168.000
51.46973 147.000
51.48968 197.000
51.50963 180.000
51.52957 189.000
51.54952 163.000
51.56947 179.000
51.58942 154.000
51.60936 194.000
51.62931 176.000
51.64926 156.000
51.66920 167.000
51.68915 171.000
51.70910 182.000
51.72904 163.000
51.74899 184.000
51.76894 168.000
51.78888 186.000
51.80883 171.000
51.82878 177.000
51.84873 172.000
51.86867 164.000
51.88862 182.000
51.90857 164.000
51.92851 172.000
51.94846 179.000
51.96841 150.000
51.98835 197.000
52.00830 171.000
52.02825 165.000
52.04820 161.000
52.06814 163.000
52.08809 185.000
52.10804 144.000
52.12798 154.000
52.14793 168.000
52.16788 162.000
52.18782 163.000
52.20777 168.000
52.22772 173.000
52.24767 180.000
52.26761 191.000
52.28756 141.000
52.30751 181.000
52.32745 164.000
52.34740 166.000
52.36735 180.000
52.38729 179.000
52.40724 170.000
52.42719 159.000
52.44713 190.000
52.46708 164.000
52.48703 162.000
52.50698 173.000
52.52692 196.000
52.54687 168.000
52.56682 157.000
52.58676 182.000
52.60671 167.000
52.62666 181.000
52.64660 150.000
52.66655 165.000
52.68650 209.000
52.70645 160.000
52.72639 166.000
52.74634 179.000
52.76629 161.000
52.78623 169.000
52.80618 176.000
52.82613 176.000
52.84607 200.000
52.86602 177.000
52.88597 169.000
52.90591 164.000
52.92586 172.000
52.94581 189.000
52.96576 195.000
52.98570 189.000
53.00565 152.000
53.02560 158.000
53.04554 161.000
53.06549 172.000
53.08544 188.000
53.10538 183.000
53.12533 149.000
53.14528 179.000
53.16523 187.000
53.18517 195.000
53.20512 171.000
53.22507 182.000
53.24501 181.000
53.26496 215.000
53.28491 195.000
53.30485 201.000
53.32480 185.000
53.34475 203.000
53.36469 211.000
53.38464 228.000
53.40459 229.000
53.42454 245.000
53.44448 184.000
53.46443 222.000
53.48438 231.000
53.50432 226.000
53.52427 242.000
53.54422 235.000
53.56416 230.000
53.58411 241.000
53.60406 277.000
53.62401 266.000
53.64395 308.000
53.66390 300.000
53.68385 276.000
53.70379 326.000
53.72374 317.000
53.74369 266.000
53.76363 257.000
53.78358 271.000
53.80353 244.000
53.82348 255.000
53.84342 226.000
53.86337 192.000
53.88332 213.000
53.90326 252.000
53.92321 225.000
53.94316 195.000
53.96310 182.000
53.98305 188.000
54.00300 161.000
54.02294 178.000
54.04289 178.000
54.06284 175.000
54.08279 183.000
54.10273 161.000
54.12268 148.000
54.14263 161.000
54.16257 150.000
54.18252 195.000
54.20247 169.000
54.22241 160.000
54.24236 180.000
54.26231 166.000
54.28226 163.000
54.30220 156.000
54.32215 172.000
54.34210 161.000
54.36204 174.000
54.38199 167.000
54.40194 176.000
54.42188 174.000
54.44183 169.000
54.46178 168.000
54.48172 182.000
54.50167 166.000
54.52162 185.000
54.54157 161.000
54.56151 153.000
54.58146 150.000
54.60141 183.000
54.62135 155.000
54.64130 164.000
54.66125 166.000
54.68119 150.000
54.70114 157.000
54.72109 175.000
54.74104 161.000
54.76098 156.000
54.78093 165.000
54.80088 143.000
54.82082 195.000
54.84077 170.000
54.86072 166.000
54.88066 157.000
54.90061 187.000
54.92056 164.000
54.94050 171.000
54.96045 199.000
54.98040 157.000
55.00035 172.000
55.02029 162.000
55.04024 159.000
55.06019 178.000
55.08013 177.000
55.10008 154.000
55.12003 168.000
55.13997 146.000
55.15992 192.000
55.17987 174.000
55.19982 168.000
55.21976 165.000
55.23971 166.000
55.25966 168.000
55.27960 184.000
55.29955 172.000
55.31950 153.000
55.33944 188.000
55.35939 182.000
55.37934 183.000
55.39929 170.000
55.41923 161.000
55.43918 181.000
55.45913 172.000
55.47907 158.000
55.49902 148.000
55.51897 161.000
55.53891 151.000
55.55886 159.000
55.57881 168.000
55.59875 181.000
55.61870 158.000
55.63865 172.000
55.65860 187.000
55.67854 180.000
55.69849 141.000
55.71844 172.000
55.73838 171.000
55.75833 166.000
55.77828 165.000
55.79822 166.000
55.81817 184.000
55.83812 158.000
55.85807 169.000
55.87801 180.000
55.89796 191.000
55.91791 205.000
55.93785 175.000
55.95780 184.000
55.97775 170.000
55.99769 148.000
56.01764 193.000
56.03759 180.000
56.05753 146.000
56.07748 189.000
56.09743 148.000
56.11738 140.000
56.13732 162.000
56.15727 189.000
56.17722 183.000
56.19716 157.000
56.21711 173.000
56.23706 167.000
56.25700 164.000
56.27695 191.000
56.29690 171.000
56.31685 169.000
56.33679 177.000
56.35674 182.000
56.37669 177.000
56.39663 158.000
56.41658 170.000
56.43653 172.000
56.45647 148.000
56.47642 154.000
56.49637 172.000
56.51631 175.000
56.53626 182.000
56.55621 180.000
56.57616 167.000
56.59610 179.000
56.61605 194.000
56.63600 190.000
56.65594 183.000
56.67589 189.000
56.69584 171.000
56.71578 183.000
56.73573 194.000
56.75568 181.000
56.77563 156.000
56.79557 174.000
56.81552 186.000
56.83547 196.000
56.85541 196.000
56.87536 194.000
56.89531 205.000
56.91525 231.000
56.93520 209.000
56.95515 214.000
56.97510 213.000
56.99504 228.000
57.01499 238.000
57.03494 295.000
57.05488 265.000
57.07483 281.000
57.09478 304.000
57.11472 347.000
57.13467 374.000
57.15462 400.000
57.17456 434.000
57.19451 459.000
57.21446 466.000
57.23441 475.000
57.25435 499.000
57.27430 474.000
57.29425 389.000
57.31419 421.000
57.33414 443.000
57.35409 379.000
57.37403 352.000
57.39398 352.000
57.41393 351.000
57.43388 341.000
57.45382 309.000
57.47377 256.000
57.49372 248.000
57.51366 234.000
57.53361 201.000
57.55356 223.000
57.57350 230.000
57.59345 205.000
57.61340 169.000
57.63334 187.000
57.65329 211.000
57.67324 205.000
57.69319 187.000
57.71313 167.000
57.73308 184.000
57.75303 193.000
57.77297 154.000
57.79292 161.000
57.81287 172.000
57.83281 182.000
57.85276 176.000
57.87271 175.000
57.89266 164.000
57.91260 193.000
57.93255 181.000
57.95250 193.000
57.97244 182.000
57.99239 191.000
58.01234 162.000
58.03228 175.000
58.05223 206.000
58.07218 197.000
58.09212 198.000
58.11207 199.000
58.13202 232.000
58.15197 244.000
58.17191 249.000
58.19186 255.000
58.21181 247.000
58.23175 283.000
58.25170 285.000
58.27165 287.000
58.29159 284.000
58.31154 249.000
58.33149 236.000
58.35144 246.000
58.37138 230.000
58.39133 242.000
58.41128 245.000
58.43122 229.000
58.45117 220.000
58.47112 222.000
58.49106 190.000
58.51101 194.000
58.53096 177.000
58.55090 194.000
58.57085 190.000
58.59080 212.000
58.61075 201.000
58.63069 195.000
58.65064 169.000
58.67059 188.000
58.69053 180.000
58.71048 181.000
58.73043 189.000
58.75037 182.000
58.77032 182.000
58.79027 172.000
58.81022 182.000
58.83016 193.000
58.85011 179.000
58.87006 176.000
58.89000 180.000
58.90995 185.000
58.92990 182.000
58.94984 171.000
58.96979 168.000
58.98974 178.000
59.00969 161.000
59.02963 180.000
59.04958 161.000
59.06953 185.000
59.08947 162.000
59.10942 178.000
59.12937 167.000
59.14931 170.000
59.16926 174.000
59.18921 186.000
59.20915 187.000
59.22910 178.000
59.24905 166.000
59.26900 180.000
59.28894 159.000
59.30889 159.000
59.32884 184.000
59.34878 187.000
59.36873 188.000
59.38868 153.000
59.40862 175.000
59.42857 165.000
59.44852 171.000
59.46847 187.000
59.48841 169.000
59.50836 147.000
59.52831 190.000
59.54825 172.000
59.56820 182.000
59.58815 175.000
59.60809 160.000
59.62804 170.000
59.64799 184.000
59.66793 175.000
59.68788 140.000
59.70783 168.000
59.72778 184.000
59.74772 169.000
59.76767 185.000
59.78762 179.000
59.80756 173.000
59.82751 136.000
59.84746 151.000
59.86740 167.000
59.88735 164.000
59.90730 190.000
59.92725 154.000
59.94719 148.000
59.96714 178.000
59.98709 183.000
60.00703 162.000
60.02698 162.000
60.04693 193.000
60.06687 168.000
60.08682 157.000
60.10677 176.000
60.12671 170.000
60.14666 187.000
60.16661 165.000
60.18656 176.000
60.20650 172.000
60.22645 184.000
60.24640 177.000
60.26634 186.000
60.28629 181.000
60.30624 170.000
60.32618 170.000
60.34613 168.000
60.36608 176.000
60.38603 171.000
60.40597 171.000
60.42592 164.000
60.44587 190.000
60.46581 181.000
60.48576 177.000
60.50571 192.000
60.52565 175.000
60.54560 181.000
60.56555 188.000
60.58550 172.000
60.60544 190.000
60.62539 186.000
60.64534 171.000
60.66528 172.000
60.68523 187.000
60.70518 166.000
60.72512 205.000
60.74507 183.000
60.76502 188.000
60.78496 179.000
60.80491 151.000
60.82486 183.000
60.84481 189.000
60.86475 179.000
60.88470 186.000
60.90465 186.000
60.92459 170.000
60.94454 153.000
60.96449 190.000
60.98443 172.000
61.00438 187.000
61.02433 203.000
61.04428 169.000
61.06422 162.000
61.08417 174.000
61.10412 198.000
61.12406 201.000
61.14401 189.000
61.16396 173.000
61.18390 202.000
61.20385 199.000
61.22380 159.000
61.24374 209.000
61.26369 188.000
61.28364 210.000
61.30359 216.000
61.32353 204.000
61.34348 187.000
61.36343 258.000
61.38337 242.000
61.40332 218.000
61.42327 227.000
61.44321 251.000
61.46316 262.000
61.48311 343.000
61.50306 344.000
61.52300 384.000
61.54295 405.000
61.56290 386.000
61.58284 446.000
61.60279 419.000
61.62274 434.000
61.64268 406.000
61.66263 476.000
61.68258 470.000
61.70252 531.000
61.72247 541.000
61.74242 561.000
61.76237 538.000
61.78231 550.000
61.80226 541.000
61.82221 544.000
61.84215 538.000
61.86210 498.000
61.88205 477.000
61.90199 504.000
61.92194 445.000
61.94189 441.000
61.96184 401.000
61.98178 361.000
62.00173 361.000
62.02168 323.000
62.04162 341.000
62.06157 335.000
62.08152 286.000
62.10146 271.000
62.12141 239.000
62.14136 260.000
62.16131 253.000
62.18125 250.000
62.20120 225.000
62.22115 205.000
62.24109 223.000
62.26104 228.000
62.28099 217.000
62.30093 194.000
62.32088 231.000
62.34083 181.000
62.36077 192.000
62.38072 213.000
62.40067 208.000
62.42062 219.000
62.44056 185.000
62.46051 218.000
62.48046 213.000
62.50040 210.000
62.52035 232.000
62.54030 216.000
62.56024 224.000
62.58019 234.000
62.60014 247.000
62.62009 266.000
62.64003 291.000
62.65998 316.000
62.67993 354.000
62.69987 352.000
62.71982 399.000
62.73977 409.000
62.75971 442.000
62.77966 468.000
62.79961 561.000
62.81955 526.000
62.83950 589.000
62.85945 598.000
62.87940 564.000
62.89934 539.000
62.91929 551.000
62.93924 503.000
62.95918 528.000
62.97913 456.000
62.99908 432.000
63.01902 420.000
63.03897 414.000
63.05892 351.000
63.07887 339.000
63.09881 358.000
63.11876 299.000
63.13871 284.000
63.15865 252.000
63.17860 221.000
63.19855 225.000
63.21849 262.000
63.23844 194.000
63.25839 188.000
63.27833 200.000
63.29828 199.000
63.31823 223.000
63.33818 192.000
63.35812 195.000
63.37807 195.000
63.39802 170.000
63.41796 214.000
63.43791 211.000
63.45786 176.000
63.47780 204.000
63.49775 190.000
63.51770 183.000
63.53765 201.000
63.55759 201.000
63.57754 207.000
63.59749 218.000
63.61743 257.000
63.63738 240.000
63.65733 231.000
63.67727 248.000
63.69722 277.000
63.71717 248.000
63.73712 290.000
63.75706 277.000
63.77701 279.000
63.79696 287.000
63.81690 277.000
63.83685 280.000
63.85680 312.000
63.87674 314.000
63.89669 303.000
63.91664 367.000
63.93658 320.000
63.95653 332.000
63.97648 385.000
63.99643 380.000
64.01637 388.000
64.03632 384.000
64.05627 384.000
64.07621 387.000
64.09616 374.000
64.11611 368.000
64.13605 384.000
64.15600 351.000
64.17595 338.000
64.19590 367.000
64.21584 307.000
64.23579 305.000
64.25574 305.000
64.27568 285.000
64.29563 279.000
64.31558 244.000
64.33552 271.000
64.35547 233.000
64.37542 225.000
64.39536 210.000
64.41531 199.000
64.43526 217.000
64.45521 230.000
64.47515 187.000
64.49510 172.000
64.51505 168.000
64.53499 182.000
64.55494 201.000
64.57489 194.000
64.59483 158.000
64.61478 183.000
64.63473 199.000
64.65468 162.000
64.67462 189.000
64.69457 173.000
64.71452 190.000
64.73446 188.000
64.75441 176.000
64.77436 197.000
64.79430 174.000
64.81425 181.000
64.83420 177.000
64.85414 155.000
64.87409 182.000
64.89404 176.000
64.91399 178.000
64.93393 154.000
64.95388 165.000
64.97383 196.000
64.99377 155.000
65.01372 165.000
65.03367 209.000
65.05361 208.000
65.07356 177.000
65.09351 197.000
65.11346 168.000
65.13340 191.000
65.15335 186.000
65.17330 180.000
65.19324 176.000
65.21319 192.000
65.23314 177.000
65.25308 184.000
65.27303 191.000
65.29298 190.000
65.31293 180.000
65.33287 187.000
65.35282 187.000
65.37277 193.000
65.39271 193.000
65.41266 202.000
65.43261 211.000
65.45255 210.000
65.47250 197.000
65.49245 213.000
65.51239 224.000
65.53234 205.000
65.55229 204.000
65.57224 222.000
65.59218 219.000
65.61213 200.000
65.63208 239.000
65.65202 227.000
65.67197 236.000
65.69192 219.000
65.71186 222.000
65.73181 264.000
65.75176 242.000
65.77171 252.000
65.79165 222.000
65.81160 249.000
65.83155 221.000
65.85149 260.000
65.87144 252.000
65.89139 290.000
65.91133 266.000
65.93128 285.000
65.95123 262.000
65.97117 267.000
65.99112 277.000
66.01107 288.000
66.03102 272.000
66.05096 239.000
66.07091 300.000
66.09086 291.000
66.11080 279.000
66.13075 316.000
66.15070 326.000
66.17064 338.000
66.19059 347.000
66.21054 376.000
66.23049 355.000
66.25043 343.000
66.27038 388.000
66.29033 389.000
66.31027 415.000
66.33022 388.000
66.35017 423.000
66.37011 343.000
66.39006 396.000
66.41001 368.000
66.42995 443.000
66.44990 371.000
66.46985 378.000
66.48980 391.000
66.50974 345.000
66.52969 356.000
66.54964 371.000
66.56958 314.000
66.58953 327.000
66.60948 313.000
66.62942 336.000
66.64937 298.000
66.66932 287.000
66.68927 282.000
66.70921 248.000
66.72916 264.000
66.74911 249.000
66.76905 257.000
66.78900 199.000
66.80895 209.000
66.82889 220.000
66.84884 215.000
66.86879 236.000
66.88874 213.000
66.90868 217.000
66.92863 187.000
66.94858 204.000
66.96852 221.000
66.98847 192.000
67.00842 226.000
67.02836 196.000
67.04831 197.000
67.06826 185.000
67.08820 170.000
67.10815 209.000
67.12810 182.000
67.14805 202.000
67.16799 197.000
67.18794 170.000
67.20789 222.000
67.22783 188.000
67.24778 166.000
67.26773 210.000
67.28767 177.000
67.30762 184.000
67.32757 188.000
67.34752 167.000
67.36746 187.000
67.38741 183.000
67.40736 182.000
67.42730 176.000
67.44725 200.000
67.46720 203.000
67.48714 199.000
67.50709 169.000
67.52704 193.000
67.54698 173.000
67.56693 169.000
67.58688 195.000
67.60683 179.000
67.62677 174.000
67.64672 201.000
67.66667 191.000
67.68661 178.000
67.70656 210.000
67.72651 189.000
67.74645 213.000
67.76640 204.000
67.78635 225.000
67.80630 226.000
67.82624 248.000
67.84619 223.000
67.86614 263.000
67.88608 253.000
67.90603 256.000
67.92598 259.000
67.94592 239.000
67.96587 277.000
67.98582 276.000
68.00576 287.000
68.02571 294.000
68.04566 265.000
68.06561 307.000
68.08555 263.000
68.10550 277.000
68.12545 281.000
68.14539 268.000
68.16534 276.000
68.18529 251.000
68.20523 261.000
68.22518 252.000
68.24513 247.000
68.26508 225.000
68.28502 225.000
68.30497 207.000
68.32492 216.000
68.34486 217.000
68.36481 211.000
68.38476 190.000
68.40470 211.000
68.42465 207.000
68.44460 191.000
68.46455 154.000
68.48449 192.000
68.50444 192.000
68.52439 206.000
68.54433 172.000
68.56428 153.000
68.58423 184.000
68.60417 164.000
68.62412 158.000
68.64407 194.000
68.66401 185.000
68.68396 158.000
68.70391 158.000
68.72386 162.000
68.74380 168.000
68.76375 168.000
68.78370 163.000
68.80364 180.000
68.82359 171.000
68.84354 174.000
68.86348 194.000
68.88343 166.000
68.90338 178.000
68.92333 172.000
68.94327 180.000
68.96322 165.000
68.98317 160.000
69.00311 169.000
69.02306 179.000
69.04301 153.000
69.06295 219.000
69.08290 179.000
69.10285 157.000
69.12279 181.000
69.14274 176.000
69.16269 175.000
69.18264 170.000
69.20258 184.000
69.22253 167.000
69.24248 181.000
69.26242 175.000
69.28237 161.000
69.30232 186.000
69.32226 166.000
69.34221 156.000
69.36216 177.000
69.38211 149.000
69.40205 149.000
69.42200 180.000
69.44195 141.000
69.46189 156.000
69.48184 185.000
69.50179 172.000
69.52173 164.000
69.54168 178.000
69.56163 171.000
69.58157 190.000
69.60152 174.000
69.62147 180.000
69.64142 179.000
69.66136 144.000
69.68131 181.000
69.70126 170.000
69.72120 179.000
69.74115 187.000
69.76110 173.000
69.78104 160.000
69.80099 153.000
69.82094 187.000
69.84089 176.000
69.86083 165.000
69.88078 174.000
69.90073 179.000
69.92067 172.000
69.94062 157.000
69.96057 152.000
69.98051 183.000
70.00046 149.000
70.02041 173.000
70.04035 172.000
70.06030 160.000
70.08025 181.000
70.10020 159.000
70.12014 161.000
70.14009 176.000
70.16004 175.000
70.17998 166.000
70.19993 162.000
70.21988 157.000
70.23982 157.000
70.25977 173.000
70.27972 181.000
70.29967 158.000
70.31961 147.000
70.33956 191.000
70.35951 178.000
70.37945 179.000
70.39940 172.000
70.41935 164.000
70.43929 184.000
70.45924 168.000
70.47919 174.000
70.49914 160.000
70.51908 163.000
70.53903 171.000
70.55898 163.000
70.57892 166.000
70.59887 172.000
70.61882 170.000
70.63876 174.000
70.65871 180.000
70.67866 198.000
70.69860 183.000
70.71855 165.000
70.73850 170.000
70.75845 167.000
70.77839 175.000
70.79834 167.000
70.81829 165.000
70.83823 167.000
70.85818 171.000
70.87813 171.000
70.89807 167.000
70.91802 161.000
70.93797 155.000
70.95792 173.000
70.97786 165.000
70.99781 164.000
71.01776 170.000
71.03770 162.000
71.05765 178.000
71.07760 166.000
71.09754 175.000
71.11749 179.000
71.13744 149.000
71.15738 154.000
71.17733 185.000
71.19728 174.000
71.21723 220.000
71.23717 183.000
71.25712 177.000
71.27707 199.000
71.29701 194.000
71.31696 177.000
71.33691 185.000
71.35685 192.000
71.37680 179.000
71.39675 200.000
71.41670 162.000
71.43664 185.000
71.45659 155.000
71.47654 153.000
71.49648 212.000
71.51643 177.000
71.53638 165.000
71.55632 185.000
71.57627 185.000
71.59622 170.000
71.61616 165.000
71.63611 178.000
71.65606 194.000
71.67601 180.000
71.69595 197.000
71.71590 190.000
71.73585 190.000
71.75579 176.000
71.77574 165.000
71.79569 164.000
71.81563 154.000
71.83558 165.000
71.85553 165.000
71.87548 201.000
71.89542 166.000
71.91537 156.000
71.93532 174.000
71.95526 188.000
71.97521 189.000
71.99516 198.000
72.01510 154.000
72.03505 172.000
72.05500 187.000
72.07495 174.000
72.09489 136.000
72.11484 176.000
72.13479 157.000
72.15473 213.000
72.17468 205.000
72.19463 171.000
72.21457 178.000
72.23452 167.000
72.25447 175.000
72.27441 209.000
72.29436 199.000
72.31431 183.000
72.33426 239.000
72.35420 222.000
72.37415 222.000
72.39410 232.000
72.41404 221.000
72.43399 210.000
72.45394 210.000
72.47388 207.000
72.49383 218.000
72.51378 212.000
72.53373 205.000
72.55367 193.000
72.57362 198.000
72.59357 177.000
72.61351 187.000
72.63346 189.000
72.65341 194.000
72.67335 171.000
72.69330 204.000
72.71325 191.000
72.73319 167.000
72.75314 201.000
72.77309 186.000
72.79304 160.000
72.81298 209.000
72.83293 168.000
72.85288 184.000
72.87282 180.000
72.89277 195.000
72.91272 192.000
72.93266 200.000
72.95261 201.000
72.97256 203.000
72.99251 208.000
73.01245 193.000
73.03240 204.000
73.05235 214.000
73.07229 244.000
73.09224 197.000
73.11219 225.000
73.13213 218.000
73.15208 223.000
73.17203 232.000
73.19197 213.000
73.21192 205.000
73.23187 242.000
73.25182 244.000
73.27176 191.000
73.29171 261.000
73.31166 245.000
73.33160 241.000
73.35155 223.000
73.37150 230.000
73.39144 216.000
73.41139 268.000
73.43134 250.000
73.45129 241.000
73.47123 196.000
73.49118 210.000
73.51113 216.000
73.53107 198.000
73.55102 206.000
73.57097 226.000
73.59091 233.000
73.61086 199.000
73.63081 228.000
73.65076 202.000
73.67070 176.000
73.69065 192.000
73.71060 198.000
73.73054 190.000
73.75049 174.000
73.77044 176.000
73.79038 170.000
73.81033 192.000
73.83028 190.000
73.85022 182.000
73.87017 171.000
73.89012 189.000
73.91007 183.000
73.93001 190.000
73.94996 206.000
73.96991 170.000
73.98985 184.000
74.00980 175.000
74.02975 163.000
74.04969 163.000
74.06964 189.000
74.08959 161.000
74.10954 199.000
74.12948 203.000
74.14943 200.000
74.16938 184.000
74.18932 183.000
74.20927 204.000
74.22922 191.000
74.24916 201.000
74.26911 219.000
74.28906 194.000
74.30900 222.000
74.32895 236.000
74.34890 225.000
74.36885 225.000
74.38879 271.000
74.40874 242.000
74.42869 211.000
74.44863 220.000
74.46858 230.000
74.48853 236.000
74.50847 216.000
74.52842 222.000
74.54837 245.000
74.56832 189.000
74.58826 218.000
74.60821 183.000
74.62816 228.000
74.64810 190.000
74.66805 188.000
74.68800 207.000
74.70794 206.000
74.72789 165.000
74.74784 187.000
74.76778 181.000
74.78773 183.000
74.80768 185.000
74.82763 177.000
74.84757 189.000
74.86752 191.000
74.88747 211.000
74.90741 199.000
74.92736 212.000
74.94731 216.000
74.96725 254.000
74.98720 243.000
75.00715 250.000
75.02710 185.000
75.04704 231.000
75.06699 228.000
75.08694 219.000
75.10688 225.000
75.12683 249.000
75.14678 199.000
75.16672 240.000
75.18667 264.000
75.20662 245.000
75.22657 236.000
75.24651 231.000
75.26646 245.000
75.28641 247.000
75.30635 222.000
75.32630 232.000
75.34625 258.000
75.36619 264.000
75.38614 222.000
75.40609 254.000
75.42603 225.000
75.44598 248.000
75.46593 214.000
75.48588 245.000
75.50582 238.000
75.52577 235.000
75.54572 252.000
75.56566 242.000
75.58561 244.000
75.60556 213.000
75.62550 206.000
75.64545 215.000
75.66540 215.000
75.68535 217.000
75.70529 195.000
75.72524 188.000
75.74519 228.000
75.76513 183.000
75.78508 189.000
75.80503 178.000
75.82497 184.000
75.84492 199.000
75.86487 157.000
75.88481 175.000
75.90476 180.000
75.92471 165.000
75.94466 163.000
75.96460 160.000
75.98455 148.000
76.00450 175.000
76.02444 179.000
76.04439 173.000
76.06434 175.000
76.08428 178.000
76.10423 174.000
76.12418 188.000
76.14413 159.000
76.16407 164.000
76.18402 179.000
76.20397 192.000
76.22391 168.000
76.24386 162.000
76.26381 153.000
76.28375 169.000
76.30370 181.000
76.32365 168.000
76.34359 158.000
76.36354 187.000
76.38349 181.000
76.40344 202.000
76.42338 159.000
76.44333 163.000
76.46328 154.000
76.48322 182.000
76.50317 150.000
76.52312 163.000
76.54306 165.000
76.56301 185.000
76.58296 203.000
76.60291 198.000
76.62285 167.000
76.64280 180.000
76.66275 154.000
76.68269 189.000
76.70264 168.000
76.72259 165.000
76.74253 172.000
76.76248 210.000
76.78243 168.000
76.80238 158.000
76.82232 163.000
76.84227 173.000
76.86222 165.000
76.88216 162.000
76.90211 168.000
76.92206 194.000
76.94200 156.000
76.96195 167.000
76.98190 182.000
77.00184 159.000
77.02179 193.000
77.04174 170.000
77.06169 165.000
77.08163 171.000
77.10158 197.000
77.12153 199.000
77.14147 158.000
77.16142 177.000
77.18137 175.000
77.20131 169.000
77.22126 174.000
77.24121 184.000
77.26116 199.000
77.28110 216.000
77.30105 202.000
77.32100 198.000
77.34094 189.000
77.36089 210.000
77.38084 188.000
77.40078 221.000
77.42073 197.000
77.44068 205.000
77.46062 209.000
77.48057 194.000
77.50052 201.000
77.52047 210.000
77.54041 202.000
77.56036 243.000
77.58031 246.000
77.60025 231.000
77.62020 223.000
77.64015 230.000
77.66009 226.000
77.68004 240.000
77.69999 227.000
77.71994 231.000
77.73988 232.000
77.75983 249.000
77.77978 254.000
77.79972 259.000
77.81967 301.000
77.83962 276.000
77.85956 298.000
77.87951 252.000
77.89946 264.000
77.91940 297.000
77.93935 281.000
77.95930 262.000
77.97925 270.000
77.99919 258.000
78.01914 269.000
78.03909 267.000
78.05903 261.000
78.07898 281.000
78.09893 227.000
78.11887 257.000
78.13882 228.000
78.15877 271.000
78.17872 240.000
78.19866 244.000
78.21861 225.000
78.23856 214.000
78.25850 227.000
78.27845 234.000
78.29840 221.000
78.31834 202.000
78.33829 206.000
78.35824 175.000
78.37819 178.000
78.39813 203.000
78.41808 200.000
78.43803 218.000
78.45797 169.000
78.47792 186.000
78.49787 163.000
78.51781 206.000
78.53776 195.000
78.55771 175.000
78.57765 189.000
78.59760 193.000
78.61755 169.000
78.63750 172.000
78.65744 207.000
78.67739 178.000
78.69734 159.000
78.71728 178.000
78.73723 143.000
78.75718 170.000
78.77712 169.000
78.79707 173.000
78.81702 176.000
78.83697 189.000
78.85691 175.000
78.87686 167.000
78.89681 186.000
78.91675 187.000
78.93670 141.000
78.95665 177.000
78.97659 175.000
78.99654 185.000
79.01649 165.000
79.03643 180.000
79.05638 185.000
79.07633 182.000
79.09628 158.000
79.11622 173.000
79.13617 179.000
79.15612 180.000
79.17606 173.000
79.19601 202.000
79.21596 195.000
79.23590 179.000
79.25585 164.000
79.27580 218.000
79.29575 180.000
79.31569 194.000
79.33564 177.000
79.35559 172.000
79.37553 184.000
79.39548 195.000
79.41543 204.000
79.43537 199.000
79.45532 198.000
79.47527 191.000
79.49521 192.000
79.51516 182.000
79.53511 212.000
79.55506 202.000
79.57500 170.000
79.59495 175.000
79.61490 204.000
79.63484 170.000
79.65479 196.000
79.67474 160.000
79.69468 191.000
79.71463 165.000
79.73458 206.000
79.75453 143.000
79.77447 167.000
79.79442 164.000
79.81437 164.000
79.83431 177.000
79.85426 166.000
79.87421 193.000
79.89415 176.000
79.91410 185.000
79.93405 168.000
79.95399 173.000
79.97394 168.000
79.99389 175.000
80.01384 183.000
80.03378 190.000
80.05373 189.000
80.07368 189.000
80.09362 163.000
80.11357 218.000
80.13352 180.000
80.15346 186.000
80.17341 176.000
80.19336 213.000
80.21331 193.000
80.23325 194.000
80.25320 214.000
80.27315 180.000
80.29309 184.000
80.31304 194.000
80.33299 178.000
80.35293 208.000
80.37288 171.000
80.39283 220.000
80.41278 166.000
80.43272 192.000
80.45267 178.000
80.47262 201.000
80.49256 188.000
80.51251 174.000
80.53246 162.000
80.55240 189.000
80.57235 189.000
80.59230 172.000
80.61224 183.000
80.63219 214.000
80.65214 195.000
80.67209 187.000
80.69203 216.000
80.71198 188.000
80.73193 189.000
80.75187 190.000
80.77182 177.000
80.79177 181.000
80.81171 188.000
80.83166 156.000
80.85161 165.000
80.87156 183.000
80.89150 171.000
80.91145 159.000
80.93140 179.000
80.95134 166.000
80.97129 167.000
80.99124 189.000
81.01118 171.000
81.03113 176.000
81.05108 173.000
81.07102 154.000
81.09097 170.000
81.11092 176.000
81.13087 146.000
81.15081 185.000
81.17076 171.000
81.19071 172.000
81.21065 160.000
81.23060 172.000
81.25055 198.000
81.27049 165.000
81.29044 163.000
81.31039 142.000
81.33034 167.000
81.35028 153.000
81.37023 157.000
81.39018 184.000
81.41012 163.000
81.43007 185.000
81.45002 166.000
81.46996 172.000
81.48991 190.000
81.50986 154.000
81.52980 166.000
81.54975 143.000
81.56970 149.000
81.58965 171.000
81.60959 166.000
81.62954 189.000
81.64949 161.000
81.66943 160.000
81.68938 170.000
81.70933 161.000
81.72927 165.000
81.74922 174.000
81.76917 165.000
81.78912 168.000
81.80906 149.000
81.82901 172.000
81.84896 182.000
81.86890 164.000
81.88885 177.000
81.90880 180.000
81.92874 174.000
81.94869 165.000
81.96864 172.000
81.98859 171.000
82.00853 167.000
82.02848 154.000
82.04843 179.000
82.06837 177.000
82.08832 180.000
82.10827 186.000
82.12821 182.000
82.14816 181.000
82.16811 181.000
82.18805 183.000
82.20800 181.000
82.22795 199.000
82.24790 177.000
82.26784 180.000
82.28779 183.000
82.30774 203.000
82.32768 169.000
82.34763 189.000
82.36758 191.000
82.38752 202.000
82.40747 203.000
82.42742 192.000
82.44737 194.000
82.46731 186.000
82.48726 192.000
82.50721 199.000
82.52715 217.000
82.54710 185.000
82.56705 180.000
82.58699 189.000
82.60694 185.000
82.62689 210.000
82.64683 220.000
82.66678 209.000
82.68673 214.000
82.70668 192.000
82.72662 178.000
82.74657 194.000
82.76652 187.000
82.78646 172.000
82.80641 210.000
82.82636 175.000
82.84630 183.000
82.86625 183.000
82.88620 192.000
82.90615 176.000
82.92609 190.000
82.94604 181.000
82.96599 181.000
82.98593 209.000
83.00588 184.000
83.02583 182.000
83.04577 200.000
83.06572 162.000
83.08567 169.000
83.10561 221.000
83.12556 173.000
83.14551 190.000
83.16546 176.000
83.18540 186.000
83.20535 184.000
83.22530 186.000
83.24524 181.000
83.26519 179.000
83.28514 181.000
83.30508 181.000
83.32503 196.000
83.34498 174.000
83.36493 169.000
83.38487 179.000
83.40482 172.000
83.42477 217.000
83.44471 219.000
83.46466 180.000
83.48461 178.000
83.50455 180.000
83.52450 185.000
83.54445 179.000
83.56440 188.000
83.58434 194.000
83.60429 180.000
83.62424 193.000
83.64418 182.000
83.66413 167.000
83.68408 190.000
83.70402 183.000
83.72397 175.000
83.74392 197.000
83.76386 184.000
83.78381 187.000
83.80376 192.000
83.82371 223.000
83.84365 190.000
83.86360 184.000
83.88355 230.000
83.90349 199.000
83.92344 187.000
83.94339 211.000
83.96333 190.000
83.98328 219.000
84.00323 228.000
84.02318 226.000
84.04312 236.000
84.06307 226.000
84.08302 212.000
84.10296 200.000
84.12291 239.000
84.14286 208.000
84.16280 217.000
84.18275 240.000
84.20270 236.000
84.22264 244.000
84.24259 213.000
84.26254 240.000
84.28249 231.000
84.30243 254.000
84.32238 245.000
84.34233 242.000
84.36227 227.000
84.38222 240.000
84.40217 227.000
84.42211 244.000
84.44206 241.000
84.46201 224.000
84.48196 226.000
84.50190 219.000
84.52185 227.000
84.54180 221.000
84.56174 232.000
84.58169 229.000
84.60164 197.000
84.62158 196.000
84.64153 187.000
84.66148 202.000
84.68142 203.000
84.70137 201.000
84.72132 198.000
84.74127 192.000
84.76121 192.000
84.78116 156.000
84.80111 179.000
84.82105 215.000
84.84100 187.000
84.86095 176.000
84.88089 180.000
84.90084 184.000
84.92079 180.000
84.94074 166.000
84.96068 170.000
84.98063 184.000
85.00058 198.000
85.02052 172.000
85.04047 174.000
85.06042 191.000
85.08036 152.000
85.10031 161.000
85.12026 161.000
85.14021 167.000
85.16015 191.000
85.18010 168.000
85.20005 178.000
85.21999 170.000
85.23994 177.000
85.25989 161.000
85.27983 164.000
85.29978 185.000
85.31973 172.000
85.33967 163.000
85.35962 178.000
85.37957 160.000
85.39952 191.000
85.41946 165.000
85.43941 160.000
85.45936 158.000
85.47930 157.000
85.49925 149.000
85.51920 182.000
85.53914 145.000
85.55909 161.000
85.57904 183.000
85.59899 169.000
85.61893 156.000
85.63888 174.000
85.65883 169.000
85.67877 180.000
85.69872 176.000
85.71867 156.000
85.73861 172.000
85.75856 171.000
85.77851 167.000
85.79845 174.000
85.81840 158.000
85.83835 155.000
85.85830 187.000
85.87824 144.000
85.89819 158.000
85.91814 154.000
85.93808 179.000
85.95803 177.000
85.97798 178.000
85.99792 170.000
86.01787 201.000
86.03782 157.000
86.05777 192.000
86.07771 179.000
86.09766 184.000
86.11761 192.000
86.13755 181.000
86.15750 166.000
86.17745 173.000
86.19739 156.000
86.21734 180.000
86.23729 162.000
86.25723 160.000
86.27718 191.000
86.29713 146.000
86.31708 173.000
86.33702 195.000
86.35697 176.000
86.37692 168.000
86.39686 169.000
86.41681 160.000
86.43676 162.000
86.45670 163.000
86.47665 182.000
86.49660 182.000
86.51655 183.000
86.53649 175.000
86.55644 189.000
86.57639 187.000
86.59633 187.000
86.61628 198.000
86.63623 195.000
86.65617 172.000
86.67612 203.000
86.69607 172.000
86.71602 174.000
86.73596 137.000
86.75591 201.000
86.77586 164.000
86.79580 191.000
86.81575 181.000
86.83570 187.000
86.85564 193.000
86.87559 186.000
86.89554 207.000
86.91548 193.000
86.93543 189.000
86.95538 221.000
86.97533 212.000
86.99527 185.000
87.01522 173.000
87.03517 184.000
87.05511 186.000
87.07506 187.000
87.09501 205.000
87.11495 210.000
87.13490 217.000
87.15485 215.000
87.17480 222.000
87.19474 205.000
87.21469 213.000
87.23464 205.000
87.25458 227.000
87.27453 211.000
87.29448 216.000
87.31442 203.000
87.33437 191.000
87.35432 194.000
87.37426 205.000
87.39421 189.000
87.41416 188.000
87.43411 185.000
87.45405 204.000
87.47400 184.000
87.49395 172.000
87.51389 172.000
87.53384 186.000
87.55379 212.000
87.57373 200.000
87.59368 178.000
87.61363 203.000
87.63358 198.000
87.65352 188.000
87.67347 170.000
87.69342 172.000
87.71336 157.000
87.73331 189.000
87.75326 164.000
87.77320 173.000
87.79315 176.000
87.81310 177.000
87.83304 187.000
87.85299 172.000
87.87294 164.000
87.89289 164.000
87.91283 186.000
87.93278 169.000
87.95273 196.000
87.97267 177.000
87.99262 164.000
88.01257 168.000
88.03251 178.000
88.05246 203.000
88.07241 156.000
88.09236 165.000
88.11230 205.000
88.13225 191.000
88.15220 161.000
88.17214 167.000
88.19209 176.000
88.21204 178.000
88.23198 190.000
88.25193 156.000
88.27188 193.000
88.29183 174.000
88.31177 165.000
88.33172 190.000
88.35167 167.000
88.37161 159.000
88.39156 173.000
88.41151 158.000
88.43145 176.000
88.45140 181.000
88.47135 176.000
88.49129 175.000
88.51124 178.000
88.53119 170.000
88.55114 155.000
88.57108 171.000
88.59103 159.000
88.61098 178.000
88.63092 147.000
88.65087 155.000
88.67082 183.000
88.69076 137.000
88.71071 190.000
88.73066 177.000
88.75061 180.000
88.77055 186.000
88.79050 165.000
88.81045 165.000
88.83039 159.000
88.85034 166.000
88.87029 176.000
88.89023 168.000
88.91018 160.000
88.93013 154.000
88.95007 152.000
88.97002 171.000
88.98997 172.000
89.00992 154.000
89.02986 188.000
89.04981 172.000
89.06976 157.000
89.08970 179.000
89.10965 180.000
89.12960 177.000
89.14954 170.000
89.16949 167.000
89.18944 164.000
89.20939 181.000
89.22933 162.000
89.24928 197.000
89.26923 161.000
89.28917 179.000
89.30912 175.000
89.32907 192.000
89.34901 176.000
89.36896 201.000
89.38891 171.000
89.40885 185.000
89.42880 187.000
89.44875 172.000
89.46870 189.000
89.48864 191.000
89.50859 171.000
89.52854 194.000
89.54848 202.000
89.56843 200.000
89.58838 203.000
89.60832 176.000
89.62827 208.000
89.64822 182.000
89.66817 194.000
89.68811 188.000
89.70806 185.000
89.72801 211.000
89.74795 207.000
89.76790 175.000
89.78785 206.000
89.80779 202.000
89.82774 224.000
89.84769 209.000
89.86764 202.000
89.88758 200.000
89.90753 236.000
89.92748 210.000
89.94742 221.000
89.96737 222.000
89.98732 254.000
90.00726 236.000
