10.00000 203.000
10.01995 222.000
10.03989 202.000
10.05984 203.000
10.07979 180.000
10.09973 218.000
10.11968 226.000
10.13963 187.000
10.15958 203.000
10.17952 213.000
10.19947 204.000
10.21942 196.000
10.23936 182.000
10.25931 215.000
10.27926 192.000
10.29920 204.000
10.31915 221.000
10.33910 200.000
10.35905 199.000
10.37899 213.000
10.39894 225.000
10.41889 220.000
10.43883 200.000
10.45878 198.000
10.47873 234.000
10.49867 194.000
10.51862 197.000
10.53857 178.000
10.55851 201.000
10.57846 172.000
10.59841 199.000
10.61836 206.000
10.63830 195.000
10.65825 218.000
10.67820 204.000
10.69814 204.000
10.71809 224.000
10.73804 194.000
10.75798 177.000
10.77793 217.000
10.79788 183.000
10.81783 212.000
10.83777 207.000
10.85772 217.000
10.87767 207.000
10.89761 218.000
10.91756 214.000
10.93751 211.000
10.95745 210.000
10.97740 197.000
10.99735 192.000
11.01730 182.000
11.03724 187.000
11.05719 218.000
11.07714 207.000
11.09708 211.000
11.11703 240.000
11.13698 216.000
11.15692 191.000
11.17687 196.000
11.19682 200.000
11.21676 186.000
11.23671 208.000
11.25666 217.000
11.27661 211.000
11.29655 207.000
11.31650 225.000
11.33645 191.000
11.35639 206.000
11.37634 216.000
11.39629 230.000
11.41623 190.000
11.43618 186.000
11.45613 213.000
11.47608 204.000
11.49602 215.000
11.51597 216.000
11.53592 181.000
11.55586 197.000
11.57581 242.000
11.59576 204.000
11.61570 222.000
11.63565 211.000
11.65560 195.000
11.67554 185.000
11.69549 186.000
11.71544 209.000
11.73539 206.000
11.75533 226.000
11.77528 203.000
11.79523 228.000
11.81517 216.000
11.83512 215.000
11.85507 187.000
11.87501 189.000
11.89496 205.000
11.91491 213.000
11.93486 201.000
11.95480 193.000
11.97475 208.000
11.99470 190.000
12.01464 216.000
12.03459 196.000
12.05454 213.000
12.07448 203.000
12.09443 217.000
12.11438 207.000
12.13432 216.000
12.15427 220.000
12.17422 210.000
12.19417 209.000
12.21411 209.000
12.23406 184.000
12.25401 177.000
12.27395 213.000
12.29390 201.000
12.31385 216.000
12.33379 237.000
12.35374 235.000
12.37369 191.000
12.39364 193.000
12.41358 215.000
12.43353 232.000
12.45348 221.000
12.47342 207.000
12.49337 202.000
12.51332 184.000
12.53326 187.000
12.55321 218.000
12.57316 213.000
12.59311 204.000
12.61305 226.000
12.63300 202.000
12.65295 208.000
12.67289 201.000
12.69284 215.000
12.71279 193.000
12.73273 211.000
12.75268 199.000
12.77263 201.000
12.79257 193.000
12.81252 187.000
12.83247 176.000
12.85242 183.000
12.87236 223.000
12.89231 183.000
12.91226 201.000
12.93220 211.000
12.95215 195.000
12.97210 208.000
12.99204 195.000
13.01199 186.000
13.03194 182.000
13.05189 189.000
13.07183 202.000
13.09178 223.000
13.11173 232.000
13.13167 204.000
13.15162 190.000
13.17157 198.000
13.19151 188.000
13.21146 200.000
13.23141 215.000
13.25135 187.000
13.27130 209.000
13.29125 216.000
13.31120 224.000
13.33114 198.000
13.35109 202.000
13.37104 190.000
13.39098 201.000
13.41093 204.000
13.43088 211.000
13.45082 213.000
13.47077 199.000
13.49072 204.000
13.51067 196.000
13.53061 209.000
13.55056 195.000
13.57051 199.000
13.59045 189.000
13.61040 204.000
13.63035 202.000
13.65029 197.000
13.67024 197.000
13.69019 221.000
13.71013 244.000
13.73008 223.000
13.75003 226.000
13.76998 204.000
13.78992 216.000
13.80987 200.000
13.82982 246.000
13.84976 208.000
13.86971 188.000
13.88966 204.000
13.90960 228.000
13.92955 230.000
13.94950 201.000
13.96945 206.000
13.98939 205.000
14.00934 195.000
14.02929 208.000
14.04923 210.000
14.06918 211.000
14.08913 189.000
14.10907 213.000
14.12902 206.000
14.14897 211.000
14.16892 225.000
14.18886 227.000
14.20881 215.000
14.22876 186.000
14.24870 242.000
14.26865 226.000
14.28860 192.000
14.30854 217.000
14.32849 206.000
14.34844 197.000
14.36838 209.000
14.38833 206.000
14.40828 233.000
14.42823 216.000
14.44817 216.000
14.46812 219.000
14.48807 195.000
14.50801 197.000
14.52796 229.000
14.54791 221.000
14.56785 215.000
14.58780 217.000
14.60775 226.000
14.62770 237.000
14.64764 221.000
14.66759 233.000
14.68754 237.000
14.70748 181.000
14.72743 227.000
14.74738 199.000
14.76732 209.000
14.78727 206.000
14.80722 223.000
14.82716 228.000
14.84711 199.000
14.86706 227.000
14.88701 237.000
14.90695 197.000
14.92690 231.000
14.94685 188.000
14.96679 195.000
14.98674 216.000
15.00669 211.000
15.02663 177.000
15.04658 228.000
15.06653 216.000
15.08648 235.000
15.10642 211.000
15.12637 240.000
15.14632 234.000
15.16626 207.000
15.18621 200.000
15.20616 225.000
15.22610 221.000
15.24605 254.000
15.26600 222.000
15.28594 199.000
15.30589 221.000
15.32584 214.000
15.34579 221.000
15.36573 213.000
15.38568 225.000
15.40563 207.000
15.42557 232.000
15.44552 232.000
15.46547 238.000
15.48541 222.000
15.50536 238.000
15.52531 255.000
15.54526 253.000
15.56520 253.000
15.58515 259.000
15.60510 305.000
15.62504 300.000
15.64499 347.000
15.66494 390.000
15.68488 424.000
15.70483 513.000
15.72478 734.000
15.74472 1108.000
15.76467 1663.000
15.78462 2200.000
15.80457 2385.000
15.82451 2282.000
15.84446 1769.000
15.86441 1224.000
15.88435 842.000
15.90430 630.000
15.92425 508.000
15.94419 449.000
15.96414 487.000
15.98409 605.000
16.00404 655.000
16.02398 721.000
16.04393 712.000
16.06388 706.000
16.08382 663.000
16.10377 568.000
16.12372 518.000
16.14366 452.000
16.16361 400.000
16.18356 392.000
16.20351 356.000
16.22345 333.000
16.24340 295.000
16.26335 256.000
16.28329 259.000
16.30324 247.000
16.32319 268.000
16.34313 238.000
16.36308 213.000
16.38303 255.000
16.40297 203.000
16.42292 224.000
16.44287 218.000
16.46282 200.000
16.48276 216.000
16.50271 228.000
16.52266 225.000
16.54260 210.000
16.56255 199.000
16.58250 210.000
16.60244 222.000
16.62239 215.000
16.64234 210.000
16.66229 227.000
16.68223 212.000
16.70218 201.000
16.72213 184.000
16.74207 220.000
16.76202 200.000
16.78197 220.000
16.80191 241.000
16.82186 240.000
16.84181 216.000
16.86175 219.000
16.88170 201.000
16.90165 213.000
16.92160 232.000
16.94154 201.000
16.96149 221.000
16.98144 226.000
17.00138 204.000
17.02133 217.000
17.04128 208.000
17.06122 217.000
17.08117 218.000
17.10112 217.000
17.12107 218.000
17.14101 236.000
17.16096 222.000
17.18091 194.000
17.20085 195.000
17.22080 208.000
17.24075 205.000
17.26069 235.000
17.28064 196.000
17.30059 191.000
17.32053 216.000
17.34048 189.000
17.36043 231.000
17.38038 197.000
17.40032 210.000
17.42027 244.000
17.44022 238.000
17.46016 221.000
17.48011 176.000
17.50006 217.000
17.52000 205.000
17.53995 208.000
17.55990 232.000
17.57985 214.000
17.59979 206.000
17.61974 203.000
17.63969 200.000
17.65963 208.000
17.67958 196.000
17.69953 217.000
17.71947 196.000
17.73942 230.000
17.75937 188.000
17.77932 207.000
17.79926 215.000
17.81921 206.000
17.83916 220.000
17.85910 183.000
17.87905 184.000
17.89900 187.000
17.91894 189.000
17.93889 216.000
17.95884 198.000
17.97878 221.000
17.99873 217.000
18.01868 231.000
18.03863 210.000
18.05857 206.000
18.07852 221.000
18.09847 240.000
18.11841 191.000
18.13836 230.000
18.15831 200.000
18.17825 211.000
18.19820 225.000
18.21815 260.000
18.23810 254.000
18.25804 288.000
18.27799 359.000
18.29794 415.000
18.31788 514.000
18.33783 579.000
18.35778 664.000
18.37772 572.000
18.39767 484.000
18.41762 358.000
18.43756 290.000
18.45751 256.000
18.47746 215.000
18.49741 204.000
18.51735 211.000
18.53730 233.000
18.55725 220.000
18.57719 213.000
18.59714 217.000
18.61709 213.000
18.63703 220.000
18.65698 227.000
18.67693 208.000
18.69688 224.000
18.71682 222.000
18.73677 183.000
18.75672 196.000
18.77666 207.000
18.79661 221.000
18.81656 220.000
18.83650 209.000
18.85645 207.000
18.87640 207.000
18.89634 194.000
18.91629 195.000
18.93624 192.000
18.95619 221.000
18.97613 203.000
18.99608 210.000
19.01603 194.000
19.03597 203.000
19.05592 210.000
19.07587 200.000
19.09581 202.000
19.11576 240.000
19.13571 197.000
19.15566 203.000
19.17560 209.000
19.19555 217.000
19.21550 218.000
19.23544 232.000
19.25539 205.000
19.27534 231.000
19.29528 220.000
19.31523 195.000
19.33518 212.000
19.35513 215.000
19.37507 207.000
19.39502 220.000
19.41497 233.000
19.43491 212.000
19.45486 210.000
19.47481 214.000
19.49475 196.000
19.51470 204.000
19.53465 228.000
19.55459 221.000
19.57454 211.000
19.59449 218.000
19.61444 220.000
19.63438 208.000
19.65433 214.000
19.67428 201.000
19.69422 204.000
19.71417 227.000
19.73412 239.000
19.75406 235.000
19.77401 187.000
19.79396 213.000
19.81391 205.000
19.83385 217.000
19.85380 191.000
19.87375 216.000
19.89369 188.000
19.91364 214.000
19.93359 194.000
19.95353 191.000
19.97348 235.000
19.99343 225.000
20.01337 228.000
20.03332 223.000
20.05327 223.000
20.07322 207.000
20.09316 203.000
20.11311 234.000
20.13306 237.000
20.15300 237.000
20.17295 190.000
20.19290 221.000
20.21284 196.000
20.23279 215.000
20.25274 202.000
20.27269 202.000
20.29263 213.000
20.31258 226.000
20.33253 217.000
20.35247 188.000
20.37242 235.000
20.39237 228.000
20.41231 194.000
20.43226 228.000
20.45221 202.000
20.47215 228.000
20.49210 243.000
20.51205 207.000
20.53200 206.000
20.55194 255.000
20.57189 230.000
20.59184 216.000
20.61178 224.000
20.63173 224.000
20.65168 242.000
20.67162 259.000
20.69157 293.000
20.71152 274.000
20.73147 314.000
20.75141 369.000
20.77136 384.000
20.79131 499.000
20.81125 558.000
20.83120 598.000
20.85115 641.000
20.87109 701.000
20.89104 696.000
20.91099 668.000
20.93094 544.000
20.95088 491.000
20.97083 492.000
20.99078 419.000
21.01072 450.000
21.03067 422.000
21.05062 358.000
21.07056 366.000
21.09051 290.000
21.11046 283.000
21.13040 260.000
21.15035 237.000
21.17030 247.000
21.19025 222.000
21.21019 244.000
21.23014 204.000
21.25009 227.000
21.27003 213.000
21.28998 227.000
21.30993 209.000
21.32987 180.000
21.34982 221.000
21.36977 229.000
21.38972 231.000
21.40966 198.000
21.42961 234.000
21.44956 209.000
21.46950 204.000
21.48945 223.000
21.50940 229.000
21.52934 208.000
21.54929 218.000
21.56924 235.000
21.58918 228.000
21.60913 215.000
21.62908 236.000
21.64903 194.000
21.66897 200.000
21.68892 216.000
21.70887 229.000
21.72881 220.000
21.74876 220.000
21.76871 199.000
21.78865 216.000
21.80860 201.000
21.82855 235.000
21.84850 202.000
21.86844 194.000
21.88839 210.000
21.90834 225.000
21.92828 198.000
21.94823 205.000
21.96818 210.000
21.98812 211.000
22.00807 212.000
22.02802 211.000
22.04796 196.000
22.06791 234.000
22.08786 188.000
22.10781 192.000
22.12775 198.000
22.14770 212.000
22.16765 220.000
22.18759 227.000
22.20754 195.000
22.22749 204.000
22.24743 218.000
22.26738 225.000
22.28733 225.000
22.30728 224.000
22.32722 237.000
22.34717 204.000
22.36712 202.000
22.38706 214.000
22.40701 217.000
22.42696 225.000
22.44690 191.000
22.46685 208.000
22.48680 207.000
22.50675 234.000
22.52669 205.000
22.54664 206.000
22.56659 240.000
22.58653 217.000
22.60648 229.000
22.62643 216.000
22.64637 233.000
22.66632 220.000
22.68627 219.000
22.70621 226.000
22.72616 207.000
22.74611 210.000
22.76606 233.000
22.78600 229.000
22.80595 212.000
22.82590 196.000
22.84584 240.000
22.86579 211.000
22.88574 223.000
22.90568 217.000
22.92563 223.000
22.94558 182.000
22.96553 216.000
22.98547 178.000
23.00542 189.000
23.02537 204.000
23.04531 211.000
23.06526 210.000
23.08521 213.000
23.10515 253.000
23.12510 189.000
23.14505 236.000
23.16499 206.000
23.18494 204.000
23.20489 217.000
23.22484 236.000
23.24478 203.000
23.26473 221.000
23.28468 230.000
23.30462 189.000
23.32457 237.000
23.34452 210.000
23.36446 215.000
23.38441 199.000
23.40436 210.000
23.42431 201.000
23.44425 220.000
23.46420 222.000
23.48415 213.000
23.50409 234.000
23.52404 210.000
23.54399 234.000
23.56393 217.000
23.58388 228.000
23.60383 240.000
23.62377 245.000
23.64372 217.000
23.66367 233.000
23.68362 248.000
23.70356 217.000
23.72351 232.000
23.74346 219.000
23.76340 208.000
23.78335 235.000
23.80330 229.000
23.82324 202.000
23.84319 204.000
23.86314 226.000
23.88309 219.000
23.90303 222.000
23.92298 200.000
23.94293 229.000
23.96287 204.000
23.98282 226.000
24.00277 234.000
24.02271 208.000
24.04266 231.000
24.06261 200.000
24.08256 224.000
24.10250 257.000
24.12245 215.000
24.14240 248.000
24.16234 208.000
24.18229 226.000
24.20224 214.000
24.22218 208.000
24.24213 239.000
24.26208 236.000
24.28202 234.000
24.30197 203.000
24.32192 213.000
24.34187 239.000
24.36181 213.000
24.38176 220.000
24.40171 217.000
24.42165 226.000
24.44160 220.000
24.46155 213.000
24.48149 209.000
24.50144 207.000
24.52139 199.000
24.54134 214.000
24.56128 203.000
24.58123 241.000
24.60118 229.000
24.62112 233.000
24.64107 223.000
24.66102 216.000
24.68096 224.000
24.70091 209.000
24.72086 228.000
24.74080 209.000
24.76075 204.000
24.78070 238.000
24.80065 236.000
24.82059 199.000
24.84054 222.000
24.86049 217.000
24.88043 250.000
24.90038 248.000
24.92033 215.000
24.94027 229.000
24.96022 255.000
24.98017 228.000
25.00012 188.000
25.02006 230.000
25.04001 247.000
25.05996 251.000
25.07990 227.000
25.09985 226.000
25.11980 224.000
25.13974 268.000
25.15969 218.000
25.17964 223.000
25.19958 227.000
25.21953 194.000
25.23948 193.000
25.25943 237.000
25.27937 235.000
25.29932 228.000
25.31927 216.000
25.33921 207.000
25.35916 205.000
25.37911 230.000
25.39905 237.000
25.41900 218.000
25.43895 226.000
25.45890 229.000
25.47884 218.000
25.49879 233.000
25.51874 220.000
25.53868 200.000
25.55863 221.000
25.57858 230.000
25.59852 247.000
25.61847 232.000
25.63842 219.000
25.65837 277.000
25.67831 225.000
25.69826 236.000
25.71821 225.000
25.73815 228.000
25.75810 245.000
25.77805 212.000
25.79799 204.000
25.81794 212.000
25.83789 234.000
25.85783 252.000
25.87778 232.000
25.89773 232.000
25.91768 220.000
25.93762 208.000
25.95757 228.000
25.97752 203.000
25.99746 218.000
26.01741 225.000
26.03736 238.000
26.05730 223.000
26.07725 217.000
26.09720 209.000
26.11715 207.000
26.13709 224.000
26.15704 226.000
26.17699 243.000
26.19693 187.000
26.21688 220.000
26.23683 195.000
26.25677 227.000
26.27672 235.000
26.29667 218.000
26.31661 239.000
26.33656 210.000
26.35651 217.000
26.37646 202.000
26.39640 242.000
26.41635 214.000
26.43630 223.000
26.45624 218.000
26.47619 225.000
26.49614 236.000
26.51608 245.000
26.53603 218.000
26.55598 221.000
26.57593 244.000
26.59587 231.000
26.61582 226.000
26.63577 226.000
26.65571 218.000
26.67566 200.000
26.69561 214.000
26.71555 221.000
26.73550 232.000
26.75545 218.000
26.77539 223.000
26.79534 240.000
26.81529 221.000
26.83524 227.000
26.85518 239.000
26.87513 225.000
26.89508 227.000
26.91502 222.000
26.93497 236.000
26.95492 236.000
26.97486 240.000
26.99481 218.000
27.01476 219.000
27.03471 220.000
27.05465 238.000
27.07460 231.000
27.09455 220.000
27.11449 244.000
27.13444 220.000
27.15439 250.000
27.17433 215.000
27.19428 235.000
27.21423 222.000
27.23417 227.000
27.25412 224.000
27.27407 253.000
27.29402 245.000
27.31396 248.000
27.33391 218.000
27.35386 244.000
27.37380 220.000
27.39375 205.000
27.41370 226.000
27.43364 209.000
27.45359 229.000
27.47354 253.000
27.49349 245.000
27.51343 228.000
27.53338 230.000
27.55333 208.000
27.57327 236.000
27.59322 229.000
27.61317 212.000
27.63311 234.000
27.65306 212.000
27.67301 228.000
27.69296 216.000
27.71290 214.000
27.73285 216.000
27.75280 244.000
27.77274 221.000
27.79269 235.000
27.81264 240.000
27.83258 231.000
27.85253 227.000
27.87248 252.000
27.89242 208.000
27.91237 270.000
27.93232 239.000
27.95227 215.000
27.97221 247.000
27.99216 224.000
28.01211 217.000
28.03205 218.000
28.05200 223.000
28.07195 235.000
28.09189 204.000
28.11184 247.000
28.13179 235.000
28.15174 220.000
28.17168 235.000
28.19163 222.000
28.21158 233.000
28.23152 215.000
28.25147 221.000
28.27142 222.000
28.29136 224.000
28.31131 220.000
28.33126 223.000
28.35120 236.000
28.37115 236.000
28.39110 214.000
28.41105 217.000
28.43099 244.000
28.45094 212.000
28.47089 230.000
28.49083 228.000
28.51078 232.000
28.53073 212.000
28.55067 249.000
28.57062 218.000
28.59057 252.000
28.61052 252.000
28.63046 226.000
28.65041 248.000
28.67036 209.000
28.69030 226.000
28.71025 237.000
28.73020 261.000
28.75014 252.000
28.77009 233.000
28.79004 232.000
28.80998 189.000
28.82993 229.000
28.84988 250.000
28.86983 190.000
28.88977 273.000
28.90972 250.000
28.92967 228.000
28.94961 246.000
28.96956 234.000
28.98951 228.000
29.00945 239.000
29.02940 224.000
29.04935 249.000
29.06930 257.000
29.08924 235.000
29.10919 245.000
29.12914 253.000
29.14908 235.000
29.16903 244.000
29.18898 218.000
29.20892 246.000
29.22887 229.000
29.24882 235.000
29.26877 257.000
29.28871 272.000
29.30866 232.000
29.32861 259.000
29.34855 250.000
29.36850 248.000
29.38845 287.000
29.40839 264.000
29.42834 274.000
29.44829 255.000
29.46823 234.000
29.48818 245.000
29.50813 243.000
29.52808 229.000
29.54802 243.000
29.56797 226.000
29.58792 247.000
29.60786 236.000
29.62781 255.000
29.64776 224.000
29.66770 238.000
29.68765 243.000
29.70760 235.000
29.72755 242.000
29.74749 228.000
29.76744 252.000
29.78739 245.000
29.80733 250.000
29.82728 262.000
29.84723 243.000
29.86717 256.000
29.88712 234.000
29.90707 245.000
29.92701 277.000
29.94696 280.000
29.96691 266.000
29.98686 275.000
30.00680 287.000
30.02675 312.000
30.04670 309.000
30.06664 389.000
30.08659 378.000
30.10654 466.000
30.12648 544.000
30.14643 619.000
30.16638 786.000
30.18633 1005.000
30.20627 1176.000
30.22622 1124.000
30.24617 890.000
30.26611 758.000
30.28606 739.000
30.30601 585.000
30.32595 438.000
30.34590 371.000
30.36585 320.000
30.38579 282.000
30.40574 290.000
30.42569 243.000
30.44564 230.000
30.46558 254.000
30.48553 248.000
30.50548 255.000
30.52542 247.000
30.54537 256.000
30.56532 258.000
30.58526 247.000
30.60521 237.000
30.62516 248.000
30.64511 250.000
30.66505 231.000
30.68500 206.000
30.70495 232.000
30.72489 246.000
30.74484 269.000
30.76479 212.000
30.78473 266.000
30.80468 217.000
30.82463 230.000
30.84458 257.000
30.86452 245.000
30.88447 231.000
30.90442 235.000
30.92436 212.000
30.94431 235.000
30.96426 252.000
30.98420 268.000
31.00415 236.000
31.02410 259.000
31.04404 244.000
31.06399 232.000
31.08394 247.000
31.10389 228.000
31.12383 244.000
31.14378 247.000
31.16373 224.000
31.18367 238.000
31.20362 258.000
31.22357 248.000
31.24351 248.000
31.26346 267.000
31.28341 240.000
31.30336 245.000
31.32330 239.000
31.34325 261.000
31.36320 239.000
31.38314 230.000
31.40309 227.000
31.42304 219.000
31.44298 235.000
31.46293 229.000
31.48288 245.000
31.50282 223.000
31.52277 249.000
31.54272 251.000
31.56267 237.000
31.58261 237.000
31.60256 272.000
31.62251 260.000
31.64245 244.000
31.66240 218.000
31.68235 225.000
31.70229 225.000
31.72224 264.000
31.74219 233.000
31.76214 260.000
31.78208 254.000
31.80203 244.000
31.82198 286.000
31.84192 279.000
31.86187 305.000
31.88182 340.000
31.90176 379.000
31.92171 376.000
31.94166 398.000
31.96160 373.000
31.98155 396.000
32.00150 357.000
32.02145 332.000
32.04139 307.000
32.06134 309.000
32.08129 335.000
32.10123 313.000
32.12118 299.000
32.14113 265.000
32.16107 255.000
32.18102 254.000
32.20097 264.000
32.22092 279.000
32.24086 285.000
32.26081 271.000
32.28076 263.000
32.30070 257.000
32.32065 272.000
32.34060 294.000
32.36054 275.000
32.38049 283.000
32.40044 341.000
32.42039 281.000
32.44033 365.000
32.46028 393.000
32.48023 418.000
32.50017 392.000
32.52012 385.000
32.54007 399.000
32.56001 342.000
32.57996 332.000
32.59991 289.000
32.61985 294.000
32.63980 284.000
32.65975 246.000
32.67970 250.000
32.69964 259.000
32.71959 276.000
32.73954 233.000
32.75948 253.000
32.77943 228.000
32.79938 235.000
32.81932 248.000
32.83927 223.000
32.85922 268.000
32.87917 241.000
32.89911 248.000
32.91906 243.000
32.93901 209.000
32.95895 258.000
32.97890 250.000
32.99885 239.000
33.01879 273.000
33.03874 228.000
33.05869 243.000
33.07863 257.000
33.09858 253.000
33.11853 227.000
33.13848 247.000
33.15842 277.000
33.17837 222.000
33.19832 236.000
33.21826 265.000
33.23821 222.000
33.25816 279.000
33.27810 272.000
33.29805 237.000
33.31800 231.000
33.33795 245.000
33.35789 255.000
33.37784 235.000
33.39779 224.000
33.41773 256.000
33.43768 236.000
33.45763 247.000
33.47757 253.000
33.49752 233.000
33.51747 233.000
33.53741 237.000
33.55736 280.000
33.57731 267.000
33.59726 242.000
33.61720 270.000
33.63715 251.000
33.65710 261.000
33.67704 249.000
33.69699 228.000
33.71694 243.000
33.73688 260.000
33.75683 241.000
33.77678 238.000
33.79673 244.000
33.81667 241.000
33.83662 249.000
33.85657 258.000
33.87651 251.000
33.89646 223.000
33.91641 277.000
33.93635 246.000
33.95630 272.000
33.97625 264.000
33.99620 310.000
34.01614 291.000
34.03609 283.000
34.05604 274.000
34.07598 267.000
34.09593 287.000
34.11588 286.000
34.13582 298.000
34.15577 331.000
34.17572 328.000
34.19566 313.000
34.21561 314.000
34.23556 371.000
34.25551 395.000
34.27545 469.000
34.29540 518.000
34.31535 528.000
34.33529 574.000
34.35524 594.000
34.37519 647.000
34.39513 673.000
34.41508 603.000
34.43503 648.000
34.45498 638.000
34.47492 627.000
34.49487 587.000
34.51482 583.000
34.53476 538.000
34.55471 472.000
34.57466 470.000
34.59460 450.000
34.61455 468.000
34.63450 417.000
34.65444 372.000
34.67439 358.000
34.69434 357.000
34.71429 324.000
34.73423 352.000
34.75418 354.000
34.77413 334.000
34.79407 355.000
34.81402 324.000
34.83397 349.000
34.85391 299.000
34.87386 296.000
34.89381 309.000
34.91376 295.000
34.93370 311.000
34.95365 339.000
34.97360 321.000
34.99354 306.000
35.01349 334.000
35.03344 347.000
35.05338 302.000
35.07333 336.000
35.09328 346.000
35.11322 345.000
35.13317 371.000
35.15312 345.000
35.17307 362.000
35.19301 386.000
35.21296 391.000
35.23291 428.000
35.25285 478.000
35.27280 453.000
35.29275 504.000
35.31269 581.000
35.33264 679.000
35.35259 778.000
35.37254 993.000
35.39248 1179.000
35.41243 1450.000
35.43238 1641.000
35.45232 1938.000
35.47227 2319.000
35.49222 2869.000
35.51216 3230.000
35.53211 3381.000
35.55206 3570.000
35.57201 3975.000
35.59195 4426.000
35.61190 4092.000
35.63185 3173.000
35.65179 2500.000
35.67174 2272.000
35.69169 1982.000
35.71163 1566.000
35.73158 1046.000
35.75153 772.000
35.77147 619.000
35.79142 541.000
35.81137 454.000
35.83132 422.000
35.85126 429.000
35.87121 375.000
35.89116 387.000
35.91110 346.000
35.93105 344.000
35.95100 360.000
35.97094 361.000
35.99089 330.000
36.01084 303.000
36.03079 351.000
36.05073 334.000
36.07068 330.000
36.09063 322.000
36.11057 330.000
36.13052 299.000
36.15047 325.000
36.17041 308.000
36.19036 319.000
36.21031 298.000
36.23025 298.000
36.25020 325.000
36.27015 277.000
36.29010 283.000
36.31004 328.000
36.32999 324.000
36.34994 275.000
36.36988 272.000
36.38983 279.000
36.40978 276.000
36.42972 262.000
36.44967 261.000
36.46962 282.000
36.48957 270.000
36.50951 302.000
36.52946 306.000
36.54941 275.000
36.56935 313.000
36.58930 271.000
36.60925 282.000
36.62919 244.000
36.64914 275.000
36.66909 289.000
36.68903 270.000
36.70898 297.000
36.72893 267.000
36.74888 302.000
36.76882 308.000
36.78877 302.000
36.80872 295.000
36.82866 296.000
36.84861 298.000
36.86856 289.000
36.88850 289.000
36.90845 285.000
36.92840 286.000
36.94835 293.000
36.96829 281.000
36.98824 316.000
37.00819 292.000
37.02813 288.000
37.04808 318.000
37.06803 319.000
37.08797 322.000
37.10792 369.000
37.12787 381.000
37.14781 406.000
37.16776 456.000
37.18771 461.000
37.20766 518.000
37.22760 518.000
37.24755 479.000
37.26750 451.000
37.28744 397.000
37.30739 380.000
37.32734 380.000
37.34728 340.000
37.36723 305.000
37.38718 291.000
37.40713 251.000
37.42707 271.000
37.44702 247.000
37.46697 259.000
37.48691 246.000
37.50686 265.000
37.52681 233.000
37.54675 252.000
37.56670 270.000
37.58665 255.000
37.60660 204.000
37.62654 244.000
37.64649 257.000
37.66644 259.000
37.68638 237.000
37.70633 301.000
37.72628 277.000
37.74622 254.000
37.76617 249.000
37.78612 277.000
37.80606 279.000
37.82601 255.000
37.84596 267.000
37.86591 247.000
37.88585 269.000
37.90580 264.000
37.92575 235.000
37.94569 274.000
37.96564 252.000
37.98559 253.000
38.00553 271.000
38.02548 273.000
38.04543 294.000
38.06538 278.000
38.08532 279.000
38.10527 247.000
38.12522 274.000
38.14516 297.000
38.16511 247.000
38.18506 290.000
38.20500 305.000
38.22495 294.000
38.24490 290.000
38.26484 319.000
38.28479 323.000
38.30474 285.000
38.32469 301.000
38.34463 332.000
38.36458 330.000
38.38453 353.000
38.40447 331.000
38.42442 372.000
38.44437 371.000
38.46431 415.000
38.48426 431.000
38.50421 445.000
38.52416 496.000
38.54410 539.000
38.56405 597.000
38.58400 689.000
38.60394 798.000
38.62389 1045.000
38.64384 1297.000
38.66378 1380.000
38.68373 1468.000
38.70368 1468.000
38.72362 1337.000
38.74357 1308.000
38.76352 1194.000
38.78347 1107.000
38.80341 963.000
38.82336 846.000
38.84331 790.000
38.86325 690.000
38.88320 671.000
38.90315 643.000
38.92309 669.000
38.94304 623.000
38.96299 591.000
38.98294 578.000
39.00288 522.000
39.02283 561.000
39.04278 568.000
39.06272 556.000
39.08267 524.000
39.10262 534.000
39.12256 523.000
39.14251 496.000
39.16246 532.000
39.18241 477.000
39.20235 459.000
39.22230 474.000
39.24225 404.000
39.26219 392.000
39.28214 356.000
39.30209 356.000
39.32203 319.000
39.34198 338.000
39.36193 317.000
39.38187 287.000
39.40182 258.000
39.42177 276.000
39.44172 307.000
39.46166 266.000
39.48161 276.000
39.50156 258.000
39.52150 262.000
39.54145 273.000
39.56140 261.000
39.58134 260.000
39.60129 262.000
39.62124 236.000
39.64119 243.000
39.66113 236.000
39.68108 267.000
39.70103 247.000
39.72097 253.000
39.74092 276.000
39.76087 268.000
39.78081 225.000
39.80076 227.000
39.82071 236.000
39.84065 261.000
39.86060 260.000
39.88055 243.000
39.90050 257.000
39.92044 246.000
39.94039 235.000
39.96034 254.000
39.98028 261.000
40.00023 255.000
40.02018 242.000
40.04012 240.000
40.06007 245.000
40.08002 238.000
40.09997 233.000
40.11991 216.000
40.13986 247.000
40.15981 253.000
40.17975 240.000
40.19970 240.000
40.21965 236.000
40.23959 242.000
40.25954 227.000
40.27949 247.000
40.29943 260.000
40.31938 258.000
40.33933 241.000
40.35928 255.000
40.37922 227.000
40.39917 263.000
40.41912 219.000
40.43906 230.000
40.45901 236.000
40.47896 250.000
40.49890 243.000
40.51885 257.000
40.53880 253.000
40.55875 216.000
40.57869 223.000
40.59864 224.000
40.61859 237.000
40.63853 225.000
40.65848 266.000
40.67843 249.000
40.69837 240.000
40.71832 249.000
40.73827 248.000
40.75822 250.000
40.77816 229.000
40.79811 236.000
40.81806 225.000
40.83800 234.000
40.85795 237.000
40.87790 262.000
40.89784 237.000
40.91779 232.000
40.93774 273.000
40.95768 226.000
40.97763 244.000
40.99758 257.000
41.01753 200.000
41.03747 265.000
41.05742 247.000
41.07737 242.000
41.09731 261.000
41.11726 235.000
41.13721 232.000
41.15715 226.000
41.17710 218.000
41.19705 256.000
41.21700 250.000
41.23694 240.000
41.25689 246.000
41.27684 244.000
41.29678 249.000
41.31673 279.000
41.33668 245.000
41.35662 280.000
41.37657 296.000
41.39652 293.000
41.41646 312.000
41.43641 365.000
41.45636 398.000
41.47631 388.000
41.49625 388.000
41.51620 409.000
41.53615 420.000
41.55609 448.000
41.57604 392.000
41.59599 422.000
41.61593 330.000
41.63588 380.000
41.65583 316.000
41.67578 372.000
41.69572 336.000
41.71567 325.000
41.73562 262.000
41.75556 276.000
41.77551 292.000
41.79546 236.000
41.81540 270.000
41.83535 266.000
41.85530 265.000
41.87524 243.000
41.89519 254.000
41.91514 253.000
41.93509 203.000
41.95503 230.000
41.97498 244.000
41.99493 231.000
42.01487 276.000
42.03482 261.000
42.05477 237.000
42.07471 238.000
42.09466 225.000
42.11461 228.000
42.13456 242.000
42.15450 226.000
42.17445 224.000
42.19440 243.000
42.21434 241.000
42.23429 248.000
42.25424 238.000
42.27418 257.000
42.29413 236.000
42.31408 244.000
42.33403 265.000
42.35397 276.000
42.37392 263.000
42.39387 252.000
42.41381 218.000
42.43376 242.000
42.45371 234.000
42.47365 271.000
42.49360 246.000
42.51355 259.000
42.53349 274.000
42.55344 268.000
42.57339 228.000
42.59334 262.000
42.61328 266.000
42.63323 273.000
42.65318 265.000
42.67312 273.000
42.69307 245.000
42.71302 253.000
42.73296 264.000
42.75291 274.000
42.77286 269.000
42.79281 241.000
42.81275 250.000
42.83270 269.000
42.85265 263.000
42.87259 253.000
42.89254 285.000
42.91249 275.000
42.93243 287.000
42.95238 302.000
42.97233 266.000
42.99227 321.000
43.01222 353.000
43.03217 354.000
43.05212 328.000
43.07206 368.000
43.09201 411.000
43.11196 442.000
43.13190 425.000
43.15185 519.000
43.17180 582.000
43.19174 602.000
43.21169 665.000
43.23164 816.000
43.25159 863.000
43.27153 864.000
43.29148 780.000
43.31143 727.000
43.33137 635.000
43.35132 604.000
43.37127 618.000
43.39121 537.000
43.41116 496.000
43.43111 435.000
43.45105 400.000
43.47100 323.000
43.49095 308.000
43.51090 289.000
43.53084 247.000
43.55079 276.000
43.57074 278.000
43.59068 280.000
43.61063 276.000
43.63058 239.000
43.65052 236.000
43.67047 255.000
43.69042 264.000
43.71037 258.000
43.73031 275.000
43.75026 241.000
43.77021 225.000
43.79015 254.000
43.81010 248.000
43.83005 216.000
43.84999 268.000
43.86994 241.000
43.88989 220.000
43.90984 234.000
43.92978 230.000
43.94973 245.000
43.96968 244.000
43.98962 276.000
44.00957 237.000
44.02952 241.000
44.04946 244.000
44.06941 229.000
44.08936 237.000
44.10930 245.000
44.12925 254.000
44.14920 244.000
44.16915 245.000
44.18909 215.000
44.20904 238.000
44.22899 242.000
44.24893 231.000
44.26888 217.000
44.28883 232.000
44.30877 246.000
44.32872 244.000
44.34867 216.000
44.36862 272.000
44.38856 216.000
44.40851 245.000
44.42846 224.000
44.44840 226.000
44.46835 240.000
44.48830 252.000
44.50824 237.000
44.52819 234.000
44.54814 220.000
44.56808 238.000
44.58803 239.000
44.60798 269.000
44.62793 242.000
44.64787 269.000
44.66782 243.000
44.68777 272.000
44.70771 264.000
44.72766 264.000
44.74761 277.000
44.76755 248.000
44.78750 253.000
44.80745 262.000
44.82740 262.000
44.84734 273.000
44.86729 243.000
44.88724 235.000
44.90718 227.000
44.92713 240.000
44.94708 259.000
44.96702 244.000
44.98697 220.000
45.00692 246.000
45.02686 234.000
45.04681 218.000
45.06676 226.000
45.08671 235.000
45.10665 239.000
45.12660 250.000
45.14655 218.000
45.16649 237.000
45.18644 229.000
45.20639 212.000
45.22633 229.000
45.24628 262.000
45.26623 239.000
45.28618 246.000
45.30612 239.000
45.32607 233.000
45.34602 248.000
45.36596 219.000
45.38591 254.000
45.40586 238.000
45.42580 259.000
45.44575 274.000
45.46570 249.000
45.48565 254.000
45.50559 232.000
45.52554 213.000
45.54549 215.000
45.56543 220.000
45.58538 215.000
45.60533 225.000
45.62527 219.000
45.64522 248.000
45.66517 222.000
45.68511 250.000
45.70506 231.000
45.72501 235.000
45.74496 256.000
45.76490 255.000
45.78485 228.000
45.80480 245.000
45.82474 252.000
45.84469 219.000
45.86464 215.000
45.88458 223.000
45.90453 218.000
45.92448 245.000
45.94443 205.000
45.96437 218.000
45.98432 235.000
46.00427 259.000
46.02421 232.000
46.04416 239.000
46.06411 236.000
46.08405 228.000
46.10400 241.000
46.12395 260.000
46.14389 233.000
46.16384 235.000
46.18379 243.000
46.20374 233.000
46.22368 248.000
46.24363 241.000
46.26358 276.000
46.28352 288.000
46.30347 253.000
46.32342 257.000
46.34336 260.000
46.36331 243.000
46.38326 252.000
46.40321 232.000
46.42315 225.000
46.44310 248.000
46.46305 234.000
46.48299 202.000
46.50294 234.000
46.52289 252.000
46.54283 222.000
46.56278 245.000
46.58273 216.000
46.60267 245.000
46.62262 230.000
46.64257 206.000
46.66252 208.000
46.68246 232.000
46.70241 222.000
46.72236 206.000
46.74230 233.000
46.76225 244.000
46.78220 240.000
46.80214 267.000
46.82209 212.000
46.84204 215.000
46.86199 227.000
46.88193 245.000
46.90188 207.000
46.92183 220.000
46.94177 228.000
46.96172 209.000
46.98167 237.000
47.00161 214.000
47.02156 207.000
47.04151 223.000
47.06146 243.000
47.08140 217.000
47.10135 241.000
47.12130 238.000
47.14124 254.000
47.16119 220.000
47.18114 218.000
47.20108 257.000
47.22103 203.000
47.24098 240.000
47.26092 240.000
47.28087 244.000
47.30082 248.000
47.32077 230.000
47.34071 245.000
47.36066 229.000
47.38061 219.000
47.40055 266.000
47.42050 228.000
47.44045 244.000
47.46039 222.000
47.48034 234.000
47.50029 232.000
47.52024 248.000
47.54018 212.000
47.56013 226.000
47.58008 255.000
47.60002 229.000
47.61997 245.000
47.63992 252.000
47.65986 224.000
47.67981 220.000
47.69976 237.000
47.71970 237.000
47.73965 202.000
47.75960 231.000
47.77955 221.000
47.79949 240.000
47.81944 252.000
47.83939 247.000
47.85933 247.000
47.87928 232.000
47.89923 224.000
47.91917 206.000
47.93912 237.000
47.95907 229.000
47.97902 259.000
47.99896 264.000
48.01891 230.000
48.03886 227.000
48.05880 233.000
48.07875 243.000
48.09870 257.000
48.11864 255.000
48.13859 250.000
48.15854 237.000
48.17848 254.000
48.19843 237.000
48.21838 227.000
48.23833 254.000
48.25827 218.000
48.27822 253.000
48.29817 277.000
48.31811 276.000
48.33806 299.000
48.35801 276.000
48.37795 286.000
48.39790 283.000
48.41785 305.000
48.43780 296.000
48.45774 318.000
48.47769 336.000
48.49764 319.000
48.51758 359.000
48.53753 370.000
48.55748 426.000
48.57742 473.000
48.59737 400.000
48.61732 481.000
48.63726 488.000
48.65721 495.000
48.67716 538.000
48.69711 591.000
48.71705 631.000
48.73700 658.000
48.75695 650.000
48.77689 674.000
48.79684 631.000
48.81679 600.000
48.83673 557.000
48.85668 535.000
48.87663 529.000
48.89658 528.000
48.91652 494.000
48.93647 390.000
48.95642 328.000
48.97636 354.000
48.99631 339.000
49.01626 328.000
49.03620 290.000
49.05615 286.000
49.07610 296.000
49.09605 252.000
49.11599 257.000
49.13594 246.000
49.15589 295.000
49.17583 250.000
49.19578 271.000
49.21573 247.000
49.23567 287.000
49.25562 248.000
49.27557 254.000
49.29551 244.000
49.31546 242.000
49.33541 261.000
49.35536 251.000
49.37530 275.000
49.39525 268.000
49.41520 283.000
49.43514 293.000
49.45509 314.000
49.47504 270.000
49.49498 267.000
49.51493 246.000
49.53488 261.000
49.55483 248.000
49.57477 252.000
49.59472 258.000
49.61467 281.000
49.63461 270.000
49.65456 259.000
49.67451 288.000
49.69445 227.000
49.71440 249.000
49.73435 251.000
49.75429 235.000
49.77424 268.000
49.79419 255.000
49.81414 225.000
49.83408 249.000
49.85403 259.000
49.87398 284.000
49.89392 244.000
49.91387 243.000
49.93382 231.000
49.95376 262.000
49.97371 277.000
49.99366 258.000
50.01361 255.000
50.03355 249.000
50.05350 231.000
50.07345 226.000
50.09339 238.000
50.11334 237.000
50.13329 232.000
50.15323 234.000
50.17318 243.000
50.19313 249.000
50.21307 226.000
50.23302 258.000
50.25297 250.000
50.27292 231.000
50.29286 225.000
50.31281 263.000
50.33276 235.000
50.35270 226.000
50.37265 228.000
50.39260 234.000
50.41254 256.000
50.43249 226.000
50.45244 225.000
50.47239 229.000
50.49233 227.000
50.51228 225.000
50.53223 241.000
50.55217 251.000
50.57212 234.000
50.59207 225.000
50.61201 237.000
50.63196 210.000
50.65191 221.000
50.67186 236.000
50.69180 238.000
50.71175 245.000
50.73170 234.000
50.75164 224.000
50.77159 238.000
50.79154 252.000
50.81148 248.000
50.83143 228.000
50.85138 227.000
50.87132 231.000
50.89127 245.000
50.91122 233.000
50.93117 205.000
50.95111 240.000
50.97106 233.000
50.99101 277.000
51.01095 222.000
51.03090 235.000
51.05085 255.000
51.07079 213.000
51.09074 234.000
51.11069 244.000
51.13064 249.000
51.15058 249.000
51.17053 233.000
51.19048 235.000
51.21042 259.000
51.23037 260.000
51.25032 234.000
51.27026 236.000
51.29021 254.000
51.31016 242.000
51.33010 234.000
51.35005 240.000
51.37000 255.000
51.38995 241.000
51.40989 226.000
51.42984 270.000
51.44979 243.000
51.46973 243.000
51.48968 224.000
51.50963 228.000
51.52957 210.000
51.54952 237.000
51.56947 235.000
51.58942 237.000
51.60936 219.000
51.62931 230.000
51.64926 238.000
51.66920 223.000
51.68915 240.000
51.70910 241.000
51.72904 211.000
51.74899 222.000
51.76894 215.000
51.78888 240.000
51.80883 215.000
51.82878 240.000
51.84873 209.000
51.86867 232.000
51.88862 211.000
51.90857 228.000
51.92851 232.000
51.94846 246.000
51.96841 239.000
51.98835 244.000
52.00830 232.000
52.02825 236.000
52.04820 230.000
52.06814 242.000
52.08809 268.000
52.10804 219.000
52.12798 242.000
52.14793 230.000
52.16788 256.000
52.18782 239.000
52.20777 233.000
52.22772 237.000
52.24767 251.000
52.26761 229.000
52.28756 219.000
52.30751 235.000
52.32745 258.000
52.34740 228.000
52.36735 249.000
52.38729 255.000
52.40724 259.000
52.42719 227.000
52.44713 233.000
52.46708 248.000
52.48703 251.000
52.50698 241.000
52.52692 241.000
52.54687 241.000
52.56682 261.000
52.58676 232.000
52.60671 246.000
52.62666 265.000
52.64660 258.000
52.66655 247.000
52.68650 273.000
52.70645 245.000
52.72639 300.000
52.74634 273.000
52.76629 262.000
52.78623 277.000
52.80618 265.000
52.82613 268.000
52.84607 297.000
52.86602 253.000
52.88597 256.000
52.90591 258.000
52.92586 282.000
52.94581 215.000
52.96576 244.000
52.98570 247.000
53.00565 246.000
53.02560 278.000
53.04554 243.000
53.06549 263.000
53.08544 231.000
53.10538 246.000
53.12533 257.000
53.14528 268.000
53.16523 263.000
53.18517 245.000
53.20512 253.000
53.22507 265.000
53.24501 254.000
53.26496 287.000
53.28491 285.000
53.30485 295.000
53.32480 295.000
53.34475 315.000
53.36469 346.000
53.38464 304.000
53.40459 341.000
53.42454 368.000
53.44448 331.000
53.46443 332.000
53.48438 328.000
53.50432 406.000
53.52427 357.000
53.54422 335.000
53.56416 354.000
53.58411 349.000
53.60406 434.000
53.62401 431.000
53.64395 375.000
53.66390 416.000
53.68385 481.000
53.70379 462.000
53.72374 392.000
53.74369 418.000
53.76363 337.000
53.78358 340.000
53.80353 345.000
53.82348 362.000
53.84342 335.000
53.86337 340.000
53.88332 290.000
53.90326 275.000
53.92321 260.000
53.94316 241.000
53.96310 269.000
53.98305 266.000
54.00300 267.000
54.02294 247.000
54.04289 232.000
54.06284 254.000
54.08279 253.000
54.10273 236.000
54.12268 234.000
54.14263 261.000
54.16257 234.000
54.18252 241.000
54.20247 248.000
54.22241 278.000
54.24236 254.000
54.26231 259.000
54.28226 265.000
54.30220 222.000
54.32215 228.000
54.34210 233.000
54.36204 239.000
54.38199 239.000
54.40194 231.000
54.42188 248.000
54.44183 228.000
54.46178 246.000
54.48172 232.000
54.50167 232.000
54.52162 244.000
54.54157 243.000
54.56151 219.000
54.58146 225.000
54.60141 242.000
54.62135 236.000
54.64130 209.000
54.66125 227.000
54.68119 232.000
54.70114 231.000
54.72109 200.000
54.74104 252.000
54.76098 203.000
54.78093 235.000
54.80088 240.000
54.82082 255.000
54.84077 227.000
54.86072 226.000
54.88066 270.000
54.90061 231.000
54.92056 212.000
54.94050 224.000
54.96045 214.000
54.98040 218.000
55.00035 244.000
55.02029 233.000
55.04024 224.000
55.06019 243.000
55.08013 229.000
55.10008 233.000
55.12003 243.000
55.13997 242.000
55.15992 214.000
55.17987 225.000
55.19982 230.000
55.21976 227.000
55.23971 228.000
55.25966 206.000
55.27960 247.000
55.29955 217.000
55.31950 232.000
55.33944 228.000
55.35939 259.000
55.37934 227.000
55.39929 229.000
55.41923 238.000
55.43918 231.000
55.45913 232.000
55.47907 226.000
55.49902 221.000
55.51897 224.000
55.53891 223.000
55.55886 228.000
55.57881 248.000
55.59875 235.000
55.61870 223.000
55.63865 251.000
55.65860 233.000
55.67854 224.000
55.69849 248.000
55.71844 241.000
55.73838 236.000
55.75833 224.000
55.77828 242.000
55.79822 234.000
55.81817 222.000
55.83812 218.000
55.85807 250.000
55.87801 236.000
55.89796 221.000
55.91791 245.000
55.93785 232.000
55.95780 220.000
55.97775 203.000
55.99769 220.000
56.01764 239.000
56.03759 234.000
56.05753 249.000
56.07748 252.000
56.09743 233.000
56.11738 216.000
56.13732 212.000
56.15727 231.000
56.17722 235.000
56.19716 237.000
56.21711 252.000
56.23706 238.000
56.25700 213.000
56.27695 228.000
56.29690 231.000
56.31685 211.000
56.33679 237.000
56.35674 219.000
56.37669 228.000
56.39663 228.000
56.41658 251.000
56.43653 244.000
56.45647 258.000
56.47642 276.000
56.49637 255.000
56.51631 229.000
56.53626 256.000
56.55621 265.000
56.57616 245.000
56.59610 258.000
56.61605 261.000
56.63600 244.000
56.65594 249.000
56.67589 229.000
56.69584 259.000
56.71578 257.000
56.73573 252.000
56.75568 265.000
56.77563 265.000
56.79557 237.000
56.81552 280.000
56.83547 275.000
56.85541 251.000
56.87536 268.000
56.89531 281.000
56.91525 304.000
56.93520 291.000
56.95515 308.000
56.97510 356.000
56.99504 335.000
57.01499 378.000
57.03494 371.000
57.05488 426.000
57.07483 468.000
57.09478 516.000
57.11472 539.000
57.13467 538.000
57.15462 582.000
57.17456 642.000
57.19451 703.000
57.21446 816.000
57.23441 903.000
57.25435 852.000
57.27430 794.000
57.29425 770.000
57.31419 634.000
57.33414 625.000
57.35409 574.000
57.37403 603.000
57.39398 580.000
57.41393 580.000
57.43388 528.000
57.45382 480.000
57.47377 378.000
57.49372 349.000
57.51366 335.000
57.53361 322.000
57.55356 276.000
57.57350 260.000
57.59345 281.000
57.61340 245.000
57.63334 279.000
57.65329 263.000
57.67324 251.000
57.69319 268.000
57.71313 224.000
57.73308 255.000
57.75303 255.000
57.77297 257.000
57.79292 240.000
57.81287 279.000
57.83281 257.000
57.85276 260.000
57.87271 239.000
57.89266 231.000
57.91260 275.000
57.93255 237.000
57.95250 271.000
57.97244 254.000
57.99239 242.000
58.01234 274.000
58.03228 277.000
58.05223 268.000
58.07218 250.000
58.09212 298.000
58.11207 263.000
58.13202 260.000
58.15197 285.000
58.17191 326.000
58.19186 311.000
58.21181 335.000
58.23175 364.000
58.25170 371.000
58.27165 398.000
58.29159 336.000
58.31154 345.000
58.33149 333.000
58.35144 326.000
58.37138 325.000
58.39133 314.000
58.41128 328.000
58.43122 322.000
58.45117 298.000
58.47112 313.000
58.49106 271.000
58.51101 274.000
58.53096 259.000
58.55090 250.000
58.57085 267.000
58.59080 241.000
58.61075 235.000
58.63069 282.000
58.65064 272.000
58.67059 232.000
58.69053 254.000
58.71048 258.000
58.73043 253.000
58.75037 235.000
58.77032 235.000
58.79027 244.000
58.81022 229.000
58.83016 233.000
58.85011 236.000
58.87006 241.000
58.89000 253.000
58.90995 231.000
58.92990 235.000
58.94984 253.000
58.96979 230.000
58.98974 243.000
59.00969 273.000
59.02963 220.000
59.04958 213.000
59.06953 246.000
59.08947 238.000
59.10942 264.000
59.12937 259.000
59.14931 221.000
59.16926 239.000
59.18921 250.000
59.20915 222.000
59.22910 238.000
59.24905 242.000
59.26900 250.000
59.28894 225.000
59.30889 249.000
59.32884 216.000
59.34878 236.000
59.36873 213.000
59.38868 228.000
59.40862 237.000
59.42857 266.000
59.44852 245.000
59.46847 227.000
59.48841 226.000
59.50836 215.000
59.52831 198.000
59.54825 241.000
59.56820 214.000
59.58815 244.000
59.60809 266.000
59.62804 243.000
59.64799 247.000
59.66793 236.000
59.68788 245.000
59.70783 262.000
59.72778 225.000
59.74772 247.000
59.76767 241.000
59.78762 230.000
59.80756 249.000
59.82751 225.000
59.84746 235.000
59.86740 236.000
59.88735 250.000
59.90730 259.000
59.92725 251.000
59.94719 218.000
59.96714 237.000
59.98709 238.000
60.00703 239.000
60.02698 206.000
60.04693 239.000
60.06687 218.000
60.08682 230.000
60.10677 240.000
60.12671 255.000
60.14666 237.000
60.16661 229.000
60.18656 242.000
60.20650 254.000
60.22645 231.000
60.24640 193.000
60.26634 226.000
60.28629 223.000
60.30624 256.000
60.32618 284.000
60.34613 220.000
60.36608 234.000
60.38603 226.000
60.40597 238.000
60.42592 254.000
60.44587 244.000
60.46581 244.000
60.48576 232.000
60.50571 232.000
60.52565 234.000
60.54560 246.000
60.56555 219.000
60.58550 262.000
60.60544 237.000
60.62539 215.000
60.64534 264.000
60.66528 242.000
60.68523 217.000
60.70518 272.000
60.72512 231.000
60.74507 242.000
60.76502 235.000
60.78496 225.000
60.80491 219.000
60.82486 237.000
60.84481 229.000
60.86475 244.000
60.88470 259.000
60.90465 238.000
60.92459 255.000
60.94454 230.000
60.96449 211.000
60.98443 256.000
61.00438 251.000
61.02433 241.000
61.04428 256.000
61.06422 231.000
61.08417 267.000
61.10412 247.000
61.12406 262.000
61.14401 264.000
61.16396 273.000
61.18390 289.000
61.20385 272.000
61.22380 268.000
61.24374 265.000
61.26369 275.000
61.28364 321.000
61.30359 330.000
61.32353 311.000
61.34348 297.000
61.36343 308.000
61.38337 299.000
61.40332 316.000
61.42327 336.000
61.44321 392.000
61.46316 433.000
61.48311 451.000
61.50306 501.000
61.52300 521.000
61.54295 549.000
61.56290 497.000
61.58284 477.000
61.60279 427.000
61.62274 463.000
61.64268 448.000
61.66263 412.000
61.68258 492.000
61.70252 474.000
61.72247 466.000
61.74242 440.000
61.76237 455.000
61.78231 385.000
61.80226 388.000
61.82221 410.000
61.84215 391.000
61.86210 368.000
61.88205 323.000
61.90199 370.000
61.92194 342.000
61.94189 348.000
61.96184 349.000
61.98178 293.000
62.00173 348.000
62.02168 312.000
62.04162 310.000
62.06157 288.000
62.08152 336.000
62.10146 297.000
62.12141 316.000
62.14136 312.000
62.16131 293.000
62.18125 281.000
62.20120 288.000
62.22115 282.000
62.24109 262.000
62.26104 258.000
62.28099 271.000
62.30093 256.000
62.32088 275.000
62.34083 273.000
62.36077 284.000
62.38072 268.000
62.40067 292.000
62.42062 292.000
62.44056 314.000
62.46051 272.000
62.48046 309.000
62.50040 277.000
62.52035 341.000
62.54030 381.000
62.56024 370.000
62.58019 369.000
62.60014 373.000
62.62009 438.000
62.64003 397.000
62.65998 470.000
62.67993 478.000
62.69987 523.000
62.71982 556.000
62.73977 619.000
62.75971 688.000
62.77966 722.000
62.79961 796.000
62.81955 847.000
62.83950 961.000
62.85945 973.000
62.87940 1025.000
62.89934 908.000
62.91929 773.000
62.93924 664.000
62.95918 632.000
62.97913 662.000
62.99908 640.000
63.01902 624.000
63.03897 613.000
63.05892 568.000
63.07887 519.000
63.09881 482.000
63.11876 390.000
63.13871 381.000
63.15865 349.000
63.17860 277.000
63.19855 295.000
63.21849 287.000
63.23844 314.000
63.25839 276.000
63.27833 274.000
63.29828 288.000
63.31823 262.000
63.33818 280.000
63.35812 260.000
63.37807 255.000
63.39802 253.000
63.41796 226.000
63.43791 249.000
63.45786 270.000
63.47780 266.000
63.49775 281.000
63.51770 234.000
63.53765 228.000
63.55759 252.000
63.57754 254.000
63.59749 250.000
63.61743 284.000
63.63738 231.000
63.65733 271.000
63.67727 259.000
63.69722 259.000
63.71717 261.000
63.73712 268.000
63.75706 249.000
63.77701 289.000
63.79696 247.000
63.81690 269.000
63.83685 231.000
63.85680 263.000
63.87674 279.000
63.89669 282.000
63.91664 268.000
63.93658 277.000
63.95653 269.000
63.97648 277.000
63.99643 304.000
64.01637 259.000
64.03632 250.000
64.05627 248.000
64.07621 255.000
64.09616 242.000
64.11611 270.000
64.13605 247.000
64.15600 220.000
64.17595 268.000
64.19590 240.000
64.21584 233.000
64.23579 249.000
64.25574 277.000
64.27568 249.000
64.29563 250.000
64.31558 229.000
64.33552 249.000
64.35547 281.000
64.37542 260.000
64.39536 257.000
64.41531 234.000
64.43526 238.000
64.45521 246.000
64.47515 234.000
64.49510 256.000
64.51505 237.000
64.53499 216.000
64.55494 250.000
64.57489 220.000
64.59483 243.000
64.61478 236.000
64.63473 291.000
64.65468 237.000
64.67462 242.000
64.69457 247.000
64.71452 243.000
64.73446 236.000
64.75441 246.000
64.77436 230.000
64.79430 237.000
64.81425 214.000
64.83420 246.000
64.85414 226.000
64.87409 257.000
64.89404 246.000
64.91399 242.000
64.93393 242.000
64.95388 226.000
64.97383 278.000
64.99377 249.000
65.01372 246.000
65.03367 255.000
65.05361 244.000
65.07356 255.000
65.09351 262.000
65.11346 235.000
65.13340 242.000
65.15335 255.000
65.17330 239.000
65.19324 247.000
65.21319 264.000
65.23314 247.000
65.25308 258.000
65.27303 260.000
65.29298 249.000
65.31293 254.000
65.33287 251.000
65.35282 254.000
65.37277 270.000
65.39271 261.000
65.41266 281.000
65.43261 255.000
65.45255 281.000
65.47250 273.000
65.49245 288.000
65.51239 323.000
65.53234 295.000
65.55229 297.000
65.57224 295.000
65.59218 353.000
65.61213 304.000
65.63208 301.000
65.65202 320.000
65.67197 360.000
65.69192 351.000
65.71186 320.000
65.73181 395.000
65.75176 366.000
65.77171 367.000
65.79165 368.000
65.81160 375.000
65.83155 360.000
65.85149 354.000
65.87144 357.000
65.89139 347.000
65.91133 344.000
65.93128 364.000
65.95123 353.000
65.97117 364.000
65.99112 325.000
66.01107 348.000
66.03102 356.000
66.05096 336.000
66.07091 306.000
66.09086 314.000
66.11080 344.000
66.13075 383.000
66.15070 354.000
66.17064 371.000
66.19059 426.000
66.21054 444.000
66.23049 403.000
66.25043 463.000
66.27038 427.000
66.29033 460.000
66.31027 420.000
66.33022 419.000
66.35017 381.000
66.37011 370.000
66.39006 367.000
66.41001 372.000
66.42995 355.000
66.44990 393.000
66.46985 372.000
66.48980 325.000
66.50974 343.000
66.52969 307.000
66.54964 298.000
66.56958 297.000
66.58953 271.000
66.60948 288.000
66.62942 275.000
66.64937 241.000
66.66932 299.000
66.68927 267.000
66.70921 273.000
66.72916 286.000
66.74911 242.000
66.76905 268.000
66.78900 297.000
66.80895 272.000
66.82889 264.000
66.84884 218.000
66.86879 268.000
66.88874 284.000
66.90868 223.000
66.92863 248.000
66.94858 276.000
66.96852 262.000
66.98847 263.000
67.00842 240.000
67.02836 282.000
67.04831 249.000
67.06826 254.000
67.08820 241.000
67.10815 235.000
67.12810 244.000
67.14805 248.000
67.16799 277.000
67.18794 260.000
67.20789 220.000
67.22783 241.000
67.24778 241.000
67.26773 265.000
67.28767 228.000
67.30762 237.000
67.32757 250.000
67.34752 251.000
67.36746 246.000
67.38741 248.000
67.40736 229.000
67.42730 254.000
67.44725 253.000
67.46720 232.000
67.48714 258.000
67.50709 247.000
67.52704 268.000
67.54698 257.000
67.56693 225.000
67.58688 254.000
67.60683 247.000
67.62677 225.000
67.64672 275.000
67.66667 256.000
67.68661 263.000
67.70656 271.000
67.72651 261.000
67.74645 289.000
67.76640 297.000
67.78635 335.000
67.80630 348.000
67.82624 317.000
67.84619 337.000
67.86614 319.000
67.88608 338.000
67.90603 353.000
67.92598 319.000
67.94592 340.000
67.96587 380.000
67.98582 398.000
68.00576 426.000
68.02571 398.000
68.04566 409.000
68.06561 433.000
68.08555 399.000
68.10550 395.000
68.12545 352.000
68.14539 366.000
68.16534 330.000
68.18529 330.000
68.20523 350.000
68.22518 305.000
68.24513 301.000
68.26508 313.000
68.28502 306.000
68.30497 314.000
68.32492 282.000
68.34486 270.000
68.36481 293.000
68.38476 255.000
68.40470 288.000
68.42465 268.000
68.44460 244.000
68.46455 238.000
68.48449 244.000
68.50444 256.000
68.52439 253.000
68.54433 243.000
68.56428 231.000
68.58423 257.000
68.60417 228.000
68.62412 246.000
68.64407 242.000
68.66401 244.000
68.68396 241.000
68.70391 241.000
68.72386 222.000
68.74380 239.000
68.76375 230.000
68.78370 226.000
68.80364 224.000
68.82359 258.000
68.84354 227.000
68.86348 243.000
68.88343 232.000
68.90338 245.000
68.92333 234.000
68.94327 227.000
68.96322 231.000
68.98317 255.000
69.00311 267.000
69.02306 241.000
69.04301 234.000
69.06295 247.000
69.08290 203.000
69.10285 230.000
69.12279 231.000
69.14274 238.000
69.16269 229.000
69.18264 228.000
69.20258 253.000
69.22253 200.000
69.24248 233.000
69.26242 218.000
69.28237 240.000
69.30232 234.000
69.32226 227.000
69.34221 217.000
69.36216 236.000
69.38211 221.000
69.40205 206.000
69.42200 238.000
69.44195 219.000
69.46189 225.000
69.48184 227.000
69.50179 226.000
69.52173 228.000
69.54168 252.000
69.56163 233.000
69.58157 242.000
69.60152 209.000
69.62147 251.000
69.64142 220.000
69.66136 231.000
69.68131 205.000
69.70126 232.000
69.72120 225.000
69.74115 222.000
69.76110 234.000
69.78104 215.000
69.80099 236.000
69.82094 233.000
69.84089 214.000
69.86083 217.000
69.88078 239.000
69.90073 211.000
69.92067 266.000
69.94062 224.000
69.96057 220.000
69.98051 230.000
70.00046 243.000
70.02041 216.000
70.04035 228.000
70.06030 233.000
70.08025 237.000
70.10020 217.000
70.12014 228.000
70.14009 228.000
70.16004 220.000
70.17998 228.000
70.19993 235.000
70.21988 239.000
70.23982 223.000
70.25977 225.000
70.27972 213.000
70.29967 208.000
70.31961 226.000
70.33956 218.000
70.35951 221.000
70.37945 226.000
70.39940 232.000
70.41935 231.000
70.43929 239.000
70.45924 219.000
70.47919 233.000
70.49914 232.000
70.51908 239.000
70.53903 242.000
70.55898 219.000
70.57892 230.000
70.59887 227.000
70.61882 184.000
70.63876 250.000
70.65871 201.000
70.67866 236.000
70.69860 241.000
70.71855 230.000
70.73850 241.000
70.75845 217.000
70.77839 228.000
70.79834 231.000
70.81829 260.000
70.83823 243.000
70.85818 214.000
70.87813 240.000
70.89807 255.000
70.91802 240.000
70.93797 233.000
70.95792 228.000
70.97786 229.000
70.99781 239.000
71.01776 233.000
71.03770 231.000
71.05765 240.000
71.07760 244.000
71.09754 268.000
71.11749 238.000
71.13744 245.000
71.15738 223.000
71.17733 241.000
71.19728 266.000
71.21723 253.000
71.23717 256.000
71.25712 252.000
71.27707 270.000
71.29701 274.000
71.31696 280.000
71.33691 269.000
71.35685 289.000
71.37680 255.000
71.39675 265.000
71.41670 274.000
71.43664 253.000
71.45659 230.000
71.47654 249.000
71.49648 271.000
71.51643 250.000
71.53638 244.000
71.55632 259.000
71.57627 241.000
71.59622 265.000
71.61616 256.000
71.63611 252.000
71.65606 246.000
71.67601 272.000
71.69595 234.000
71.71590 231.000
71.73585 228.000
71.75579 229.000
71.77574 225.000
71.79569 240.000
71.81563 240.000
71.83558 249.000
71.85553 225.000
71.87548 231.000
71.89542 237.000
71.91537 223.000
71.93532 219.000
71.95526 251.000
71.97521 231.000
71.99516 226.000
72.01510 256.000
72.03505 238.000
72.05500 217.000
72.07495 241.000
72.09489 225.000
72.11484 257.000
72.13479 249.000
72.15473 220.000
72.17468 236.000
72.19463 258.000
72.21457 258.000
72.23452 226.000
72.25447 279.000
72.27441 273.000
72.29436 256.000
72.31431 263.000
72.33426 311.000
72.35420 296.000
72.37415 297.000
72.39410 334.000
72.41404 340.000
72.43399 318.000
72.45394 313.000
72.47388 311.000
72.49383 279.000
72.51378 296.000
72.53373 309.000
72.55367 274.000
72.57362 296.000
72.59357 327.000
72.61351 289.000
72.63346 278.000
72.65341 293.000
72.67335 257.000
72.69330 295.000
72.71325 277.000
72.73319 261.000
72.75314 245.000
72.77309 248.000
72.79304 252.000
72.81298 230.000
72.83293 270.000
72.85288 245.000
72.87282 242.000
72.89277 240.000
72.91272 261.000
72.93266 241.000
72.95261 271.000
72.97256 240.000
72.99251 255.000
73.01245 260.000
73.03240 265.000
73.05235 208.000
73.07229 239.000
73.09224 228.000
73.11219 235.000
73.13213 266.000
73.15208 251.000
73.17203 235.000
73.19197 235.000
73.21192 265.000
73.23187 253.000
73.25182 281.000
73.27176 256.000
73.29171 259.000
73.31166 253.000
73.33160 270.000
73.35155 235.000
73.37150 242.000
73.39144 261.000
73.41139 242.000
73.43134 249.000
73.45129 243.000
73.47123 241.000
73.49118 275.000
73.51113 212.000
73.53107 220.000
73.55102 228.000
73.57097 230.000
73.59091 225.000
73.61086 254.000
73.63081 246.000
73.65076 262.000
73.67070 235.000
73.69065 225.000
73.71060 209.000
73.73054 230.000
73.75049 251.000
73.77044 247.000
73.79038 252.000
73.81033 230.000
73.83028 220.000
73.85022 214.000
73.87017 201.000
73.89012 226.000
73.91007 257.000
73.93001 228.000
73.94996 254.000
73.96991 221.000
73.98985 206.000
74.00980 203.000
74.02975 237.000
74.04969 229.000
74.06964 230.000
74.08959 224.000
74.10954 237.000
74.12948 296.000
74.14943 252.000
74.16938 276.000
74.18932 246.000
74.20927 286.000
74.22922 300.000
74.24916 261.000
74.26911 292.000
74.28906 345.000
74.30900 321.000
74.32895 308.000
74.34890 354.000
74.36885 336.000
74.38879 342.000
74.40874 393.000
74.42869 321.000
74.44863 335.000
74.46858 347.000
74.48853 318.000
74.50847 278.000
74.52842 257.000
74.54837 264.000
74.56832 310.000
74.58826 289.000
74.60821 324.000
74.62816 329.000
74.64810 277.000
74.66805 282.000
74.68800 228.000
74.70794 255.000
74.72789 247.000
74.74784 245.000
74.76778 249.000
74.78773 256.000
74.80768 242.000
74.82763 256.000
74.84757 270.000
74.86752 264.000
74.88747 323.000
74.90741 253.000
74.92736 291.000
74.94731 310.000
74.96725 307.000
74.98720 318.000
75.00715 305.000
75.02710 327.000
75.04704 327.000
75.06699 316.000
75.08694 287.000
75.10688 309.000
75.12683 311.000
75.14678 324.000
75.16672 339.000
75.18667 341.000
75.20662 385.000
75.22657 311.000
75.24651 366.000
75.26646 325.000
75.28641 315.000
75.30635 345.000
75.32630 314.000
75.34625 340.000
75.36619 304.000
75.38614 343.000
75.40609 367.000
75.42603 323.000
75.44598 330.000
75.46593 315.000
75.48588 296.000
75.50582 289.000
75.52577 262.000
75.54572 286.000
75.56566 316.000
75.58561 283.000
75.60556 297.000
75.62550 280.000
75.64545 263.000
75.66540 291.000
75.68535 259.000
75.70529 255.000
75.72524 243.000
75.74519 247.000
75.76513 225.000
75.78508 231.000
75.80503 249.000
75.82497 229.000
75.84492 256.000
75.86487 235.000
75.88481 251.000
75.90476 219.000
75.92471 228.000
75.94466 225.000
75.96460 238.000
75.98455 231.000
76.00450 200.000
76.02444 218.000
76.04439 228.000
76.06434 231.000
76.08428 232.000
76.10423 235.000
76.12418 234.000
76.14413 221.000
76.16407 204.000
76.18402 237.000
76.20397 198.000
76.22391 205.000
76.24386 234.000
76.26381 219.000
76.28375 217.000
76.30370 227.000
76.32365 257.000
76.34359 226.000
76.36354 209.000
76.38349 235.000
76.40344 202.000
76.42338 260.000
76.44333 215.000
76.46328 230.000
76.48322 223.000
76.50317 209.000
76.52312 219.000
76.54306 243.000
76.56301 227.000
76.58296 248.000
76.60291 220.000
76.62285 228.000
76.64280 207.000
76.66275 242.000
76.68269 253.000
76.70264 199.000
76.72259 231.000
76.74253 235.000
76.76248 191.000
76.78243 221.000
76.80238 253.000
76.82232 228.000
76.84227 220.000
76.86222 213.000
76.88216 227.000
76.90211 232.000
76.92206 240.000
76.94200 215.000
76.96195 257.000
76.98190 231.000
77.00184 252.000
77.02179 227.000
77.04174 219.000
77.06169 221.000
77.08163 255.000
77.10158 222.000
77.12153 239.000
77.14147 218.000
77.16142 229.000
77.18137 230.000
77.20131 245.000
77.22126 217.000
77.24121 229.000
77.26116 241.000
77.28110 224.000
77.30105 224.000
77.32100 239.000
77.34094 269.000
77.36089 218.000
77.38084 244.000
77.40078 232.000
77.42073 206.000
77.44068 263.000
77.46062 215.000
77.48057 225.000
77.50052 230.000
77.52047 220.000
77.54041 225.000
77.56036 225.000
77.58031 197.000
77.60025 202.000
77.62020 233.000
77.64015 217.000
77.66009 241.000
77.68004 257.000
77.69999 249.000
77.71994 219.000
77.73988 239.000
77.75983 224.000
77.77978 216.000
77.79972 237.000
77.81967 232.000
77.83962 217.000
77.85956 219.000
77.87951 235.000
77.89946 225.000
77.91940 253.000
77.93935 234.000
77.95930 254.000
77.97925 247.000
77.99919 223.000
78.01914 237.000
78.03909 225.000
78.05903 228.000
78.07898 256.000
78.09893 262.000
78.11887 253.000
78.13882 228.000
78.15877 228.000
78.17872 267.000
78.19866 240.000
78.21861 277.000
78.23856 221.000
78.25850 225.000
78.27845 237.000
78.29840 261.000
78.31834 246.000
78.33829 206.000
78.35824 257.000
78.37819 254.000
78.39813 236.000
78.41808 243.000
78.43803 229.000
78.45797 241.000
78.47792 245.000
78.49787 234.000
78.51781 215.000
78.53776 224.000
78.55771 217.000
78.57765 230.000
78.59760 242.000
78.61755 254.000
78.63750 245.000
78.65744 221.000
78.67739 222.000
78.69734 220.000
78.71728 223.000
78.73723 203.000
78.75718 220.000
78.77712 241.000
78.79707 257.000
78.81702 234.000
78.83697 231.000
78.85691 228.000
78.87686 230.000
78.89681 227.000
78.91675 230.000
78.93670 262.000
78.95665 213.000
78.97659 218.000
78.99654 226.000
79.01649 244.000
79.03643 243.000
79.05638 246.000
79.07633 225.000
79.09628 250.000
79.11622 243.000
79.13617 229.000
79.15612 250.000
79.17606 230.000
79.19601 260.000
79.21596 237.000
79.23590 247.000
79.25585 280.000
79.27580 263.000
79.29575 250.000
79.31569 268.000
79.33564 263.000
79.35559 238.000
79.37553 268.000
79.39548 293.000
79.41543 300.000
79.43537 261.000
79.45532 250.000
79.47527 273.000
79.49521 258.000
79.51516 276.000
79.53511 245.000
79.55506 255.000
79.57500 260.000
79.59495 280.000
79.61490 266.000
79.63484 278.000
79.65479 279.000
79.67474 264.000
79.69468 239.000
79.71463 233.000
79.73458 238.000
79.75453 216.000
79.77447 222.000
79.79442 255.000
79.81437 213.000
79.83431 218.000
79.85426 229.000
79.87421 217.000
79.89415 215.000
79.91410 241.000
79.93405 217.000
79.95399 210.000
79.97394 202.000
79.99389 232.000
80.01384 253.000
80.03378 231.000
80.05373 238.000
80.07368 233.000
80.09362 249.000
80.11357 226.000
80.13352 229.000
80.15346 241.000
80.17341 218.000
80.19336 240.000
80.21331 230.000
80.23325 230.000
80.25320 229.000
80.27315 246.000
80.29309 229.000
80.31304 225.000
80.33299 279.000
80.35293 251.000
80.37288 237.000
80.39283 222.000
80.41278 220.000
80.43272 238.000
80.45267 227.000
80.47262 234.000
80.49256 270.000
80.51251 261.000
80.53246 243.000
80.55240 224.000
80.57235 266.000
80.59230 223.000
80.61224 236.000
80.63219 218.000
80.65214 212.000
80.67209 237.000
80.69203 245.000
80.71198 213.000
80.73193 206.000
80.75187 204.000
80.77182 253.000
80.79177 251.000
80.81171 215.000
80.83166 213.000
80.85161 224.000
80.87156 250.000
80.89150 245.000
80.91145 244.000
80.93140 224.000
80.95134 237.000
80.97129 236.000
80.99124 225.000
81.01118 236.000
81.03113 213.000
81.05108 206.000
81.07102 218.000
81.09097 220.000
81.11092 239.000
81.13087 236.000
81.15081 232.000
81.17076 226.000
81.19071 229.000
81.21065 233.000
81.23060 221.000
81.25055 219.000
81.27049 213.000
81.29044 213.000
81.31039 222.000
81.33034 237.000
81.35028 243.000
81.37023 217.000
81.39018 222.000
81.41012 235.000
81.43007 254.000
81.45002 256.000
81.46996 238.000
81.48991 226.000
81.50986 220.000
81.52980 233.000
81.54975 241.000
81.56970 250.000
81.58965 240.000
81.60959 246.000
81.62954 230.000
81.64949 246.000
81.66943 223.000
81.68938 192.000
81.70933 224.000
81.72927 221.000
81.74922 219.000
81.76917 254.000
81.78912 219.000
81.80906 214.000
81.82901 207.000
81.84896 199.000
81.86890 219.000
81.88885 204.000
81.90880 208.000
81.92874 205.000
81.94869 235.000
81.96864 219.000
81.98859 234.000
82.00853 234.000
82.02848 198.000
82.04843 222.000
82.06837 244.000
82.08832 213.000
82.10827 263.000
82.12821 219.000
82.14816 196.000
82.16811 239.000
82.18805 245.000
82.20800 229.000
82.22795 265.000
82.24790 249.000
82.26784 227.000
82.28779 259.000
82.30774 241.000
82.32768 251.000
82.34763 236.000
82.36758 289.000
82.38752 256.000
82.40747 271.000
82.42742 309.000
82.44737 269.000
82.46731 258.000
82.48726 294.000
82.50721 258.000
82.52715 256.000
82.54710 255.000
82.56705 284.000
82.58699 255.000
82.60694 267.000
82.62689 251.000
82.64683 249.000
82.66678 265.000
82.68673 255.000
82.70668 274.000
82.72662 235.000
82.74657 256.000
82.76652 270.000
82.78646 232.000
82.80641 265.000
82.82636 242.000
82.84630 259.000
82.86625 254.000
82.88620 253.000
82.90615 227.000
82.92609 263.000
82.94604 272.000
82.96599 286.000
82.98593 267.000
83.00588 276.000
83.02583 281.000
83.04577 284.000
83.06572 257.000
83.08567 243.000
83.10561 274.000
83.12556 258.000
83.14551 302.000
83.16546 297.000
83.18540 249.000
83.20535 237.000
83.22530 231.000
83.24524 244.000
83.26519 258.000
83.28514 248.000
83.30508 273.000
83.32503 260.000
83.34498 265.000
83.36493 242.000
83.38487 252.000
83.40482 263.000
83.42477 252.000
83.44471 220.000
83.46466 262.000
83.48461 251.000
83.50455 247.000
83.52450 258.000
83.54445 239.000
83.56440 260.000
83.58434 264.000
83.60429 248.000
83.62424 258.000
83.64418 232.000
83.66413 240.000
83.68408 256.000
83.70402 269.000
83.72397 217.000
83.74392 275.000
83.76386 244.000
83.78381 256.000
83.80376 240.000
83.82371 216.000
83.84365 232.000
83.86360 267.000
83.88355 245.000
83.90349 258.000
83.92344 268.000
83.94339 271.000
83.96333 234.000
83.98328 263.000
84.00323 260.000
84.02318 275.000
84.04312 229.000
84.06307 259.000
84.08302 261.000
84.10296 221.000
84.12291 254.000
84.14286 257.000
84.16280 242.000
84.18275 215.000
84.20270 240.000
84.22264 237.000
84.24259 253.000
84.26254 249.000
84.28249 245.000
84.30243 229.000
84.32238 252.000
84.34233 241.000
84.36227 242.000
84.38222 233.000
84.40217 242.000
84.42211 246.000
84.44206 229.000
84.46201 237.000
84.48196 232.000
84.50190 204.000
84.52185 248.000
84.54180 217.000
84.56174 248.000
84.58169 240.000
84.60164 213.000
84.62158 223.000
84.64153 226.000
84.66148 211.000
84.68142 247.000
84.70137 231.000
84.72132 239.000
84.74127 253.000
84.76121 237.000
84.78116 221.000
84.80111 208.000
84.82105 212.000
84.84100 216.000
84.86095 244.000
84.88089 234.000
84.90084 240.000
84.92079 197.000
84.94074 206.000
84.96068 212.000
84.98063 212.000
85.00058 232.000
85.02052 239.000
85.04047 192.000
85.06042 211.000
85.08036 228.000
85.10031 237.000
85.12026 225.000
85.14021 222.000
85.16015 234.000
85.18010 238.000
85.20005 219.000
85.21999 231.000
85.23994 245.000
85.25989 224.000
85.27983 221.000
85.29978 204.000
85.31973 231.000
85.33967 218.000
85.35962 185.000
85.37957 240.000
85.39952 231.000
85.41946 224.000
85.43941 238.000
85.45936 234.000
85.47930 222.000
85.49925 196.000
85.51920 189.000
85.53914 220.000
85.55909 217.000
85.57904 226.000
85.59899 261.000
85.61893 239.000
85.63888 230.000
85.65883 253.000
85.67877 216.000
85.69872 233.000
85.71867 242.000
85.73861 232.000
85.75856 207.000
85.77851 218.000
85.79845 248.000
85.81840 196.000
85.83835 225.000
85.85830 235.000
85.87824 212.000
85.89819 211.000
85.91814 227.000
85.93808 218.000
85.95803 231.000
85.97798 223.000
85.99792 211.000
86.01787 223.000
86.03782 242.000
86.05777 217.000
86.07771 218.000
86.09766 202.000
86.11761 242.000
86.13755 207.000
86.15750 245.000
86.17745 233.000
86.19739 209.000
86.21734 279.000
86.23729 249.000
86.25723 257.000
86.27718 236.000
86.29713 231.000
86.31708 192.000
86.33702 244.000
86.35697 232.000
86.37692 239.000
86.39686 241.000
86.41681 219.000
86.43676 239.000
86.45670 256.000
86.47665 278.000
86.49660 243.000
86.51655 218.000
86.53649 227.000
86.55644 227.000
86.57639 246.000
86.59633 244.000
86.61628 222.000
86.63623 237.000
86.65617 269.000
86.67612 217.000
86.69607 239.000
86.71602 203.000
86.73596 255.000
86.75591 228.000
86.77586 264.000
86.79580 270.000
86.81575 232.000
86.83570 230.000
86.85564 264.000
86.87559 224.000
86.89554 236.000
86.91548 266.000
86.93543 236.000
86.95538 241.000
86.97533 277.000
86.99527 259.000
87.01522 279.000
87.03517 253.000
87.05511 244.000
87.07506 252.000
87.09501 270.000
87.11495 256.000
87.13490 282.000
87.15485 265.000
87.17480 276.000
87.19474 287.000
87.21469 242.000
87.23464 274.000
87.25458 268.000
87.27453 275.000
87.29448 265.000
87.31442 251.000
87.33437 243.000
87.35432 267.000
87.37426 237.000
87.39421 260.000
87.41416 278.000
87.43411 259.000
87.45405 301.000
87.47400 250.000
87.49395 267.000
87.51389 266.000
87.53384 256.000
87.55379 246.000
87.57373 263.000
87.59368 242.000
87.61363 257.000
87.63358 260.000
87.65352 227.000
87.67347 226.000
87.69342 194.000
87.71336 256.000
87.73331 226.000
87.75326 253.000
87.77320 224.000
87.79315 246.000
87.81310 238.000
87.83304 238.000
87.85299 207.000
87.87294 229.000
87.89289 244.000
87.91283 218.000
87.93278 213.000
87.95273 214.000
87.97267 220.000
87.99262 211.000
88.01257 236.000
88.03251 199.000
88.05246 215.000
88.07241 214.000
88.09236 233.000
88.11230 236.000
88.13225 215.000
88.15220 235.000
88.17214 228.000
88.19209 236.000
88.21204 208.000
88.23198 210.000
88.25193 248.000
88.27188 227.000
88.29183 237.000
88.31177 202.000
88.33172 211.000
88.35167 232.000
88.37161 242.000
88.39156 252.000
88.41151 225.000
88.43145 238.000
88.45140 205.000
88.47135 251.000
88.49129 232.000
88.51124 222.000
88.53119 213.000
88.55114 238.000
88.57108 230.000
88.59103 220.000
88.61098 227.000
88.63092 230.000
88.65087 215.000
88.67082 229.000
88.69076 220.000
88.71071 227.000
88.73066 226.000
88.75061 228.000
88.77055 229.000
88.79050 217.000
88.81045 234.000
88.83039 240.000
88.85034 236.000
88.87029 202.000
88.89023 222.000
88.91018 217.000
88.93013 200.000
88.95007 247.000
88.97002 222.000
88.98997 226.000
89.00992 230.000
89.02986 246.000
89.04981 227.000
89.06976 236.000
89.08970 216.000
89.10965 230.000
89.12960 229.000
89.14954 218.000
89.16949 267.000
89.18944 236.000
89.20939 261.000
89.22933 232.000
89.24928 241.000
89.26923 215.000
89.28917 229.000
89.30912 242.000
89.32907 249.000
89.34901 256.000
89.36896 244.000
89.38891 272.000
89.40885 228.000
89.42880 251.000
89.44875 223.000
89.46870 252.000
89.48864 253.000
89.50859 250.000
89.52854 280.000
89.54848 203.000
89.56843 285.000
89.58838 269.000
89.60832 245.000
89.62827 280.000
89.64822 263.000
89.66817 305.000
89.68811 276.000
89.70806 277.000
89.72801 266.000
89.74795 264.000
89.76790 281.000
89.78785 272.000
89.80779 290.000
89.82774 296.000
89.84769 294.000
89.86764 292.000
89.88758 310.000
89.90753 325.000
89.92748 286.000
89.94742 312.000
89.96737 300.000
89.98732 318.000
90.00726 306.000
