10.00000 127.000
10.01995 134.000
10.03989 130.000
10.05984 122.000
10.07979 133.000
10.09973 123.000
10.11968 119.000
10.13963 132.000
10.15958 117.000
10.17952 143.000
10.19947 129.000
10.21942 141.000
10.23936 118.000
10.25931 122.000
10.27926 133.000
10.29920 123.000
10.31915 126.000
10.33910 121.000
10.35905 133.000
10.37899 133.000
10.39894 118.000
10.41889 145.000
10.43883 121.000
10.45878 127.000
10.47873 137.000
10.49867 135.000
10.51862 115.000
10.53857 135.000
10.55851 121.000
10.57846 138.000
10.59841 122.000
10.61836 137.000
10.63830 141.000
10.65825 138.000
10.67820 138.000
10.69814 127.000
10.71809 123.000
10.73804 107.000
10.75798 160.000
10.77793 145.000
10.79788 151.000
10.81783 129.000
10.83777 128.000
10.85772 123.000
10.87767 150.000
10.89761 128.000
10.91756 109.000
10.93751 122.000
10.95745 141.000
10.97740 136.000
10.99735 121.000
11.01730 158.000
11.03724 127.000
11.05719 150.000
11.07714 120.000
11.09708 136.000
11.11703 151.000
11.13698 136.000
11.15692 130.000
11.17687 132.000
11.19682 125.000
11.21676 126.000
11.23671 130.000
11.25666 125.000
11.27661 142.000
11.29655 143.000
11.31650 143.000
11.33645 133.000
11.35639 133.000
11.37634 159.000
11.39629 159.000
11.41623 137.000
11.43618 123.000
11.45613 138.000
11.47608 156.000
11.49602 134.000
11.51597 126.000
11.53592 130.000
11.55586 146.000
11.57581 130.000
11.59576 117.000
11.61570 153.000
11.63565 147.000
11.65560 128.000
11.67554 146.000
11.69549 126.000
11.71544 159.000
11.73539 135.000
11.75533 160.000
11.77528 134.000
11.79523 130.000
11.81517 128.000
11.83512 135.000
11.85507 142.000
11.87501 144.000
11.89496 152.000
11.91491 146.000
11.93486 111.000
11.95480 166.000
11.97475 142.000
11.99470 145.000
12.01464 151.000
12.03459 150.000
12.05454 152.000
12.07448 143.000
12.09443 174.000
12.11438 155.000
12.13432 155.000
12.15427 165.000
12.17422 166.000
12.19417 158.000
12.21411 170.000
12.23406 190.000
12.25401 172.000
12.27395 169.000
12.29390 171.000
12.31385 174.000
12.33379 193.000
12.35374 190.000
12.37369 216.000
12.39364 202.000
12.41358 239.000
12.43353 265.000
12.45348 292.000
12.47342 353.000
12.49337 385.000
12.51332 446.000
12.53326 557.000
12.55321 717.000
12.57316 858.000
12.59311 1007.000
12.61305 1145.000
12.63300 1140.000
12.65295 1078.000
12.67289 871.000
12.69284 699.000
12.71279 560.000
12.73273 467.000
12.75268 410.000
12.77263 372.000
12.79257 315.000
12.81252 289.000
12.83247 293.000
12.85242 266.000
12.87236 254.000
12.89231 274.000
12.91226 215.000
12.93220 218.000
12.95215 211.000
12.97210 213.000
12.99204 212.000
13.01199 244.000
13.03194 227.000
13.05189 208.000
13.07183 211.000
13.09178 207.000
13.11173 239.000
13.13167 198.000
13.15162 201.000
13.17157 202.000
13.19151 220.000
13.21146 199.000
13.23141 191.000
13.25135 182.000
13.27130 186.000
13.29125 204.000
13.31120 226.000
13.33114 192.000
13.35109 188.000
13.37104 211.000
13.39098 198.000
13.41093 228.000
13.43088 216.000
13.45082 198.000
13.47077 219.000
13.49072 207.000
13.51067 226.000
13.53061 213.000
13.55056 254.000
13.57051 203.000
13.59045 186.000
13.61040 240.000
13.63035 228.000
13.65029 224.000
13.67024 208.000
13.69019 208.000
13.71013 219.000
13.73008 205.000
13.75003 229.000
13.76998 238.000
13.78992 240.000
13.80987 232.000
13.82982 225.000
13.84976 249.000
13.86971 239.000
13.88966 262.000
13.90960 225.000
13.92955 240.000
13.94950 231.000
13.96945 233.000
13.98939 225.000
14.00934 274.000
14.02929 259.000
14.04923 264.000
14.06918 250.000
14.08913 231.000
14.10907 255.000
14.12902 263.000
14.14897 226.000
14.16892 276.000
14.18886 255.000
14.20881 256.000
14.22876 245.000
14.24870 251.000
14.26865 223.000
14.28860 214.000
14.30854 235.000
14.32849 226.000
14.34844 245.000
14.36838 217.000
14.38833 220.000
14.40828 229.000
14.42823 232.000
14.44817 224.000
14.46812 219.000
14.48807 215.000
14.50801 228.000
14.52796 212.000
14.54791 210.000
14.56785 222.000
14.58780 230.000
14.60775 204.000
14.62770 239.000
14.64764 221.000
14.66759 229.000
14.68754 212.000
14.70748 231.000
14.72743 214.000
14.74738 239.000
14.76732 233.000
14.78727 217.000
14.80722 238.000
14.82716 224.000
14.84711 206.000
14.86706 225.000
14.88701 215.000
14.90695 234.000
14.92690 227.000
14.94685 230.000
14.96679 209.000
14.98674 217.000
15.00669 219.000
15.02663 228.000
15.04658 220.000
15.06653 235.000
15.08648 237.000
15.10642 236.000
15.12637 240.000
15.14632 227.000
15.16626 235.000
15.18621 252.000
15.20616 234.000
15.22610 239.000
15.24605 247.000
15.26600 293.000
15.28594 287.000
15.30589 277.000
15.32584 291.000
15.34579 296.000
15.36573 335.000
15.38568 350.000
15.40563 334.000
15.42557 401.000
15.44552 457.000
15.46547 556.000
15.48541 694.000
15.50536 837.000
15.52531 1223.000
15.54526 1725.000
15.56520 2410.000
15.58515 3552.000
15.60510 4634.000
15.62504 4827.000
15.64499 3794.000
15.66494 2608.000
15.68488 1476.000
15.70483 870.000
15.72478 575.000
15.74472 448.000
15.76467 320.000
15.78462 324.000
15.80457 251.000
15.82451 236.000
15.84446 196.000
15.86441 219.000
15.88435 197.000
15.90430 172.000
15.92425 189.000
15.94419 174.000
15.96414 187.000
15.98409 177.000
16.00404 169.000
16.02398 163.000
16.04393 151.000
16.06388 153.000
16.08382 175.000
16.10377 151.000
16.12372 146.000
16.14366 170.000
16.16361 166.000
16.18356 146.000
16.20351 162.000
16.22345 129.000
16.24340 127.000
16.26335 158.000
16.28329 170.000
16.30324 152.000
16.32319 150.000
16.34313 134.000
16.36308 164.000
16.38303 118.000
16.40297 134.000
16.42292 125.000
16.44287 140.000
16.46282 156.000
16.48276 138.000
16.50271 131.000
16.52266 141.000
16.54260 129.000
16.56255 129.000
16.58250 140.000
16.60244 136.000
16.62239 125.000
16.64234 109.000
16.66229 126.000
16.68223 131.000
16.70218 135.000
16.72213 141.000
16.74207 120.000
16.76202 148.000
16.78197 130.000
16.80191 118.000
16.82186 154.000
16.84181 138.000
16.86175 113.000
16.88170 128.000
16.90165 132.000
16.92160 133.000
16.94154 145.000
16.96149 121.000
16.98144 109.000
17.00138 127.000
17.02133 127.000
17.04128 128.000
17.06122 128.000
17.08117 120.000
17.10112 115.000
17.12107 138.000
17.14101 110.000
17.16096 136.000
17.18091 126.000
17.20085 139.000
17.22080 120.000
17.24075 125.000
17.26069 131.000
17.28064 131.000
17.30059 136.000
17.32053 139.000
17.34048 155.000
17.36043 140.000
17.38038 129.000
17.40032 99.000
17.42027 137.000
17.44022 119.000
17.46016 130.000
17.48011 122.000
17.50006 111.000
17.52000 132.000
17.53995 124.000
17.55990 149.000
17.57985 126.000
17.59979 119.000
17.61974 106.000
17.63969 121.000
17.65963 131.000
17.67958 125.000
17.69953 129.000
17.71947 116.000
17.73942 135.000
17.75937 129.000
17.77932 120.000
17.79926 118.000
17.81921 133.000
17.83916 116.000
17.85910 127.000
17.87905 138.000
17.89900 129.000
17.91894 134.000
17.93889 132.000
17.95884 142.000
17.97878 124.000
17.99873 123.000
18.01868 149.000
18.03863 166.000
18.05857 204.000
18.07852 211.000
18.09847 266.000
18.11841 378.000
18.13836 471.000
18.15831 589.000
18.17825 645.000
18.19820 637.000
18.21815 514.000
18.23810 450.000
18.25804 326.000
18.27799 292.000
18.29794 238.000
18.31788 186.000
18.33783 150.000
18.35778 144.000
18.37772 130.000
18.39767 116.000
18.41762 131.000
18.43756 153.000
18.45751 128.000
18.47746 127.000
18.49741 146.000
18.51735 143.000
18.53730 140.000
18.55725 120.000
18.57719 144.000
18.59714 138.000
18.61709 137.000
18.63703 126.000
18.65698 122.000
18.67693 123.000
18.69688 143.000
18.71682 130.000
18.73677 111.000
18.75672 147.000
18.77666 133.000
18.79661 144.000
18.81656 147.000
18.83650 125.000
18.85645 113.000
18.87640 131.000
18.89634 128.000
18.91629 122.000
18.93624 116.000
18.95619 119.000
18.97613 128.000
18.99608 129.000
19.01603 106.000
19.03597 119.000
19.05592 125.000
19.07587 111.000
19.09581 117.000
19.11576 138.000
19.13571 142.000
19.15566 110.000
19.17560 122.000
19.19555 129.000
19.21550 135.000
19.23544 109.000
19.25539 117.000
19.27534 142.000
19.29528 136.000
19.31523 127.000
19.33518 117.000
19.35513 121.000
19.37507 118.000
19.39502 120.000
19.41497 161.000
19.43491 140.000
19.45486 106.000
19.47481 116.000
19.49475 136.000
19.51470 127.000
19.53465 109.000
19.55459 140.000
19.57454 130.000
19.59449 141.000
19.61444 124.000
19.63438 157.000
19.65433 129.000
19.67428 130.000
19.69422 115.000
19.71417 109.000
19.73412 123.000
19.75406 102.000
19.77401 105.000
19.79396 116.000
19.81391 114.000
19.83385 114.000
19.85380 107.000
19.87375 128.000
19.89369 139.000
19.91364 130.000
19.93359 131.000
19.95353 106.000
19.97348 129.000
19.99343 129.000
20.01337 137.000
20.03332 150.000
20.05327 136.000
20.07322 111.000
20.09316 119.000
20.11311 134.000
20.13306 100.000
20.15300 128.000
20.17295 116.000
20.19290 123.000
20.21284 136.000
20.23279 123.000
20.25274 118.000
20.27269 129.000
20.29263 109.000
20.31258 117.000
20.33253 121.000
20.35247 135.000
20.37242 125.000
20.39237 130.000
20.41231 111.000
20.43226 138.000
20.45221 115.000
20.47215 148.000
20.49210 133.000
20.51205 131.000
20.53200 126.000
20.55194 120.000
20.57189 120.000
20.59184 116.000
20.61178 149.000
20.63173 117.000
20.65168 124.000
20.67162 132.000
20.69157 119.000
20.71152 159.000
20.73147 114.000
20.75141 130.000
20.77136 134.000
20.79131 126.000
20.81125 121.000
20.83120 116.000
20.85115 117.000
20.87109 126.000
20.89104 131.000
20.91099 133.000
20.93094 135.000
20.95088 144.000
20.97083 121.000
20.99078 121.000
21.01072 115.000
21.03067 131.000
21.05062 127.000
21.07056 110.000
21.09051 113.000
21.11046 109.000
21.13040 124.000
21.15035 143.000
21.17030 127.000
21.19025 128.000
21.21019 138.000
21.23014 110.000
21.25009 118.000
21.27003 109.000
21.28998 125.000
21.30993 119.000
21.32987 106.000
21.34982 134.000
21.36977 155.000
21.38972 147.000
21.40966 131.000
21.42961 117.000
21.44956 134.000
21.46950 131.000
21.48945 148.000
21.50940 135.000
21.52934 127.000
21.54929 131.000
21.56924 145.000
21.58918 130.000
21.60913 117.000
21.62908 123.000
21.64903 126.000
21.66897 136.000
21.68892 122.000
21.70887 117.000
21.72881 116.000
21.74876 130.000
21.76871 132.000
21.78865 138.000
21.80860 145.000
21.82855 127.000
21.84850 134.000
21.86844 140.000
21.88839 139.000
21.90834 123.000
21.92828 124.000
21.94823 125.000
21.96818 119.000
21.98812 150.000
22.00807 129.000
22.02802 119.000
22.04796 120.000
22.06791 116.000
22.08786 109.000
22.10781 132.000
22.12775 120.000
22.14770 114.000
22.16765 134.000
22.18759 125.000
22.20754 109.000
22.22749 125.000
22.24743 121.000
22.26738 146.000
22.28733 125.000
22.30728 112.000
22.32722 125.000
22.34717 124.000
22.36712 110.000
22.38706 112.000
22.40701 134.000
22.42696 117.000
22.44690 137.000
22.46685 130.000
22.48680 122.000
22.50675 125.000
22.52669 114.000
22.54664 119.000
22.56659 106.000
22.58653 133.000
22.60648 117.000
22.62643 121.000
22.64637 141.000
22.66632 132.000
22.68627 139.000
22.70621 119.000
22.72616 144.000
22.74611 134.000
22.76606 133.000
22.78600 106.000
22.80595 130.000
22.82590 129.000
22.84584 130.000
22.86579 132.000
22.88574 135.000
22.90568 105.000
22.92563 147.000
22.94558 125.000
22.96553 137.000
22.98547 109.000
23.00542 127.000
23.02537 128.000
23.04531 130.000
23.06526 113.000
23.08521 123.000
23.10515 134.000
23.12510 114.000
23.14505 140.000
23.16499 119.000
23.18494 126.000
23.20489 132.000
23.22484 131.000
23.24478 110.000
23.26473 124.000
23.28468 145.000
23.30462 136.000
23.32457 144.000
23.34452 119.000
23.36446 114.000
23.38441 120.000
23.40436 107.000
23.42431 129.000
23.44425 138.000
23.46420 140.000
23.48415 143.000
23.50409 114.000
23.52404 122.000
23.54399 138.000
23.56393 141.000
23.58388 130.000
23.60383 132.000
23.62377 147.000
23.64372 132.000
23.66367 136.000
23.68362 115.000
23.70356 143.000
23.72351 121.000
23.74346 122.000
23.76340 133.000
23.78335 138.000
23.80330 119.000
23.82324 123.000
23.84319 108.000
23.86314 117.000
23.88309 101.000
23.90303 120.000
23.92298 134.000
23.94293 134.000
23.96287 143.000
23.98282 136.000
24.00277 125.000
24.02271 130.000
24.04266 131.000
24.06261 138.000
24.08256 136.000
24.10250 121.000
24.12245 140.000
24.14240 127.000
24.16234 119.000
24.18229 135.000
24.20224 130.000
24.22218 135.000
24.24213 111.000
24.26208 116.000
24.28202 136.000
24.30197 131.000
24.32192 131.000
24.34187 117.000
24.36181 156.000
24.38176 123.000
24.40171 125.000
24.42165 128.000
24.44160 139.000
24.46155 118.000
24.48149 114.000
24.50144 126.000
24.52139 117.000
24.54134 145.000
24.56128 121.000
24.58123 141.000
24.60118 142.000
24.62112 134.000
24.64107 133.000
24.66102 117.000
24.68096 112.000
24.70091 123.000
24.72086 140.000
24.74080 106.000
24.76075 117.000
24.78070 140.000
24.80065 132.000
24.82059 125.000
24.84054 120.000
24.86049 116.000
24.88043 140.000
24.90038 138.000
24.92033 141.000
24.94027 123.000
24.96022 147.000
24.98017 164.000
25.00012 135.000
25.02006 169.000
25.04001 163.000
25.05996 142.000
25.07990 150.000
25.09985 125.000
25.11980 141.000
25.13974 145.000
25.15969 135.000
25.17964 151.000
25.19958 155.000
25.21953 155.000
25.23948 166.000
25.25943 171.000
25.27937 206.000
25.29932 176.000
25.31927 198.000
25.33921 246.000
25.35916 278.000
25.37911 336.000
25.39905 326.000
25.41900 295.000
25.43895 293.000
25.45890 296.000
25.47884 288.000
25.49879 257.000
25.51874 249.000
25.53868 204.000
25.55863 179.000
25.57858 206.000
25.59852 171.000
25.61847 165.000
25.63842 152.000
25.65837 148.000
25.67831 159.000
25.69826 157.000
25.71821 165.000
25.73815 138.000
25.75810 137.000
25.77805 127.000
25.79799 152.000
25.81794 137.000
25.83789 147.000
25.85783 132.000
25.87778 150.000
25.89773 145.000
25.91768 134.000
25.93762 156.000
25.95757 146.000
25.97752 124.000
25.99746 136.000
26.01741 138.000
26.03736 133.000
26.05730 144.000
26.07725 138.000
26.09720 139.000
26.11715 120.000
26.13709 118.000
26.15704 125.000
26.17699 118.000
26.19693 130.000
26.21688 150.000
26.23683 140.000
26.25677 134.000
26.27672 149.000
26.29667 131.000
26.31661 150.000
26.33656 118.000
26.35651 146.000
26.37646 121.000
26.39640 119.000
26.41635 148.000
26.43630 106.000
26.45624 139.000
26.47619 118.000
26.49614 133.000
26.51608 127.000
26.53603 144.000
26.55598 127.000
26.57593 133.000
26.59587 126.000
26.61582 150.000
26.63577 128.000
26.65571 119.000
26.67566 118.000
26.69561 139.000
26.71555 159.000
26.73550 132.000
26.75545 129.000
26.77539 134.000
26.79534 129.000
26.81529 149.000
26.83524 127.000
26.85518 139.000
26.87513 130.000
26.89508 121.000
26.91502 119.000
26.93497 127.000
26.95492 150.000
26.97486 131.000
26.99481 124.000
27.01476 114.000
27.03471 124.000
27.05465 126.000
27.07460 152.000
27.09455 144.000
27.11449 107.000
27.13444 128.000
27.15439 119.000
27.17433 150.000
27.19428 136.000
27.21423 148.000
27.23417 150.000
27.25412 140.000
27.27407 130.000
27.29402 122.000
27.31396 123.000
27.33391 132.000
27.35386 136.000
27.37380 125.000
27.39375 120.000
27.41370 159.000
27.43364 152.000
27.45359 140.000
27.47354 139.000
27.49349 160.000
27.51343 130.000
27.53338 138.000
27.55333 138.000
27.57327 138.000
27.59322 133.000
27.61317 130.000
27.63311 129.000
27.65306 109.000
27.67301 131.000
27.69296 135.000
27.71290 145.000
27.73285 152.000
27.75280 124.000
27.77274 118.000
27.79269 130.000
27.81264 107.000
27.83258 138.000
27.85253 123.000
27.87248 129.000
27.89242 140.000
27.91237 142.000
27.93232 144.000
27.95227 134.000
27.97221 132.000
27.99216 157.000
28.01211 139.000
28.03205 146.000
28.05200 129.000
28.07195 123.000
28.09189 127.000
28.11184 137.000
28.13179 130.000
28.15174 117.000
28.17168 129.000
28.19163 127.000
28.21158 134.000
28.23152 125.000
28.25147 145.000
28.27142 113.000
28.29136 138.000
28.31131 144.000
28.33126 129.000
28.35120 147.000
28.37115 144.000
28.39110 124.000
28.41105 140.000
28.43099 106.000
28.45094 133.000
28.47089 142.000
28.49083 136.000
28.51078 125.000
28.53073 147.000
28.55067 149.000
28.57062 145.000
28.59057 128.000
28.61052 143.000
28.63046 146.000
28.65041 126.000
28.67036 143.000
28.69030 138.000
28.71025 134.000
28.73020 146.000
28.75014 151.000
28.77009 157.000
28.79004 128.000
28.80998 124.000
28.82993 122.000
28.84988 150.000
28.86983 148.000
28.88977 154.000
28.90972 151.000
28.92967 135.000
28.94961 136.000
28.96956 174.000
28.98951 138.000
29.00945 155.000
29.02940 133.000
29.04935 143.000
29.06930 119.000
29.08924 144.000
29.10919 139.000
29.12914 133.000
29.14908 146.000
29.16903 136.000
29.18898 152.000
29.20892 134.000
29.22887 132.000
29.24882 132.000
29.26877 130.000
29.28871 133.000
29.30866 135.000
29.32861 152.000
29.34855 147.000
29.36850 142.000
29.38845 131.000
29.40839 148.000
29.42834 158.000
29.44829 132.000
29.46823 140.000
29.48818 143.000
29.50813 132.000
29.52808 185.000
29.54802 162.000
29.56797 143.000
29.58792 134.000
29.60786 149.000
29.62781 157.000
29.64776 148.000
29.66770 158.000
29.68765 164.000
29.70760 168.000
29.72755 184.000
29.74749 183.000
29.76744 200.000
29.78739 236.000
29.80733 268.000
29.82728 321.000
29.84723 351.000
29.86717 444.000
29.88712 460.000
29.90707 393.000
29.92701 475.000
29.94696 427.000
29.96691 426.000
29.98686 402.000
30.00680 344.000
30.02675 332.000
30.04670 294.000
30.06664 259.000
30.08659 227.000
30.10654 228.000
30.12648 215.000
30.14643 179.000
30.16638 162.000
30.18633 163.000
30.20627 184.000
30.22622 154.000
30.24617 166.000
30.26611 162.000
30.28606 153.000
30.30601 144.000
30.32595 158.000
30.34590 172.000
30.36585 135.000
30.38579 129.000
30.40574 151.000
30.42569 167.000
30.44564 153.000
30.46558 139.000
30.48553 150.000
30.50548 140.000
30.52542 146.000
30.54537 139.000
30.56532 156.000
30.58526 150.000
30.60521 135.000
30.62516 133.000
30.64511 156.000
30.66505 135.000
30.68500 161.000
30.70495 148.000
30.72489 123.000
30.74484 145.000
30.76479 152.000
30.78473 131.000
30.80468 140.000
30.82463 144.000
30.84458 141.000
30.86452 161.000
30.88447 126.000
30.90442 146.000
30.92436 126.000
30.94431 143.000
30.96426 134.000
30.98420 156.000
31.00415 139.000
31.02410 146.000
31.04404 158.000
31.06399 158.000
31.08394 164.000
31.10389 156.000
31.12383 131.000
31.14378 149.000
31.16373 160.000
31.18367 126.000
31.20362 146.000
31.22357 142.000
31.24351 151.000
31.26346 128.000
31.28341 140.000
31.30336 148.000
31.32330 153.000
31.34325 146.000
31.36320 160.000
31.38314 149.000
31.40309 167.000
31.42304 155.000
31.44298 184.000
31.46293 223.000
31.48288 283.000
31.50282 310.000
31.52277 417.000
31.54272 447.000
31.56267 446.000
31.58261 387.000
31.60256 357.000
31.62251 354.000
31.64245 307.000
31.66240 242.000
31.68235 214.000
31.70229 192.000
31.72224 181.000
31.74219 161.000
31.76214 204.000
31.78208 149.000
31.80203 135.000
31.82198 157.000
31.84192 151.000
31.86187 137.000
31.88182 165.000
31.90176 129.000
31.92171 138.000
31.94166 157.000
31.96160 114.000
31.98155 133.000
32.00150 136.000
32.02145 128.000
32.04139 153.000
32.06134 132.000
32.08129 150.000
32.10123 141.000
32.12118 124.000
32.14113 136.000
32.16107 116.000
32.18102 131.000
32.20097 129.000
32.22092 126.000
32.24086 115.000
32.26081 138.000
32.28076 129.000
32.30070 103.000
32.32065 140.000
32.34060 144.000
32.36054 130.000
32.38049 116.000
32.40044 122.000
32.42039 128.000
32.44033 165.000
32.46028 160.000
32.48023 179.000
32.50017 175.000
32.52012 167.000
32.54007 178.000
32.56001 161.000
32.57996 143.000
32.59991 140.000
32.61985 142.000
32.63980 151.000
32.65975 142.000
32.67970 137.000
32.69964 138.000
32.71959 122.000
32.73954 124.000
32.75948 140.000
32.77943 146.000
32.79938 147.000
32.81932 129.000
32.83927 118.000
32.85922 137.000
32.87917 118.000
32.89911 142.000
32.91906 148.000
32.93901 133.000
32.95895 125.000
32.97890 120.000
32.99885 142.000
33.01879 155.000
33.03874 135.000
33.05869 125.000
33.07863 127.000
33.09858 133.000
33.11853 115.000
33.13848 150.000
33.15842 169.000
33.17837 138.000
33.19832 149.000
33.21826 122.000
33.23821 149.000
33.25816 139.000
33.27810 138.000
33.29805 137.000
33.31800 112.000
33.33795 144.000
33.35789 126.000
33.37784 145.000
33.39779 133.000
33.41773 111.000
33.43768 147.000
33.45763 132.000
33.47757 141.000
33.49752 127.000
33.51747 129.000
33.53741 136.000
33.55736 136.000
33.57731 111.000
33.59726 138.000
33.61720 129.000
33.63715 160.000
33.65710 126.000
33.67704 151.000
33.69699 125.000
33.71694 158.000
33.73688 145.000
33.75683 149.000
33.77678 129.000
33.79673 142.000
33.81667 136.000
33.83662 153.000
33.85657 144.000
33.87651 154.000
33.89646 171.000
33.91641 138.000
33.93635 127.000
33.95630 136.000
33.97625 143.000
33.99620 132.000
34.01614 150.000
34.03609 157.000
34.05604 135.000
34.07598 122.000
34.09593 152.000
34.11588 151.000
34.13582 136.000
34.15577 142.000
34.17572 156.000
34.19566 138.000
34.21561 169.000
34.23556 155.000
34.25551 153.000
34.27545 159.000
34.29540 147.000
34.31535 158.000
34.33529 136.000
34.35524 155.000
34.37519 171.000
34.39513 140.000
34.41508 156.000
34.43503 141.000
34.45498 170.000
34.47492 154.000
34.49487 162.000
34.51482 172.000
34.53476 150.000
34.55471 182.000
34.57466 139.000
34.59460 170.000
34.61455 164.000
34.63450 195.000
34.65444 163.000
34.67439 170.000
34.69434 172.000
34.71429 172.000
34.73423 162.000
34.75418 179.000
34.77413 170.000
34.79407 173.000
34.81402 178.000
34.83397 196.000
34.85391 174.000
34.87386 190.000
34.89381 201.000
34.91376 198.000
34.93370 210.000
34.95365 214.000
34.97360 260.000
34.99354 275.000
35.01349 272.000
35.03344 283.000
35.05338 364.000
35.07333 403.000
35.09328 527.000
35.11322 579.000
35.13317 716.000
35.15312 828.000
35.17307 878.000
35.19301 1064.000
35.21296 1111.000
35.23291 1167.000
35.25285 1174.000
35.27280 1138.000
35.29275 1066.000
35.31269 983.000
35.33264 997.000
35.35259 854.000
35.37254 767.000
35.39248 721.000
35.41243 662.000
35.43238 627.000
35.45232 619.000
35.47227 524.000
35.49222 556.000
35.51216 582.000
35.53211 620.000
35.55206 544.000
35.57201 512.000
35.59195 503.000
35.61190 477.000
35.63185 455.000
35.65179 411.000
35.67174 395.000
35.69169 429.000
35.71163 443.000
35.73158 533.000
35.75153 599.000
35.77147 711.000
35.79142 757.000
35.81137 723.000
35.83132 652.000
35.85126 623.000
35.87121 586.000
35.89116 494.000
35.91110 435.000
35.93105 428.000
35.95100 316.000
35.97094 281.000
35.99089 210.000
36.01084 217.000
36.03079 214.000
36.05073 184.000
36.07068 199.000
36.09063 195.000
36.11057 178.000
36.13052 188.000
36.15047 193.000
36.17041 203.000
36.19036 178.000
36.21031 194.000
36.23025 181.000
36.25020 206.000
36.27015 198.000
36.29010 178.000
36.31004 202.000
36.32999 208.000
36.34994 208.000
36.36988 188.000
36.38983 198.000
36.40978 202.000
36.42972 209.000
36.44967 188.000
36.46962 199.000
36.48957 164.000
36.50951 195.000
36.52946 174.000
36.54941 179.000
36.56935 177.000
36.58930 189.000
36.60925 192.000
36.62919 199.000
36.64914 257.000
36.66909 231.000
36.68903 238.000
36.70898 223.000
36.72893 236.000
36.74888 216.000
36.76882 252.000
36.78877 288.000
36.80872 254.000
36.82866 261.000
36.84861 267.000
36.86856 254.000
36.88850 247.000
36.90845 246.000
36.92840 227.000
36.94835 235.000
36.96829 206.000
36.98824 176.000
37.00819 168.000
37.02813 165.000
37.04808 183.000
37.06803 177.000
37.08797 177.000
37.10792 166.000
37.12787 146.000
37.14781 155.000
37.16776 158.000
37.18771 151.000
37.20766 172.000
37.22760 130.000
37.24755 154.000
37.26750 153.000
37.28744 146.000
37.30739 162.000
37.32734 145.000
37.34728 175.000
37.36723 152.000
37.38718 146.000
37.40713 139.000
37.42707 170.000
37.44702 172.000
37.46697 182.000
37.48691 158.000
37.50686 156.000
37.52681 146.000
37.54675 168.000
37.56670 154.000
37.58665 169.000
37.60660 173.000
37.62654 163.000
37.64649 162.000
37.66644 165.000
37.68638 153.000
37.70633 182.000
37.72628 176.000
37.74622 170.000
37.76617 172.000
37.78612 145.000
37.80606 181.000
37.82601 180.000
37.84596 190.000
37.86591 234.000
37.88585 234.000
37.90580 244.000
37.92575 222.000
37.94569 216.000
37.96564 230.000
37.98559 227.000
38.00553 227.000
38.02548 259.000
38.04543 247.000
38.06538 255.000
38.08532 206.000
38.10527 231.000
38.12522 222.000
38.14516 222.000
38.16511 227.000
38.18506 190.000
38.20500 207.000
38.22495 204.000
38.24490 204.000
38.26484 206.000
38.28479 189.000
38.30474 213.000
38.32469 222.000
38.34463 196.000
38.36458 191.000
38.38453 220.000
38.40447 206.000
38.42442 196.000
38.44437 221.000
38.46431 229.000
38.48426 191.000
38.50421 222.000
38.52416 229.000
38.54410 246.000
38.56405 253.000
38.58400 236.000
38.60394 285.000
38.62389 270.000
38.64384 334.000
38.66378 368.000
38.68373 449.000
38.70368 500.000
38.72362 514.000
38.74357 545.000
38.76352 471.000
38.78347 445.000
38.80341 446.000
38.82336 452.000
38.84331 459.000
38.86325 387.000
38.88320 432.000
38.90315 338.000
38.92309 339.000
38.94304 326.000
38.96299 302.000
38.98294 269.000
39.00288 297.000
39.02283 283.000
39.04278 281.000
39.06272 293.000
39.08267 295.000
39.10262 318.000
39.12256 372.000
39.14251 348.000
39.16246 424.000
39.18241 516.000
39.20235 585.000
39.22230 682.000
39.24225 821.000
39.26219 803.000
39.28214 910.000
39.30209 818.000
39.32203 768.000
39.34198 755.000
39.36193 658.000
39.38187 616.000
39.40182 563.000
39.42177 483.000
39.44172 379.000
39.46166 321.000
39.48161 278.000
39.50156 233.000
39.52150 223.000
39.54145 229.000
39.56140 224.000
39.58134 182.000
39.60129 186.000
39.62124 180.000
39.64119 168.000
39.66113 166.000
39.68108 174.000
39.70103 145.000
39.72097 156.000
39.74092 171.000
39.76087 165.000
39.78081 165.000
39.80076 142.000
39.82071 132.000
39.84065 142.000
39.86060 133.000
39.88055 131.000
39.90050 152.000
39.92044 155.000
39.94039 160.000
39.96034 152.000
39.98028 127.000
40.00023 138.000
40.02018 136.000
40.04012 144.000
40.06007 132.000
40.08002 149.000
40.09997 159.000
40.11991 123.000
40.13986 128.000
40.15981 123.000
40.17975 122.000
40.19970 129.000
40.21965 141.000
40.23959 148.000
40.25954 125.000
40.27949 136.000
40.29943 140.000
40.31938 130.000
40.33933 135.000
40.35928 124.000
40.37922 148.000
40.39917 130.000
40.41912 131.000
40.43906 119.000
40.45901 110.000
40.47896 139.000
40.49890 118.000
40.51885 130.000
40.53880 138.000
40.55875 164.000
40.57869 136.000
40.59864 152.000
40.61859 134.000
40.63853 109.000
40.65848 177.000
40.67843 157.000
40.69837 147.000
40.71832 122.000
40.73827 163.000
40.75822 142.000
40.77816 142.000
40.79811 149.000
40.81806 149.000
40.83800 132.000
40.85795 144.000
40.87790 129.000
40.89784 137.000
40.91779 135.000
40.93774 164.000
40.95768 153.000
40.97763 164.000
40.99758 138.000
41.01753 150.000
41.03747 129.000
41.05742 144.000
41.07737 149.000
41.09731 133.000
41.11726 128.000
41.13721 127.000
41.15715 124.000
41.17710 131.000
41.19705 138.000
41.21700 146.000
41.23694 149.000
41.25689 130.000
41.27684 131.000
41.29678 147.000
41.31673 139.000
41.33668 129.000
41.35662 126.000
41.37657 140.000
41.39652 124.000
41.41646 132.000
41.43641 132.000
41.45636 153.000
41.47631 137.000
41.49625 155.000
41.51620 144.000
41.53615 138.000
41.55609 119.000
41.57604 143.000
41.59599 140.000
41.61593 150.000
41.63588 114.000
41.65583 144.000
41.67578 150.000
41.69572 147.000
41.71567 133.000
41.73562 133.000
41.75556 146.000
41.77551 144.000
41.79546 143.000
41.81540 130.000
41.83535 131.000
41.85530 141.000
41.87524 139.000
41.89519 136.000
41.91514 161.000
41.93509 166.000
41.95503 153.000
41.97498 159.000
41.99493 150.000
42.01487 154.000
42.03482 153.000
42.05477 164.000
42.07471 130.000
42.09466 170.000
42.11461 128.000
42.13456 136.000
42.15450 146.000
42.17445 147.000
42.19440 141.000
42.21434 146.000
42.23429 153.000
42.25424 126.000
42.27418 159.000
42.29413 128.000
42.31408 132.000
42.33403 130.000
42.35397 142.000
42.37392 141.000
42.39387 139.000
42.41381 164.000
42.43376 184.000
42.45371 155.000
42.47365 181.000
42.49360 156.000
42.51355 149.000
42.53349 160.000
42.55344 176.000
42.57339 178.000
42.59334 198.000
42.61328 195.000
42.63323 212.000
42.65318 220.000
42.67312 241.000
42.69307 258.000
42.71302 266.000
42.73296 286.000
42.75291 303.000
42.77286 319.000
42.79281 312.000
42.81275 342.000
42.83270 334.000
42.85265 321.000
42.87259 343.000
42.89254 310.000
42.91249 310.000
42.93243 322.000
42.95238 290.000
42.97233 272.000
42.99227 266.000
43.01222 245.000
43.03217 209.000
43.05212 220.000
43.07206 235.000
43.09201 211.000
43.11196 200.000
43.13190 240.000
43.15185 240.000
43.17180 237.000
43.19174 269.000
43.21169 293.000
43.23164 297.000
43.25159 366.000
43.27153 347.000
43.29148 407.000
43.31143 359.000
43.33137 377.000
43.35132 358.000
43.37127 317.000
43.39121 313.000
43.41116 308.000
43.43111 269.000
43.45105 252.000
43.47100 229.000
43.49095 199.000
43.51090 204.000
43.53084 184.000
43.55079 183.000
43.57074 195.000
43.59068 154.000
43.61063 162.000
43.63058 162.000
43.65052 153.000
43.67047 158.000
43.69042 159.000
43.71037 153.000
43.73031 161.000
43.75026 168.000
43.77021 150.000
43.79015 136.000
43.81010 139.000
43.83005 155.000
43.84999 165.000
43.86994 152.000
43.88989 154.000
43.90984 150.000
43.92978 169.000
43.94973 162.000
43.96968 160.000
43.98962 148.000
44.00957 182.000
44.02952 172.000
44.04946 165.000
44.06941 181.000
44.08936 175.000
44.10930 160.000
44.12925 166.000
44.14920 158.000
44.16915 158.000
44.18909 161.000
44.20904 164.000
44.22899 197.000
44.24893 163.000
44.26888 184.000
44.28883 186.000
44.30877 199.000
44.32872 175.000
44.34867 169.000
44.36862 175.000
44.38856 166.000
44.40851 167.000
44.42846 203.000
44.44840 170.000
44.46835 179.000
44.48830 172.000
44.50824 175.000
44.52819 171.000
44.54814 154.000
44.56808 167.000
44.58803 150.000
44.60798 161.000
44.62793 143.000
44.64787 129.000
44.66782 155.000
44.68777 154.000
44.70771 177.000
44.72766 165.000
44.74761 166.000
44.76755 152.000
44.78750 160.000
44.80745 138.000
44.82740 152.000
44.84734 168.000
44.86729 151.000
44.88724 164.000
44.90718 159.000
44.92713 166.000
44.94708 138.000
44.96702 144.000
44.98697 145.000
45.00692 142.000
45.02686 147.000
45.04681 157.000
45.06676 137.000
45.08671 132.000
45.10665 124.000
45.12660 132.000
45.14655 147.000
45.16649 161.000
45.18644 161.000
45.20639 129.000
45.22633 151.000
45.24628 125.000
45.26623 117.000
45.28618 152.000
45.30612 134.000
45.32607 151.000
45.34602 152.000
45.36596 145.000
45.38591 129.000
45.40586 142.000
45.42580 139.000
45.44575 152.000
45.46570 129.000
45.48565 128.000
45.50559 139.000
45.52554 139.000
45.54549 135.000
45.56543 162.000
45.58538 139.000
45.60533 152.000
45.62527 130.000
45.64522 134.000
45.66517 131.000
45.68511 113.000
45.70506 150.000
45.72501 137.000
45.74496 164.000
45.76490 126.000
45.78485 139.000
45.80480 145.000
45.82474 145.000
45.84469 142.000
45.86464 141.000
45.88458 134.000
45.90453 111.000
45.92448 149.000
45.94443 134.000
45.96437 140.000
45.98432 154.000
46.00427 118.000
46.02421 134.000
46.04416 149.000
46.06411 150.000
46.08405 129.000
46.10400 150.000
46.12395 154.000
46.14389 124.000
46.16384 138.000
46.18379 138.000
46.20374 149.000
46.22368 141.000
46.24363 110.000
46.26358 155.000
46.28352 159.000
46.30347 135.000
46.32342 124.000
46.34336 138.000
46.36331 177.000
46.38326 154.000
46.40321 171.000
46.42315 130.000
46.44310 182.000
46.46305 143.000
46.48299 148.000
46.50294 136.000
46.52289 158.000
46.54283 147.000
46.56278 135.000
46.58273 145.000
46.60267 143.000
46.62262 136.000
46.64257 152.000
46.66252 133.000
46.68246 152.000
46.70241 131.000
46.72236 150.000
46.74230 156.000
46.76225 130.000
46.78220 148.000
46.80214 149.000
46.82209 151.000
46.84204 160.000
46.86199 143.000
46.88193 169.000
46.90188 144.000
46.92183 129.000
46.94177 152.000
46.96172 152.000
46.98167 141.000
47.00161 121.000
47.02156 142.000
47.04151 127.000
47.06146 154.000
47.08140 150.000
47.10135 147.000
47.12130 133.000
47.14124 117.000
47.16119 139.000
47.18114 141.000
47.20108 129.000
47.22103 149.000
47.24098 156.000
47.26092 129.000
47.28087 144.000
47.30082 152.000
47.32077 166.000
47.34071 142.000
47.36066 134.000
47.38061 129.000
47.40055 133.000
47.42050 137.000
47.44045 157.000
47.46039 130.000
47.48034 150.000
47.50029 122.000
47.52024 146.000
47.54018 144.000
47.56013 145.000
47.58008 140.000
47.60002 137.000
47.61997 146.000
47.63992 147.000
47.65986 141.000
47.67981 140.000
47.69976 139.000
47.71970 145.000
47.73965 160.000
47.75960 161.000
47.77955 126.000
47.79949 151.000
47.81944 171.000
47.83939 179.000
47.85933 160.000
47.87928 149.000
47.89923 175.000
47.91917 155.000
47.93912 141.000
47.95907 165.000
47.97902 165.000
47.99896 165.000
48.01891 176.000
48.03886 171.000
48.05880 165.000
48.07875 179.000
48.09870 184.000
48.11864 169.000
48.13859 196.000
48.15854 213.000
48.17848 195.000
48.19843 234.000
48.21838 214.000
48.23833 241.000
48.25827 265.000
48.27822 304.000
48.29817 284.000
48.31811 314.000
48.33806 344.000
48.35801 408.000
48.37795 493.000
48.39790 535.000
48.41785 594.000
48.43780 625.000
48.45774 665.000
48.47769 643.000
48.49764 611.000
48.51758 596.000
48.53753 520.000
48.55748 548.000
48.57742 549.000
48.59737 487.000
48.61732 436.000
48.63726 437.000
48.65721 390.000
48.67716 393.000
48.69711 368.000
48.71705 330.000
48.73700 305.000
48.75695 282.000
48.77689 295.000
48.79684 264.000
48.81679 272.000
48.83673 256.000
48.85668 240.000
48.87663 219.000
48.89658 192.000
48.91652 206.000
48.93647 186.000
48.95642 187.000
48.97636 167.000
48.99631 175.000
49.01626 176.000
49.03620 156.000
49.05615 176.000
49.07610 145.000
49.09605 155.000
49.11599 145.000
49.13594 158.000
49.15589 154.000
49.17583 147.000
49.19578 147.000
49.21573 140.000
49.23567 148.000
49.25562 126.000
49.27557 169.000
49.29551 139.000
49.31546 146.000
49.33541 147.000
49.35536 144.000
49.37530 133.000
49.39525 150.000
49.41520 146.000
49.43514 153.000
49.45509 129.000
49.47504 154.000
49.49498 142.000
49.51493 144.000
49.53488 146.000
49.55483 147.000
49.57477 126.000
49.59472 142.000
49.61467 133.000
49.63461 143.000
49.65456 140.000
49.67451 140.000
49.69445 129.000
49.71440 123.000
49.73435 119.000
49.75429 136.000
49.77424 132.000
49.79419 110.000
49.81414 131.000
49.83408 133.000
49.85403 155.000
49.87398 115.000
49.89392 128.000
49.91387 134.000
49.93382 126.000
49.95376 138.000
49.97371 132.000
49.99366 133.000
50.01361 160.000
50.03355 148.000
50.05350 140.000
50.07345 129.000
50.09339 114.000
50.11334 140.000
50.13329 130.000
50.15323 138.000
50.17318 107.000
50.19313 130.000
50.21307 146.000
50.23302 132.000
50.25297 128.000
50.27292 146.000
50.29286 137.000
50.31281 137.000
50.33276 118.000
50.35270 134.000
50.37265 151.000
50.39260 132.000
50.41254 145.000
50.43249 114.000
50.45244 127.000
50.47239 118.000
50.49233 139.000
50.51228 146.000
50.53223 128.000
50.55217 169.000
50.57212 137.000
50.59207 137.000
50.61201 132.000
50.63196 148.000
50.65191 125.000
50.67186 160.000
50.69180 141.000
50.71175 133.000
50.73170 139.000
50.75164 138.000
50.77159 124.000
50.79154 141.000
50.81148 151.000
50.83143 123.000
50.85138 130.000
50.87132 120.000
50.89127 149.000
50.91122 138.000
50.93117 156.000
50.95111 130.000
50.97106 145.000
50.99101 127.000
51.01095 128.000
51.03090 119.000
51.05085 124.000
51.07079 143.000
51.09074 141.000
51.11069 127.000
51.13064 134.000
51.15058 139.000
51.17053 111.000
51.19048 131.000
51.21042 106.000
51.23037 134.000
51.25032 132.000
51.27026 141.000
51.29021 175.000
51.31016 127.000
51.33010 141.000
51.35005 125.000
51.37000 137.000
51.38995 125.000
51.40989 147.000
51.42984 130.000
51.44979 120.000
51.46973 130.000
51.48968 143.000
51.50963 132.000
51.52957 135.000
51.54952 143.000
51.56947 139.000
51.58942 149.000
51.60936 139.000
51.62931 154.000
51.64926 128.000
51.66920 143.000
51.68915 131.000
51.70910 141.000
51.72904 137.000
51.74899 125.000
51.76894 130.000
51.78888 115.000
51.80883 126.000
51.82878 119.000
51.84873 142.000
51.86867 139.000
51.88862 152.000
51.90857 143.000
51.92851 138.000
51.94846 136.000
51.96841 138.000
51.98835 140.000
52.00830 152.000
52.02825 125.000
52.04820 145.000
52.06814 127.000
52.08809 129.000
52.10804 138.000
52.12798 122.000
52.14793 132.000
52.16788 145.000
52.18782 138.000
52.20777 149.000
52.22772 145.000
52.24767 143.000
52.26761 130.000
52.28756 147.000
52.30751 128.000
52.32745 160.000
52.34740 140.000
52.36735 110.000
52.38729 114.000
52.40724 128.000
52.42719 148.000
52.44713 158.000
52.46708 137.000
52.48703 123.000
52.50698 137.000
52.52692 127.000
52.54687 137.000
52.56682 124.000
52.58676 139.000
52.60671 135.000
52.62666 153.000
52.64660 140.000
52.66655 142.000
52.68650 150.000
52.70645 142.000
52.72639 144.000
52.74634 132.000
52.76629 144.000
52.78623 144.000
52.80618 134.000
52.82613 142.000
52.84607 156.000
52.86602 160.000
52.88597 157.000
52.90591 130.000
52.92586 151.000
52.94581 166.000
52.96576 137.000
52.98570 187.000
53.00565 180.000
53.02560 188.000
53.04554 178.000
53.06549 199.000
53.08544 162.000
53.10538 190.000
53.12533 198.000
53.14528 193.000
53.16523 157.000
53.18517 153.000
53.20512 179.000
53.22507 189.000
53.24501 201.000
53.26496 191.000
53.28491 195.000
53.30485 186.000
53.32480 181.000
53.34475 181.000
53.36469 164.000
53.38464 186.000
53.40459 200.000
53.42454 205.000
53.44448 188.000
53.46443 192.000
53.48438 213.000
53.50432 209.000
53.52427 181.000
53.54422 206.000
53.56416 177.000
53.58411 181.000
53.60406 202.000
53.62401 175.000
53.64395 194.000
53.66390 179.000
53.68385 168.000
53.70379 169.000
53.72374 166.000
53.74369 155.000
53.76363 172.000
53.78358 165.000
53.80353 139.000
53.82348 145.000
53.84342 158.000
53.86337 138.000
53.88332 134.000
53.90326 133.000
53.92321 173.000
53.94316 169.000
53.96310 145.000
53.98305 149.000
54.00300 148.000
54.02294 133.000
54.04289 160.000
54.06284 127.000
54.08279 124.000
54.10273 148.000
54.12268 134.000
54.14263 121.000
54.16257 131.000
54.18252 151.000
54.20247 145.000
54.22241 134.000
54.24236 154.000
54.26231 139.000
54.28226 136.000
54.30220 139.000
54.32215 119.000
54.34210 131.000
54.36204 143.000
54.38199 144.000
54.40194 129.000
54.42188 133.000
54.44183 131.000
54.46178 152.000
54.48172 133.000
54.50167 135.000
54.52162 129.000
54.54157 117.000
54.56151 127.000
54.58146 138.000
54.60141 116.000
54.62135 119.000
54.64130 124.000
54.66125 139.000
54.68119 130.000
54.70114 137.000
54.72109 107.000
54.74104 132.000
54.76098 143.000
54.78093 133.000
54.80088 147.000
54.82082 130.000
54.84077 116.000
54.86072 128.000
54.88066 152.000
54.90061 133.000
54.92056 132.000
54.94050 132.000
54.96045 123.000
54.98040 132.000
55.00035 138.000
55.02029 132.000
55.04024 131.000
55.06019 110.000
55.08013 126.000
55.10008 128.000
55.12003 110.000
55.13997 128.000
55.15992 111.000
55.17987 134.000
55.19982 127.000
55.21976 129.000
55.23971 140.000
55.25966 122.000
55.27960 132.000
55.29955 124.000
55.31950 110.000
55.33944 144.000
55.35939 141.000
55.37934 126.000
55.39929 128.000
55.41923 148.000
55.43918 128.000
55.45913 134.000
55.47907 127.000
55.49902 130.000
55.51897 135.000
55.53891 138.000
55.55886 129.000
55.57881 141.000
55.59875 139.000
55.61870 135.000
55.63865 128.000
55.65860 121.000
55.67854 153.000
55.69849 145.000
55.71844 136.000
55.73838 113.000
55.75833 129.000
55.77828 128.000
55.79822 151.000
55.81817 156.000
55.83812 123.000
55.85807 124.000
55.87801 134.000
55.89796 138.000
55.91791 154.000
55.93785 141.000
55.95780 132.000
55.97775 155.000
55.99769 134.000
56.01764 139.000
56.03759 157.000
56.05753 131.000
56.07748 145.000
56.09743 146.000
56.11738 159.000
56.13732 133.000
56.15727 170.000
56.17722 156.000
56.19716 155.000
56.21711 151.000
56.23706 171.000
56.25700 157.000
56.27695 185.000
56.29690 152.000
56.31685 175.000
56.33679 181.000
56.35674 176.000
56.37669 174.000
56.39663 222.000
56.41658 200.000
56.43653 228.000
56.45647 232.000
56.47642 257.000
56.49637 257.000
56.51631 288.000
56.53626 316.000
56.55621 328.000
56.57616 301.000
56.59610 288.000
56.61605 343.000
56.63600 295.000
56.65594 266.000
56.67589 298.000
56.69584 291.000
56.71578 291.000
56.73573 281.000
56.75568 295.000
56.77563 290.000
56.79557 232.000
56.81552 278.000
56.83547 246.000
56.85541 234.000
56.87536 207.000
56.89531 211.000
56.91525 213.000
56.93520 176.000
56.95515 165.000
56.97510 186.000
56.99504 173.000
57.01499 158.000
57.03494 142.000
57.05488 182.000
57.07483 145.000
57.09478 130.000
57.11472 163.000
57.13467 163.000
57.15462 163.000
57.17456 155.000
57.19451 144.000
57.21446 140.000
57.23441 111.000
57.25435 152.000
57.27430 108.000
57.29425 148.000
57.31419 146.000
57.33414 165.000
57.35409 156.000
57.37403 139.000
57.39398 138.000
57.41393 145.000
57.43388 146.000
57.45382 143.000
57.47377 129.000
57.49372 135.000
57.51366 148.000
57.53361 158.000
57.55356 138.000
57.57350 134.000
57.59345 141.000
57.61340 162.000
57.63334 164.000
57.65329 156.000
57.67324 145.000
57.69319 147.000
57.71313 144.000
57.73308 164.000
57.75303 160.000
57.77297 134.000
57.79292 126.000
57.81287 162.000
57.83281 163.000
57.85276 146.000
57.87271 125.000
57.89266 144.000
57.91260 150.000
57.93255 139.000
57.95250 162.000
57.97244 126.000
57.99239 150.000
58.01234 133.000
58.03228 123.000
58.05223 152.000
58.07218 123.000
58.09212 129.000
58.11207 142.000
58.13202 158.000
58.15197 152.000
58.17191 131.000
58.19186 153.000
58.21181 154.000
58.23175 160.000
58.25170 170.000
58.27165 141.000
58.29159 142.000
58.31154 189.000
58.33149 172.000
58.35144 175.000
58.37138 151.000
58.39133 137.000
58.41128 180.000
58.43122 155.000
58.45117 156.000
58.47112 148.000
58.49106 159.000
58.51101 135.000
58.53096 162.000
58.55090 143.000
58.57085 124.000
58.59080 127.000
58.61075 136.000
58.63069 142.000
58.65064 145.000
58.67059 131.000
58.69053 139.000
58.71048 125.000
58.73043 130.000
58.75037 114.000
58.77032 112.000
58.79027 117.000
58.81022 135.000
58.83016 131.000
58.85011 144.000
58.87006 130.000
58.89000 104.000
58.90995 122.000
58.92990 140.000
58.94984 128.000
58.96979 125.000
58.98974 106.000
59.00969 118.000
59.02963 146.000
59.04958 122.000
59.06953 120.000
59.08947 117.000
59.10942 111.000
59.12937 102.000
59.14931 129.000
59.16926 136.000
59.18921 123.000
59.20915 139.000
59.22910 138.000
59.24905 123.000
59.26900 103.000
59.28894 133.000
59.30889 135.000
59.32884 116.000
59.34878 107.000
59.36873 151.000
59.38868 129.000
59.40862 136.000
59.42857 109.000
59.44852 121.000
59.46847 148.000
59.48841 127.000
59.50836 133.000
59.52831 143.000
59.54825 138.000
59.56820 115.000
59.58815 132.000
59.60809 122.000
59.62804 143.000
59.64799 124.000
59.66793 133.000
59.68788 114.000
59.70783 117.000
59.72778 126.000
59.74772 118.000
59.76767 135.000
59.78762 139.000
59.80756 107.000
59.82751 146.000
59.84746 123.000
59.86740 136.000
59.88735 139.000
59.90730 138.000
59.92725 120.000
59.94719 124.000
59.96714 147.000
59.98709 125.000
60.00703 144.000
60.02698 129.000
60.04693 106.000
60.06687 106.000
60.08682 130.000
60.10677 150.000
60.12671 130.000
60.14666 116.000
60.16661 115.000
60.18656 132.000
60.20650 120.000
60.22645 138.000
60.24640 131.000
60.26634 122.000
60.28629 153.000
60.30624 130.000
60.32618 131.000
60.34613 144.000
60.36608 143.000
60.38603 149.000
60.40597 138.000
60.42592 132.000
60.44587 144.000
60.46581 110.000
60.48576 141.000
60.50571 139.000
60.52565 134.000
60.54560 139.000
60.56555 122.000
60.58550 154.000
60.60544 128.000
60.62539 136.000
60.64534 128.000
60.66528 142.000
60.68523 135.000
60.70518 144.000
60.72512 151.000
60.74507 124.000
60.76502 140.000
60.78496 153.000
60.80491 136.000
60.82486 136.000
60.84481 160.000
60.86475 159.000
60.88470 154.000
60.90465 150.000
60.92459 156.000
60.94454 145.000
60.96449 147.000
60.98443 147.000
61.00438 127.000
61.02433 138.000
61.04428 162.000
61.06422 148.000
61.08417 166.000
61.10412 178.000
61.12406 163.000
61.14401 183.000
61.16396 151.000
61.18390 183.000
61.20385 176.000
61.22380 230.000
61.24374 203.000
61.26369 217.000
61.28364 229.000
61.30359 261.000
61.32353 252.000
61.34348 298.000
61.36343 320.000
61.38337 343.000
61.40332 384.000
61.42327 334.000
61.44321 377.000
61.46316 378.000
61.48311 388.000
61.50306 344.000
61.52300 339.000
61.54295 335.000
61.56290 370.000
61.58284 328.000
61.60279 352.000
61.62274 305.000
61.64268 296.000
61.66263 300.000
61.68258 262.000
61.70252 277.000
61.72247 259.000
61.74242 249.000
61.76237 223.000
61.78231 240.000
61.80226 224.000
61.82221 235.000
61.84215 229.000
61.86210 228.000
61.88205 229.000
61.90199 225.000
61.92194 255.000
61.94189 237.000
61.96184 248.000
61.98178 304.000
62.00173 314.000
62.02168 309.000
62.04162 321.000
62.06157 301.000
62.08152 349.000
62.10146 345.000
62.12141 332.000
62.14136 384.000
62.16131 353.000
62.18125 323.000
62.20120 343.000
62.22115 351.000
62.24109 358.000
62.26104 320.000
62.28099 320.000
62.30093 302.000
62.32088 288.000
62.34083 263.000
62.36077 262.000
62.38072 278.000
62.40067 253.000
62.42062 248.000
62.44056 242.000
62.46051 220.000
62.48046 246.000
62.50040 217.000
62.52035 176.000
62.54030 191.000
62.56024 175.000
62.58019 183.000
62.60014 179.000
62.62009 189.000
62.64003 173.000
62.65998 184.000
62.67993 151.000
62.69987 150.000
62.71982 147.000
62.73977 168.000
62.75971 154.000
62.77966 166.000
62.79961 167.000
62.81955 174.000
62.83950 147.000
62.85945 160.000
62.87940 179.000
62.89934 142.000
62.91929 165.000
62.93924 148.000
62.95918 147.000
62.97913 128.000
62.99908 149.000
63.01902 162.000
63.03897 162.000
63.05892 152.000
63.07887 157.000
63.09881 147.000
63.11876 185.000
63.13871 161.000
63.15865 162.000
63.17860 162.000
63.19855 141.000
63.21849 156.000
63.23844 150.000
63.25839 154.000
63.27833 142.000
63.29828 157.000
63.31823 151.000
63.33818 131.000
63.35812 160.000
63.37807 154.000
63.39802 163.000
63.41796 138.000
63.43791 161.000
63.45786 171.000
63.47780 121.000
63.49775 164.000
63.51770 150.000
63.53765 165.000
63.55759 167.000
63.57754 143.000
63.59749 180.000
63.61743 149.000
63.63738 160.000
63.65733 162.000
63.67727 166.000
63.69722 164.000
63.71717 144.000
63.73712 137.000
63.75706 153.000
63.77701 163.000
63.79696 141.000
63.81690 191.000
63.83685 154.000
63.85680 166.000
63.87674 163.000
63.89669 165.000
63.91664 154.000
63.93658 158.000
63.95653 164.000
63.97648 158.000
63.99643 183.000
64.01637 196.000
64.03632 169.000
64.05627 188.000
64.07621 212.000
64.09616 198.000
64.11611 220.000
64.13605 236.000
64.15600 245.000
64.17595 242.000
64.19590 250.000
64.21584 278.000
64.23579 289.000
64.25574 318.000
64.27568 309.000
64.29563 388.000
64.31558 383.000
64.33552 350.000
64.35547 397.000
64.37542 331.000
64.39536 357.000
64.41531 337.000
64.43526 299.000
64.45521 309.000
64.47515 299.000
64.49510 302.000
64.51505 289.000
64.53499 260.000
64.55494 243.000
64.57489 248.000
64.59483 217.000
64.61478 206.000
64.63473 176.000
64.65468 170.000
64.67462 184.000
64.69457 172.000
64.71452 151.000
64.73446 176.000
64.75441 150.000
64.77436 152.000
64.79430 151.000
64.81425 164.000
64.83420 144.000
64.85414 162.000
64.87409 152.000
64.89404 151.000
64.91399 147.000
64.93393 144.000
64.95388 168.000
64.97383 163.000
64.99377 152.000
65.01372 144.000
65.03367 161.000
65.05361 187.000
65.07356 143.000
65.09351 130.000
65.11346 153.000
65.13340 133.000
65.15335 140.000
65.17330 150.000
65.19324 174.000
65.21319 140.000
65.23314 140.000
65.25308 172.000
65.27303 153.000
65.29298 147.000
65.31293 145.000
65.33287 166.000
65.35282 170.000
65.37277 157.000
65.39271 178.000
65.41266 159.000
65.43261 137.000
65.45255 186.000
65.47250 169.000
65.49245 149.000
65.51239 193.000
65.53234 181.000
65.55229 175.000
65.57224 185.000
65.59218 180.000
65.61213 170.000
65.63208 180.000
65.65202 167.000
65.67197 183.000
65.69192 178.000
65.71186 178.000
65.73181 184.000
65.75176 189.000
65.77171 180.000
65.79165 210.000
65.81160 207.000
65.83155 184.000
65.85149 216.000
65.87144 203.000
65.89139 209.000
65.91133 178.000
65.93128 207.000
65.95123 201.000
65.97117 201.000
65.99112 174.000
66.01107 200.000
66.03102 196.000
66.05096 202.000
66.07091 207.000
66.09086 205.000
66.11080 218.000
66.13075 193.000
66.15070 208.000
66.17064 207.000
66.19059 207.000
66.21054 215.000
66.23049 226.000
66.25043 185.000
66.27038 189.000
66.29033 190.000
66.31027 180.000
66.33022 194.000
66.35017 173.000
66.37011 158.000
66.39006 175.000
66.41001 186.000
66.42995 201.000
66.44990 192.000
66.46985 208.000
66.48980 172.000
66.50974 196.000
66.52969 210.000
66.54964 212.000
66.56958 229.000
66.58953 249.000
66.60948 279.000
66.62942 280.000
66.64937 283.000
66.66932 284.000
66.68927 286.000
66.70921 247.000
66.72916 266.000
66.74911 248.000
66.76905 223.000
66.78900 235.000
66.80895 273.000
66.82889 246.000
66.84884 230.000
66.86879 226.000
66.88874 214.000
66.90868 216.000
66.92863 192.000
66.94858 171.000
66.96852 196.000
66.98847 141.000
67.00842 157.000
67.02836 145.000
67.04831 142.000
67.06826 152.000
67.08820 130.000
67.10815 137.000
67.12810 118.000
67.14805 144.000
67.16799 137.000
67.18794 154.000
67.20789 151.000
67.22783 111.000
67.24778 119.000
67.26773 132.000
67.28767 143.000
67.30762 121.000
67.32757 129.000
67.34752 131.000
67.36746 110.000
67.38741 137.000
67.40736 143.000
67.42730 139.000
67.44725 121.000
67.46720 138.000
67.48714 105.000
67.50709 117.000
67.52704 132.000
67.54698 137.000
67.56693 120.000
67.58688 136.000
67.60683 146.000
67.62677 151.000
67.64672 127.000
67.66667 113.000
67.68661 143.000
67.70656 123.000
67.72651 118.000
67.74645 141.000
67.76640 119.000
67.78635 129.000
67.80630 127.000
67.82624 157.000
67.84619 142.000
67.86614 141.000
67.88608 169.000
67.90603 158.000
67.92598 137.000
67.94592 149.000
67.96587 154.000
67.98582 135.000
68.00576 137.000
68.02571 134.000
68.04566 149.000
68.06561 163.000
68.08555 178.000
68.10550 171.000
68.12545 157.000
68.14539 132.000
68.16534 162.000
68.18529 148.000
68.20523 163.000
68.22518 156.000
68.24513 156.000
68.26508 158.000
68.28502 153.000
68.30497 141.000
68.32492 157.000
68.34486 126.000
68.36481 140.000
68.38476 146.000
68.40470 142.000
68.42465 121.000
68.44460 132.000
68.46455 112.000
68.48449 124.000
68.50444 129.000
68.52439 129.000
68.54433 143.000
68.56428 128.000
68.58423 136.000
68.60417 123.000
68.62412 136.000
68.64407 124.000
68.66401 112.000
68.68396 148.000
68.70391 119.000
68.72386 119.000
68.74380 127.000
68.76375 112.000
68.78370 130.000
68.80364 130.000
68.82359 103.000
68.84354 132.000
68.86348 139.000
68.88343 120.000
68.90338 120.000
68.92333 108.000
68.94327 122.000
68.96322 126.000
68.98317 106.000
69.00311 102.000
69.02306 120.000
69.04301 150.000
69.06295 129.000
69.08290 151.000
69.10285 130.000
69.12279 126.000
69.14274 126.000
69.16269 123.000
69.18264 154.000
69.20258 128.000
69.22253 110.000
69.24248 126.000
69.26242 111.000
69.28237 138.000
69.30232 134.000
69.32226 130.000
69.34221 119.000
69.36216 133.000
69.38211 131.000
69.40205 123.000
69.42200 137.000
69.44195 109.000
69.46189 121.000
69.48184 137.000
69.50179 142.000
69.52173 120.000
69.54168 130.000
69.56163 136.000
69.58157 120.000
69.60152 123.000
69.62147 121.000
69.64142 125.000
69.66136 132.000
69.68131 132.000
69.70126 123.000
69.72120 119.000
69.74115 139.000
69.76110 114.000
69.78104 134.000
69.80099 132.000
69.82094 155.000
69.84089 150.000
69.86083 123.000
69.88078 133.000
69.90073 121.000
69.92067 131.000
69.94062 115.000
69.96057 124.000
69.98051 131.000
70.00046 138.000
70.02041 126.000
70.04035 124.000
70.06030 139.000
70.08025 129.000
70.10020 121.000
70.12014 154.000
70.14009 121.000
70.16004 119.000
70.17998 136.000
70.19993 126.000
70.21988 138.000
70.23982 140.000
70.25977 131.000
70.27972 121.000
70.29967 155.000
70.31961 141.000
70.33956 149.000
70.35951 135.000
70.37945 132.000
70.39940 126.000
70.41935 146.000
70.43929 142.000
70.45924 122.000
70.47919 151.000
70.49914 121.000
70.51908 130.000
70.53903 124.000
70.55898 125.000
70.57892 128.000
70.59887 141.000
70.61882 121.000
70.63876 134.000
70.65871 129.000
70.67866 135.000
70.69860 141.000
70.71855 132.000
70.73850 152.000
70.75845 143.000
70.77839 109.000
70.79834 125.000
70.81829 134.000
70.83823 104.000
70.85818 138.000
70.87813 131.000
70.89807 141.000
70.91802 114.000
70.93797 146.000
70.95792 117.000
70.97786 111.000
70.99781 143.000
71.01776 119.000
71.03770 142.000
71.05765 133.000
71.07760 136.000
71.09754 141.000
71.11749 125.000
71.13744 119.000
71.15738 141.000
71.17733 117.000
71.19728 136.000
71.21723 121.000
71.23717 124.000
71.25712 116.000
71.27707 124.000
71.29701 147.000
71.31696 120.000
71.33691 129.000
71.35685 127.000
71.37680 112.000
71.39675 113.000
71.41670 118.000
71.43664 122.000
71.45659 129.000
71.47654 128.000
71.49648 101.000
71.51643 110.000
71.53638 116.000
71.55632 128.000
71.57627 120.000
71.59622 132.000
71.61616 120.000
71.63611 131.000
71.65606 114.000
71.67601 120.000
71.69595 107.000
71.71590 126.000
71.73585 119.000
71.75579 119.000
71.77574 157.000
71.79569 127.000
71.81563 130.000
71.83558 138.000
71.85553 127.000
71.87548 125.000
71.89542 123.000
71.91537 124.000
71.93532 129.000
71.95526 106.000
71.97521 116.000
71.99516 116.000
72.01510 125.000
72.03505 124.000
72.05500 141.000
72.07495 129.000
72.09489 128.000
72.11484 131.000
72.13479 118.000
72.15473 116.000
72.17468 136.000
72.19463 140.000
72.21457 127.000
72.23452 123.000
72.25447 113.000
72.27441 112.000
72.29436 130.000
72.31431 136.000
72.33426 141.000
72.35420 136.000
72.37415 127.000
72.39410 131.000
72.41404 123.000
72.43399 142.000
72.45394 148.000
72.47388 130.000
72.49383 134.000
72.51378 114.000
72.53373 130.000
72.55367 134.000
72.57362 132.000
72.59357 124.000
72.61351 135.000
72.63346 148.000
72.65341 126.000
72.67335 135.000
72.69330 121.000
72.71325 124.000
72.73319 151.000
72.75314 133.000
72.77309 119.000
72.79304 118.000
72.81298 112.000
72.83293 128.000
72.85288 145.000
72.87282 143.000
72.89277 121.000
72.91272 119.000
72.93266 111.000
72.95261 140.000
72.97256 121.000
72.99251 131.000
73.01245 132.000
73.03240 131.000
73.05235 132.000
73.07229 136.000
73.09224 132.000
73.11219 138.000
73.13213 153.000
73.15208 138.000
73.17203 145.000
73.19197 155.000
73.21192 151.000
73.23187 143.000
73.25182 146.000
73.27176 162.000
73.29171 147.000
73.31166 187.000
73.33160 146.000
73.35155 186.000
73.37150 240.000
73.39144 215.000
73.41139 199.000
73.43134 195.000
73.45129 235.000
73.47123 208.000
73.49118 202.000
73.51113 203.000
73.53107 191.000
73.55102 203.000
73.57097 180.000
73.59091 173.000
73.61086 194.000
73.63081 161.000
73.65076 194.000
73.67070 171.000
73.69065 179.000
73.71060 169.000
73.73054 172.000
73.75049 177.000
73.77044 144.000
73.79038 165.000
73.81033 176.000
73.83028 164.000
73.85022 136.000
73.87017 148.000
73.89012 151.000
73.91007 141.000
73.93001 152.000
73.94996 134.000
73.96991 142.000
73.98985 128.000
74.00980 128.000
74.02975 125.000
74.04969 130.000
74.06964 140.000
74.08959 134.000
74.10954 144.000
74.12948 143.000
74.14943 138.000
74.16938 149.000
74.18932 132.000
74.20927 146.000
74.22922 143.000
74.24916 151.000
74.26911 148.000
74.28906 132.000
74.30900 142.000
74.32895 151.000
74.34890 133.000
74.36885 126.000
74.38879 161.000
74.40874 149.000
74.42869 146.000
74.44863 153.000
74.46858 124.000
74.48853 138.000
74.50847 145.000
74.52842 146.000
74.54837 147.000
74.56832 174.000
74.58826 149.000
74.60821 149.000
74.62816 147.000
74.64810 119.000
74.66805 139.000
74.68800 137.000
74.70794 132.000
74.72789 150.000
74.74784 147.000
74.76778 136.000
74.78773 138.000
74.80768 118.000
74.82763 124.000
74.84757 134.000
74.86752 139.000
74.88747 141.000
74.90741 150.000
74.92736 145.000
74.94731 129.000
74.96725 154.000
74.98720 131.000
75.00715 162.000
75.02710 147.000
75.04704 126.000
75.06699 149.000
75.08694 131.000
75.10688 149.000
75.12683 152.000
75.14678 144.000
75.16672 130.000
75.18667 131.000
75.20662 171.000
75.22657 167.000
75.24651 145.000
75.26646 149.000
75.28641 134.000
75.30635 160.000
75.32630 137.000
75.34625 126.000
75.36619 137.000
75.38614 151.000
75.40609 135.000
75.42603 135.000
75.44598 111.000
75.46593 148.000
75.48588 139.000
75.50582 164.000
75.52577 146.000
75.54572 139.000
75.56566 136.000
75.58561 151.000
75.60556 135.000
75.62550 129.000
75.64545 138.000
75.66540 143.000
75.68535 129.000
75.70529 142.000
75.72524 144.000
75.74519 153.000
75.76513 148.000
75.78508 169.000
75.80503 175.000
75.82497 148.000
75.84492 171.000
75.86487 148.000
75.88481 144.000
75.90476 153.000
75.92471 136.000
75.94466 136.000
75.96460 154.000
75.98455 147.000
76.00450 151.000
76.02444 149.000
76.04439 152.000
76.06434 137.000
76.08428 150.000
76.10423 147.000
76.12418 128.000
76.14413 122.000
76.16407 135.000
76.18402 139.000
76.20397 134.000
76.22391 130.000
76.24386 127.000
76.26381 108.000
76.28375 144.000
76.30370 130.000
76.32365 145.000
76.34359 111.000
76.36354 144.000
76.38349 132.000
76.40344 134.000
76.42338 122.000
76.44333 149.000
76.46328 153.000
76.48322 131.000
76.50317 114.000
76.52312 116.000
76.54306 143.000
76.56301 126.000
76.58296 137.000
76.60291 131.000
76.62285 113.000
76.64280 140.000
76.66275 122.000
76.68269 145.000
76.70264 139.000
76.72259 132.000
76.74253 122.000
76.76248 122.000
76.78243 141.000
76.80238 140.000
76.82232 139.000
76.84227 113.000
76.86222 132.000
76.88216 140.000
76.90211 134.000
76.92206 128.000
76.94200 141.000
76.96195 138.000
76.98190 146.000
77.00184 142.000
77.02179 135.000
77.04174 142.000
77.06169 137.000
77.08163 154.000
77.10158 160.000
77.12153 153.000
77.14147 162.000
77.16142 162.000
77.18137 175.000
77.20131 169.000
77.22126 171.000
77.24121 170.000
77.26116 184.000
77.28110 171.000
77.30105 212.000
77.32100 158.000
77.34094 192.000
77.36089 171.000
77.38084 158.000
77.40078 183.000
77.42073 196.000
77.44068 175.000
77.46062 197.000
77.48057 167.000
77.50052 200.000
77.52047 159.000
77.54041 169.000
77.56036 200.000
77.58031 187.000
77.60025 182.000
77.62020 194.000
77.64015 156.000
77.66009 149.000
77.68004 178.000
77.69999 165.000
77.71994 145.000
77.73988 159.000
77.75983 150.000
77.77978 160.000
77.79972 176.000
77.81967 141.000
77.83962 169.000
77.85956 174.000
77.87951 179.000
77.89946 183.000
77.91940 174.000
77.93935 178.000
77.95930 182.000
77.97925 202.000
77.99919 194.000
78.01914 191.000
78.03909 195.000
78.05903 193.000
78.07898 176.000
78.09893 175.000
78.11887 176.000
78.13882 189.000
78.15877 164.000
78.17872 177.000
78.19866 171.000
78.21861 199.000
78.23856 177.000
78.25850 181.000
78.27845 180.000
78.29840 172.000
78.31834 157.000
78.33829 202.000
78.35824 152.000
78.37819 160.000
78.39813 145.000
78.41808 162.000
78.43803 171.000
78.45797 137.000
78.47792 154.000
78.49787 138.000
78.51781 153.000
78.53776 139.000
78.55771 141.000
78.57765 143.000
78.59760 140.000
78.61755 139.000
78.63750 152.000
78.65744 126.000
78.67739 150.000
78.69734 126.000
78.71728 128.000
78.73723 130.000
78.75718 145.000
78.77712 126.000
78.79707 113.000
78.81702 126.000
78.83697 150.000
78.85691 136.000
78.87686 118.000
78.89681 125.000
78.91675 126.000
78.93670 123.000
78.95665 114.000
78.97659 127.000
78.99654 140.000
79.01649 132.000
79.03643 118.000
79.05638 128.000
79.07633 121.000
79.09628 134.000
79.11622 128.000
79.13617 145.000
79.15612 105.000
79.17606 129.000
79.19601 120.000
79.21596 109.000
79.23590 143.000
79.25585 128.000
79.27580 128.000
79.29575 107.000
79.31569 136.000
79.33564 108.000
79.35559 107.000
79.37553 119.000
79.39548 132.000
79.41543 101.000
79.43537 109.000
79.45532 118.000
79.47527 130.000
79.49521 121.000
79.51516 130.000
79.53511 126.000
79.55506 112.000
79.57500 114.000
79.59495 114.000
79.61490 138.000
79.63484 117.000
79.65479 114.000
79.67474 116.000
79.69468 126.000
79.71463 109.000
79.73458 104.000
79.75453 117.000
79.77447 127.000
79.79442 141.000
79.81437 120.000
79.83431 123.000
79.85426 126.000
79.87421 118.000
79.89415 134.000
79.91410 143.000
79.93405 128.000
79.95399 117.000
79.97394 149.000
79.99389 141.000
80.01384 106.000
80.03378 139.000
80.05373 140.000
80.07368 119.000
80.09362 125.000
80.11357 137.000
80.13352 121.000
80.15346 122.000
80.17341 129.000
80.19336 119.000
80.21331 137.000
80.23325 129.000
80.25320 110.000
80.27315 126.000
80.29309 141.000
80.31304 116.000
80.33299 131.000
80.35293 124.000
80.37288 129.000
80.39283 117.000
80.41278 116.000
80.43272 99.000
80.45267 137.000
80.47262 132.000
80.49256 102.000
80.51251 108.000
80.53246 145.000
80.55240 134.000
80.57235 144.000
80.59230 121.000
80.61224 119.000
80.63219 127.000
80.65214 145.000
80.67209 124.000
80.69203 115.000
80.71198 95.000
80.73193 148.000
80.75187 126.000
80.77182 136.000
80.79177 154.000
80.81171 130.000
80.83166 144.000
80.85161 144.000
80.87156 115.000
80.89150 127.000
80.91145 142.000
80.93140 117.000
80.95134 122.000
80.97129 129.000
80.99124 138.000
81.01118 131.000
81.03113 115.000
81.05108 113.000
81.07102 122.000
81.09097 147.000
81.11092 129.000
81.13087 136.000
81.15081 119.000
81.17076 108.000
81.19071 135.000
81.21065 164.000
81.23060 126.000
81.25055 133.000
81.27049 137.000
81.29044 137.000
81.31039 124.000
81.33034 119.000
81.35028 121.000
81.37023 119.000
81.39018 150.000
81.41012 135.000
81.43007 130.000
81.45002 111.000
81.46996 121.000
81.48991 121.000
81.50986 145.000
81.52980 132.000
81.54975 140.000
81.56970 120.000
81.58965 129.000
81.60959 108.000
81.62954 124.000
81.64949 124.000
81.66943 112.000
81.68938 117.000
81.70933 113.000
81.72927 128.000
81.74922 123.000
81.76917 111.000
81.78912 110.000
81.80906 117.000
81.82901 120.000
81.84896 118.000
81.86890 105.000
81.88885 103.000
81.90880 123.000
81.92874 123.000
81.94869 111.000
81.96864 110.000
81.98859 109.000
82.00853 139.000
82.02848 124.000
82.04843 124.000
82.06837 127.000
82.08832 142.000
82.10827 122.000
82.12821 121.000
82.14816 131.000
82.16811 131.000
82.18805 123.000
82.20800 131.000
82.22795 114.000
82.24790 125.000
82.26784 134.000
82.28779 156.000
82.30774 133.000
82.32768 133.000
82.34763 144.000
82.36758 119.000
82.38752 134.000
82.40747 151.000
82.42742 122.000
82.44737 128.000
82.46731 134.000
82.48726 114.000
82.50721 143.000
82.52715 131.000
82.54710 132.000
82.56705 124.000
82.58699 127.000
82.60694 119.000
82.62689 127.000
82.64683 120.000
82.66678 112.000
82.68673 127.000
82.70668 124.000
82.72662 130.000
82.74657 131.000
82.76652 109.000
82.78646 116.000
82.80641 108.000
82.82636 140.000
82.84630 122.000
82.86625 130.000
82.88620 140.000
82.90615 124.000
82.92609 139.000
82.94604 111.000
82.96599 125.000
82.98593 135.000
83.00588 135.000
83.02583 163.000
83.04577 126.000
83.06572 139.000
83.08567 129.000
83.10561 138.000
83.12556 122.000
83.14551 116.000
83.16546 133.000
83.18540 111.000
83.20535 128.000
83.22530 119.000
83.24524 124.000
83.26519 142.000
83.28514 123.000
83.30508 132.000
83.32503 132.000
83.34498 133.000
83.36493 126.000
83.38487 121.000
83.40482 143.000
83.42477 125.000
83.44471 107.000
83.46466 127.000
83.48461 144.000
83.50455 135.000
83.52450 136.000
83.54445 153.000
83.56440 161.000
83.58434 141.000
83.60429 130.000
83.62424 138.000
83.64418 148.000
83.66413 133.000
83.68408 114.000
83.70402 121.000
83.72397 121.000
83.74392 134.000
83.76386 125.000
83.78381 127.000
83.80376 128.000
83.82371 127.000
83.84365 108.000
83.86360 125.000
83.88355 138.000
83.90349 145.000
83.92344 143.000
83.94339 156.000
83.96333 106.000
83.98328 136.000
84.00323 124.000
84.02318 118.000
84.04312 133.000
84.06307 136.000
84.08302 145.000
84.10296 136.000
84.12291 138.000
84.14286 125.000
84.16280 134.000
84.18275 137.000
84.20270 147.000
84.22264 136.000
84.24259 128.000
84.26254 149.000
84.28249 132.000
84.30243 144.000
84.32238 163.000
84.34233 173.000
84.36227 155.000
84.38222 194.000
84.40217 156.000
84.42211 157.000
84.44206 173.000
84.46201 169.000
84.48196 186.000
84.50190 146.000
84.52185 176.000
84.54180 170.000
84.56174 175.000
84.58169 167.000
84.60164 160.000
84.62158 167.000
84.64153 159.000
84.66148 151.000
84.68142 161.000
84.70137 158.000
84.72132 162.000
84.74127 135.000
84.76121 161.000
84.78116 142.000
84.80111 159.000
84.82105 146.000
84.84100 139.000
84.86095 136.000
84.88089 140.000
84.90084 158.000
84.92079 140.000
84.94074 132.000
84.96068 131.000
84.98063 137.000
85.00058 111.000
85.02052 123.000
85.04047 134.000
85.06042 134.000
85.08036 114.000
85.10031 131.000
85.12026 125.000
85.14021 133.000
85.16015 116.000
85.18010 120.000
85.20005 143.000
85.21999 123.000
85.23994 145.000
85.25989 146.000
85.27983 143.000
85.29978 123.000
85.31973 125.000
85.33967 125.000
85.35962 114.000
85.37957 115.000
85.39952 118.000
85.41946 119.000
85.43941 152.000
85.45936 136.000
85.47930 135.000
85.49925 140.000
85.51920 130.000
85.53914 131.000
85.55909 152.000
85.57904 137.000
85.59899 124.000
85.61893 132.000
85.63888 141.000
85.65883 141.000
85.67877 147.000
85.69872 135.000
85.71867 147.000
85.73861 126.000
85.75856 136.000
85.77851 127.000
85.79845 150.000
85.81840 154.000
85.83835 144.000
85.85830 139.000
85.87824 129.000
85.89819 153.000
85.91814 127.000
85.93808 126.000
85.95803 138.000
85.97798 127.000
85.99792 131.000
86.01787 147.000
86.03782 125.000
86.05777 125.000
86.07771 155.000
86.09766 130.000
86.11761 173.000
86.13755 139.000
86.15750 119.000
86.17745 113.000
86.19739 134.000
86.21734 120.000
86.23729 139.000
86.25723 139.000
86.27718 105.000
86.29713 133.000
86.31708 127.000
86.33702 142.000
86.35697 139.000
86.37692 144.000
86.39686 135.000
86.41681 117.000
86.43676 153.000
86.45670 143.000
86.47665 133.000
86.49660 144.000
86.51655 137.000
86.53649 146.000
86.55644 123.000
86.57639 146.000
86.59633 140.000
86.61628 127.000
86.63623 151.000
86.65617 128.000
86.67612 135.000
86.69607 137.000
86.71602 122.000
86.73596 121.000
86.75591 133.000
86.77586 116.000
86.79580 124.000
86.81575 136.000
86.83570 138.000
86.85564 139.000
86.87559 138.000
86.89554 145.000
86.91548 136.000
86.93543 131.000
86.95538 119.000
86.97533 137.000
86.99527 139.000
87.01522 112.000
87.03517 108.000
87.05511 120.000
87.07506 138.000
87.09501 114.000
87.11495 111.000
87.13490 105.000
87.15485 114.000
87.17480 146.000
87.19474 152.000
87.21469 129.000
87.23464 146.000
87.25458 108.000
87.27453 122.000
87.29448 142.000
87.31442 121.000
87.33437 124.000
87.35432 130.000
87.37426 129.000
87.39421 137.000
87.41416 133.000
87.43411 122.000
87.45405 143.000
87.47400 137.000
87.49395 134.000
87.51389 102.000
87.53384 113.000
87.55379 144.000
87.57373 113.000
87.59368 131.000
87.61363 136.000
87.63358 116.000
87.65352 132.000
87.67347 152.000
87.69342 108.000
87.71336 120.000
87.73331 137.000
87.75326 118.000
87.77320 129.000
87.79315 127.000
87.81310 121.000
87.83304 124.000
87.85299 128.000
87.87294 133.000
87.89289 130.000
87.91283 133.000
87.93278 126.000
87.95273 123.000
87.97267 118.000
87.99262 111.000
88.01257 137.000
88.03251 130.000
88.05246 135.000
88.07241 135.000
88.09236 134.000
88.11230 116.000
88.13225 139.000
88.15220 117.000
88.17214 147.000
88.19209 127.000
88.21204 125.000
88.23198 133.000
88.25193 118.000
88.27188 127.000
88.29183 145.000
88.31177 115.000
88.33172 130.000
88.35167 146.000
88.37161 134.000
88.39156 139.000
88.41151 141.000
88.43145 138.000
88.45140 144.000
88.47135 125.000
88.49129 141.000
88.51124 138.000
88.53119 156.000
88.55114 133.000
88.57108 135.000
88.59103 141.000
88.61098 137.000
88.63092 136.000
88.65087 124.000
88.67082 122.000
88.69076 136.000
88.71071 139.000
88.73066 151.000
88.75061 121.000
88.77055 143.000
88.79050 162.000
88.81045 157.000
88.83039 159.000
88.85034 164.000
88.87029 167.000
88.89023 152.000
88.91018 157.000
88.93013 140.000
88.95007 179.000
88.97002 179.000
88.98997 153.000
89.00992 160.000
89.02986 172.000
89.04981 148.000
89.06976 168.000
89.08970 157.000
89.10965 146.000
89.12960 169.000
89.14954 153.000
89.16949 159.000
89.18944 170.000
89.20939 146.000
89.22933 154.000
89.24928 161.000
89.26923 155.000
89.28917 144.000
89.30912 136.000
89.32907 158.000
89.34901 134.000
89.36896 132.000
89.38891 135.000
89.40885 130.000
89.42880 161.000
89.44875 117.000
89.46870 144.000
89.48864 134.000
89.50859 122.000
89.52854 125.000
89.54848 141.000
89.56843 129.000
89.58838 139.000
89.60832 119.000
89.62827 147.000
89.64822 115.000
89.66817 149.000
89.68811 143.000
89.70806 145.000
89.72801 150.000
89.74795 135.000
89.76790 145.000
89.78785 113.000
89.80779 121.000
89.82774 126.000
89.84769 134.000
89.86764 152.000
89.88758 120.000
89.90753 144.000
89.92748 141.000
89.94742 115.000
89.96737 138.000
89.98732 154.000
90.00726 139.000
