10.00000 78.000
10.01995 75.000
10.03989 65.000
10.05984 86.000
10.07979 93.000
10.09973 82.000
10.11968 82.000
10.13963 70.000
10.15958 81.000
10.17952 85.000
10.19947 85.000
10.21942 90.000
10.23936 101.000
10.25931 78.000
10.27926 79.000
10.29920 89.000
10.31915 90.000
10.33910 101.000
10.35905 93.000
10.37899 80.000
10.39894 87.000
10.41889 89.000
10.43883 101.000
10.45878 97.000
10.47873 97.000
10.49867 81.000
10.51862 84.000
10.53857 75.000
10.55851 89.000
10.57846 85.000
10.59841 78.000
10.61836 80.000
10.63830 78.000
10.65825 90.000
10.67820 56.000
10.69814 87.000
10.71809 90.000
10.73804 89.000
10.75798 81.000
10.77793 80.000
10.79788 83.000
10.81783 85.000
10.83777 94.000
10.85772 74.000
10.87767 86.000
10.89761 84.000
10.91756 75.000
10.93751 88.000
10.95745 80.000
10.97740 78.000
10.99735 69.000
11.01730 78.000
11.03724 59.000
11.05719 82.000
11.07714 75.000
11.09708 90.000
11.11703 81.000
11.13698 81.000
11.15692 94.000
11.17687 73.000
11.19682 96.000
11.21676 80.000
11.23671 91.000
11.25666 80.000
11.27661 88.000
11.29655 87.000
11.31650 93.000
11.33645 70.000
11.35639 87.000
11.37634 80.000
11.39629 100.000
11.41623 87.000
11.43618 70.000
11.45613 80.000
11.47608 95.000
11.49602 83.000
11.51597 98.000
11.53592 100.000
11.55586 92.000
11.57581 83.000
11.59576 88.000
11.61570 88.000
11.63565 67.000
11.65560 81.000
11.67554 83.000
11.69549 80.000
11.71544 74.000
11.73539 90.000
11.75533 72.000
11.77528 95.000
11.79523 73.000
11.81517 79.000
11.83512 80.000
11.85507 85.000
11.87501 76.000
11.89496 93.000
11.91491 86.000
11.93486 81.000
11.95480 83.000
11.97475 84.000
11.99470 91.000
12.01464 69.000
12.03459 101.000
12.05454 87.000
12.07448 83.000
12.09443 96.000
12.11438 79.000
12.13432 74.000
12.15427 88.000
12.17422 80.000
12.19417 77.000
12.21411 79.000
12.23406 92.000
12.25401 95.000
12.27395 85.000
12.29390 70.000
12.31385 100.000
12.33379 92.000
12.35374 93.000
12.37369 84.000
12.39364 91.000
12.41358 63.000
12.43353 75.000
12.45348 66.000
12.47342 89.000
12.49337 83.000
12.51332 81.000
12.53326 92.000
12.55321 76.000
12.57316 73.000
12.59311 72.000
12.61305 94.000
12.63300 76.000
12.65295 89.000
12.67289 82.000
12.69284 83.000
12.71279 89.000
12.73273 79.000
12.75268 91.000
12.77263 76.000
12.79257 78.000
12.81252 80.000
12.83247 85.000
12.85242 91.000
12.87236 87.000
12.89231 94.000
12.91226 86.000
12.93220 82.000
12.95215 92.000
12.97210 85.000
12.99204 72.000
13.01199 88.000
13.03194 68.000
13.05189 80.000
13.07183 85.000
13.09178 71.000
13.11173 86.000
13.13167 72.000
13.15162 72.000
13.17157 86.000
13.19151 81.000
13.21146 94.000
13.23141 80.000
13.25135 102.000
13.27130 95.000
13.29125 79.000
13.31120 74.000
13.33114 79.000
13.35109 83.000
13.37104 78.000
13.39098 86.000
13.41093 96.000
13.43088 80.000
13.45082 83.000
13.47077 86.000
13.49072 92.000
13.51067 84.000
13.53061 76.000
13.55056 63.000
13.57051 79.000
13.59045 79.000
13.61040 66.000
13.63035 98.000
13.65029 74.000
13.67024 78.000
13.69019 67.000
13.71013 77.000
13.73008 74.000
13.75003 78.000
13.76998 80.000
13.78992 73.000
13.80987 84.000
13.82982 98.000
13.84976 75.000
13.86971 102.000
13.88966 68.000
13.90960 72.000
13.92955 97.000
13.94950 68.000
13.96945 90.000
13.98939 70.000
14.00934 88.000
14.02929 95.000
14.04923 67.000
14.06918 90.000
14.08913 87.000
14.10907 81.000
14.12902 86.000
14.14897 98.000
14.16892 81.000
14.18886 79.000
14.20881 89.000
14.22876 85.000
14.24870 83.000
14.26865 96.000
14.28860 113.000
14.30854 77.000
14.32849 87.000
14.34844 93.000
14.36838 85.000
14.38833 93.000
14.40828 95.000
14.42823 69.000
14.44817 80.000
14.46812 76.000
14.48807 79.000
14.50801 79.000
14.52796 69.000
14.54791 94.000
14.56785 87.000
14.58780 83.000
14.60775 82.000
14.62770 94.000
14.64764 90.000
14.66759 86.000
14.68754 79.000
14.70748 83.000
14.72743 95.000
14.74738 80.000
14.76732 89.000
14.78727 80.000
14.80722 76.000
14.82716 90.000
14.84711 87.000
14.86706 92.000
14.88701 94.000
14.90695 95.000
14.92690 92.000
14.94685 100.000
14.96679 81.000
14.98674 91.000
15.00669 93.000
15.02663 87.000
15.04658 96.000
15.06653 80.000
15.08648 95.000
15.10642 81.000
15.12637 87.000
15.14632 89.000
15.16626 84.000
15.18621 94.000
15.20616 98.000
15.22610 107.000
15.24605 93.000
15.26600 96.000
15.28594 89.000
15.30589 103.000
15.32584 101.000
15.34579 92.000
15.36573 92.000
15.38568 106.000
15.40563 114.000
15.42557 95.000
15.44552 101.000
15.46547 105.000
15.48541 106.000
15.50536 127.000
15.52531 127.000
15.54526 115.000
15.56520 135.000
15.58515 122.000
15.60510 132.000
15.62504 139.000
15.64499 159.000
15.66494 190.000
15.68488 195.000
15.70483 231.000
15.72478 280.000
15.74472 370.000
15.76467 430.000
15.78462 480.000
15.80457 475.000
15.82451 416.000
15.84446 262.000
15.86441 221.000
15.88435 183.000
15.90430 204.000
15.92425 202.000
15.94419 191.000
15.96414 228.000
15.98409 241.000
16.00404 295.000
16.02398 377.000
16.04393 466.000
16.06388 593.000
16.08382 696.000
16.10377 788.000
16.12372 935.000
16.14366 1176.000
16.16361 1362.000
16.18356 1615.000
16.20351 2120.000
16.22345 2640.000
16.24340 3410.000
16.26335 4263.000
16.28329 5138.000
16.30324 5684.000
16.32319 5421.000
16.34313 4359.000
16.36308 2864.000
16.38303 1627.000
16.40297 816.000
16.42292 431.000
16.44287 320.000
16.46282 229.000
16.48276 224.000
16.50271 213.000
16.52266 147.000
16.54260 164.000
16.56255 150.000
16.58250 160.000
16.60244 147.000
16.62239 130.000
16.64234 122.000
16.66229 139.000
16.68223 117.000
16.70218 132.000
16.72213 125.000
16.74207 111.000
16.76202 139.000
16.78197 128.000
16.80191 138.000
16.82186 143.000
16.84181 143.000
16.86175 158.000
16.88170 116.000
16.90165 117.000
16.92160 135.000
16.94154 110.000
16.96149 116.000
16.98144 98.000
17.00138 92.000
17.02133 105.000
17.04128 96.000
17.06122 97.000
17.08117 99.000
17.10112 101.000
17.12107 108.000
17.14101 85.000
17.16096 77.000
17.18091 92.000
17.20085 93.000
17.22080 106.000
17.24075 95.000
17.26069 96.000
17.28064 83.000
17.30059 85.000
17.32053 93.000
17.34048 78.000
17.36043 85.000
17.38038 94.000
17.40032 75.000
17.42027 82.000
17.44022 94.000
17.46016 83.000
17.48011 101.000
17.50006 76.000
17.52000 81.000
17.53995 96.000
17.55990 64.000
17.57985 70.000
17.59979 78.000
17.61974 75.000
17.63969 90.000
17.65963 84.000
17.67958 92.000
17.69953 87.000
17.71947 78.000
17.73942 67.000
17.75937 95.000
17.77932 77.000
17.79926 71.000
17.81921 81.000
17.83916 90.000
17.85910 90.000
17.87905 83.000
17.89900 99.000
17.91894 75.000
17.93889 76.000
17.95884 82.000
17.97878 84.000
17.99873 65.000
18.01868 87.000
18.03863 69.000
18.05857 82.000
18.07852 93.000
18.09847 66.000
18.11841 68.000
18.13836 72.000
18.15831 92.000
18.17825 75.000
18.19820 87.000
18.21815 101.000
18.23810 84.000
18.25804 76.000
18.27799 88.000
18.29794 80.000
18.31788 68.000
18.33783 71.000
18.35778 59.000
18.37772 99.000
18.39767 95.000
18.41762 65.000
18.43756 80.000
18.45751 74.000
18.47746 66.000
18.49741 82.000
18.51735 74.000
18.53730 81.000
18.55725 78.000
18.57719 86.000
18.59714 70.000
18.61709 82.000
18.63703 87.000
18.65698 71.000
18.67693 79.000
18.69688 70.000
18.71682 75.000
18.73677 83.000
18.75672 61.000
18.77666 90.000
18.79661 76.000
18.81656 75.000
18.83650 68.000
18.85645 73.000
18.87640 77.000
18.89634 68.000
18.91629 80.000
18.93624 80.000
18.95619 75.000
18.97613 89.000
18.99608 89.000
19.01603 89.000
19.03597 81.000
19.05592 77.000
19.07587 62.000
19.09581 79.000
19.11576 80.000
19.13571 94.000
19.15566 77.000
19.17560 87.000
19.19555 84.000
19.21550 77.000
19.23544 87.000
19.25539 68.000
19.27534 95.000
19.29528 78.000
19.31523 82.000
19.33518 75.000
19.35513 80.000
19.37507 82.000
19.39502 98.000
19.41497 85.000
19.43491 68.000
19.45486 75.000
19.47481 80.000
19.49475 82.000
19.51470 73.000
19.53465 75.000
19.55459 82.000
19.57454 81.000
19.59449 82.000
19.61444 78.000
19.63438 79.000
19.65433 91.000
19.67428 87.000
19.69422 81.000
19.71417 79.000
19.73412 77.000
19.75406 78.000
19.77401 77.000
19.79396 89.000
19.81391 82.000
19.83385 90.000
19.85380 92.000
19.87375 69.000
19.89369 87.000
19.91364 96.000
19.93359 99.000
19.95353 86.000
19.97348 102.000
19.99343 99.000
20.01337 125.000
20.03332 133.000
20.05327 142.000
20.07322 144.000
20.09316 142.000
20.11311 140.000
20.13306 134.000
20.15300 103.000
20.17295 134.000
20.19290 134.000
20.21284 127.000
20.23279 134.000
20.25274 122.000
20.27269 105.000
20.29263 120.000
20.31258 105.000
20.33253 101.000
20.35247 111.000
20.37242 112.000
20.39237 130.000
20.41231 143.000
20.43226 146.000
20.45221 194.000
20.47215 244.000
20.49210 280.000
20.51205 351.000
20.53200 408.000
20.55194 420.000
20.57189 423.000
20.59184 364.000
20.61178 420.000
20.63173 379.000
20.65168 423.000
20.67162 440.000
20.69157 460.000
20.71152 446.000
20.73147 449.000
20.75141 367.000
20.77136 386.000
20.79131 377.000
20.81125 333.000
20.83120 304.000
20.85115 252.000
20.87109 239.000
20.89104 225.000
20.91099 238.000
20.93094 178.000
20.95088 163.000
20.97083 165.000
20.99078 114.000
21.01072 126.000
21.03067 92.000
21.05062 92.000
21.07056 95.000
21.09051 95.000
21.11046 99.000
21.13040 93.000
21.15035 96.000
21.17030 66.000
21.19025 88.000
21.21019 76.000
21.23014 86.000
21.25009 73.000
21.27003 92.000
21.28998 100.000
21.30993 82.000
21.32987 69.000
21.34982 80.000
21.36977 79.000
21.38972 86.000
21.40966 91.000
21.42961 81.000
21.44956 78.000
21.46950 84.000
21.48945 84.000
21.50940 84.000
21.52934 76.000
21.54929 94.000
21.56924 81.000
21.58918 90.000
21.60913 74.000
21.62908 69.000
21.64903 65.000
21.66897 71.000
21.68892 70.000
21.70887 74.000
21.72881 64.000
21.74876 96.000
21.76871 86.000
21.78865 69.000
21.80860 91.000
21.82855 79.000
21.84850 94.000
21.86844 74.000
21.88839 84.000
21.90834 76.000
21.92828 89.000
21.94823 78.000
21.96818 78.000
21.98812 71.000
22.00807 79.000
22.02802 80.000
22.04796 76.000
22.06791 84.000
22.08786 72.000
22.10781 92.000
22.12775 84.000
22.14770 68.000
22.16765 94.000
22.18759 78.000
22.20754 88.000
22.22749 87.000
22.24743 76.000
22.26738 58.000
22.28733 75.000
22.30728 82.000
22.32722 82.000
22.34717 101.000
22.36712 78.000
22.38706 77.000
22.40701 60.000
22.42696 90.000
22.44690 66.000
22.46685 77.000
22.48680 91.000
22.50675 81.000
22.52669 71.000
22.54664 98.000
22.56659 70.000
22.58653 81.000
22.60648 88.000
22.62643 78.000
22.64637 90.000
22.66632 67.000
22.68627 64.000
22.70621 88.000
22.72616 69.000
22.74611 91.000
22.76606 66.000
22.78600 71.000
22.80595 67.000
22.82590 57.000
22.84584 71.000
22.86579 72.000
22.88574 91.000
22.90568 77.000
22.92563 89.000
22.94558 62.000
22.96553 64.000
22.98547 80.000
23.00542 98.000
23.02537 87.000
23.04531 72.000
23.06526 82.000
23.08521 87.000
23.10515 80.000
23.12510 76.000
23.14505 86.000
23.16499 80.000
23.18494 77.000
23.20489 93.000
23.22484 72.000
23.24478 77.000
23.26473 76.000
23.28468 86.000
23.30462 66.000
23.32457 94.000
23.34452 75.000
23.36446 82.000
23.38441 68.000
23.40436 78.000
23.42431 83.000
23.44425 96.000
23.46420 86.000
23.48415 77.000
23.50409 75.000
23.52404 58.000
23.54399 73.000
23.56393 86.000
23.58388 80.000
23.60383 69.000
23.62377 68.000
23.64372 81.000
23.66367 76.000
23.68362 61.000
23.70356 77.000
23.72351 72.000
23.74346 76.000
23.76340 71.000
23.78335 66.000
23.80330 77.000
23.82324 80.000
23.84319 92.000
23.86314 78.000
23.88309 88.000
23.90303 99.000
23.92298 95.000
23.94293 80.000
23.96287 69.000
23.98282 79.000
24.00277 93.000
24.02271 76.000
24.04266 80.000
24.06261 84.000
24.08256 88.000
24.10250 76.000
24.12245 75.000
24.14240 63.000
24.16234 87.000
24.18229 83.000
24.20224 100.000
24.22218 81.000
24.24213 84.000
24.26208 86.000
24.28202 78.000
24.30197 83.000
24.32192 88.000
24.34187 71.000
24.36181 93.000
24.38176 78.000
24.40171 87.000
24.42165 77.000
24.44160 79.000
24.46155 74.000
24.48149 79.000
24.50144 74.000
24.52139 75.000
24.54134 98.000
24.56128 79.000
24.58123 82.000
24.60118 99.000
24.62112 77.000
24.64107 109.000
24.66102 85.000
24.68096 101.000
24.70091 105.000
24.72086 100.000
24.74080 106.000
24.76075 92.000
24.78070 79.000
24.80065 96.000
24.82059 91.000
24.84054 105.000
24.86049 90.000
24.88043 98.000
24.90038 95.000
24.92033 101.000
24.94027 91.000
24.96022 116.000
24.98017 116.000
25.00012 82.000
25.02006 95.000
25.04001 100.000
25.05996 104.000
25.07990 85.000
25.09985 90.000
25.11980 95.000
25.13974 99.000
25.15969 85.000
25.17964 79.000
25.19958 77.000
25.21953 81.000
25.23948 76.000
25.25943 81.000
25.27937 63.000
25.29932 68.000
25.31927 75.000
25.33921 84.000
25.35916 86.000
25.37911 88.000
25.39905 84.000
25.41900 86.000
25.43895 105.000
25.45890 78.000
25.47884 81.000
25.49879 100.000
25.51874 81.000
25.53868 80.000
25.55863 75.000
25.57858 89.000
25.59852 66.000
25.61847 72.000
25.63842 78.000
25.65837 85.000
25.67831 67.000
25.69826 71.000
25.71821 75.000
25.73815 77.000
25.75810 79.000
25.77805 80.000
25.79799 83.000
25.81794 86.000
25.83789 81.000
25.85783 73.000
25.87778 89.000
25.89773 89.000
25.91768 91.000
25.93762 80.000
25.95757 78.000
25.97752 99.000
25.99746 101.000
26.01741 103.000
26.03736 105.000
26.05730 102.000
26.07725 113.000
26.09720 121.000
26.11715 96.000
26.13709 98.000
26.15704 77.000
26.17699 85.000
26.19693 95.000
26.21688 91.000
26.23683 95.000
26.25677 90.000
26.27672 92.000
26.29667 100.000
26.31661 83.000
26.33656 90.000
26.35651 96.000
26.37646 99.000
26.39640 84.000
26.41635 95.000
26.43630 87.000
26.45624 83.000
26.47619 93.000
26.49614 72.000
26.51608 90.000
26.53603 90.000
26.55598 104.000
26.57593 90.000
26.59587 87.000
26.61582 93.000
26.63577 94.000
26.65571 92.000
26.67566 81.000
26.69561 84.000
26.71555 84.000
26.73550 71.000
26.75545 90.000
26.77539 85.000
26.79534 93.000
26.81529 80.000
26.83524 99.000
26.85518 86.000
26.87513 95.000
26.89508 88.000
26.91502 102.000
26.93497 89.000
26.95492 77.000
26.97486 85.000
26.99481 97.000
27.01476 94.000
27.03471 88.000
27.05465 82.000
27.07460 93.000
27.09455 77.000
27.11449 83.000
27.13444 69.000
27.15439 90.000
27.17433 87.000
27.19428 78.000
27.21423 89.000
27.23417 83.000
27.25412 87.000
27.27407 85.000
27.29402 70.000
27.31396 75.000
27.33391 86.000
27.35386 80.000
27.37380 85.000
27.39375 96.000
27.41370 78.000
27.43364 100.000
27.45359 87.000
27.47354 86.000
27.49349 79.000
27.51343 84.000
27.53338 89.000
27.55333 90.000
27.57327 100.000
27.59322 77.000
27.61317 92.000
27.63311 82.000
27.65306 90.000
27.67301 86.000
27.69296 75.000
27.71290 88.000
27.73285 88.000
27.75280 78.000
27.77274 77.000
27.79269 98.000
27.81264 89.000
27.83258 83.000
27.85253 92.000
27.87248 81.000
27.89242 98.000
27.91237 92.000
27.93232 78.000
27.95227 95.000
27.97221 72.000
27.99216 79.000
28.01211 97.000
28.03205 83.000
28.05200 78.000
28.07195 86.000
28.09189 95.000
28.11184 79.000
28.13179 83.000
28.15174 74.000
28.17168 76.000
28.19163 79.000
28.21158 99.000
28.23152 88.000
28.25147 87.000
28.27142 88.000
28.29136 90.000
28.31131 73.000
28.33126 75.000
28.35120 102.000
28.37115 80.000
28.39110 96.000
28.41105 105.000
28.43099 82.000
28.45094 87.000
28.47089 87.000
28.49083 96.000
28.51078 89.000
28.53073 101.000
28.55067 76.000
28.57062 91.000
28.59057 88.000
28.61052 103.000
28.63046 76.000
28.65041 109.000
28.67036 84.000
28.69030 97.000
28.71025 82.000
28.73020 86.000
28.75014 90.000
28.77009 87.000
28.79004 91.000
28.80998 106.000
28.82993 75.000
28.84988 82.000
28.86983 105.000
28.88977 85.000
28.90972 85.000
28.92967 85.000
28.94961 83.000
28.96956 96.000
28.98951 103.000
29.00945 98.000
29.02940 75.000
29.04935 94.000
29.06930 104.000
29.08924 98.000
29.10919 77.000
29.12914 79.000
29.14908 85.000
29.16903 101.000
29.18898 96.000
29.20892 84.000
29.22887 95.000
29.24882 125.000
29.26877 99.000
29.28871 103.000
29.30866 138.000
29.32861 149.000
29.34855 168.000
29.36850 165.000
29.38845 155.000
29.40839 150.000
29.42834 154.000
29.44829 166.000
29.46823 151.000
29.48818 148.000
29.50813 138.000
29.52808 178.000
29.54802 183.000
29.56797 159.000
29.58792 211.000
29.60786 144.000
29.62781 158.000
29.64776 159.000
29.66770 119.000
29.68765 121.000
29.70760 119.000
29.72755 119.000
29.74749 104.000
29.76744 91.000
29.78739 119.000
29.80733 114.000
29.82728 109.000
29.84723 94.000
29.86717 103.000
29.88712 111.000
29.90707 94.000
29.92701 120.000
29.94696 120.000
29.96691 99.000
29.98686 135.000
30.00680 98.000
30.02675 110.000
30.04670 119.000
30.06664 111.000
30.08659 98.000
30.10654 94.000
30.12648 85.000
30.14643 93.000
30.16638 94.000
30.18633 123.000
30.20627 82.000
30.22622 115.000
30.24617 97.000
30.26611 87.000
30.28606 122.000
30.30601 99.000
30.32595 82.000
30.34590 86.000
30.36585 101.000
30.38579 89.000
30.40574 86.000
30.42569 101.000
30.44564 95.000
30.46558 97.000
30.48553 93.000
30.50548 103.000
30.52542 95.000
30.54537 101.000
30.56532 95.000
30.58526 97.000
30.60521 88.000
30.62516 96.000
30.64511 99.000
30.66505 85.000
30.68500 96.000
30.70495 114.000
30.72489 92.000
30.74484 113.000
30.76479 118.000
30.78473 111.000
30.80468 97.000
30.82463 75.000
30.84458 103.000
30.86452 79.000
30.88447 97.000
30.90442 108.000
30.92436 90.000
30.94431 82.000
30.96426 106.000
30.98420 100.000
31.00415 112.000
31.02410 86.000
31.04404 78.000
31.06399 88.000
31.08394 82.000
31.10389 109.000
31.12383 87.000
31.14378 97.000
31.16373 109.000
31.18367 87.000
31.20362 83.000
31.22357 86.000
31.24351 106.000
31.26346 95.000
31.28341 103.000
31.30336 99.000
31.32330 94.000
31.34325 83.000
31.36320 102.000
31.38314 65.000
31.40309 94.000
31.42304 94.000
31.44298 75.000
31.46293 103.000
31.48288 84.000
31.50282 94.000
31.52277 91.000
31.54272 103.000
31.56267 89.000
31.58261 105.000
31.60256 112.000
31.62251 106.000
31.64245 83.000
31.66240 81.000
31.68235 99.000
31.70229 112.000
31.72224 125.000
31.74219 132.000
31.76214 137.000
31.78208 118.000
31.80203 138.000
31.82198 142.000
31.84192 125.000
31.86187 127.000
31.88182 149.000
31.90176 132.000
31.92171 149.000
31.94166 155.000
31.96160 148.000
31.98155 117.000
32.00150 120.000
32.02145 106.000
32.04139 106.000
32.06134 118.000
32.08129 104.000
32.10123 114.000
32.12118 114.000
32.14113 89.000
32.16107 107.000
32.18102 110.000
32.20097 108.000
32.22092 110.000
32.24086 115.000
32.26081 98.000
32.28076 108.000
32.30070 141.000
32.32065 122.000
32.34060 131.000
32.36054 134.000
32.38049 109.000
32.40044 142.000
32.42039 140.000
32.44033 139.000
32.46028 138.000
32.48023 153.000
32.50017 154.000
32.52012 167.000
32.54007 172.000
32.56001 181.000
32.57996 206.000
32.59991 213.000
32.61985 173.000
32.63980 183.000
32.65975 191.000
32.67970 187.000
32.69964 184.000
32.71959 160.000
32.73954 205.000
32.75948 248.000
32.77943 259.000
32.79938 264.000
32.81932 301.000
32.83927 341.000
32.85922 349.000
32.87917 359.000
32.89911 399.000
32.91906 470.000
32.93901 489.000
32.95895 583.000
32.97890 539.000
32.99885 566.000
33.01879 519.000
33.03874 465.000
33.05869 429.000
33.07863 324.000
33.09858 273.000
33.11853 243.000
33.13848 206.000
33.15842 193.000
33.17837 143.000
33.19832 149.000
33.21826 122.000
33.23821 155.000
33.25816 162.000
33.27810 160.000
33.29805 183.000
33.31800 187.000
33.33795 197.000
33.35789 218.000
33.37784 229.000
33.39779 207.000
33.41773 202.000
33.43768 207.000
33.45763 224.000
33.47757 227.000
33.49752 220.000
33.51747 175.000
33.53741 174.000
33.55736 208.000
33.57731 188.000
33.59726 179.000
33.61720 164.000
33.63715 173.000
33.65710 172.000
33.67704 199.000
33.69699 175.000
33.71694 173.000
33.73688 165.000
33.75683 189.000
33.77678 221.000
33.79673 219.000
33.81667 215.000
33.83662 248.000
33.85657 259.000
33.87651 242.000
33.89646 259.000
33.91641 254.000
33.93635 265.000
33.95630 257.000
33.97625 305.000
33.99620 328.000
34.01614 350.000
34.03609 388.000
34.05604 379.000
34.07598 396.000
34.09593 440.000
34.11588 423.000
34.13582 422.000
34.15577 399.000
34.17572 417.000
34.19566 399.000
34.21561 383.000
34.23556 390.000
34.25551 387.000
34.27545 367.000
34.29540 369.000
34.31535 352.000
34.33529 352.000
34.35524 325.000
34.37519 308.000
34.39513 269.000
34.41508 234.000
34.43503 207.000
34.45498 199.000
34.47492 207.000
34.49487 162.000
34.51482 178.000
34.53476 164.000
34.55471 156.000
34.57466 147.000
34.59460 170.000
34.61455 107.000
34.63450 134.000
34.65444 119.000
34.67439 160.000
34.69434 134.000
34.71429 120.000
34.73423 128.000
34.75418 120.000
34.77413 169.000
34.79407 138.000
34.81402 136.000
34.83397 166.000
34.85391 151.000
34.87386 177.000
34.89381 148.000
34.91376 140.000
34.93370 148.000
34.95365 153.000
34.97360 146.000
34.99354 195.000
35.01349 189.000
35.03344 224.000
35.05338 308.000
35.07333 316.000
35.09328 380.000
35.11322 415.000
35.13317 412.000
35.15312 428.000
35.17307 436.000
35.19301 473.000
35.21296 433.000
35.23291 400.000
35.25285 380.000
35.27280 345.000
35.29275 352.000
35.31269 364.000
35.33264 331.000
35.35259 316.000
35.37254 318.000
35.39248 363.000
35.41243 399.000
35.43238 395.000
35.45232 409.000
35.47227 388.000
35.49222 410.000
35.51216 489.000
35.53211 478.000
35.55206 464.000
35.57201 439.000
35.59195 368.000
35.61190 367.000
35.63185 361.000
35.65179 289.000
35.67174 226.000
35.69169 227.000
35.71163 218.000
35.73158 206.000
35.75153 161.000
35.77147 178.000
35.79142 161.000
35.81137 174.000
35.83132 160.000
35.85126 152.000
35.87121 158.000
35.89116 145.000
35.91110 137.000
35.93105 145.000
35.95100 151.000
35.97094 151.000
35.99089 159.000
36.01084 167.000
36.03079 134.000
36.05073 147.000
36.07068 140.000
36.09063 152.000
36.11057 129.000
36.13052 132.000
36.15047 149.000
36.17041 150.000
36.19036 144.000
36.21031 141.000
36.23025 139.000
36.25020 155.000
36.27015 178.000
36.29010 161.000
36.31004 211.000
36.32999 246.000
36.34994 273.000
36.36988 345.000
36.38983 440.000
36.40978 498.000
36.42972 542.000
36.44967 530.000
36.46962 583.000
36.48957 506.000
36.50951 481.000
36.52946 487.000
36.54941 450.000
36.56935 422.000
36.58930 340.000
36.60925 342.000
36.62919 322.000
36.64914 256.000
36.66909 221.000
36.68903 217.000
36.70898 185.000
36.72893 154.000
36.74888 169.000
36.76882 151.000
36.78877 136.000
36.80872 124.000
36.82866 127.000
36.84861 111.000
36.86856 115.000
36.88850 121.000
36.90845 109.000
36.92840 128.000
36.94835 118.000
36.96829 122.000
36.98824 111.000
37.00819 120.000
37.02813 124.000
37.04808 116.000
37.06803 98.000
37.08797 91.000
37.10792 100.000
37.12787 109.000
37.14781 113.000
37.16776 104.000
37.18771 105.000
37.20766 131.000
37.22760 101.000
37.24755 111.000
37.26750 123.000
37.28744 114.000
37.30739 109.000
37.32734 119.000
37.34728 112.000
37.36723 102.000
37.38718 91.000
37.40713 95.000
37.42707 100.000
37.44702 89.000
37.46697 97.000
37.48691 88.000
37.50686 93.000
37.52681 104.000
37.54675 102.000
37.56670 91.000
37.58665 79.000
37.60660 93.000
37.62654 90.000
37.64649 83.000
37.66644 79.000
37.68638 96.000
37.70633 86.000
37.72628 96.000
37.74622 99.000
37.76617 105.000
37.78612 71.000
37.80606 89.000
37.82601 126.000
37.84596 91.000
37.86591 105.000
37.88585 116.000
37.90580 113.000
37.92575 100.000
37.94569 103.000
37.96564 91.000
37.98559 100.000
38.00553 122.000
38.02548 99.000
38.04543 120.000
38.06538 103.000
38.08532 111.000
38.10527 98.000
38.12522 123.000
38.14516 97.000
38.16511 113.000
38.18506 111.000
38.20500 107.000
38.22495 105.000
38.24490 112.000
38.26484 114.000
38.28479 114.000
38.30474 126.000
38.32469 110.000
38.34463 121.000
38.36458 104.000
38.38453 118.000
38.40447 114.000
38.42442 118.000
38.44437 152.000
38.46431 137.000
38.48426 112.000
38.50421 122.000
38.52416 136.000
38.54410 170.000
38.56405 164.000
38.58400 193.000
38.60394 176.000
38.62389 223.000
38.64384 212.000
38.66378 310.000
38.68373 297.000
38.70368 397.000
38.72362 409.000
38.74357 465.000
38.76352 429.000
38.78347 421.000
38.80341 366.000
38.82336 351.000
38.84331 380.000
38.86325 318.000
38.88320 344.000
38.90315 301.000
38.92309 285.000
38.94304 261.000
38.96299 224.000
38.98294 205.000
39.00288 188.000
39.02283 217.000
39.04278 160.000
39.06272 156.000
39.08267 149.000
39.10262 126.000
39.12256 162.000
39.14251 133.000
39.16246 140.000
39.18241 120.000
39.20235 115.000
39.22230 139.000
39.24225 125.000
39.26219 133.000
39.28214 116.000
39.30209 111.000
39.32203 92.000
39.34198 97.000
39.36193 120.000
39.38187 105.000
39.40182 105.000
39.42177 87.000
39.44172 108.000
39.46166 94.000
39.48161 94.000
39.50156 102.000
39.52150 97.000
39.54145 103.000
39.56140 110.000
39.58134 98.000
39.60129 90.000
39.62124 113.000
39.64119 89.000
39.66113 108.000
39.68108 95.000
39.70103 104.000
39.72097 100.000
39.74092 112.000
39.76087 105.000
39.78081 96.000
39.80076 110.000
39.82071 102.000
39.84065 98.000
39.86060 103.000
39.88055 144.000
39.90050 97.000
39.92044 101.000
39.94039 111.000
39.96034 108.000
39.98028 101.000
40.00023 95.000
40.02018 103.000
40.04012 87.000
40.06007 84.000
40.08002 101.000
40.09997 99.000
40.11991 104.000
40.13986 107.000
40.15981 103.000
40.17975 93.000
40.19970 103.000
40.21965 84.000
40.23959 101.000
40.25954 79.000
40.27949 84.000
40.29943 105.000
40.31938 99.000
40.33933 102.000
40.35928 95.000
40.37922 92.000
40.39917 109.000
40.41912 93.000
40.43906 96.000
40.45901 94.000
40.47896 83.000
40.49890 112.000
40.51885 84.000
40.53880 108.000
40.55875 91.000
40.57869 100.000
40.59864 99.000
40.61859 124.000
40.63853 114.000
40.65848 93.000
40.67843 109.000
40.69837 93.000
40.71832 117.000
40.73827 117.000
40.75822 133.000
40.77816 117.000
40.79811 115.000
40.81806 124.000
40.83800 116.000
40.85795 135.000
40.87790 117.000
40.89784 132.000
40.91779 127.000
40.93774 129.000
40.95768 154.000
40.97763 152.000
40.99758 152.000
41.01753 159.000
41.03747 167.000
41.05742 192.000
41.07737 224.000
41.09731 207.000
41.11726 249.000
41.13721 257.000
41.15715 287.000
41.17710 342.000
41.19705 337.000
41.21700 436.000
41.23694 547.000
41.25689 770.000
41.27684 1086.000
41.29678 1563.000
41.31673 2143.000
41.33668 2478.000
41.35662 2354.000
41.37657 2123.000
41.39652 1932.000
41.41646 1992.000
41.43641 1886.000
41.45636 1764.000
41.47631 1386.000
41.49625 1143.000
41.51620 848.000
41.53615 641.000
41.55609 571.000
41.57604 416.000
41.59599 350.000
41.61593 308.000
41.63588 266.000
41.65583 219.000
41.67578 208.000
41.69572 204.000
41.71567 189.000
41.73562 141.000
41.75556 167.000
41.77551 152.000
41.79546 128.000
41.81540 133.000
41.83535 151.000
41.85530 157.000
41.87524 130.000
41.89519 119.000
41.91514 130.000
41.93509 141.000
41.95503 121.000
41.97498 118.000
41.99493 115.000
42.01487 135.000
42.03482 130.000
42.05477 135.000
42.07471 120.000
42.09466 116.000
42.11461 120.000
42.13456 113.000
42.15450 116.000
42.17445 122.000
42.19440 119.000
42.21434 119.000
42.23429 133.000
42.25424 98.000
42.27418 95.000
42.29413 109.000
42.31408 106.000
42.33403 107.000
42.35397 113.000
42.37392 111.000
42.39387 115.000
42.41381 104.000
42.43376 83.000
42.45371 97.000
42.47365 87.000
42.49360 103.000
42.51355 99.000
42.53349 86.000
42.55344 100.000
42.57339 90.000
42.59334 97.000
42.61328 95.000
42.63323 107.000
42.65318 100.000
42.67312 86.000
42.69307 90.000
42.71302 103.000
42.73296 97.000
42.75291 105.000
42.77286 82.000
42.79281 95.000
42.81275 112.000
42.83270 121.000
42.85265 100.000
42.87259 101.000
42.89254 86.000
42.91249 87.000
42.93243 103.000
42.95238 100.000
42.97233 88.000
42.99227 111.000
43.01222 100.000
43.03217 103.000
43.05212 103.000
43.07206 86.000
43.09201 101.000
43.11196 115.000
43.13190 100.000
43.15185 111.000
43.17180 97.000
43.19174 109.000
43.21169 87.000
43.23164 89.000
43.25159 106.000
43.27153 86.000
43.29148 96.000
43.31143 92.000
43.33137 81.000
43.35132 88.000
43.37127 88.000
43.39121 84.000
43.41116 98.000
43.43111 97.000
43.45105 81.000
43.47100 97.000
43.49095 104.000
43.51090 102.000
43.53084 84.000
43.55079 89.000
43.57074 96.000
43.59068 101.000
43.61063 87.000
43.63058 89.000
43.65052 86.000
43.67047 81.000
43.69042 82.000
43.71037 88.000
43.73031 68.000
43.75026 80.000
43.77021 107.000
43.79015 103.000
43.81010 87.000
43.83005 95.000
43.84999 94.000
43.86994 98.000
43.88989 77.000
43.90984 76.000
43.92978 75.000
43.94973 70.000
43.96968 91.000
43.98962 85.000
44.00957 90.000
44.02952 95.000
44.04946 96.000
44.06941 73.000
44.08936 75.000
44.10930 84.000
44.12925 90.000
44.14920 100.000
44.16915 84.000
44.18909 88.000
44.20904 88.000
44.22899 108.000
44.24893 87.000
44.26888 88.000
44.28883 77.000
44.30877 81.000
44.32872 91.000
44.34867 66.000
44.36862 75.000
44.38856 75.000
44.40851 72.000
44.42846 110.000
44.44840 109.000
44.46835 91.000
44.48830 90.000
44.50824 88.000
44.52819 101.000
44.54814 94.000
44.56808 97.000
44.58803 113.000
44.60798 90.000
44.62793 114.000
44.64787 136.000
44.66782 132.000
44.68777 166.000
44.70771 167.000
44.72766 198.000
44.74761 183.000
44.76755 127.000
44.78750 132.000
44.80745 133.000
44.82740 121.000
44.84734 127.000
44.86729 113.000
44.88724 108.000
44.90718 89.000
44.92713 98.000
44.94708 108.000
44.96702 88.000
44.98697 90.000
45.00692 74.000
45.02686 78.000
45.04681 86.000
45.06676 103.000
45.08671 101.000
45.10665 87.000
45.12660 93.000
45.14655 102.000
45.16649 102.000
45.18644 88.000
45.20639 90.000
45.22633 91.000
45.24628 103.000
45.26623 82.000
45.28618 93.000
45.30612 98.000
45.32607 116.000
45.34602 83.000
45.36596 95.000
45.38591 84.000
45.40586 83.000
45.42580 90.000
45.44575 84.000
45.46570 84.000
45.48565 76.000
45.50559 78.000
45.52554 94.000
45.54549 86.000
45.56543 76.000
45.58538 76.000
45.60533 99.000
45.62527 83.000
45.64522 93.000
45.66517 79.000
45.68511 69.000
45.70506 76.000
45.72501 84.000
45.74496 92.000
45.76490 84.000
45.78485 98.000
45.80480 90.000
45.82474 79.000
45.84469 71.000
45.86464 83.000
45.88458 91.000
45.90453 100.000
45.92448 72.000
45.94443 70.000
45.96437 80.000
45.98432 76.000
46.00427 85.000
46.02421 67.000
46.04416 85.000
46.06411 84.000
46.08405 89.000
46.10400 71.000
46.12395 92.000
46.14389 87.000
46.16384 89.000
46.18379 82.000
46.20374 96.000
46.22368 91.000
46.24363 87.000
46.26358 98.000
46.28352 82.000
46.30347 93.000
46.32342 97.000
46.34336 81.000
46.36331 107.000
46.38326 76.000
46.40321 89.000
46.42315 80.000
46.44310 81.000
46.46305 91.000
46.48299 89.000
46.50294 80.000
46.52289 83.000
46.54283 89.000
46.56278 90.000
46.58273 83.000
46.60267 89.000
46.62262 77.000
46.64257 87.000
46.66252 82.000
46.68246 88.000
46.70241 77.000
46.72236 98.000
46.74230 85.000
46.76225 90.000
46.78220 82.000
46.80214 81.000
46.82209 78.000
46.84204 90.000
46.86199 85.000
46.88193 104.000
46.90188 89.000
46.92183 62.000
46.94177 92.000
46.96172 81.000
46.98167 85.000
47.00161 90.000
47.02156 90.000
47.04151 94.000
47.06146 85.000
47.08140 86.000
47.10135 95.000
47.12130 77.000
47.14124 96.000
47.16119 76.000
47.18114 80.000
47.20108 78.000
47.22103 83.000
47.24098 76.000
47.26092 78.000
47.28087 82.000
47.30082 62.000
47.32077 78.000
47.34071 98.000
47.36066 82.000
47.38061 91.000
47.40055 79.000
47.42050 81.000
47.44045 78.000
47.46039 98.000
47.48034 88.000
47.50029 95.000
47.52024 84.000
47.54018 72.000
47.56013 87.000
47.58008 83.000
47.60002 94.000
47.61997 79.000
47.63992 84.000
47.65986 93.000
47.67981 82.000
47.69976 81.000
47.71970 62.000
47.73965 72.000
47.75960 86.000
47.77955 79.000
47.79949 90.000
47.81944 76.000
47.83939 100.000
47.85933 106.000
47.87928 87.000
47.89923 101.000
47.91917 105.000
47.93912 121.000
47.95907 106.000
47.97902 92.000
47.99896 104.000
48.01891 108.000
48.03886 109.000
48.05880 107.000
48.07875 94.000
48.09870 94.000
48.11864 103.000
48.13859 119.000
48.15854 108.000
48.17848 104.000
48.19843 100.000
48.21838 106.000
48.23833 108.000
48.25827 92.000
48.27822 96.000
48.29817 102.000
48.31811 100.000
48.33806 100.000
48.35801 103.000
48.37795 125.000
48.39790 111.000
48.41785 118.000
48.43780 137.000
48.45774 121.000
48.47769 150.000
48.49764 98.000
48.51758 122.000
48.53753 129.000
48.55748 129.000
48.57742 137.000
48.59737 136.000
48.61732 148.000
48.63726 155.000
48.65721 181.000
48.67716 182.000
48.69711 180.000
48.71705 191.000
48.73700 179.000
48.75695 170.000
48.77689 176.000
48.79684 143.000
48.81679 176.000
48.83673 146.000
48.85668 144.000
48.87663 149.000
48.89658 129.000
48.91652 127.000
48.93647 108.000
48.95642 112.000
48.97636 122.000
48.99631 138.000
49.01626 111.000
49.03620 116.000
49.05615 115.000
49.07610 119.000
49.09605 104.000
49.11599 115.000
49.13594 115.000
49.15589 94.000
49.17583 101.000
49.19578 132.000
49.21573 113.000
49.23567 80.000
49.25562 114.000
49.27557 87.000
49.29551 112.000
49.31546 114.000
49.33541 97.000
49.35536 113.000
49.37530 103.000
49.39525 99.000
49.41520 97.000
49.43514 89.000
49.45509 93.000
49.47504 107.000
49.49498 95.000
49.51493 85.000
49.53488 85.000
49.55483 94.000
49.57477 100.000
49.59472 97.000
49.61467 82.000
49.63461 84.000
49.65456 93.000
49.67451 86.000
49.69445 80.000
49.71440 98.000
49.73435 74.000
49.75429 104.000
49.77424 87.000
49.79419 82.000
49.81414 91.000
49.83408 88.000
49.85403 99.000
49.87398 102.000
49.89392 87.000
49.91387 86.000
49.93382 102.000
49.95376 88.000
49.97371 82.000
49.99366 96.000
50.01361 84.000
50.03355 74.000
50.05350 76.000
50.07345 91.000
50.09339 77.000
50.11334 97.000
50.13329 80.000
50.15323 85.000
50.17318 93.000
50.19313 96.000
50.21307 95.000
50.23302 82.000
50.25297 89.000
50.27292 87.000
50.29286 78.000
50.31281 92.000
50.33276 94.000
50.35270 110.000
50.37265 85.000
50.39260 93.000
50.41254 86.000
50.43249 97.000
50.45244 99.000
50.47239 75.000
50.49233 80.000
50.51228 84.000
50.53223 77.000
50.55217 96.000
50.57212 90.000
50.59207 98.000
50.61201 107.000
50.63196 97.000
50.65191 81.000
50.67186 86.000
50.69180 76.000
50.71175 78.000
50.73170 98.000
50.75164 96.000
50.77159 79.000
50.79154 85.000
50.81148 95.000
50.83143 104.000
50.85138 93.000
50.87132 91.000
50.89127 102.000
50.91122 94.000
50.93117 80.000
50.95111 77.000
50.97106 102.000
50.99101 95.000
51.01095 116.000
51.03090 94.000
51.05085 97.000
51.07079 88.000
51.09074 85.000
51.11069 89.000
51.13064 90.000
51.15058 86.000
51.17053 91.000
51.19048 108.000
51.21042 71.000
51.23037 81.000
51.25032 79.000
51.27026 91.000
51.29021 96.000
51.31016 92.000
51.33010 96.000
51.35005 73.000
51.37000 83.000
51.38995 88.000
51.40989 65.000
51.42984 85.000
51.44979 86.000
51.46973 77.000
51.48968 72.000
51.50963 74.000
51.52957 81.000
51.54952 92.000
51.56947 95.000
51.58942 96.000
51.60936 85.000
51.62931 82.000
51.64926 82.000
51.66920 92.000
51.68915 106.000
51.70910 89.000
51.72904 71.000
51.74899 91.000
51.76894 91.000
51.78888 78.000
51.80883 61.000
51.82878 86.000
51.84873 91.000
51.86867 100.000
51.88862 83.000
51.90857 104.000
51.92851 98.000
51.94846 83.000
51.96841 88.000
51.98835 85.000
52.00830 106.000
52.02825 106.000
52.04820 91.000
52.06814 89.000
52.08809 111.000
52.10804 94.000
52.12798 84.000
52.14793 98.000
52.16788 93.000
52.18782 106.000
52.20777 89.000
52.22772 104.000
52.24767 85.000
52.26761 101.000
52.28756 101.000
52.30751 109.000
52.32745 89.000
52.34740 87.000
52.36735 91.000
52.38729 88.000
52.40724 95.000
52.42719 95.000
52.44713 95.000
52.46708 93.000
52.48703 91.000
52.50698 96.000
52.52692 105.000
52.54687 87.000
52.56682 114.000
52.58676 109.000
52.60671 114.000
52.62666 110.000
52.64660 121.000
52.66655 135.000
52.68650 147.000
52.70645 150.000
52.72639 150.000
52.74634 183.000
52.76629 189.000
52.78623 225.000
52.80618 263.000
52.82613 307.000
52.84607 360.000
52.86602 408.000
52.88597 512.000
52.90591 473.000
52.92586 375.000
52.94581 292.000
52.96576 237.000
52.98570 252.000
53.00565 280.000
53.02560 281.000
53.04554 279.000
53.06549 216.000
53.08544 175.000
53.10538 144.000
53.12533 126.000
53.14528 103.000
53.16523 109.000
53.18517 97.000
53.20512 120.000
53.22507 118.000
53.24501 105.000
53.26496 91.000
53.28491 114.000
53.30485 108.000
53.32480 98.000
53.34475 98.000
53.36469 94.000
53.38464 118.000
53.40459 115.000
53.42454 113.000
53.44448 103.000
53.46443 119.000
53.48438 103.000
53.50432 110.000
53.52427 118.000
53.54422 94.000
53.56416 89.000
53.58411 100.000
53.60406 100.000
53.62401 114.000
53.64395 111.000
53.66390 99.000
53.68385 101.000
53.70379 93.000
53.72374 86.000
53.74369 92.000
53.76363 114.000
53.78358 112.000
53.80353 83.000
53.82348 84.000
53.84342 91.000
53.86337 97.000
53.88332 93.000
53.90326 94.000
53.92321 87.000
53.94316 98.000
53.96310 89.000
53.98305 90.000
54.00300 96.000
54.02294 90.000
54.04289 84.000
54.06284 95.000
54.08279 87.000
54.10273 89.000
54.12268 96.000
54.14263 92.000
54.16257 80.000
54.18252 76.000
54.20247 93.000
54.22241 76.000
54.24236 69.000
54.26231 106.000
54.28226 91.000
54.30220 85.000
54.32215 95.000
54.34210 67.000
54.36204 90.000
54.38199 77.000
54.40194 84.000
54.42188 85.000
54.44183 85.000
54.46178 78.000
54.48172 91.000
54.50167 85.000
54.52162 79.000
54.54157 76.000
54.56151 91.000
54.58146 89.000
54.60141 101.000
54.62135 81.000
54.64130 67.000
54.66125 67.000
54.68119 80.000
54.70114 86.000
54.72109 81.000
54.74104 86.000
54.76098 91.000
54.78093 92.000
54.80088 67.000
54.82082 98.000
54.84077 96.000
54.86072 81.000
54.88066 89.000
54.90061 106.000
54.92056 88.000
54.94050 79.000
54.96045 68.000
54.98040 67.000
55.00035 96.000
55.02029 97.000
55.04024 96.000
55.06019 91.000
55.08013 93.000
55.10008 92.000
55.12003 90.000
55.13997 80.000
55.15992 70.000
55.17987 87.000
55.19982 68.000
55.21976 107.000
55.23971 91.000
55.25966 83.000
55.27960 84.000
55.29955 94.000
55.31950 85.000
55.33944 120.000
55.35939 89.000
55.37934 90.000
55.39929 90.000
55.41923 83.000
55.43918 97.000
55.45913 107.000
55.47907 106.000
55.49902 79.000
55.51897 89.000
55.53891 104.000
55.55886 100.000
55.57881 93.000
55.59875 75.000
55.61870 81.000
55.63865 85.000
55.65860 84.000
55.67854 85.000
55.69849 76.000
55.71844 102.000
55.73838 103.000
55.75833 96.000
55.77828 98.000
55.79822 89.000
55.81817 92.000
55.83812 96.000
55.85807 92.000
55.87801 98.000
55.89796 84.000
55.91791 97.000
55.93785 100.000
55.95780 97.000
55.97775 75.000
55.99769 101.000
56.01764 84.000
56.03759 93.000
56.05753 92.000
56.07748 93.000
56.09743 97.000
56.11738 97.000
56.13732 101.000
56.15727 87.000
56.17722 102.000
56.19716 90.000
56.21711 88.000
56.23706 76.000
56.25700 103.000
56.27695 84.000
56.29690 98.000
56.31685 83.000
56.33679 100.000
56.35674 92.000
56.37669 85.000
56.39663 95.000
56.41658 80.000
56.43653 83.000
56.45647 71.000
56.47642 75.000
56.49637 71.000
56.51631 99.000
56.53626 85.000
56.55621 97.000
56.57616 80.000
56.59610 84.000
56.61605 90.000
56.63600 86.000
56.65594 88.000
56.67589 105.000
56.69584 99.000
56.71578 95.000
56.73573 107.000
56.75568 101.000
56.77563 102.000
56.79557 97.000
56.81552 105.000
56.83547 97.000
56.85541 96.000
56.87536 96.000
56.89531 86.000
56.91525 106.000
56.93520 81.000
56.95515 107.000
56.97510 96.000
56.99504 90.000
57.01499 94.000
57.03494 99.000
57.05488 107.000
57.07483 103.000
57.09478 117.000
57.11472 119.000
57.13467 106.000
57.15462 113.000
57.17456 121.000
57.19451 129.000
57.21446 161.000
57.23441 130.000
57.25435 134.000
57.27430 158.000
57.29425 163.000
57.31419 192.000
57.33414 202.000
57.35409 212.000
57.37403 217.000
57.39398 214.000
57.41393 232.000
57.43388 288.000
57.45382 354.000
57.47377 357.000
57.49372 400.000
57.51366 477.000
57.53361 572.000
57.55356 582.000
57.57350 653.000
57.59345 627.000
57.61340 555.000
57.63334 419.000
57.65329 372.000
57.67324 337.000
57.69319 348.000
57.71313 341.000
57.73308 363.000
57.75303 349.000
57.77297 297.000
57.79292 227.000
57.81287 189.000
57.83281 146.000
57.85276 131.000
57.87271 140.000
57.89266 131.000
57.91260 96.000
57.93255 129.000
57.95250 117.000
57.97244 117.000
57.99239 106.000
58.01234 95.000
58.03228 96.000
58.05223 100.000
58.07218 108.000
58.09212 113.000
58.11207 96.000
58.13202 110.000
58.15197 87.000
58.17191 96.000
58.19186 125.000
58.21181 110.000
58.23175 109.000
58.25170 123.000
58.27165 131.000
58.29159 132.000
58.31154 114.000
58.33149 136.000
58.35144 116.000
58.37138 137.000
58.39133 135.000
58.41128 126.000
58.43122 113.000
58.45117 103.000
58.47112 114.000
58.49106 126.000
58.51101 122.000
58.53096 117.000
58.55090 113.000
58.57085 99.000
58.59080 105.000
58.61075 90.000
58.63069 96.000
58.65064 96.000
58.67059 104.000
58.69053 94.000
58.71048 71.000
58.73043 86.000
58.75037 87.000
58.77032 65.000
58.79027 105.000
58.81022 96.000
58.83016 97.000
58.85011 100.000
58.87006 81.000
58.89000 87.000
58.90995 87.000
58.92990 77.000
58.94984 94.000
58.96979 88.000
58.98974 93.000
59.00969 91.000
59.02963 93.000
59.04958 88.000
59.06953 90.000
59.08947 82.000
59.10942 83.000
59.12937 92.000
59.14931 97.000
59.16926 97.000
59.18921 77.000
59.20915 93.000
59.22910 98.000
59.24905 86.000
59.26900 96.000
59.28894 76.000
59.30889 82.000
59.32884 94.000
59.34878 89.000
59.36873 86.000
59.38868 86.000
59.40862 78.000
59.42857 81.000
59.44852 85.000
59.46847 95.000
59.48841 94.000
59.50836 79.000
59.52831 95.000
59.54825 78.000
59.56820 89.000
59.58815 91.000
59.60809 62.000
59.62804 92.000
59.64799 85.000
59.66793 92.000
59.68788 89.000
59.70783 106.000
59.72778 95.000
59.74772 90.000
59.76767 87.000
59.78762 100.000
59.80756 89.000
59.82751 82.000
59.84746 83.000
59.86740 97.000
59.88735 108.000
59.90730 88.000
59.92725 102.000
59.94719 96.000
59.96714 100.000
59.98709 109.000
60.00703 94.000
60.02698 118.000
60.04693 106.000
60.06687 125.000
60.08682 136.000
60.10677 125.000
60.12671 113.000
60.14666 107.000
60.16661 104.000
60.18656 128.000
60.20650 101.000
60.22645 115.000
60.24640 113.000
60.26634 107.000
60.28629 105.000
60.30624 106.000
60.32618 103.000
60.34613 105.000
60.36608 94.000
60.38603 110.000
60.40597 104.000
60.42592 108.000
60.44587 125.000
60.46581 130.000
60.48576 117.000
60.50571 90.000
60.52565 99.000
60.54560 102.000
60.56555 115.000
60.58550 120.000
60.60544 95.000
60.62539 137.000
60.64534 114.000
60.66528 107.000
60.68523 114.000
60.70518 120.000
60.72512 113.000
60.74507 117.000
60.76502 115.000
60.78496 108.000
60.80491 123.000
60.82486 123.000
60.84481 120.000
60.86475 111.000
60.88470 114.000
60.90465 129.000
60.92459 130.000
60.94454 123.000
60.96449 112.000
60.98443 117.000
61.00438 122.000
61.02433 108.000
61.04428 117.000
61.06422 115.000
61.08417 117.000
61.10412 134.000
61.12406 124.000
61.14401 124.000
61.16396 122.000
61.18390 143.000
61.20385 125.000
61.22380 133.000
61.24374 110.000
61.26369 139.000
61.28364 130.000
61.30359 145.000
61.32353 151.000
61.34348 129.000
61.36343 164.000
61.38337 164.000
61.40332 131.000
61.42327 143.000
61.44321 200.000
61.46316 189.000
61.48311 192.000
61.50306 185.000
61.52300 207.000
61.54295 174.000
61.56290 180.000
61.58284 166.000
61.60279 191.000
61.62274 164.000
61.64268 162.000
61.66263 152.000
61.68258 183.000
61.70252 146.000
61.72247 157.000
61.74242 148.000
61.76237 159.000
61.78231 126.000
61.80226 175.000
61.82221 127.000
61.84215 150.000
61.86210 119.000
61.88205 126.000
61.90199 169.000
61.92194 150.000
61.94189 139.000
61.96184 154.000
61.98178 191.000
62.00173 195.000
62.02168 231.000
62.04162 274.000
62.06157 259.000
62.08152 266.000
62.10146 278.000
62.12141 283.000
62.14136 313.000
62.16131 282.000
62.18125 311.000
62.20120 281.000
62.22115 319.000
62.24109 335.000
62.26104 297.000
62.28099 322.000
62.30093 306.000
62.32088 294.000
62.34083 275.000
62.36077 296.000
62.38072 265.000
62.40067 263.000
62.42062 258.000
62.44056 209.000
62.46051 220.000
62.48046 173.000
62.50040 190.000
62.52035 183.000
62.54030 182.000
62.56024 167.000
62.58019 168.000
62.60014 160.000
62.62009 182.000
62.64003 183.000
62.65998 140.000
62.67993 167.000
62.69987 155.000
62.71982 121.000
62.73977 133.000
62.75971 128.000
62.77966 140.000
62.79961 137.000
62.81955 132.000
62.83950 127.000
62.85945 143.000
62.87940 110.000
62.89934 107.000
62.91929 115.000
62.93924 119.000
62.95918 117.000
62.97913 108.000
62.99908 104.000
63.01902 102.000
63.03897 82.000
63.05892 98.000
63.07887 99.000
63.09881 85.000
63.11876 93.000
63.13871 100.000
63.15865 98.000
63.17860 92.000
63.19855 96.000
63.21849 95.000
63.23844 86.000
63.25839 95.000
63.27833 91.000
63.29828 98.000
63.31823 80.000
63.33818 77.000
63.35812 104.000
63.37807 81.000
63.39802 105.000
63.41796 102.000
63.43791 81.000
63.45786 82.000
63.47780 91.000
63.49775 103.000
63.51770 102.000
63.53765 95.000
63.55759 93.000
63.57754 88.000
63.59749 75.000
63.61743 73.000
63.63738 80.000
63.65733 74.000
63.67727 90.000
63.69722 101.000
63.71717 88.000
63.73712 87.000
63.75706 87.000
63.77701 105.000
63.79696 100.000
63.81690 83.000
63.83685 96.000
63.85680 85.000
63.87674 82.000
63.89669 87.000
63.91664 86.000
63.93658 92.000
63.95653 98.000
63.97648 87.000
63.99643 110.000
64.01637 78.000
64.03632 77.000
64.05627 105.000
64.07621 87.000
64.09616 90.000
64.11611 93.000
64.13605 93.000
64.15600 81.000
64.17595 92.000
64.19590 98.000
64.21584 100.000
64.23579 106.000
64.25574 88.000
64.27568 92.000
64.29563 87.000
64.31558 108.000
64.33552 90.000
64.35547 117.000
64.37542 103.000
64.39536 96.000
64.41531 92.000
64.43526 103.000
64.45521 98.000
64.47515 126.000
64.49510 99.000
64.51505 109.000
64.53499 102.000
64.55494 114.000
64.57489 137.000
64.59483 124.000
64.61478 124.000
64.63473 162.000
64.65468 153.000
64.67462 164.000
64.69457 158.000
64.71452 185.000
64.73446 177.000
64.75441 202.000
64.77436 179.000
64.79430 174.000
64.81425 201.000
64.83420 187.000
64.85414 178.000
64.87409 170.000
64.89404 182.000
64.91399 182.000
64.93393 171.000
64.95388 159.000
64.97383 175.000
64.99377 155.000
65.01372 148.000
65.03367 160.000
65.05361 129.000
65.07356 126.000
65.09351 136.000
65.11346 138.000
65.13340 156.000
65.15335 131.000
65.17330 156.000
65.19324 121.000
65.21319 141.000
65.23314 151.000
65.25308 117.000
65.27303 128.000
65.29298 119.000
65.31293 103.000
65.33287 140.000
65.35282 104.000
65.37277 122.000
65.39271 94.000
65.41266 107.000
65.43261 120.000
65.45255 108.000
65.47250 115.000
65.49245 92.000
65.51239 107.000
65.53234 112.000
65.55229 108.000
65.57224 98.000
65.59218 113.000
65.61213 128.000
65.63208 110.000
65.65202 119.000
65.67197 97.000
65.69192 133.000
65.71186 117.000
65.73181 95.000
65.75176 120.000
65.77171 134.000
65.79165 123.000
65.81160 128.000
65.83155 145.000
65.85149 129.000
65.87144 119.000
65.89139 121.000
65.91133 119.000
65.93128 139.000
65.95123 130.000
65.97117 119.000
65.99112 118.000
66.01107 97.000
66.03102 117.000
66.05096 110.000
66.07091 125.000
66.09086 126.000
66.11080 135.000
66.13075 133.000
66.15070 137.000
66.17064 137.000
66.19059 136.000
66.21054 150.000
66.23049 129.000
66.25043 128.000
66.27038 116.000
66.29033 107.000
66.31027 115.000
66.33022 114.000
66.35017 123.000
66.37011 117.000
66.39006 111.000
66.41001 133.000
66.42995 105.000
66.44990 108.000
66.46985 116.000
66.48980 106.000
66.50974 89.000
66.52969 82.000
66.54964 100.000
66.56958 106.000
66.58953 107.000
66.60948 92.000
66.62942 92.000
66.64937 92.000
66.66932 81.000
66.68927 72.000
66.70921 85.000
66.72916 91.000
66.74911 91.000
66.76905 87.000
66.78900 90.000
66.80895 91.000
66.82889 92.000
66.84884 68.000
66.86879 91.000
66.88874 83.000
66.90868 105.000
66.92863 108.000
66.94858 98.000
66.96852 88.000
66.98847 78.000
67.00842 85.000
67.02836 91.000
67.04831 110.000
67.06826 87.000
67.08820 89.000
67.10815 76.000
67.12810 83.000
67.14805 97.000
67.16799 79.000
67.18794 79.000
67.20789 82.000
67.22783 91.000
67.24778 88.000
67.26773 81.000
67.28767 84.000
67.30762 87.000
67.32757 84.000
67.34752 107.000
67.36746 112.000
67.38741 78.000
67.40736 87.000
67.42730 89.000
67.44725 98.000
67.46720 97.000
67.48714 111.000
67.50709 93.000
67.52704 105.000
67.54698 110.000
67.56693 117.000
67.58688 110.000
67.60683 115.000
67.62677 118.000
67.64672 123.000
67.66667 120.000
67.68661 118.000
67.70656 157.000
67.72651 112.000
67.74645 131.000
67.76640 137.000
67.78635 137.000
67.80630 148.000
67.82624 148.000
67.84619 167.000
67.86614 173.000
67.88608 187.000
67.90603 185.000
67.92598 205.000
67.94592 189.000
67.96587 177.000
67.98582 194.000
68.00576 208.000
68.02571 200.000
68.04566 193.000
68.06561 178.000
68.08555 193.000
68.10550 190.000
68.12545 184.000
68.14539 170.000
68.16534 157.000
68.18529 169.000
68.20523 147.000
68.22518 157.000
68.24513 121.000
68.26508 138.000
68.28502 137.000
68.30497 105.000
68.32492 131.000
68.34486 129.000
68.36481 108.000
68.38476 130.000
68.40470 103.000
68.42465 97.000
68.44460 94.000
68.46455 98.000
68.48449 85.000
68.50444 97.000
68.52439 99.000
68.54433 103.000
68.56428 95.000
68.58423 77.000
68.60417 84.000
68.62412 90.000
68.64407 86.000
68.66401 101.000
68.68396 97.000
68.70391 96.000
68.72386 87.000
68.74380 87.000
68.76375 95.000
68.78370 82.000
68.80364 82.000
68.82359 101.000
68.84354 88.000
68.86348 119.000
68.88343 115.000
68.90338 110.000
68.92333 112.000
68.94327 97.000
68.96322 102.000
68.98317 105.000
69.00311 134.000
69.02306 107.000
69.04301 103.000
69.06295 125.000
69.08290 119.000
69.10285 99.000
69.12279 118.000
69.14274 124.000
69.16269 125.000
69.18264 115.000
69.20258 136.000
69.22253 110.000
69.24248 139.000
69.26242 120.000
69.28237 120.000
69.30232 139.000
69.32226 115.000
69.34221 118.000
69.36216 104.000
69.38211 105.000
69.40205 103.000
69.42200 80.000
69.44195 101.000
69.46189 84.000
69.48184 103.000
69.50179 76.000
69.52173 87.000
69.54168 105.000
69.56163 99.000
69.58157 84.000
69.60152 99.000
69.62147 81.000
69.64142 93.000
69.66136 79.000
69.68131 80.000
69.70126 80.000
69.72120 83.000
69.74115 74.000
69.76110 68.000
69.78104 77.000
69.80099 73.000
69.82094 89.000
69.84089 88.000
69.86083 75.000
69.88078 80.000
69.90073 81.000
69.92067 74.000
69.94062 72.000
69.96057 81.000
69.98051 97.000
70.00046 68.000
70.02041 73.000
70.04035 76.000
70.06030 78.000
70.08025 79.000
70.10020 68.000
70.12014 85.000
70.14009 75.000
70.16004 72.000
70.17998 80.000
70.19993 85.000
70.21988 70.000
70.23982 79.000
70.25977 72.000
70.27972 78.000
70.29967 70.000
70.31961 87.000
70.33956 84.000
70.35951 75.000
70.37945 69.000
70.39940 88.000
70.41935 77.000
70.43929 83.000
70.45924 85.000
70.47919 77.000
70.49914 72.000
70.51908 69.000
70.53903 66.000
70.55898 75.000
70.57892 80.000
70.59887 91.000
70.61882 76.000
70.63876 72.000
70.65871 85.000
70.67866 73.000
70.69860 78.000
70.71855 77.000
70.73850 88.000
70.75845 87.000
70.77839 82.000
70.79834 71.000
70.81829 79.000
70.83823 84.000
70.85818 74.000
70.87813 84.000
70.89807 116.000
70.91802 81.000
70.93797 93.000
70.95792 68.000
70.97786 90.000
70.99781 88.000
71.01776 64.000
71.03770 81.000
71.05765 79.000
71.07760 73.000
71.09754 72.000
71.11749 76.000
71.13744 62.000
71.15738 63.000
71.17733 89.000
71.19728 80.000
71.21723 93.000
71.23717 77.000
71.25712 80.000
71.27707 84.000
71.29701 81.000
71.31696 65.000
71.33691 83.000
71.35685 100.000
71.37680 80.000
71.39675 76.000
71.41670 82.000
71.43664 79.000
71.45659 80.000
71.47654 87.000
71.49648 86.000
71.51643 98.000
71.53638 86.000
71.55632 79.000
71.57627 97.000
71.59622 84.000
71.61616 91.000
71.63611 102.000
71.65606 65.000
71.67601 88.000
71.69595 76.000
71.71590 86.000
71.73585 86.000
71.75579 116.000
71.77574 88.000
71.79569 78.000
71.81563 90.000
71.83558 104.000
71.85553 107.000
71.87548 101.000
71.89542 91.000
71.91537 112.000
71.93532 106.000
71.95526 85.000
71.97521 118.000
71.99516 128.000
72.01510 122.000
72.03505 102.000
72.05500 145.000
72.07495 146.000
72.09489 156.000
72.11484 156.000
72.13479 174.000
72.15473 161.000
72.17468 168.000
72.19463 176.000
72.21457 184.000
72.23452 213.000
72.25447 167.000
72.27441 188.000
72.29436 185.000
72.31431 187.000
72.33426 177.000
72.35420 182.000
72.37415 176.000
72.39410 165.000
72.41404 185.000
72.43399 155.000
72.45394 141.000
72.47388 168.000
72.49383 153.000
72.51378 125.000
72.53373 116.000
72.55367 115.000
72.57362 117.000
72.59357 125.000
72.61351 104.000
72.63346 99.000
72.65341 125.000
72.67335 101.000
72.69330 100.000
72.71325 112.000
72.73319 102.000
72.75314 107.000
72.77309 108.000
72.79304 102.000
72.81298 94.000
72.83293 85.000
72.85288 87.000
72.87282 69.000
72.89277 101.000
72.91272 77.000
72.93266 84.000
72.95261 94.000
72.97256 98.000
72.99251 88.000
73.01245 89.000
73.03240 81.000
73.05235 112.000
73.07229 91.000
73.09224 103.000
73.11219 98.000
73.13213 103.000
73.15208 89.000
73.17203 109.000
73.19197 109.000
73.21192 100.000
73.23187 99.000
73.25182 112.000
73.27176 94.000
73.29171 129.000
73.31166 111.000
73.33160 113.000
73.35155 101.000
73.37150 107.000
73.39144 110.000
73.41139 117.000
73.43134 124.000
73.45129 126.000
73.47123 120.000
73.49118 124.000
73.51113 152.000
73.53107 135.000
73.55102 126.000
73.57097 146.000
73.59091 157.000
73.61086 164.000
73.63081 133.000
73.65076 154.000
73.67070 159.000
73.69065 149.000
73.71060 118.000
73.73054 138.000
73.75049 143.000
73.77044 139.000
73.79038 131.000
73.81033 137.000
73.83028 129.000
73.85022 104.000
73.87017 126.000
73.89012 124.000
73.91007 118.000
73.93001 92.000
73.94996 115.000
73.96991 110.000
73.98985 107.000
74.00980 94.000
74.02975 98.000
74.04969 99.000
74.06964 95.000
74.08959 114.000
74.10954 102.000
74.12948 104.000
74.14943 87.000
74.16938 89.000
74.18932 102.000
74.20927 119.000
74.22922 95.000
74.24916 108.000
74.26911 120.000
74.28906 116.000
74.30900 100.000
74.32895 116.000
74.34890 107.000
74.36885 101.000
74.38879 110.000
74.40874 94.000
74.42869 103.000
74.44863 104.000
74.46858 123.000
74.48853 113.000
74.50847 94.000
74.52842 105.000
74.54837 91.000
74.56832 91.000
74.58826 89.000
74.60821 92.000
74.62816 91.000
74.64810 89.000
74.66805 91.000
74.68800 88.000
74.70794 82.000
74.72789 101.000
74.74784 82.000
74.76778 86.000
74.78773 66.000
74.80768 86.000
74.82763 97.000
74.84757 90.000
74.86752 103.000
74.88747 97.000
74.90741 86.000
74.92736 91.000
74.94731 90.000
74.96725 89.000
74.98720 100.000
75.00715 101.000
75.02710 105.000
75.04704 99.000
75.06699 98.000
75.08694 98.000
75.10688 94.000
75.12683 84.000
75.14678 91.000
75.16672 97.000
75.18667 88.000
75.20662 93.000
75.22657 101.000
75.24651 90.000
75.26646 101.000
75.28641 86.000
75.30635 93.000
75.32630 88.000
75.34625 95.000
75.36619 81.000
75.38614 94.000
75.40609 73.000
75.42603 104.000
75.44598 78.000
75.46593 83.000
75.48588 78.000
75.50582 79.000
75.52577 72.000
75.54572 91.000
75.56566 77.000
75.58561 93.000
75.60556 88.000
75.62550 81.000
75.64545 89.000
75.66540 72.000
75.68535 89.000
75.70529 72.000
75.72524 75.000
75.74519 83.000
75.76513 78.000
75.78508 87.000
75.80503 79.000
75.82497 74.000
75.84492 66.000
75.86487 95.000
75.88481 63.000
75.90476 71.000
75.92471 81.000
75.94466 82.000
75.96460 87.000
75.98455 85.000
76.00450 69.000
76.02444 67.000
76.04439 61.000
76.06434 71.000
76.08428 67.000
76.10423 82.000
76.12418 69.000
76.14413 89.000
76.16407 63.000
76.18402 56.000
76.20397 76.000
76.22391 99.000
76.24386 78.000
76.26381 81.000
76.28375 74.000
76.30370 99.000
76.32365 80.000
76.34359 83.000
76.36354 78.000
76.38349 72.000
76.40344 80.000
76.42338 78.000
76.44333 97.000
76.46328 72.000
76.48322 75.000
76.50317 61.000
76.52312 68.000
76.54306 67.000
76.56301 62.000
76.58296 77.000
76.60291 70.000
76.62285 84.000
76.64280 74.000
76.66275 76.000
76.68269 81.000
76.70264 76.000
76.72259 76.000
76.74253 72.000
76.76248 81.000
76.78243 83.000
76.80238 91.000
76.82232 83.000
76.84227 57.000
76.86222 88.000
76.88216 80.000
76.90211 87.000
76.92206 73.000
76.94200 82.000
76.96195 91.000
76.98190 94.000
77.00184 92.000
77.02179 87.000
77.04174 90.000
77.06169 83.000
77.08163 91.000
77.10158 120.000
77.12153 98.000
77.14147 98.000
77.16142 95.000
77.18137 107.000
77.20131 95.000
77.22126 111.000
77.24121 111.000
77.26116 107.000
77.28110 132.000
77.30105 141.000
77.32100 118.000
77.34094 121.000
77.36089 158.000
77.38084 140.000
77.40078 137.000
77.42073 155.000
77.44068 157.000
77.46062 160.000
77.48057 141.000
77.50052 144.000
77.52047 154.000
77.54041 146.000
77.56036 164.000
77.58031 141.000
77.60025 137.000
77.62020 146.000
77.64015 143.000
77.66009 136.000
77.68004 139.000
77.69999 116.000
77.71994 115.000
77.73988 133.000
77.75983 123.000
77.77978 121.000
77.79972 131.000
77.81967 129.000
77.83962 119.000
77.85956 112.000
77.87951 111.000
77.89946 108.000
77.91940 88.000
77.93935 105.000
77.95930 125.000
77.97925 101.000
77.99919 90.000
78.01914 93.000
78.03909 87.000
78.05903 95.000
78.07898 91.000
78.09893 94.000
78.11887 70.000
78.13882 89.000
78.15877 87.000
78.17872 77.000
78.19866 76.000
78.21861 81.000
78.23856 87.000
78.25850 82.000
78.27845 89.000
78.29840 98.000
78.31834 67.000
78.33829 101.000
78.35824 85.000
78.37819 53.000
78.39813 82.000
78.41808 90.000
78.43803 81.000
78.45797 70.000
78.47792 82.000
78.49787 79.000
78.51781 76.000
78.53776 82.000
78.55771 81.000
78.57765 69.000
78.59760 87.000
78.61755 88.000
78.63750 88.000
78.65744 79.000
78.67739 82.000
78.69734 69.000
78.71728 82.000
78.73723 77.000
78.75718 92.000
78.77712 62.000
78.79707 77.000
78.81702 76.000
78.83697 61.000
78.85691 79.000
78.87686 68.000
78.89681 79.000
78.91675 79.000
78.93670 77.000
78.95665 62.000
78.97659 58.000
78.99654 69.000
79.01649 65.000
79.03643 91.000
79.05638 67.000
79.07633 85.000
79.09628 76.000
79.11622 65.000
79.13617 76.000
79.15612 85.000
79.17606 79.000
79.19601 94.000
79.21596 76.000
79.23590 71.000
79.25585 76.000
79.27580 80.000
79.29575 88.000
79.31569 89.000
79.33564 73.000
79.35559 76.000
79.37553 56.000
79.39548 92.000
79.41543 63.000
79.43537 85.000
79.45532 80.000
79.47527 68.000
79.49521 84.000
79.51516 76.000
79.53511 57.000
79.55506 71.000
79.57500 98.000
79.59495 93.000
79.61490 81.000
79.63484 76.000
79.65479 82.000
79.67474 77.000
79.69468 82.000
79.71463 84.000
79.73458 80.000
79.75453 78.000
79.77447 85.000
79.79442 101.000
79.81437 66.000
79.83431 67.000
79.85426 83.000
79.87421 65.000
79.89415 93.000
79.91410 90.000
79.93405 89.000
79.95399 70.000
79.97394 79.000
79.99389 72.000
80.01384 77.000
80.03378 72.000
80.05373 76.000
80.07368 83.000
80.09362 79.000
80.11357 92.000
80.13352 79.000
80.15346 82.000
80.17341 82.000
80.19336 86.000
80.21331 81.000
80.23325 72.000
80.25320 70.000
80.27315 74.000
80.29309 74.000
80.31304 79.000
80.33299 79.000
80.35293 87.000
80.37288 76.000
80.39283 67.000
80.41278 74.000
80.43272 73.000
80.45267 83.000
80.47262 70.000
80.49256 97.000
80.51251 93.000
80.53246 93.000
80.55240 73.000
80.57235 83.000
80.59230 67.000
80.61224 62.000
80.63219 77.000
80.65214 64.000
80.67209 68.000
80.69203 77.000
80.71198 74.000
80.73193 66.000
80.75187 69.000
80.77182 83.000
80.79177 83.000
80.81171 86.000
80.83166 73.000
80.85161 80.000
80.87156 87.000
80.89150 78.000
80.91145 76.000
80.93140 79.000
80.95134 72.000
80.97129 73.000
80.99124 73.000
81.01118 65.000
81.03113 79.000
81.05108 86.000
81.07102 69.000
81.09097 66.000
81.11092 75.000
81.13087 62.000
81.15081 80.000
81.17076 71.000
81.19071 79.000
81.21065 71.000
81.23060 76.000
81.25055 84.000
81.27049 84.000
81.29044 78.000
81.31039 90.000
81.33034 65.000
81.35028 70.000
81.37023 79.000
81.39018 71.000
81.41012 76.000
81.43007 69.000
81.45002 84.000
81.46996 73.000
81.48991 72.000
81.50986 64.000
81.52980 67.000
81.54975 82.000
81.56970 74.000
81.58965 84.000
81.60959 71.000
81.62954 85.000
81.64949 74.000
81.66943 68.000
81.68938 70.000
81.70933 71.000
81.72927 79.000
81.74922 72.000
81.76917 84.000
81.78912 74.000
81.80906 75.000
81.82901 77.000
81.84896 70.000
81.86890 78.000
81.88885 72.000
81.90880 88.000
81.92874 60.000
81.94869 75.000
81.96864 84.000
81.98859 80.000
82.00853 73.000
82.02848 79.000
82.04843 71.000
82.06837 62.000
82.08832 72.000
82.10827 85.000
82.12821 86.000
82.14816 71.000
82.16811 69.000
82.18805 77.000
82.20800 97.000
82.22795 98.000
82.24790 87.000
82.26784 81.000
82.28779 102.000
82.30774 91.000
82.32768 92.000
82.34763 86.000
82.36758 70.000
82.38752 82.000
82.40747 97.000
82.42742 96.000
82.44737 86.000
82.46731 94.000
82.48726 77.000
82.50721 94.000
82.52715 98.000
82.54710 87.000
82.56705 88.000
82.58699 85.000
82.60694 101.000
82.62689 78.000
82.64683 78.000
82.66678 89.000
82.68673 63.000
82.70668 77.000
82.72662 79.000
82.74657 66.000
82.76652 66.000
82.78646 91.000
82.80641 74.000
82.82636 74.000
82.84630 74.000
82.86625 82.000
82.88620 94.000
82.90615 88.000
82.92609 62.000
82.94604 87.000
82.96599 71.000
82.98593 97.000
83.00588 81.000
83.02583 95.000
83.04577 72.000
83.06572 63.000
83.08567 83.000
83.10561 81.000
83.12556 72.000
83.14551 85.000
83.16546 92.000
83.18540 70.000
83.20535 79.000
83.22530 89.000
83.24524 78.000
83.26519 75.000
83.28514 89.000
83.30508 75.000
83.32503 89.000
83.34498 86.000
83.36493 81.000
83.38487 91.000
83.40482 80.000
83.42477 82.000
83.44471 84.000
83.46466 97.000
83.48461 74.000
83.50455 83.000
83.52450 65.000
83.54445 77.000
83.56440 74.000
83.58434 92.000
83.60429 77.000
83.62424 89.000
83.64418 80.000
83.66413 98.000
83.68408 85.000
83.70402 96.000
83.72397 101.000
83.74392 81.000
83.76386 91.000
83.78381 80.000
83.80376 88.000
83.82371 92.000
83.84365 81.000
83.86360 83.000
83.88355 75.000
83.90349 77.000
83.92344 78.000
83.94339 95.000
83.96333 96.000
83.98328 91.000
84.00323 87.000
84.02318 85.000
84.04312 82.000
84.06307 77.000
84.08302 77.000
84.10296 78.000
84.12291 72.000
84.14286 87.000
84.16280 72.000
84.18275 83.000
84.20270 76.000
84.22264 82.000
84.24259 103.000
84.26254 85.000
84.28249 69.000
84.30243 87.000
84.32238 73.000
84.34233 71.000
84.36227 83.000
84.38222 87.000
84.40217 92.000
84.42211 76.000
84.44206 87.000
84.46201 69.000
84.48196 76.000
84.50190 72.000
84.52185 88.000
84.54180 84.000
84.56174 69.000
84.58169 77.000
84.60164 76.000
84.62158 80.000
84.64153 66.000
84.66148 72.000
84.68142 79.000
84.70137 77.000
84.72132 78.000
84.74127 73.000
84.76121 78.000
84.78116 86.000
84.80111 80.000
84.82105 69.000
84.84100 62.000
84.86095 88.000
84.88089 86.000
84.90084 71.000
84.92079 75.000
84.94074 73.000
84.96068 74.000
84.98063 72.000
85.00058 80.000
85.02052 70.000
85.04047 83.000
85.06042 65.000
85.08036 70.000
85.10031 84.000
85.12026 84.000
85.14021 65.000
85.16015 70.000
85.18010 69.000
85.20005 91.000
85.21999 73.000
85.23994 84.000
85.25989 63.000
85.27983 66.000
85.29978 69.000
85.31973 80.000
85.33967 75.000
85.35962 67.000
85.37957 69.000
85.39952 96.000
85.41946 69.000
85.43941 79.000
85.45936 87.000
85.47930 89.000
85.49925 60.000
85.51920 61.000
85.53914 83.000
85.55909 88.000
85.57904 74.000
85.59899 64.000
85.61893 71.000
85.63888 68.000
85.65883 90.000
85.67877 75.000
85.69872 104.000
85.71867 93.000
85.73861 82.000
85.75856 86.000
85.77851 87.000
85.79845 80.000
85.81840 80.000
85.83835 73.000
85.85830 86.000
85.87824 85.000
85.89819 115.000
85.91814 98.000
85.93808 105.000
85.95803 79.000
85.97798 114.000
85.99792 103.000
86.01787 97.000
86.03782 86.000
86.05777 106.000
86.07771 94.000
86.09766 95.000
86.11761 114.000
86.13755 91.000
86.15750 106.000
86.17745 91.000
86.19739 100.000
86.21734 78.000
86.23729 94.000
86.25723 109.000
86.27718 96.000
86.29713 94.000
86.31708 102.000
86.33702 86.000
86.35697 86.000
86.37692 89.000
86.39686 97.000
86.41681 81.000
86.43676 96.000
86.45670 91.000
86.47665 80.000
86.49660 83.000
86.51655 90.000
86.53649 88.000
86.55644 83.000
86.57639 71.000
86.59633 84.000
86.61628 72.000
86.63623 80.000
86.65617 80.000
86.67612 72.000
86.69607 71.000
86.71602 81.000
86.73596 78.000
86.75591 85.000
86.77586 73.000
86.79580 75.000
86.81575 68.000
86.83570 84.000
86.85564 78.000
86.87559 83.000
86.89554 82.000
86.91548 102.000
86.93543 61.000
86.95538 72.000
86.97533 82.000
86.99527 68.000
87.01522 73.000
87.03517 75.000
87.05511 80.000
87.07506 56.000
87.09501 68.000
87.11495 73.000
87.13490 65.000
87.15485 79.000
87.17480 81.000
87.19474 80.000
87.21469 74.000
87.23464 77.000
87.25458 90.000
87.27453 76.000
87.29448 76.000
87.31442 81.000
87.33437 66.000
87.35432 74.000
87.37426 73.000
87.39421 82.000
87.41416 90.000
87.43411 74.000
87.45405 87.000
87.47400 80.000
87.49395 75.000
87.51389 72.000
87.53384 67.000
87.55379 82.000
87.57373 92.000
87.59368 95.000
87.61363 87.000
87.63358 91.000
87.65352 85.000
87.67347 65.000
87.69342 87.000
87.71336 85.000
87.73331 74.000
87.75326 71.000
87.77320 82.000
87.79315 87.000
87.81310 71.000
87.83304 71.000
87.85299 78.000
87.87294 72.000
87.89289 63.000
87.91283 59.000
87.93278 87.000
87.95273 72.000
87.97267 68.000
87.99262 77.000
88.01257 77.000
88.03251 67.000
88.05246 85.000
88.07241 95.000
88.09236 87.000
88.11230 61.000
88.13225 75.000
88.15220 76.000
88.17214 80.000
88.19209 60.000
88.21204 63.000
88.23198 79.000
88.25193 75.000
88.27188 87.000
88.29183 86.000
88.31177 86.000
88.33172 71.000
88.35167 72.000
88.37161 79.000
88.39156 68.000
88.41151 82.000
88.43145 70.000
88.45140 75.000
88.47135 74.000
88.49129 69.000
88.51124 73.000
88.53119 72.000
88.55114 87.000
88.57108 80.000
88.59103 83.000
88.61098 93.000
88.63092 59.000
88.65087 69.000
88.67082 74.000
88.69076 74.000
88.71071 86.000
88.73066 72.000
88.75061 67.000
88.77055 75.000
88.79050 72.000
88.81045 78.000
88.83039 88.000
88.85034 88.000
88.87029 73.000
88.89023 67.000
88.91018 74.000
88.93013 70.000
88.95007 87.000
88.97002 61.000
88.98997 89.000
89.00992 80.000
89.02986 73.000
89.04981 64.000
89.06976 72.000
89.08970 69.000
89.10965 70.000
89.12960 78.000
89.14954 80.000
89.16949 87.000
89.18944 89.000
89.20939 70.000
89.22933 80.000
89.24928 73.000
89.26923 66.000
89.28917 84.000
89.30912 79.000
89.32907 85.000
89.34901 84.000
89.36896 78.000
89.38891 70.000
89.40885 81.000
89.42880 61.000
89.44875 97.000
89.46870 88.000
89.48864 76.000
89.50859 88.000
89.52854 84.000
89.54848 93.000
89.56843 92.000
89.58838 86.000
89.60832 83.000
89.62827 90.000
89.64822 104.000
89.66817 102.000
89.68811 107.000
89.70806 100.000
89.72801 125.000
89.74795 124.000
89.76790 143.000
89.78785 128.000
89.80779 149.000
89.82774 136.000
89.84769 130.000
89.86764 139.000
89.88758 118.000
89.90753 132.000
89.92748 114.000
89.94742 138.000
89.96737 128.000
89.98732 119.000
90.00726 123.000
