10.00000 209.000
10.01995 237.000
10.03989 262.000
10.05984 237.000
10.07979 213.000
10.09973 257.000
10.11968 222.000
10.13963 222.000
10.15958 225.000
10.17952 224.000
10.19947 236.000
10.21942 225.000
10.23936 237.000
10.25931 225.000
10.27926 212.000
10.29920 216.000
10.31915 173.000
10.33910 225.000
10.35905 202.000
10.37899 225.000
10.39894 237.000
10.41889 235.000
10.43883 227.000
10.45878 236.000
10.47873 233.000
10.49867 243.000
10.51862 213.000
10.53857 218.000
10.55851 220.000
10.57846 221.000
10.59841 254.000
10.61836 226.000
10.63830 213.000
10.65825 202.000
10.67820 206.000
10.69814 216.000
10.71809 217.000
10.73804 232.000
10.75798 218.000
10.77793 210.000
10.79788 224.000
10.81783 207.000
10.83777 216.000
10.85772 230.000
10.87767 217.000
10.89761 239.000
10.91756 246.000
10.93751 222.000
10.95745 222.000
10.97740 206.000
10.99735 222.000
11.01730 228.000
11.03724 239.000
11.05719 224.000
11.07714 190.000
11.09708 210.000
11.11703 223.000
11.13698 216.000
11.15692 238.000
11.17687 213.000
11.19682 205.000
11.21676 210.000
11.23671 217.000
11.25666 230.000
11.27661 227.000
11.29655 227.000
11.31650 225.000
11.33645 236.000
11.35639 223.000
11.37634 214.000
11.39629 201.000
11.41623 225.000
11.43618 223.000
11.45613 247.000
11.47608 218.000
11.49602 239.000
11.51597 230.000
11.53592 219.000
11.55586 213.000
11.57581 224.000
11.59576 233.000
11.61570 237.000
11.63565 207.000
11.65560 210.000
11.67554 231.000
11.69549 220.000
11.71544 217.000
11.73539 215.000
11.75533 212.000
11.77528 191.000
11.79523 231.000
11.81517 257.000
11.83512 245.000
11.85507 212.000
11.87501 229.000
11.89496 225.000
11.91491 231.000
11.93486 216.000
11.95480 211.000
11.97475 228.000
11.99470 220.000
12.01464 224.000
12.03459 207.000
12.05454 237.000
12.07448 226.000
12.09443 211.000
12.11438 215.000
12.13432 206.000
12.15427 206.000
12.17422 252.000
12.19417 227.000
12.21411 227.000
12.23406 224.000
12.25401 237.000
12.27395 203.000
12.29390 214.000
12.31385 207.000
12.33379 232.000
12.35374 235.000
12.37369 248.000
12.39364 216.000
12.41358 225.000
12.43353 212.000
12.45348 214.000
12.47342 235.000
12.49337 234.000
12.51332 191.000
12.53326 185.000
12.55321 237.000
12.57316 225.000
12.59311 221.000
12.61305 206.000
12.63300 201.000
12.65295 227.000
12.67289 211.000
12.69284 216.000
12.71279 204.000
12.73273 216.000
12.75268 222.000
12.77263 218.000
12.79257 227.000
12.81252 231.000
12.83247 227.000
12.85242 236.000
12.87236 228.000
12.89231 196.000
12.91226 207.000
12.93220 192.000
12.95215 210.000
12.97210 222.000
12.99204 214.000
13.01199 216.000
13.03194 209.000
13.05189 222.000
13.07183 240.000
13.09178 218.000
13.11173 231.000
13.13167 216.000
13.15162 235.000
13.17157 215.000
13.19151 227.000
13.21146 222.000
13.23141 241.000
13.25135 214.000
13.27130 265.000
13.29125 205.000
13.31120 235.000
13.33114 228.000
13.35109 211.000
13.37104 202.000
13.39098 237.000
13.41093 225.000
13.43088 203.000
13.45082 218.000
13.47077 237.000
13.49072 214.000
13.51067 231.000
13.53061 214.000
13.55056 229.000
13.57051 207.000
13.59045 229.000
13.61040 216.000
13.63035 226.000
13.65029 228.000
13.67024 226.000
13.69019 255.000
13.71013 221.000
13.73008 256.000
13.75003 229.000
13.76998 214.000
13.78992 223.000
13.80987 223.000
13.82982 225.000
13.84976 218.000
13.86971 245.000
13.88966 210.000
13.90960 234.000
13.92955 236.000
13.94950 211.000
13.96945 225.000
13.98939 236.000
14.00934 242.000
14.02929 271.000
14.04923 232.000
14.06918 216.000
14.08913 250.000
14.10907 227.000
14.12902 237.000
14.14897 240.000
14.16892 254.000
14.18886 218.000
14.20881 231.000
14.22876 224.000
14.24870 232.000
14.26865 249.000
14.28860 242.000
14.30854 210.000
14.32849 229.000
14.34844 230.000
14.36838 236.000
14.38833 222.000
14.40828 212.000
14.42823 223.000
14.44817 258.000
14.46812 210.000
14.48807 236.000
14.50801 200.000
14.52796 233.000
14.54791 233.000
14.56785 220.000
14.58780 230.000
14.60775 236.000
14.62770 248.000
14.64764 253.000
14.66759 225.000
14.68754 230.000
14.70748 233.000
14.72743 226.000
14.74738 241.000
14.76732 213.000
14.78727 227.000
14.80722 246.000
14.82716 218.000
14.84711 221.000
14.86706 223.000
14.88701 226.000
14.90695 232.000
14.92690 226.000
14.94685 210.000
14.96679 207.000
14.98674 243.000
15.00669 215.000
15.02663 219.000
15.04658 226.000
15.06653 219.000
15.08648 230.000
15.10642 248.000
15.12637 260.000
15.14632 222.000
15.16626 241.000
15.18621 237.000
15.20616 231.000
15.22610 235.000
15.24605 241.000
15.26600 227.000
15.28594 228.000
15.30589 254.000
15.32584 216.000
15.34579 228.000
15.36573 232.000
15.38568 229.000
15.40563 218.000
15.42557 270.000
15.44552 254.000
15.46547 219.000
15.48541 258.000
15.50536 281.000
15.52531 250.000
15.54526 261.000
15.56520 233.000
15.58515 235.000
15.60510 258.000
15.62504 247.000
15.64499 279.000
15.66494 300.000
15.68488 342.000
15.70483 325.000
15.72478 384.000
15.74472 398.000
15.76467 528.000
15.78462 676.000
15.80457 876.000
15.82451 1030.000
15.84446 1096.000
15.86441 1132.000
15.88435 1086.000
15.90430 916.000
15.92425 765.000
15.94419 592.000
15.96414 466.000
15.98409 338.000
16.00404 282.000
16.02398 295.000
16.04393 288.000
16.06388 298.000
16.08382 288.000
16.10377 277.000
16.12372 298.000
16.14366 297.000
16.16361 305.000
16.18356 344.000
16.20351 342.000
16.22345 349.000
16.24340 368.000
16.26335 393.000
16.28329 409.000
16.30324 466.000
16.32319 467.000
16.34313 475.000
16.36308 467.000
16.38303 534.000
16.40297 479.000
16.42292 461.000
16.44287 388.000
16.46282 331.000
16.48276 297.000
16.50271 271.000
16.52266 257.000
16.54260 254.000
16.56255 267.000
16.58250 253.000
16.60244 282.000
16.62239 245.000
16.64234 233.000
16.66229 219.000
16.68223 240.000
16.70218 237.000
16.72213 235.000
16.74207 255.000
16.76202 249.000
16.78197 272.000
16.80191 279.000
16.82186 329.000
16.84181 295.000
16.86175 314.000
16.88170 289.000
16.90165 296.000
16.92160 269.000
16.94154 257.000
16.96149 234.000
16.98144 253.000
17.00138 252.000
17.02133 220.000
17.04128 218.000
17.06122 242.000
17.08117 238.000
17.10112 237.000
17.12107 238.000
17.14101 230.000
17.16096 204.000
17.18091 232.000
17.20085 220.000
17.22080 244.000
17.24075 237.000
17.26069 207.000
17.28064 218.000
17.30059 233.000
17.32053 247.000
17.34048 246.000
17.36043 223.000
17.38038 224.000
17.40032 227.000
17.42027 220.000
17.44022 208.000
17.46016 222.000
17.48011 226.000
17.50006 231.000
17.52000 253.000
17.53995 205.000
17.55990 215.000
17.57985 257.000
17.59979 228.000
17.61974 216.000
17.63969 241.000
17.65963 234.000
17.67958 196.000
17.69953 230.000
17.71947 233.000
17.73942 246.000
17.75937 246.000
17.77932 276.000
17.79926 260.000
17.81921 235.000
17.83916 219.000
17.85910 221.000
17.87905 248.000
17.89900 214.000
17.91894 204.000
17.93889 255.000
17.95884 240.000
17.97878 222.000
17.99873 241.000
18.01868 228.000
18.03863 234.000
18.05857 222.000
18.07852 251.000
18.09847 223.000
18.11841 247.000
18.13836 205.000
18.15831 200.000
18.17825 252.000
18.19820 226.000
18.21815 248.000
18.23810 239.000
18.25804 277.000
18.27799 270.000
18.29794 231.000
18.31788 294.000
18.33783 293.000
18.35778 332.000
18.37772 442.000
18.39767 675.000
18.41762 709.000
18.43756 561.000
18.45751 529.000
18.47746 412.000
18.49741 287.000
18.51735 281.000
18.53730 251.000
18.55725 253.000
18.57719 261.000
18.59714 243.000
18.61709 241.000
18.63703 220.000
18.65698 250.000
18.67693 217.000
18.69688 243.000
18.71682 248.000
18.73677 236.000
18.75672 225.000
18.77666 236.000
18.79661 225.000
18.81656 237.000
18.83650 240.000
18.85645 260.000
18.87640 231.000
18.89634 217.000
18.91629 225.000
18.93624 241.000
18.95619 258.000
18.97613 265.000
18.99608 221.000
19.01603 245.000
19.03597 231.000
19.05592 238.000
19.07587 247.000
19.09581 230.000
19.11576 255.000
19.13571 235.000
19.15566 206.000
19.17560 238.000
19.19555 217.000
19.21550 224.000
19.23544 231.000
19.25539 260.000
19.27534 251.000
19.29528 258.000
19.31523 214.000
19.33518 254.000
19.35513 209.000
19.37507 203.000
19.39502 219.000
19.41497 219.000
19.43491 253.000
19.45486 246.000
19.47481 232.000
19.49475 224.000
19.51470 206.000
19.53465 264.000
19.55459 222.000
19.57454 244.000
19.59449 245.000
19.61444 252.000
19.63438 238.000
19.65433 208.000
19.67428 235.000
19.69422 248.000
19.71417 222.000
19.73412 241.000
19.75406 239.000
19.77401 233.000
19.79396 200.000
19.81391 267.000
19.83385 228.000
19.85380 255.000
19.87375 252.000
19.89369 226.000
19.91364 233.000
19.93359 249.000
19.95353 229.000
19.97348 224.000
19.99343 240.000
20.01337 219.000
20.03332 233.000
20.05327 251.000
20.07322 232.000
20.09316 222.000
20.11311 213.000
20.13306 216.000
20.15300 212.000
20.17295 239.000
20.19290 258.000
20.21284 228.000
20.23279 228.000
20.25274 240.000
20.27269 237.000
20.29263 235.000
20.31258 240.000
20.33253 241.000
20.35247 235.000
20.37242 248.000
20.39237 221.000
20.41231 237.000
20.43226 253.000
20.45221 264.000
20.47215 233.000
20.49210 246.000
20.51205 228.000
20.53200 230.000
20.55194 250.000
20.57189 233.000
20.59184 228.000
20.61178 239.000
20.63173 274.000
20.65168 248.000
20.67162 283.000
20.69157 245.000
20.71152 276.000
20.73147 285.000
20.75141 286.000
20.77136 329.000
20.79131 320.000
20.81125 366.000
20.83120 401.000
20.85115 450.000
20.87109 490.000
20.89104 514.000
20.91099 524.000
20.93094 517.000
20.95088 511.000
20.97083 488.000
20.99078 485.000
21.01072 491.000
21.03067 493.000
21.05062 489.000
21.07056 479.000
21.09051 397.000
21.11046 444.000
21.13040 397.000
21.15035 354.000
21.17030 309.000
21.19025 313.000
21.21019 312.000
21.23014 265.000
21.25009 269.000
21.27003 271.000
21.28998 265.000
21.30993 244.000
21.32987 235.000
21.34982 212.000
21.36977 267.000
21.38972 230.000
21.40966 215.000
21.42961 233.000
21.44956 231.000
21.46950 235.000
21.48945 204.000
21.50940 225.000
21.52934 260.000
21.54929 277.000
21.56924 240.000
21.58918 229.000
21.60913 228.000
21.62908 265.000
21.64903 241.000
21.66897 234.000
21.68892 223.000
21.70887 228.000
21.72881 249.000
21.74876 229.000
21.76871 243.000
21.78865 242.000
21.80860 234.000
21.82855 217.000
21.84850 253.000
21.86844 256.000
21.88839 224.000
21.90834 246.000
21.92828 251.000
21.94823 243.000
21.96818 259.000
21.98812 246.000
22.00807 216.000
22.02802 224.000
22.04796 249.000
22.06791 250.000
22.08786 240.000
22.10781 244.000
22.12775 268.000
22.14770 240.000
22.16765 248.000
22.18759 254.000
22.20754 242.000
22.22749 249.000
22.24743 252.000
22.26738 246.000
22.28733 236.000
22.30728 259.000
22.32722 226.000
22.34717 248.000
22.36712 247.000
22.38706 245.000
22.40701 248.000
22.42696 234.000
22.44690 227.000
22.46685 217.000
22.48680 234.000
22.50675 248.000
22.52669 247.000
22.54664 263.000
22.56659 231.000
22.58653 268.000
22.60648 232.000
22.62643 241.000
22.64637 233.000
22.66632 247.000
22.68627 230.000
22.70621 238.000
22.72616 249.000
22.74611 241.000
22.76606 213.000
22.78600 232.000
22.80595 262.000
22.82590 250.000
22.84584 245.000
22.86579 262.000
22.88574 237.000
22.90568 240.000
22.92563 246.000
22.94558 258.000
22.96553 266.000
22.98547 251.000
23.00542 220.000
23.02537 240.000
23.04531 238.000
23.06526 247.000
23.08521 237.000
23.10515 242.000
23.12510 224.000
23.14505 229.000
23.16499 229.000
23.18494 221.000
23.20489 265.000
23.22484 239.000
23.24478 261.000
23.26473 281.000
23.28468 259.000
23.30462 252.000
23.32457 228.000
23.34452 232.000
23.36446 209.000
23.38441 236.000
23.40436 252.000
23.42431 248.000
23.44425 244.000
23.46420 244.000
23.48415 231.000
23.50409 235.000
23.52404 259.000
23.54399 244.000
23.56393 238.000
23.58388 265.000
23.60383 255.000
23.62377 234.000
23.64372 250.000
23.66367 233.000
23.68362 255.000
23.70356 238.000
23.72351 231.000
23.74346 242.000
23.76340 270.000
23.78335 256.000
23.80330 252.000
23.82324 250.000
23.84319 282.000
23.86314 244.000
23.88309 224.000
23.90303 246.000
23.92298 217.000
23.94293 227.000
23.96287 244.000
23.98282 236.000
24.00277 276.000
24.02271 263.000
24.04266 265.000
24.06261 232.000
24.08256 287.000
24.10250 260.000
24.12245 241.000
24.14240 251.000
24.16234 237.000
24.18229 269.000
24.20224 265.000
24.22218 251.000
24.24213 264.000
24.26208 250.000
24.28202 252.000
24.30197 241.000
24.32192 268.000
24.34187 238.000
24.36181 248.000
24.38176 213.000
24.40171 231.000
24.42165 233.000
24.44160 244.000
24.46155 264.000
24.48149 229.000
24.50144 215.000
24.52139 230.000
24.54134 229.000
24.56128 232.000
24.58123 263.000
24.60118 266.000
24.62112 261.000
24.64107 226.000
24.66102 245.000
24.68096 257.000
24.70091 250.000
24.72086 242.000
24.74080 266.000
24.76075 253.000
24.78070 230.000
24.80065 259.000
24.82059 242.000
24.84054 238.000
24.86049 264.000
24.88043 258.000
24.90038 262.000
24.92033 259.000
24.94027 296.000
24.96022 271.000
24.98017 294.000
25.00012 298.000
25.02006 322.000
25.04001 272.000
25.05996 283.000
25.07990 265.000
25.09985 301.000
25.11980 284.000
25.13974 276.000
25.15969 271.000
25.17964 252.000
25.19958 248.000
25.21953 242.000
25.23948 244.000
25.25943 248.000
25.27937 241.000
25.29932 235.000
25.31927 270.000
25.33921 230.000
25.35916 259.000
25.37911 212.000
25.39905 249.000
25.41900 262.000
25.43895 256.000
25.45890 209.000
25.47884 265.000
25.49879 295.000
25.51874 253.000
25.53868 260.000
25.55863 248.000
25.57858 267.000
25.59852 246.000
25.61847 265.000
25.63842 250.000
25.65837 250.000
25.67831 258.000
25.69826 261.000
25.71821 241.000
25.73815 277.000
25.75810 258.000
25.77805 272.000
25.79799 258.000
25.81794 248.000
25.83789 221.000
25.85783 243.000
25.87778 256.000
25.89773 251.000
25.91768 244.000
25.93762 275.000
25.95757 260.000
25.97752 263.000
25.99746 252.000
26.01741 273.000
26.03736 246.000
26.05730 220.000
26.07725 243.000
26.09720 217.000
26.11715 233.000
26.13709 258.000
26.15704 265.000
26.17699 270.000
26.19693 265.000
26.21688 269.000
26.23683 258.000
26.25677 272.000
26.27672 263.000
26.29667 266.000
26.31661 255.000
26.33656 288.000
26.35651 229.000
26.37646 258.000
26.39640 247.000
26.41635 271.000
26.43630 245.000
26.45624 265.000
26.47619 257.000
26.49614 259.000
26.51608 261.000
26.53603 269.000
26.55598 279.000
26.57593 247.000
26.59587 252.000
26.61582 270.000
26.63577 280.000
26.65571 254.000
26.67566 258.000
26.69561 248.000
26.71555 255.000
26.73550 274.000
26.75545 276.000
26.77539 246.000
26.79534 230.000
26.81529 267.000
26.83524 266.000
26.85518 279.000
26.87513 261.000
26.89508 292.000
26.91502 258.000
26.93497 261.000
26.95492 268.000
26.97486 288.000
26.99481 237.000
27.01476 289.000
27.03471 261.000
27.05465 254.000
27.07460 282.000
27.09455 261.000
27.11449 237.000
27.13444 232.000
27.15439 256.000
27.17433 272.000
27.19428 263.000
27.21423 241.000
27.23417 282.000
27.25412 293.000
27.27407 293.000
27.29402 282.000
27.31396 287.000
27.33391 264.000
27.35386 281.000
27.37380 252.000
27.39375 262.000
27.41370 283.000
27.43364 271.000
27.45359 251.000
27.47354 242.000
27.49349 258.000
27.51343 281.000
27.53338 297.000
27.55333 295.000
27.57327 264.000
27.59322 239.000
27.61317 294.000
27.63311 268.000
27.65306 257.000
27.67301 271.000
27.69296 271.000
27.71290 254.000
27.73285 316.000
27.75280 273.000
27.77274 263.000
27.79269 250.000
27.81264 264.000
27.83258 253.000
27.85253 275.000
27.87248 283.000
27.89242 273.000
27.91237 281.000
27.93232 265.000
27.95227 269.000
27.97221 288.000
27.99216 250.000
28.01211 253.000
28.03205 265.000
28.05200 292.000
28.07195 260.000
28.09189 295.000
28.11184 276.000
28.13179 250.000
28.15174 265.000
28.17168 254.000
28.19163 267.000
28.21158 295.000
28.23152 254.000
28.25147 298.000
28.27142 271.000
28.29136 266.000
28.31131 264.000
28.33126 269.000
28.35120 258.000
28.37115 278.000
28.39110 289.000
28.41105 298.000
28.43099 271.000
28.45094 255.000
28.47089 280.000
28.49083 286.000
28.51078 298.000
28.53073 265.000
28.55067 275.000
28.57062 300.000
28.59057 324.000
28.61052 314.000
28.63046 298.000
28.65041 332.000
28.67036 283.000
28.69030 293.000
28.71025 274.000
28.73020 300.000
28.75014 301.000
28.77009 268.000
28.79004 272.000
28.80998 252.000
28.82993 278.000
28.84988 294.000
28.86983 283.000
28.88977 307.000
28.90972 281.000
28.92967 274.000
28.94961 289.000
28.96956 269.000
28.98951 261.000
29.00945 257.000
29.02940 288.000
29.04935 282.000
29.06930 310.000
29.08924 287.000
29.10919 253.000
29.12914 259.000
29.14908 276.000
29.16903 291.000
29.18898 312.000
29.20892 284.000
29.22887 323.000
29.24882 317.000
29.26877 323.000
29.28871 358.000
29.30866 399.000
29.32861 377.000
29.34855 417.000
29.36850 403.000
29.38845 414.000
29.40839 440.000
29.42834 408.000
29.44829 378.000
29.46823 398.000
29.48818 368.000
29.50813 365.000
29.52808 328.000
29.54802 329.000
29.56797 341.000
29.58792 323.000
29.60786 297.000
29.62781 315.000
29.64776 295.000
29.66770 283.000
29.68765 269.000
29.70760 280.000
29.72755 278.000
29.74749 314.000
29.76744 286.000
29.78739 314.000
29.80733 296.000
29.82728 287.000
29.84723 299.000
29.86717 280.000
29.88712 299.000
29.90707 300.000
29.92701 297.000
29.94696 316.000
29.96691 313.000
29.98686 302.000
30.00680 321.000
30.02675 312.000
30.04670 299.000
30.06664 322.000
30.08659 362.000
30.10654 324.000
30.12648 323.000
30.14643 356.000
30.16638 388.000
30.18633 387.000
30.20627 471.000
30.22622 593.000
30.24617 867.000
30.26611 1352.000
30.28606 1527.000
30.30601 1193.000
30.32595 960.000
30.34590 935.000
30.36585 882.000
30.38579 640.000
30.40574 497.000
30.42569 371.000
30.44564 387.000
30.46558 375.000
30.48553 339.000
30.50548 303.000
30.52542 345.000
30.54537 332.000
30.56532 294.000
30.58526 300.000
30.60521 283.000
30.62516 316.000
30.64511 283.000
30.66505 296.000
30.68500 280.000
30.70495 283.000
30.72489 309.000
30.74484 313.000
30.76479 276.000
30.78473 313.000
30.80468 274.000
30.82463 261.000
30.84458 313.000
30.86452 303.000
30.88447 277.000
30.90442 273.000
30.92436 308.000
30.94431 290.000
30.96426 286.000
30.98420 295.000
31.00415 299.000
31.02410 300.000
31.04404 286.000
31.06399 280.000
31.08394 285.000
31.10389 279.000
31.12383 287.000
31.14378 323.000
31.16373 271.000
31.18367 295.000
31.20362 277.000
31.22357 288.000
31.24351 304.000
31.26346 280.000
31.28341 279.000
31.30336 281.000
31.32330 275.000
31.34325 321.000
31.36320 299.000
31.38314 309.000
31.40309 294.000
31.42304 291.000
31.44298 286.000
31.46293 296.000
31.48288 298.000
31.50282 279.000
31.52277 312.000
31.54272 312.000
31.56267 328.000
31.58261 275.000
31.60256 290.000
31.62251 297.000
31.64245 312.000
31.66240 275.000
31.68235 289.000
31.70229 270.000
31.72224 270.000
31.74219 297.000
31.76214 320.000
31.78208 315.000
31.80203 291.000
31.82198 298.000
31.84192 308.000
31.86187 292.000
31.88182 287.000
31.90176 327.000
31.92171 296.000
31.94166 305.000
31.96160 340.000
31.98155 340.000
32.00150 318.000
32.02145 360.000
32.04139 368.000
32.06134 366.000
32.08129 327.000
32.10123 384.000
32.12118 335.000
32.14113 342.000
32.16107 332.000
32.18102 295.000
32.20097 297.000
32.22092 305.000
32.24086 294.000
32.26081 287.000
32.28076 269.000
32.30070 320.000
32.32065 317.000
32.34060 271.000
32.36054 289.000
32.38049 335.000
32.40044 338.000
32.42039 359.000
32.44033 348.000
32.46028 347.000
32.48023 348.000
32.50017 392.000
32.52012 371.000
32.54007 339.000
32.56001 374.000
32.57996 377.000
32.59991 377.000
32.61985 353.000
32.63980 351.000
32.65975 311.000
32.67970 313.000
32.69964 287.000
32.71959 302.000
32.73954 312.000
32.75948 329.000
32.77943 300.000
32.79938 312.000
32.81932 299.000
32.83927 322.000
32.85922 261.000
32.87917 309.000
32.89911 312.000
32.91906 327.000
32.93901 312.000
32.95895 323.000
32.97890 271.000
32.99885 286.000
33.01879 312.000
33.03874 323.000
33.05869 276.000
33.07863 313.000
33.09858 286.000
33.11853 336.000
33.13848 312.000
33.15842 323.000
33.17837 328.000
33.19832 304.000
33.21826 322.000
33.23821 278.000
33.25816 308.000
33.27810 310.000
33.29805 304.000
33.31800 303.000
33.33795 319.000
33.35789 264.000
33.37784 299.000
33.39779 272.000
33.41773 268.000
33.43768 291.000
33.45763 304.000
33.47757 274.000
33.49752 277.000
33.51747 328.000
33.53741 289.000
33.55736 293.000
33.57731 296.000
33.59726 280.000
33.61720 306.000
33.63715 297.000
33.65710 312.000
33.67704 315.000
33.69699 315.000
33.71694 314.000
33.73688 298.000
33.75683 295.000
33.77678 295.000
33.79673 302.000
33.81667 283.000
33.83662 324.000
33.85657 290.000
33.87651 293.000
33.89646 304.000
33.91641 284.000
33.93635 313.000
33.95630 321.000
33.97625 282.000
33.99620 318.000
34.01614 307.000
34.03609 301.000
34.05604 328.000
34.07598 333.000
34.09593 341.000
34.11588 335.000
34.13582 306.000
34.15577 322.000
34.17572 336.000
34.19566 326.000
34.21561 346.000
34.23556 354.000
34.25551 382.000
34.27545 422.000
34.29540 430.000
34.31535 407.000
34.33529 393.000
34.35524 479.000
34.37519 522.000
34.39513 535.000
34.41508 560.000
34.43503 568.000
34.45498 514.000
34.47492 549.000
34.49487 551.000
34.51482 600.000
34.53476 511.000
34.55471 542.000
34.57466 538.000
34.59460 559.000
34.61455 533.000
34.63450 509.000
34.65444 475.000
34.67439 462.000
34.69434 490.000
34.71429 517.000
34.73423 479.000
34.75418 528.000
34.77413 500.000
34.79407 482.000
34.81402 486.000
34.83397 463.000
34.85391 482.000
34.87386 442.000
34.89381 431.000
34.91376 454.000
34.93370 441.000
34.95365 396.000
34.97360 403.000
34.99354 372.000
35.01349 366.000
35.03344 392.000
35.05338 359.000
35.07333 376.000
35.09328 352.000
35.11322 364.000
35.13317 410.000
35.15312 400.000
35.17307 398.000
35.19301 389.000
35.21296 429.000
35.23291 421.000
35.25285 484.000
35.27280 469.000
35.29275 483.000
35.31269 530.000
35.33264 502.000
35.35259 574.000
35.37254 648.000
35.39248 705.000
35.41243 850.000
35.43238 883.000
35.45232 948.000
35.47227 1110.000
35.49222 1263.000
35.51216 1391.000
35.53211 1480.000
35.55206 1489.000
35.57201 1681.000
35.59195 1775.000
35.61190 2111.000
35.63185 2758.000
35.65179 3763.000
35.67174 4161.000
35.69169 3208.000
35.71163 2452.000
35.73158 2242.000
35.75153 2456.000
35.77147 2217.000
35.79142 1519.000
35.81137 1123.000
35.83132 846.000
35.85126 684.000
35.87121 586.000
35.89116 519.000
35.91110 498.000
35.93105 525.000
35.95100 457.000
35.97094 438.000
35.99089 398.000
36.01084 374.000
36.03079 382.000
36.05073 365.000
36.07068 385.000
36.09063 381.000
36.11057 350.000
36.13052 374.000
36.15047 395.000
36.17041 316.000
36.19036 354.000
36.21031 356.000
36.23025 336.000
36.25020 350.000
36.27015 301.000
36.29010 324.000
36.31004 346.000
36.32999 370.000
36.34994 335.000
36.36988 337.000
36.38983 358.000
36.40978 382.000
36.42972 326.000
36.44967 351.000
36.46962 406.000
36.48957 379.000
36.50951 363.000
36.52946 374.000
36.54941 366.000
36.56935 352.000
36.58930 370.000
36.60925 376.000
36.62919 374.000
36.64914 365.000
36.66909 399.000
36.68903 348.000
36.70898 394.000
36.72893 390.000
36.74888 368.000
36.76882 369.000
36.78877 368.000
36.80872 376.000
36.82866 371.000
36.84861 390.000
36.86856 427.000
36.88850 397.000
36.90845 427.000
36.92840 464.000
36.94835 498.000
36.96829 500.000
36.98824 558.000
37.00819 577.000
37.02813 700.000
37.04808 773.000
37.06803 851.000
37.08797 929.000
37.10792 1033.000
37.12787 1087.000
37.14781 1097.000
37.16776 1104.000
37.18771 1038.000
37.20766 947.000
37.22760 922.000
37.24755 787.000
37.26750 795.000
37.28744 792.000
37.30739 787.000
37.32734 701.000
37.34728 614.000
37.36723 518.000
37.38718 516.000
37.40713 492.000
37.42707 459.000
37.44702 406.000
37.46697 372.000
37.48691 343.000
37.50686 351.000
37.52681 386.000
37.54675 334.000
37.56670 338.000
37.58665 328.000
37.60660 329.000
37.62654 348.000
37.64649 306.000
37.66644 290.000
37.68638 304.000
37.70633 297.000
37.72628 277.000
37.74622 310.000
37.76617 299.000
37.78612 313.000
37.80606 298.000
37.82601 297.000
37.84596 321.000
37.86591 299.000
37.88585 332.000
37.90580 315.000
37.92575 296.000
37.94569 294.000
37.96564 306.000
37.98559 306.000
38.00553 338.000
38.02548 292.000
38.04543 304.000
38.06538 346.000
38.08532 341.000
38.10527 323.000
38.12522 321.000
38.14516 319.000
38.16511 334.000
38.18506 366.000
38.20500 339.000
38.22495 314.000
38.24490 319.000
38.26484 329.000
38.28479 326.000
38.30474 335.000
38.32469 345.000
38.34463 347.000
38.36458 361.000
38.38453 366.000
38.40447 380.000
38.42442 386.000
38.44437 418.000
38.46431 400.000
38.48426 422.000
38.50421 465.000
38.52416 504.000
38.54410 546.000
38.56405 539.000
38.58400 597.000
38.60394 714.000
38.62389 775.000
38.64384 879.000
38.66378 932.000
38.68373 946.000
38.70368 978.000
38.72362 934.000
38.74357 1021.000
38.76352 938.000
38.78347 904.000
38.80341 803.000
38.82336 763.000
38.84331 686.000
38.86325 658.000
38.88320 647.000
38.90315 643.000
38.92309 586.000
38.94304 583.000
38.96299 592.000
38.98294 589.000
39.00288 562.000
39.02283 543.000
39.04278 532.000
39.06272 443.000
39.08267 507.000
39.10262 494.000
39.12256 440.000
39.14251 447.000
39.16246 426.000
39.18241 387.000
39.20235 414.000
39.22230 391.000
39.24225 413.000
39.26219 404.000
39.28214 418.000
39.30209 411.000
39.32203 414.000
39.34198 410.000
39.36193 365.000
39.38187 361.000
39.40182 352.000
39.42177 344.000
39.44172 327.000
39.46166 325.000
39.48161 334.000
39.50156 313.000
39.52150 309.000
39.54145 284.000
39.56140 288.000
39.58134 296.000
39.60129 311.000
39.62124 285.000
39.64119 301.000
39.66113 285.000
39.68108 325.000
39.70103 308.000
39.72097 303.000
39.74092 284.000
39.76087 301.000
39.78081 262.000
39.80076 277.000
39.82071 322.000
39.84065 289.000
39.86060 274.000
39.88055 275.000
39.90050 313.000
39.92044 314.000
39.94039 267.000
39.96034 303.000
39.98028 292.000
40.00023 307.000
40.02018 272.000
40.04012 302.000
40.06007 249.000
40.08002 283.000
40.09997 282.000
40.11991 288.000
40.13986 273.000
40.15981 280.000
40.17975 274.000
40.19970 269.000
40.21965 252.000
40.23959 271.000
40.25954 297.000
40.27949 313.000
40.29943 287.000
40.31938 290.000
40.33933 269.000
40.35928 252.000
40.37922 276.000
40.39917 274.000
40.41912 260.000
40.43906 274.000
40.45901 289.000
40.47896 249.000
40.49890 286.000
40.51885 273.000
40.53880 257.000
40.55875 275.000
40.57869 270.000
40.59864 287.000
40.61859 301.000
40.63853 270.000
40.65848 290.000
40.67843 290.000
40.69837 281.000
40.71832 270.000
40.73827 278.000
40.75822 309.000
40.77816 280.000
40.79811 266.000
40.81806 265.000
40.83800 295.000
40.85795 288.000
40.87790 253.000
40.89784 284.000
40.91779 275.000
40.93774 304.000
40.95768 277.000
40.97763 303.000
40.99758 261.000
41.01753 308.000
41.03747 265.000
41.05742 274.000
41.07737 267.000
41.09731 321.000
41.11726 307.000
41.13721 306.000
41.15715 328.000
41.17710 288.000
41.19705 313.000
41.21700 287.000
41.23694 300.000
41.25689 310.000
41.27684 292.000
41.29678 301.000
41.31673 267.000
41.33668 267.000
41.35662 335.000
41.37657 301.000
41.39652 379.000
41.41646 357.000
41.43641 440.000
41.45636 439.000
41.47631 490.000
41.49625 481.000
41.51620 448.000
41.53615 451.000
41.55609 417.000
41.57604 439.000
41.59599 446.000
41.61593 467.000
41.63588 429.000
41.65583 461.000
41.67578 375.000
41.69572 428.000
41.71567 385.000
41.73562 367.000
41.75556 384.000
41.77551 359.000
41.79546 356.000
41.81540 318.000
41.83535 286.000
41.85530 306.000
41.87524 345.000
41.89519 304.000
41.91514 297.000
41.93509 303.000
41.95503 300.000
41.97498 283.000
41.99493 322.000
42.01487 304.000
42.03482 320.000
42.05477 272.000
42.07471 321.000
42.09466 275.000
42.11461 263.000
42.13456 282.000
42.15450 290.000
42.17445 279.000
42.19440 278.000
42.21434 300.000
42.23429 286.000
42.25424 294.000
42.27418 289.000
42.29413 291.000
42.31408 241.000
42.33403 301.000
42.35397 303.000
42.37392 305.000
42.39387 296.000
42.41381 289.000
42.43376 272.000
42.45371 322.000
42.47365 303.000
42.49360 347.000
42.51355 331.000
42.53349 289.000
42.55344 339.000
42.57339 340.000
42.59334 310.000
42.61328 329.000
42.63323 346.000
42.65318 317.000
42.67312 341.000
42.69307 361.000
42.71302 376.000
42.73296 353.000
42.75291 375.000
42.77286 428.000
42.79281 391.000
42.81275 413.000
42.83270 444.000
42.85265 466.000
42.87259 509.000
42.89254 497.000
42.91249 543.000
42.93243 635.000
42.95238 639.000
42.97233 678.000
42.99227 719.000
43.01222 753.000
43.03217 830.000
43.05212 935.000
43.07206 986.000
43.09201 992.000
43.11196 1082.000
43.13190 1102.000
43.15185 1156.000
43.17180 1197.000
43.19174 1135.000
43.21169 1126.000
43.23164 1083.000
43.25159 1044.000
43.27153 1148.000
43.29148 1130.000
43.31143 1249.000
43.33137 1351.000
43.35132 1361.000
43.37127 1330.000
43.39121 1030.000
43.41116 876.000
43.43111 873.000
43.45105 847.000
43.47100 841.000
43.49095 686.000
43.51090 595.000
43.53084 487.000
43.55079 474.000
43.57074 438.000
43.59068 406.000
43.61063 352.000
43.63058 357.000
43.65052 311.000
43.67047 348.000
43.69042 325.000
43.71037 311.000
43.73031 323.000
43.75026 294.000
43.77021 293.000
43.79015 282.000
43.81010 293.000
43.83005 294.000
43.84999 285.000
43.86994 305.000
43.88989 281.000
43.90984 257.000
43.92978 258.000
43.94973 276.000
43.96968 308.000
43.98962 278.000
44.00957 283.000
44.02952 299.000
44.04946 270.000
44.06941 281.000
44.08936 271.000
44.10930 287.000
44.12925 258.000
44.14920 272.000
44.16915 259.000
44.18909 299.000
44.20904 281.000
44.22899 258.000
44.24893 257.000
44.26888 277.000
44.28883 248.000
44.30877 249.000
44.32872 275.000
44.34867 291.000
44.36862 275.000
44.38856 295.000
44.40851 271.000
44.42846 273.000
44.44840 247.000
44.46835 252.000
44.48830 257.000
44.50824 270.000
44.52819 263.000
44.54814 253.000
44.56808 268.000
44.58803 263.000
44.60798 246.000
44.62793 277.000
44.64787 292.000
44.66782 286.000
44.68777 277.000
44.70771 275.000
44.72766 244.000
44.74761 262.000
44.76755 262.000
44.78750 280.000
44.80745 265.000
44.82740 265.000
44.84734 258.000
44.86729 259.000
44.88724 275.000
44.90718 315.000
44.92713 280.000
44.94708 284.000
44.96702 298.000
44.98697 261.000
45.00692 295.000
45.02686 273.000
45.04681 288.000
45.06676 277.000
45.08671 276.000
45.10665 274.000
45.12660 279.000
45.14655 292.000
45.16649 310.000
45.18644 272.000
45.20639 288.000
45.22633 265.000
45.24628 264.000
45.26623 273.000
45.28618 281.000
45.30612 262.000
45.32607 271.000
45.34602 292.000
45.36596 277.000
45.38591 249.000
45.40586 286.000
45.42580 258.000
45.44575 270.000
45.46570 264.000
45.48565 256.000
45.50559 292.000
45.52554 296.000
45.54549 311.000
45.56543 278.000
45.58538 252.000
45.60533 262.000
45.62527 266.000
45.64522 234.000
45.66517 288.000
45.68511 274.000
45.70506 272.000
45.72501 283.000
45.74496 261.000
45.76490 290.000
45.78485 244.000
45.80480 253.000
45.82474 250.000
45.84469 306.000
45.86464 263.000
45.88458 267.000
45.90453 282.000
45.92448 263.000
45.94443 266.000
45.96437 241.000
45.98432 226.000
46.00427 278.000
46.02421 276.000
46.04416 274.000
46.06411 246.000
46.08405 248.000
46.10400 258.000
46.12395 279.000
46.14389 277.000
46.16384 255.000
46.18379 258.000
46.20374 228.000
46.22368 277.000
46.24363 288.000
46.26358 272.000
46.28352 295.000
46.30347 259.000
46.32342 243.000
46.34336 244.000
46.36331 280.000
46.38326 271.000
46.40321 257.000
46.42315 270.000
46.44310 256.000
46.46305 268.000
46.48299 282.000
46.50294 288.000
46.52289 272.000
46.54283 256.000
46.56278 266.000
46.58273 260.000
46.60267 265.000
46.62262 223.000
46.64257 237.000
46.66252 240.000
46.68246 269.000
46.70241 253.000
46.72236 257.000
46.74230 257.000
46.76225 259.000
46.78220 266.000
46.80214 264.000
46.82209 252.000
46.84204 259.000
46.86199 262.000
46.88193 288.000
46.90188 295.000
46.92183 250.000
46.94177 223.000
46.96172 268.000
46.98167 262.000
47.00161 232.000
47.02156 264.000
47.04151 243.000
47.06146 257.000
47.08140 253.000
47.10135 230.000
47.12130 258.000
47.14124 274.000
47.16119 280.000
47.18114 273.000
47.20108 254.000
47.22103 251.000
47.24098 258.000
47.26092 240.000
47.28087 237.000
47.30082 265.000
47.32077 258.000
47.34071 237.000
47.36066 257.000
47.38061 252.000
47.40055 282.000
47.42050 247.000
47.44045 252.000
47.46039 279.000
47.48034 250.000
47.50029 254.000
47.52024 260.000
47.54018 257.000
47.56013 260.000
47.58008 251.000
47.60002 237.000
47.61997 247.000
47.63992 258.000
47.65986 258.000
47.67981 275.000
47.69976 255.000
47.71970 281.000
47.73965 260.000
47.75960 229.000
47.77955 270.000
47.79949 272.000
47.81944 275.000
47.83939 294.000
47.85933 263.000
47.87928 263.000
47.89923 269.000
47.91917 317.000
47.93912 297.000
47.95907 256.000
47.97902 274.000
47.99896 269.000
48.01891 289.000
48.03886 280.000
48.05880 277.000
48.07875 269.000
48.09870 289.000
48.11864 279.000
48.13859 295.000
48.15854 255.000
48.17848 284.000
48.19843 275.000
48.21838 287.000
48.23833 273.000
48.25827 269.000
48.27822 279.000
48.29817 294.000
48.31811 276.000
48.33806 274.000
48.35801 267.000
48.37795 268.000
48.39790 289.000
48.41785 330.000
48.43780 273.000
48.45774 326.000
48.47769 275.000
48.49764 291.000
48.51758 332.000
48.53753 331.000
48.55748 318.000
48.57742 335.000
48.59737 307.000
48.61732 348.000
48.63726 362.000
48.65721 371.000
48.67716 444.000
48.69711 421.000
48.71705 464.000
48.73700 432.000
48.75695 468.000
48.77689 491.000
48.79684 496.000
48.81679 523.000
48.83673 507.000
48.85668 517.000
48.87663 511.000
48.89658 482.000
48.91652 480.000
48.93647 404.000
48.95642 441.000
48.97636 456.000
48.99631 414.000
49.01626 356.000
49.03620 390.000
49.05615 349.000
49.07610 310.000
49.09605 331.000
49.11599 287.000
49.13594 313.000
49.15589 299.000
49.17583 316.000
49.19578 270.000
49.21573 296.000
49.23567 285.000
49.25562 272.000
49.27557 271.000
49.29551 286.000
49.31546 267.000
49.33541 303.000
49.35536 278.000
49.37530 310.000
49.39525 258.000
49.41520 286.000
49.43514 281.000
49.45509 298.000
49.47504 287.000
49.49498 305.000
49.51493 271.000
49.53488 291.000
49.55483 317.000
49.57477 290.000
49.59472 307.000
49.61467 299.000
49.63461 272.000
49.65456 296.000
49.67451 306.000
49.69445 256.000
49.71440 260.000
49.73435 317.000
49.75429 290.000
49.77424 267.000
49.79419 283.000
49.81414 246.000
49.83408 266.000
49.85403 267.000
49.87398 283.000
49.89392 258.000
49.91387 265.000
49.93382 275.000
49.95376 265.000
49.97371 230.000
49.99366 270.000
50.01361 283.000
50.03355 241.000
50.05350 284.000
50.07345 269.000
50.09339 248.000
50.11334 257.000
50.13329 256.000
50.15323 263.000
50.17318 271.000
50.19313 269.000
50.21307 263.000
50.23302 237.000
50.25297 259.000
50.27292 261.000
50.29286 254.000
50.31281 284.000
50.33276 241.000
50.35270 254.000
50.37265 281.000
50.39260 257.000
50.41254 274.000
50.43249 278.000
50.45244 259.000
50.47239 249.000
50.49233 266.000
50.51228 245.000
50.53223 253.000
50.55217 263.000
50.57212 221.000
50.59207 259.000
50.61201 271.000
50.63196 239.000
50.65191 260.000
50.67186 251.000
50.69180 240.000
50.71175 273.000
50.73170 273.000
50.75164 264.000
50.77159 266.000
50.79154 257.000
50.81148 229.000
50.83143 246.000
50.85138 239.000
50.87132 241.000
50.89127 228.000
50.91122 268.000
50.93117 264.000
50.95111 259.000
50.97106 254.000
50.99101 243.000
51.01095 269.000
51.03090 261.000
51.05085 232.000
51.07079 226.000
51.09074 282.000
51.11069 232.000
51.13064 238.000
51.15058 260.000
51.17053 245.000
51.19048 246.000
51.21042 289.000
51.23037 267.000
51.25032 228.000
51.27026 249.000
51.29021 257.000
51.31016 292.000
51.33010 275.000
51.35005 260.000
51.37000 280.000
51.38995 246.000
51.40989 278.000
51.42984 260.000
51.44979 274.000
51.46973 251.000
51.48968 261.000
51.50963 293.000
51.52957 251.000
51.54952 249.000
51.56947 239.000
51.58942 249.000
51.60936 258.000
51.62931 231.000
51.64926 259.000
51.66920 259.000
51.68915 231.000
51.70910 254.000
51.72904 270.000
51.74899 265.000
51.76894 252.000
51.78888 280.000
51.80883 271.000
51.82878 279.000
51.84873 273.000
51.86867 242.000
51.88862 274.000
51.90857 271.000
51.92851 297.000
51.94846 265.000
51.96841 265.000
51.98835 295.000
52.00830 253.000
52.02825 305.000
52.04820 262.000
52.06814 272.000
52.08809 288.000
52.10804 303.000
52.12798 281.000
52.14793 291.000
52.16788 275.000
52.18782 301.000
52.20777 275.000
52.22772 296.000
52.24767 277.000
52.26761 269.000
52.28756 282.000
52.30751 277.000
52.32745 267.000
52.34740 262.000
52.36735 248.000
52.38729 261.000
52.40724 265.000
52.42719 263.000
52.44713 262.000
52.46708 263.000
52.48703 279.000
52.50698 257.000
52.52692 256.000
52.54687 229.000
52.56682 283.000
52.58676 255.000
52.60671 243.000
52.62666 254.000
52.64660 258.000
52.66655 269.000
52.68650 233.000
52.70645 263.000
52.72639 246.000
52.74634 269.000
52.76629 237.000
52.78623 284.000
52.80618 275.000
52.82613 272.000
52.84607 267.000
52.86602 282.000
52.88597 262.000
52.90591 268.000
52.92586 270.000
52.94581 270.000
52.96576 285.000
52.98570 322.000
53.00565 282.000
53.02560 281.000
53.04554 303.000
53.06549 299.000
53.08544 314.000
53.10538 330.000
53.12533 279.000
53.14528 308.000
53.16523 306.000
53.18517 311.000
53.20512 317.000
53.22507 306.000
53.24501 331.000
53.26496 303.000
53.28491 329.000
53.30485 336.000
53.32480 305.000
53.34475 336.000
53.36469 360.000
53.38464 367.000
53.40459 342.000
53.42454 321.000
53.44448 349.000
53.46443 329.000
53.48438 319.000
53.50432 340.000
53.52427 337.000
53.54422 320.000
53.56416 325.000
53.58411 335.000
53.60406 322.000
53.62401 266.000
53.64395 338.000
53.66390 324.000
53.68385 346.000
53.70379 326.000
53.72374 360.000
53.74369 458.000
53.76363 472.000
53.78358 546.000
53.80353 485.000
53.82348 449.000
53.84342 394.000
53.86337 365.000
53.88332 395.000
53.90326 363.000
53.92321 383.000
53.94316 362.000
53.96310 332.000
53.98305 319.000
54.00300 340.000
54.02294 305.000
54.04289 293.000
54.06284 294.000
54.08279 275.000
54.10273 274.000
54.12268 280.000
54.14263 259.000
54.16257 279.000
54.18252 269.000
54.20247 271.000
54.22241 282.000
54.24236 269.000
54.26231 257.000
54.28226 246.000
54.30220 280.000
54.32215 274.000
54.34210 256.000
54.36204 262.000
54.38199 254.000
54.40194 257.000
54.42188 252.000
54.44183 278.000
54.46178 261.000
54.48172 233.000
54.50167 233.000
54.52162 276.000
54.54157 279.000
54.56151 274.000
54.58146 280.000
54.60141 274.000
54.62135 261.000
54.64130 284.000
54.66125 257.000
54.68119 256.000
54.70114 268.000
54.72109 275.000
54.74104 275.000
54.76098 238.000
54.78093 272.000
54.80088 251.000
54.82082 253.000
54.84077 245.000
54.86072 269.000
54.88066 271.000
54.90061 256.000
54.92056 274.000
54.94050 257.000
54.96045 223.000
54.98040 248.000
55.00035 248.000
55.02029 248.000
55.04024 236.000
55.06019 278.000
55.08013 290.000
55.10008 234.000
55.12003 278.000
55.13997 275.000
55.15992 248.000
55.17987 256.000
55.19982 283.000
55.21976 275.000
55.23971 266.000
55.25966 248.000
55.27960 258.000
55.29955 243.000
55.31950 262.000
55.33944 276.000
55.35939 272.000
55.37934 258.000
55.39929 221.000
55.41923 270.000
55.43918 238.000
55.45913 264.000
55.47907 267.000
55.49902 240.000
55.51897 265.000
55.53891 234.000
55.55886 251.000
55.57881 267.000
55.59875 238.000
55.61870 246.000
55.63865 276.000
55.65860 242.000
55.67854 250.000
55.69849 251.000
55.71844 259.000
55.73838 242.000
55.75833 244.000
55.77828 274.000
55.79822 256.000
55.81817 230.000
55.83812 250.000
55.85807 236.000
55.87801 265.000
55.89796 261.000
55.91791 275.000
55.93785 254.000
55.95780 265.000
55.97775 269.000
55.99769 253.000
56.01764 262.000
56.03759 260.000
56.05753 251.000
56.07748 262.000
56.09743 296.000
56.11738 252.000
56.13732 270.000
56.15727 282.000
56.17722 245.000
56.19716 262.000
56.21711 272.000
56.23706 224.000
56.25700 257.000
56.27695 280.000
56.29690 256.000
56.31685 256.000
56.33679 262.000
56.35674 256.000
56.37669 257.000
56.39663 238.000
56.41658 277.000
56.43653 273.000
56.45647 310.000
56.47642 258.000
56.49637 279.000
56.51631 258.000
56.53626 243.000
56.55621 279.000
56.57616 248.000
56.59610 244.000
56.61605 261.000
56.63600 264.000
56.65594 246.000
56.67589 283.000
56.69584 286.000
56.71578 295.000
56.73573 269.000
56.75568 278.000
56.77563 289.000
56.79557 273.000
56.81552 256.000
56.83547 275.000
56.85541 302.000
56.87536 276.000
56.89531 274.000
56.91525 287.000
56.93520 289.000
56.95515 278.000
56.97510 285.000
56.99504 314.000
57.01499 311.000
57.03494 298.000
57.05488 287.000
57.07483 335.000
57.09478 287.000
57.11472 344.000
57.13467 341.000
57.15462 363.000
57.17456 375.000
57.19451 347.000
57.21446 370.000
57.23441 436.000
57.25435 468.000
57.27430 602.000
57.29425 750.000
57.31419 862.000
57.33414 1019.000
57.35409 1034.000
57.37403 858.000
57.39398 691.000
57.41393 569.000
57.43388 588.000
57.45382 575.000
57.47377 656.000
57.49372 773.000
57.51366 627.000
57.53361 561.000
57.55356 471.000
57.57350 396.000
57.59345 365.000
57.61340 390.000
57.63334 366.000
57.65329 339.000
57.67324 311.000
57.69319 330.000
57.71313 336.000
57.73308 303.000
57.75303 378.000
57.77297 312.000
57.79292 334.000
57.81287 321.000
57.83281 339.000
57.85276 343.000
57.87271 298.000
57.89266 283.000
57.91260 345.000
57.93255 309.000
57.95250 318.000
57.97244 305.000
57.99239 320.000
58.01234 301.000
58.03228 332.000
58.05223 295.000
58.07218 315.000
58.09212 307.000
58.11207 325.000
58.13202 311.000
58.15197 301.000
58.17191 343.000
58.19186 357.000
58.21181 372.000
58.23175 322.000
58.25170 359.000
58.27165 334.000
58.29159 323.000
58.31154 339.000
58.33149 308.000
58.35144 341.000
58.37138 327.000
58.39133 314.000
58.41128 313.000
58.43122 345.000
58.45117 322.000
58.47112 333.000
58.49106 314.000
58.51101 280.000
58.53096 275.000
58.55090 288.000
58.57085 308.000
58.59080 267.000
58.61075 252.000
58.63069 273.000
58.65064 271.000
58.67059 254.000
58.69053 268.000
58.71048 269.000
58.73043 262.000
58.75037 260.000
58.77032 271.000
58.79027 287.000
58.81022 263.000
58.83016 258.000
58.85011 265.000
58.87006 281.000
58.89000 262.000
58.90995 262.000
58.92990 251.000
58.94984 252.000
58.96979 246.000
58.98974 263.000
59.00969 236.000
59.02963 247.000
59.04958 241.000
59.06953 259.000
59.08947 275.000
59.10942 269.000
59.12937 251.000
59.14931 279.000
59.16926 261.000
59.18921 270.000
59.20915 254.000
59.22910 269.000
59.24905 284.000
59.26900 268.000
59.28894 258.000
59.30889 286.000
59.32884 271.000
59.34878 233.000
59.36873 246.000
59.38868 259.000
59.40862 271.000
59.42857 253.000
59.44852 256.000
59.46847 238.000
59.48841 252.000
59.50836 256.000
59.52831 275.000
59.54825 270.000
59.56820 243.000
59.58815 269.000
59.60809 259.000
59.62804 260.000
59.64799 235.000
59.66793 264.000
59.68788 256.000
59.70783 258.000
59.72778 256.000
59.74772 270.000
59.76767 266.000
59.78762 276.000
59.80756 267.000
59.82751 239.000
59.84746 281.000
59.86740 245.000
59.88735 259.000
59.90730 257.000
59.92725 286.000
59.94719 272.000
59.96714 260.000
59.98709 267.000
60.00703 265.000
60.02698 261.000
60.04693 261.000
60.06687 268.000
60.08682 258.000
60.10677 260.000
60.12671 297.000
60.14666 265.000
60.16661 272.000
60.18656 269.000
60.20650 260.000
60.22645 234.000
60.24640 290.000
60.26634 276.000
60.28629 276.000
60.30624 234.000
60.32618 243.000
60.34613 259.000
60.36608 277.000
60.38603 255.000
60.40597 254.000
60.42592 251.000
60.44587 286.000
60.46581 245.000
60.48576 264.000
60.50571 262.000
60.52565 263.000
60.54560 258.000
60.56555 278.000
60.58550 256.000
60.60544 259.000
60.62539 299.000
60.64534 281.000
60.66528 266.000
60.68523 263.000
60.70518 239.000
60.72512 268.000
60.74507 286.000
60.76502 301.000
60.78496 256.000
60.80491 233.000
60.82486 240.000
60.84481 266.000
60.86475 277.000
60.88470 258.000
60.90465 269.000
60.92459 279.000
60.94454 271.000
60.96449 265.000
60.98443 280.000
61.00438 281.000
61.02433 293.000
61.04428 257.000
61.06422 285.000
61.08417 264.000
61.10412 271.000
61.12406 278.000
61.14401 247.000
61.16396 267.000
61.18390 288.000
61.20385 272.000
61.22380 270.000
61.24374 257.000
61.26369 267.000
61.28364 273.000
61.30359 264.000
61.32353 288.000
61.34348 320.000
61.36343 318.000
61.38337 308.000
61.40332 325.000
61.42327 365.000
61.44321 358.000
61.46316 339.000
61.48311 401.000
61.50306 402.000
61.52300 368.000
61.54295 448.000
61.56290 434.000
61.58284 419.000
61.60279 447.000
61.62274 425.000
61.64268 459.000
61.66263 414.000
61.68258 453.000
61.70252 401.000
61.72247 379.000
61.74242 392.000
61.76237 424.000
61.78231 336.000
61.80226 422.000
61.82221 397.000
61.84215 380.000
61.86210 413.000
61.88205 400.000
61.90199 364.000
61.92194 364.000
61.94189 393.000
61.96184 390.000
61.98178 390.000
62.00173 392.000
62.02168 380.000
62.04162 362.000
62.06157 323.000
62.08152 378.000
62.10146 404.000
62.12141 386.000
62.14136 388.000
62.16131 346.000
62.18125 379.000
62.20120 364.000
62.22115 392.000
62.24109 388.000
62.26104 357.000
62.28099 373.000
62.30093 391.000
62.32088 451.000
62.34083 416.000
62.36077 445.000
62.38072 425.000
62.40067 465.000
62.42062 465.000
62.44056 502.000
62.46051 484.000
62.48046 521.000
62.50040 536.000
62.52035 575.000
62.54030 607.000
62.56024 597.000
62.58019 710.000
62.60014 646.000
62.62009 701.000
62.64003 681.000
62.65998 702.000
62.67993 701.000
62.69987 696.000
62.71982 693.000
62.73977 723.000
62.75971 692.000
62.77966 687.000
62.79961 651.000
62.81955 678.000
62.83950 629.000
62.85945 686.000
62.87940 754.000
62.89934 883.000
62.91929 1025.000
62.93924 1182.000
62.95918 1344.000
62.97913 1431.000
62.99908 1186.000
63.01902 1010.000
63.03897 808.000
63.05892 716.000
63.07887 720.000
63.09881 769.000
63.11876 814.000
63.13871 874.000
63.15865 822.000
63.17860 751.000
63.19855 626.000
63.21849 533.000
63.23844 451.000
63.25839 408.000
63.27833 377.000
63.29828 358.000
63.31823 365.000
63.33818 347.000
63.35812 324.000
63.37807 314.000
63.39802 323.000
63.41796 285.000
63.43791 324.000
63.45786 340.000
63.47780 323.000
63.49775 295.000
63.51770 261.000
63.53765 291.000
63.55759 294.000
63.57754 278.000
63.59749 255.000
63.61743 272.000
63.63738 280.000
63.65733 265.000
63.67727 289.000
63.69722 302.000
63.71717 264.000
63.73712 279.000
63.75706 295.000
63.77701 292.000
63.79696 260.000
63.81690 276.000
63.83685 294.000
63.85680 282.000
63.87674 285.000
63.89669 270.000
63.91664 260.000
63.93658 267.000
63.95653 269.000
63.97648 280.000
63.99643 285.000
64.01637 279.000
64.03632 281.000
64.05627 288.000
64.07621 285.000
64.09616 275.000
64.11611 261.000
64.13605 276.000
64.15600 261.000
64.17595 285.000
64.19590 308.000
64.21584 288.000
64.23579 275.000
64.25574 278.000
64.27568 275.000
64.29563 297.000
64.31558 325.000
64.33552 326.000
64.35547 275.000
64.37542 293.000
64.39536 272.000
64.41531 282.000
64.43526 273.000
64.45521 248.000
64.47515 280.000
64.49510 289.000
64.51505 292.000
64.53499 297.000
64.55494 270.000
64.57489 257.000
64.59483 268.000
64.61478 263.000
64.63473 262.000
64.65468 255.000
64.67462 299.000
64.69457 283.000
64.71452 276.000
64.73446 264.000
64.75441 292.000
64.77436 272.000
64.79430 264.000
64.81425 280.000
64.83420 252.000
64.85414 236.000
64.87409 259.000
64.89404 260.000
64.91399 263.000
64.93393 268.000
64.95388 269.000
64.97383 287.000
64.99377 266.000
65.01372 273.000
65.03367 276.000
65.05361 287.000
65.07356 268.000
65.09351 268.000
65.11346 267.000
65.13340 283.000
65.15335 293.000
65.17330 271.000
65.19324 255.000
65.21319 270.000
65.23314 296.000
65.25308 275.000
65.27303 271.000
65.29298 297.000
65.31293 265.000
65.33287 273.000
65.35282 299.000
65.37277 282.000
65.39271 306.000
65.41266 310.000
65.43261 315.000
65.45255 305.000
65.47250 293.000
65.49245 316.000
65.51239 304.000
65.53234 321.000
65.55229 347.000
65.57224 304.000
65.59218 333.000
65.61213 328.000
65.63208 348.000
65.65202 340.000
65.67197 362.000
65.69192 360.000
65.71186 356.000
65.73181 314.000
65.75176 345.000
65.77171 349.000
65.79165 354.000
65.81160 363.000
65.83155 339.000
65.85149 354.000
65.87144 336.000
65.89139 325.000
65.91133 309.000
65.93128 328.000
65.95123 320.000
65.97117 318.000
65.99112 321.000
66.01107 323.000
66.03102 329.000
66.05096 310.000
66.07091 324.000
66.09086 350.000
66.11080 332.000
66.13075 314.000
66.15070 304.000
66.17064 351.000
66.19059 370.000
66.21054 350.000
66.23049 343.000
66.25043 413.000
66.27038 376.000
66.29033 367.000
66.31027 361.000
66.33022 362.000
66.35017 372.000
66.37011 418.000
66.39006 393.000
66.41001 359.000
66.42995 391.000
66.44990 330.000
66.46985 366.000
66.48980 337.000
66.50974 362.000
66.52969 308.000
66.54964 339.000
66.56958 344.000
66.58953 296.000
66.60948 318.000
66.62942 330.000
66.64937 317.000
66.66932 324.000
66.68927 294.000
66.70921 306.000
66.72916 273.000
66.74911 273.000
66.76905 279.000
66.78900 268.000
66.80895 270.000
66.82889 275.000
66.84884 272.000
66.86879 276.000
66.88874 299.000
66.90868 307.000
66.92863 285.000
66.94858 284.000
66.96852 252.000
66.98847 283.000
67.00842 274.000
67.02836 298.000
67.04831 277.000
67.06826 266.000
67.08820 286.000
67.10815 267.000
67.12810 257.000
67.14805 260.000
67.16799 292.000
67.18794 234.000
67.20789 244.000
67.22783 288.000
67.24778 248.000
67.26773 237.000
67.28767 253.000
67.30762 248.000
67.32757 257.000
67.34752 240.000
67.36746 271.000
67.38741 287.000
67.40736 255.000
67.42730 261.000
67.44725 267.000
67.46720 303.000
67.48714 275.000
67.50709 266.000
67.52704 282.000
67.54698 276.000
67.56693 284.000
67.58688 284.000
67.60683 271.000
67.62677 295.000
67.64672 303.000
67.66667 273.000
67.68661 288.000
67.70656 260.000
67.72651 252.000
67.74645 313.000
67.76640 316.000
67.78635 350.000
67.80630 339.000
67.82624 307.000
67.84619 322.000
67.86614 290.000
67.88608 295.000
67.90603 327.000
67.92598 339.000
67.94592 357.000
67.96587 341.000
67.98582 356.000
68.00576 369.000
68.02571 365.000
68.04566 352.000
68.06561 324.000
68.08555 358.000
68.10550 340.000
68.12545 351.000
68.14539 349.000
68.16534 346.000
68.18529 331.000
68.20523 356.000
68.22518 341.000
68.24513 327.000
68.26508 295.000
68.28502 360.000
68.30497 305.000
68.32492 294.000
68.34486 276.000
68.36481 311.000
68.38476 286.000
68.40470 280.000
68.42465 311.000
68.44460 283.000
68.46455 298.000
68.48449 282.000
68.50444 251.000
68.52439 259.000
68.54433 269.000
68.56428 285.000
68.58423 235.000
68.60417 259.000
68.62412 253.000
68.64407 252.000
68.66401 277.000
68.68396 261.000
68.70391 240.000
68.72386 261.000
68.74380 265.000
68.76375 283.000
68.78370 234.000
68.80364 247.000
68.82359 251.000
68.84354 265.000
68.86348 250.000
68.88343 270.000
68.90338 256.000
68.92333 225.000
68.94327 246.000
68.96322 260.000
68.98317 234.000
69.00311 260.000
69.02306 246.000
69.04301 242.000
69.06295 251.000
69.08290 266.000
69.10285 248.000
69.12279 251.000
69.14274 254.000
69.16269 253.000
69.18264 258.000
69.20258 258.000
69.22253 259.000
69.24248 271.000
69.26242 287.000
69.28237 245.000
69.30232 279.000
69.32226 254.000
69.34221 256.000
69.36216 246.000
69.38211 250.000
69.40205 246.000
69.42200 256.000
69.44195 265.000
69.46189 239.000
69.48184 263.000
69.50179 258.000
69.52173 250.000
69.54168 234.000
69.56163 284.000
69.58157 251.000
69.60152 243.000
69.62147 263.000
69.64142 249.000
69.66136 258.000
69.68131 235.000
69.70126 250.000
69.72120 240.000
69.74115 267.000
69.76110 226.000
69.78104 237.000
69.80099 244.000
69.82094 277.000
69.84089 263.000
69.86083 223.000
69.88078 238.000
69.90073 266.000
69.92067 263.000
69.94062 245.000
69.96057 247.000
69.98051 251.000
70.00046 245.000
70.02041 237.000
70.04035 259.000
70.06030 247.000
70.08025 229.000
70.10020 255.000
70.12014 269.000
70.14009 254.000
70.16004 244.000
70.17998 292.000
70.19993 251.000
70.21988 218.000
70.23982 251.000
70.25977 232.000
70.27972 286.000
70.29967 264.000
70.31961 252.000
70.33956 245.000
70.35951 256.000
70.37945 284.000
70.39940 225.000
70.41935 288.000
70.43929 262.000
70.45924 277.000
70.47919 282.000
70.49914 250.000
70.51908 240.000
70.53903 224.000
70.55898 228.000
70.57892 232.000
70.59887 233.000
70.61882 251.000
70.63876 242.000
70.65871 235.000
70.67866 258.000
70.69860 240.000
70.71855 248.000
70.73850 247.000
70.75845 260.000
70.77839 264.000
70.79834 275.000
70.81829 239.000
70.83823 236.000
70.85818 252.000
70.87813 262.000
70.89807 255.000
70.91802 210.000
70.93797 252.000
70.95792 252.000
70.97786 236.000
70.99781 213.000
71.01776 261.000
71.03770 231.000
71.05765 256.000
71.07760 239.000
71.09754 251.000
71.11749 272.000
71.13744 264.000
71.15738 229.000
71.17733 267.000
71.19728 253.000
71.21723 240.000
71.23717 258.000
71.25712 276.000
71.27707 269.000
71.29701 260.000
71.31696 281.000
71.33691 255.000
71.35685 286.000
71.37680 288.000
71.39675 291.000
71.41670 296.000
71.43664 347.000
71.45659 293.000
71.47654 289.000
71.49648 301.000
71.51643 294.000
71.53638 274.000
71.55632 237.000
71.57627 293.000
71.59622 272.000
71.61616 323.000
71.63611 270.000
71.65606 290.000
71.67601 295.000
71.69595 282.000
71.71590 301.000
71.73585 241.000
71.75579 261.000
71.77574 265.000
71.79569 260.000
71.81563 270.000
71.83558 283.000
71.85553 287.000
71.87548 265.000
71.89542 253.000
71.91537 282.000
71.93532 250.000
71.95526 277.000
71.97521 275.000
71.99516 279.000
72.01510 248.000
72.03505 245.000
72.05500 234.000
72.07495 284.000
72.09489 255.000
72.11484 246.000
72.13479 242.000
72.15473 267.000
72.17468 256.000
72.19463 243.000
72.21457 275.000
72.23452 260.000
72.25447 274.000
72.27441 259.000
72.29436 274.000
72.31431 271.000
72.33426 271.000
72.35420 266.000
72.37415 290.000
72.39410 299.000
72.41404 302.000
72.43399 293.000
72.45394 329.000
72.47388 286.000
72.49383 293.000
72.51378 326.000
72.53373 308.000
72.55367 266.000
72.57362 275.000
72.59357 303.000
72.61351 275.000
72.63346 292.000
72.65341 274.000
72.67335 274.000
72.69330 253.000
72.71325 268.000
72.73319 255.000
72.75314 263.000
72.77309 271.000
72.79304 259.000
72.81298 285.000
72.83293 254.000
72.85288 277.000
72.87282 272.000
72.89277 247.000
72.91272 267.000
72.93266 260.000
72.95261 288.000
72.97256 273.000
72.99251 252.000
73.01245 246.000
73.03240 265.000
73.05235 274.000
73.07229 236.000
73.09224 260.000
73.11219 265.000
73.13213 260.000
73.15208 281.000
73.17203 245.000
73.19197 271.000
73.21192 248.000
73.23187 265.000
73.25182 245.000
73.27176 228.000
73.29171 257.000
73.31166 257.000
73.33160 259.000
73.35155 247.000
73.37150 263.000
73.39144 258.000
73.41139 236.000
73.43134 271.000
73.45129 269.000
73.47123 243.000
73.49118 260.000
73.51113 271.000
73.53107 286.000
73.55102 265.000
73.57097 278.000
73.59091 283.000
73.61086 257.000
73.63081 279.000
73.65076 230.000
73.67070 250.000
73.69065 290.000
73.71060 269.000
73.73054 276.000
73.75049 265.000
73.77044 239.000
73.79038 264.000
73.81033 270.000
73.83028 269.000
73.85022 266.000
73.87017 265.000
73.89012 276.000
73.91007 273.000
73.93001 239.000
73.94996 255.000
73.96991 275.000
73.98985 256.000
74.00980 288.000
74.02975 282.000
74.04969 292.000
74.06964 288.000
74.08959 256.000
74.10954 258.000
74.12948 254.000
74.14943 256.000
74.16938 265.000
74.18932 285.000
74.20927 264.000
74.22922 282.000
74.24916 268.000
74.26911 260.000
74.28906 261.000
74.30900 258.000
74.32895 272.000
74.34890 255.000
74.36885 282.000
74.38879 326.000
74.40874 337.000
74.42869 336.000
74.44863 359.000
74.46858 389.000
74.48853 390.000
74.50847 457.000
74.52842 475.000
74.54837 415.000
74.56832 390.000
74.58826 357.000
74.60821 362.000
74.62816 340.000
74.64810 312.000
74.66805 338.000
74.68800 347.000
74.70794 397.000
74.72789 377.000
74.74784 407.000
74.76778 348.000
74.78773 366.000
74.80768 353.000
74.82763 346.000
74.84757 370.000
74.86752 340.000
74.88747 348.000
74.90741 344.000
74.92736 374.000
74.94731 380.000
74.96725 336.000
74.98720 410.000
75.00715 357.000
75.02710 335.000
75.04704 406.000
75.06699 398.000
75.08694 390.000
75.10688 397.000
75.12683 416.000
75.14678 384.000
75.16672 392.000
75.18667 400.000
75.20662 368.000
75.22657 390.000
75.24651 395.000
75.26646 394.000
75.28641 406.000
75.30635 397.000
75.32630 348.000
75.34625 392.000
75.36619 388.000
75.38614 362.000
75.40609 405.000
75.42603 382.000
75.44598 393.000
75.46593 378.000
75.48588 407.000
75.50582 357.000
75.52577 386.000
75.54572 380.000
75.56566 371.000
75.58561 341.000
75.60556 330.000
75.62550 297.000
75.64545 332.000
75.66540 295.000
75.68535 317.000
75.70529 304.000
75.72524 312.000
75.74519 297.000
75.76513 324.000
75.78508 263.000
75.80503 309.000
75.82497 322.000
75.84492 303.000
75.86487 296.000
75.88481 285.000
75.90476 255.000
75.92471 253.000
75.94466 259.000
75.96460 237.000
75.98455 264.000
76.00450 238.000
76.02444 253.000
76.04439 267.000
76.06434 270.000
76.08428 291.000
76.10423 274.000
76.12418 283.000
76.14413 263.000
76.16407 231.000
76.18402 256.000
76.20397 252.000
76.22391 265.000
76.24386 263.000
76.26381 262.000
76.28375 250.000
76.30370 215.000
76.32365 245.000
76.34359 270.000
76.36354 258.000
76.38349 233.000
76.40344 239.000
76.42338 242.000
76.44333 265.000
76.46328 233.000
76.48322 243.000
76.50317 252.000
76.52312 253.000
76.54306 259.000
76.56301 238.000
76.58296 245.000
76.60291 226.000
76.62285 259.000
76.64280 244.000
76.66275 261.000
76.68269 241.000
76.70264 264.000
76.72259 251.000
76.74253 256.000
76.76248 224.000
76.78243 237.000
76.80238 228.000
76.82232 276.000
76.84227 268.000
76.86222 305.000
76.88216 229.000
76.90211 245.000
76.92206 265.000
76.94200 265.000
76.96195 243.000
76.98190 256.000
77.00184 219.000
77.02179 232.000
77.04174 247.000
77.06169 246.000
77.08163 248.000
77.10158 233.000
77.12153 253.000
77.14147 250.000
77.16142 249.000
77.18137 254.000
77.20131 250.000
77.22126 248.000
77.24121 263.000
77.26116 272.000
77.28110 252.000
77.30105 267.000
77.32100 245.000
77.34094 251.000
77.36089 233.000
77.38084 259.000
77.40078 238.000
77.42073 248.000
77.44068 251.000
77.46062 275.000
77.48057 275.000
77.50052 280.000
77.52047 262.000
77.54041 259.000
77.56036 255.000
77.58031 251.000
77.60025 245.000
77.62020 261.000
77.64015 218.000
77.66009 237.000
77.68004 257.000
77.69999 265.000
77.71994 240.000
77.73988 242.000
77.75983 260.000
77.77978 261.000
77.79972 255.000
77.81967 279.000
77.83962 255.000
77.85956 278.000
77.87951 278.000
77.89946 216.000
77.91940 280.000
77.93935 262.000
77.95930 263.000
77.97925 267.000
77.99919 230.000
78.01914 279.000
78.03909 261.000
78.05903 250.000
78.07898 293.000
78.09893 273.000
78.11887 237.000
78.13882 248.000
78.15877 280.000
78.17872 240.000
78.19866 233.000
78.21861 275.000
78.23856 287.000
78.25850 235.000
78.27845 255.000
78.29840 261.000
78.31834 241.000
78.33829 254.000
78.35824 283.000
78.37819 260.000
78.39813 250.000
78.41808 290.000
78.43803 264.000
78.45797 241.000
78.47792 277.000
78.49787 279.000
78.51781 289.000
78.53776 271.000
78.55771 277.000
78.57765 263.000
78.59760 269.000
78.61755 282.000
78.63750 283.000
78.65744 277.000
78.67739 271.000
78.69734 260.000
78.71728 261.000
78.73723 250.000
78.75718 300.000
78.77712 273.000
78.79707 279.000
78.81702 266.000
78.83697 269.000
78.85691 281.000
78.87686 289.000
78.89681 275.000
78.91675 305.000
78.93670 283.000
78.95665 325.000
78.97659 301.000
78.99654 316.000
79.01649 286.000
79.03643 345.000
79.05638 313.000
79.07633 316.000
79.09628 314.000
79.11622 331.000
79.13617 351.000
79.15612 369.000
79.17606 321.000
79.19601 298.000
79.21596 345.000
79.23590 332.000
79.25585 339.000
79.27580 338.000
79.29575 316.000
79.31569 299.000
79.33564 302.000
79.35559 253.000
79.37553 325.000
79.39548 278.000
79.41543 312.000
79.43537 277.000
79.45532 318.000
79.47527 307.000
79.49521 324.000
79.51516 299.000
79.53511 343.000
79.55506 324.000
79.57500 296.000
79.59495 312.000
79.61490 294.000
79.63484 277.000
79.65479 265.000
79.67474 252.000
79.69468 257.000
79.71463 303.000
79.73458 242.000
79.75453 278.000
79.77447 241.000
79.79442 274.000
79.81437 276.000
79.83431 271.000
79.85426 264.000
79.87421 268.000
79.89415 271.000
79.91410 240.000
79.93405 269.000
79.95399 243.000
79.97394 250.000
79.99389 258.000
80.01384 240.000
80.03378 251.000
80.05373 223.000
80.07368 255.000
80.09362 245.000
80.11357 263.000
80.13352 262.000
80.15346 249.000
80.17341 286.000
80.19336 260.000
80.21331 222.000
80.23325 259.000
80.25320 250.000
80.27315 237.000
80.29309 261.000
80.31304 260.000
80.33299 250.000
80.35293 246.000
80.37288 280.000
80.39283 253.000
80.41278 261.000
80.43272 274.000
80.45267 236.000
80.47262 271.000
80.49256 274.000
80.51251 259.000
80.53246 238.000
80.55240 251.000
80.57235 278.000
80.59230 271.000
80.61224 256.000
80.63219 274.000
80.65214 253.000
80.67209 270.000
80.69203 256.000
80.71198 223.000
80.73193 221.000
80.75187 229.000
80.77182 226.000
80.79177 243.000
80.81171 265.000
80.83166 249.000
80.85161 255.000
80.87156 220.000
80.89150 237.000
80.91145 220.000
80.93140 251.000
80.95134 241.000
80.97129 271.000
80.99124 241.000
81.01118 237.000
81.03113 227.000
81.05108 262.000
81.07102 235.000
81.09097 228.000
81.11092 238.000
81.13087 248.000
81.15081 224.000
81.17076 237.000
81.19071 245.000
81.21065 245.000
81.23060 243.000
81.25055 245.000
81.27049 249.000
81.29044 240.000
81.31039 236.000
81.33034 259.000
81.35028 235.000
81.37023 243.000
81.39018 262.000
81.41012 267.000
81.43007 253.000
81.45002 258.000
81.46996 248.000
81.48991 258.000
81.50986 219.000
81.52980 261.000
81.54975 260.000
81.56970 263.000
81.58965 265.000
81.60959 283.000
81.62954 227.000
81.64949 256.000
81.66943 241.000
81.68938 249.000
81.70933 248.000
81.72927 252.000
81.74922 263.000
81.76917 258.000
81.78912 248.000
81.80906 246.000
81.82901 246.000
81.84896 227.000
81.86890 239.000
81.88885 228.000
81.90880 246.000
81.92874 226.000
81.94869 263.000
81.96864 252.000
81.98859 257.000
82.00853 267.000
82.02848 249.000
82.04843 262.000
82.06837 264.000
82.08832 246.000
82.10827 258.000
82.12821 217.000
82.14816 257.000
82.16811 242.000
82.18805 243.000
82.20800 249.000
82.22795 252.000
82.24790 233.000
82.26784 282.000
82.28779 261.000
82.30774 285.000
82.32768 248.000
82.34763 238.000
82.36758 276.000
82.38752 229.000
82.40747 244.000
82.42742 281.000
82.44737 262.000
82.46731 272.000
82.48726 238.000
82.50721 299.000
82.52715 292.000
82.54710 294.000
82.56705 296.000
82.58699 280.000
82.60694 287.000
82.62689 286.000
82.64683 289.000
82.66678 259.000
82.68673 275.000
82.70668 269.000
82.72662 258.000
82.74657 290.000
82.76652 251.000
82.78646 259.000
82.80641 267.000
82.82636 276.000
82.84630 269.000
82.86625 274.000
82.88620 271.000
82.90615 239.000
82.92609 257.000
82.94604 264.000
82.96599 264.000
82.98593 280.000
83.00588 259.000
83.02583 274.000
83.04577 246.000
83.06572 267.000
83.08567 261.000
83.10561 269.000
83.12556 260.000
83.14551 234.000
83.16546 271.000
83.18540 246.000
83.20535 251.000
83.22530 279.000
83.24524 235.000
83.26519 272.000
83.28514 256.000
83.30508 250.000
83.32503 248.000
83.34498 237.000
83.36493 243.000
83.38487 278.000
83.40482 271.000
83.42477 259.000
83.44471 241.000
83.46466 251.000
83.48461 264.000
83.50455 254.000
83.52450 262.000
83.54445 240.000
83.56440 242.000
83.58434 253.000
83.60429 252.000
83.62424 253.000
83.64418 250.000
83.66413 287.000
83.68408 267.000
83.70402 267.000
83.72397 258.000
83.74392 281.000
83.76386 243.000
83.78381 270.000
83.80376 283.000
83.82371 238.000
83.84365 259.000
83.86360 254.000
83.88355 254.000
83.90349 241.000
83.92344 255.000
83.94339 281.000
83.96333 254.000
83.98328 256.000
84.00323 275.000
84.02318 282.000
84.04312 257.000
84.06307 259.000
84.08302 281.000
84.10296 219.000
84.12291 218.000
84.14286 274.000
84.16280 271.000
84.18275 273.000
84.20270 265.000
84.22264 258.000
84.24259 257.000
84.26254 285.000
84.28249 255.000
84.30243 289.000
84.32238 256.000
84.34233 254.000
84.36227 260.000
84.38222 262.000
84.40217 243.000
84.42211 267.000
84.44206 270.000
84.46201 265.000
84.48196 261.000
84.50190 240.000
84.52185 277.000
84.54180 232.000
84.56174 244.000
84.58169 254.000
84.60164 245.000
84.62158 220.000
84.64153 246.000
84.66148 253.000
84.68142 260.000
84.70137 254.000
84.72132 246.000
84.74127 243.000
84.76121 251.000
84.78116 250.000
84.80111 239.000
84.82105 259.000
84.84100 224.000
84.86095 230.000
84.88089 241.000
84.90084 264.000
84.92079 219.000
84.94074 229.000
84.96068 274.000
84.98063 266.000
85.00058 256.000
85.02052 249.000
85.04047 258.000
85.06042 241.000
85.08036 238.000
85.10031 223.000
85.12026 273.000
85.14021 246.000
85.16015 254.000
85.18010 207.000
85.20005 250.000
85.21999 224.000
85.23994 268.000
85.25989 252.000
85.27983 252.000
85.29978 241.000
85.31973 247.000
85.33967 244.000
85.35962 230.000
85.37957 258.000
85.39952 227.000
85.41946 249.000
85.43941 234.000
85.45936 239.000
85.47930 232.000
85.49925 226.000
85.51920 241.000
85.53914 249.000
85.55909 258.000
85.57904 234.000
85.59899 238.000
85.61893 234.000
85.63888 251.000
85.65883 237.000
85.67877 261.000
85.69872 246.000
85.71867 277.000
85.73861 272.000
85.75856 219.000
85.77851 245.000
85.79845 228.000
85.81840 249.000
85.83835 241.000
85.85830 250.000
85.87824 234.000
85.89819 253.000
85.91814 252.000
85.93808 229.000
85.95803 258.000
85.97798 260.000
85.99792 242.000
86.01787 221.000
86.03782 237.000
86.05777 252.000
86.07771 230.000
86.09766 224.000
86.11761 261.000
86.13755 229.000
86.15750 252.000
86.17745 250.000
86.19739 231.000
86.21734 273.000
86.23729 249.000
86.25723 244.000
86.27718 242.000
86.29713 257.000
86.31708 233.000
86.33702 244.000
86.35697 268.000
86.37692 245.000
86.39686 244.000
86.41681 251.000
86.43676 260.000
86.45670 253.000
86.47665 242.000
86.49660 230.000
86.51655 239.000
86.53649 215.000
86.55644 245.000
86.57639 262.000
86.59633 237.000
86.61628 241.000
86.63623 256.000
86.65617 268.000
86.67612 266.000
86.69607 236.000
86.71602 274.000
86.73596 257.000
86.75591 250.000
86.77586 246.000
86.79580 229.000
86.81575 244.000
86.83570 272.000
86.85564 241.000
86.87559 252.000
86.89554 209.000
86.91548 257.000
86.93543 222.000
86.95538 264.000
86.97533 308.000
86.99527 262.000
87.01522 251.000
87.03517 272.000
87.05511 245.000
87.07506 261.000
87.09501 273.000
87.11495 291.000
87.13490 276.000
87.15485 281.000
87.17480 238.000
87.19474 259.000
87.21469 268.000
87.23464 278.000
87.25458 270.000
87.27453 269.000
87.29448 281.000
87.31442 289.000
87.33437 281.000
87.35432 281.000
87.37426 315.000
87.39421 310.000
87.41416 301.000
87.43411 324.000
87.45405 308.000
87.47400 288.000
87.49395 300.000
87.51389 287.000
87.53384 278.000
87.55379 264.000
87.57373 239.000
87.59368 275.000
87.61363 301.000
87.63358 262.000
87.65352 262.000
87.67347 277.000
87.69342 316.000
87.71336 277.000
87.73331 272.000
87.75326 286.000
87.77320 267.000
87.79315 262.000
87.81310 254.000
87.83304 260.000
87.85299 277.000
87.87294 243.000
87.89289 257.000
87.91283 273.000
87.93278 244.000
87.95273 263.000
87.97267 250.000
87.99262 243.000
88.01257 245.000
88.03251 266.000
88.05246 248.000
88.07241 259.000
88.09236 254.000
88.11230 222.000
88.13225 253.000
88.15220 250.000
88.17214 250.000
88.19209 263.000
88.21204 241.000
88.23198 218.000
88.25193 236.000
88.27188 241.000
88.29183 272.000
88.31177 235.000
88.33172 232.000
88.35167 232.000
88.37161 277.000
88.39156 260.000
88.41151 271.000
88.43145 252.000
88.45140 244.000
88.47135 256.000
88.49129 246.000
88.51124 247.000
88.53119 251.000
88.55114 253.000
88.57108 255.000
88.59103 254.000
88.61098 224.000
88.63092 230.000
88.65087 253.000
88.67082 256.000
88.69076 255.000
88.71071 266.000
88.73066 242.000
88.75061 237.000
88.77055 225.000
88.79050 226.000
88.81045 266.000
88.83039 242.000
88.85034 260.000
88.87029 217.000
88.89023 273.000
88.91018 230.000
88.93013 240.000
88.95007 244.000
88.97002 258.000
88.98997 233.000
89.00992 254.000
89.02986 229.000
89.04981 235.000
89.06976 234.000
89.08970 265.000
89.10965 215.000
89.12960 260.000
89.14954 243.000
89.16949 249.000
89.18944 261.000
89.20939 211.000
89.22933 236.000
89.24928 249.000
89.26923 209.000
89.28917 244.000
89.30912 272.000
89.32907 233.000
89.34901 269.000
89.36896 261.000
89.38891 260.000
89.40885 246.000
89.42880 261.000
89.44875 276.000
89.46870 231.000
89.48864 247.000
89.50859 238.000
89.52854 265.000
89.54848 262.000
89.56843 265.000
89.58838 270.000
89.60832 258.000
89.62827 249.000
89.64822 250.000
89.66817 297.000
89.68811 292.000
89.70806 276.000
89.72801 250.000
89.74795 255.000
89.76790 280.000
89.78785 260.000
89.80779 260.000
89.82774 282.000
89.84769 236.000
89.86764 274.000
89.88758 264.000
89.90753 262.000
89.92748 287.000
89.94742 266.000
89.96737 297.000
89.98732 250.000
90.00726 273.000
