10.00000 95.000
10.01995 88.000
10.03989 81.000
10.05984 93.000
10.07979 76.000
10.09973 75.000
10.11968 89.000
10.13963 58.000
10.15958 102.000
10.17952 86.000
10.19947 78.000
10.21942 66.000
10.23936 93.000
10.25931 85.000
10.27926 74.000
10.29920 94.000
10.31915 70.000
10.33910 87.000
10.35905 81.000
10.37899 105.000
10.39894 88.000
10.41889 70.000
10.43883 84.000
10.45878 78.000
10.47873 80.000
10.49867 97.000
10.51862 71.000
10.53857 89.000
10.55851 85.000
10.57846 89.000
10.59841 82.000
10.61836 82.000
10.63830 84.000
10.65825 81.000
10.67820 85.000
10.69814 90.000
10.71809 66.000
10.73804 74.000
10.75798 78.000
10.77793 82.000
10.79788 94.000
10.81783 73.000
10.83777 78.000
10.85772 72.000
10.87767 68.000
10.89761 87.000
10.91756 103.000
10.93751 92.000
10.95745 87.000
10.97740 86.000
10.99735 90.000
11.01730 87.000
11.03724 86.000
11.05719 83.000
11.07714 86.000
11.09708 88.000
11.11703 75.000
11.13698 81.000
11.15692 83.000
11.17687 93.000
11.19682 84.000
11.21676 63.000
11.23671 86.000
11.25666 78.000
11.27661 90.000
11.29655 80.000
11.31650 90.000
11.33645 88.000
11.35639 81.000
11.37634 84.000
11.39629 91.000
11.41623 76.000
11.43618 90.000
11.45613 84.000
11.47608 79.000
11.49602 89.000
11.51597 76.000
11.53592 88.000
11.55586 81.000
11.57581 90.000
11.59576 86.000
11.61570 86.000
11.63565 72.000
11.65560 89.000
11.67554 69.000
11.69549 99.000
11.71544 91.000
11.73539 93.000
11.75533 89.000
11.77528 90.000
11.79523 93.000
11.81517 90.000
11.83512 82.000
11.85507 81.000
11.87501 83.000
11.89496 96.000
11.91491 100.000
11.93486 91.000
11.95480 87.000
11.97475 67.000
11.99470 91.000
12.01464 71.000
12.03459 86.000
12.05454 77.000
12.07448 97.000
12.09443 101.000
12.11438 86.000
12.13432 76.000
12.15427 77.000
12.17422 77.000
12.19417 75.000
12.21411 73.000
12.23406 81.000
12.25401 88.000
12.27395 89.000
12.29390 93.000
12.31385 78.000
12.33379 81.000
12.35374 89.000
12.37369 94.000
12.39364 93.000
12.41358 88.000
12.43353 79.000
12.45348 91.000
12.47342 76.000
12.49337 71.000
12.51332 72.000
12.53326 77.000
12.55321 82.000
12.57316 85.000
12.59311 85.000
12.61305 90.000
12.63300 92.000
12.65295 74.000
12.67289 82.000
12.69284 78.000
12.71279 87.000
12.73273 83.000
12.75268 92.000
12.77263 72.000
12.79257 89.000
12.81252 72.000
12.83247 84.000
12.85242 84.000
12.87236 88.000
12.89231 91.000
12.91226 82.000
12.93220 77.000
12.95215 70.000
12.97210 74.000
12.99204 76.000
13.01199 78.000
13.03194 77.000
13.05189 88.000
13.07183 89.000
13.09178 80.000
13.11173 91.000
13.13167 86.000
13.15162 96.000
13.17157 81.000
13.19151 91.000
13.21146 80.000
13.23141 78.000
13.25135 75.000
13.27130 78.000
13.29125 88.000
13.31120 89.000
13.33114 66.000
13.35109 92.000
13.37104 74.000
13.39098 72.000
13.41093 87.000
13.43088 95.000
13.45082 80.000
13.47077 80.000
13.49072 80.000
13.51067 68.000
13.53061 93.000
13.55056 81.000
13.57051 80.000
13.59045 87.000
13.61040 89.000
13.63035 73.000
13.65029 82.000
13.67024 75.000
13.69019 100.000
13.71013 77.000
13.73008 76.000
13.75003 71.000
13.76998 78.000
13.78992 78.000
13.80987 88.000
13.82982 77.000
13.84976 83.000
13.86971 80.000
13.88966 68.000
13.90960 76.000
13.92955 72.000
13.94950 79.000
13.96945 80.000
13.98939 84.000
14.00934 84.000
14.02929 84.000
14.04923 90.000
14.06918 71.000
14.08913 84.000
14.10907 84.000
14.12902 75.000
14.14897 81.000
14.16892 81.000
14.18886 91.000
14.20881 86.000
14.22876 99.000
14.24870 96.000
14.26865 85.000
14.28860 82.000
14.30854 86.000
14.32849 91.000
14.34844 89.000
14.36838 106.000
14.38833 91.000
14.40828 83.000
14.42823 79.000
14.44817 88.000
14.46812 92.000
14.48807 87.000
14.50801 80.000
14.52796 86.000
14.54791 108.000
14.56785 104.000
14.58780 106.000
14.60775 88.000
14.62770 83.000
14.64764 74.000
14.66759 77.000
14.68754 111.000
14.70748 69.000
14.72743 81.000
14.74738 89.000
14.76732 81.000
14.78727 92.000
14.80722 82.000
14.82716 92.000
14.84711 86.000
14.86706 102.000
14.88701 105.000
14.90695 94.000
14.92690 130.000
14.94685 84.000
14.96679 94.000
14.98674 96.000
15.00669 96.000
15.02663 100.000
15.04658 102.000
15.06653 113.000
15.08648 121.000
15.10642 128.000
15.12637 101.000
15.14632 118.000
15.16626 105.000
15.18621 112.000
15.20616 116.000
15.22610 83.000
15.24605 99.000
15.26600 123.000
15.28594 144.000
15.30589 119.000
15.32584 125.000
15.34579 117.000
15.36573 131.000
15.38568 131.000
15.40563 137.000
15.42557 145.000
15.44552 162.000
15.46547 165.000
15.48541 178.000
15.50536 191.000
15.52531 244.000
15.54526 238.000
15.56520 291.000
15.58515 383.000
15.60510 415.000
15.62504 584.000
15.64499 844.000
15.66494 1132.000
15.68488 1586.000
15.70483 2287.000
15.72478 3297.000
15.74472 4521.000
15.76467 5598.000
15.78462 5364.000
15.80457 4620.000
15.82451 3506.000
15.84446 2294.000
15.86441 1368.000
15.88435 810.000
15.90430 498.000
15.92425 307.000
15.94419 261.000
15.96414 228.000
15.98409 200.000
16.00404 170.000
16.02398 170.000
16.04393 161.000
16.06388 134.000
16.08382 152.000
16.10377 125.000
16.12372 135.000
16.14366 120.000
16.16361 132.000
16.18356 109.000
16.20351 95.000
16.22345 120.000
16.24340 109.000
16.26335 98.000
16.28329 99.000
16.30324 110.000
16.32319 92.000
16.34313 104.000
16.36308 93.000
16.38303 91.000
16.40297 92.000
16.42292 108.000
16.44287 99.000
16.46282 95.000
16.48276 90.000
16.50271 93.000
16.52266 100.000
16.54260 96.000
16.56255 106.000
16.58250 99.000
16.60244 82.000
16.62239 94.000
16.64234 85.000
16.66229 93.000
16.68223 91.000
16.70218 78.000
16.72213 76.000
16.74207 86.000
16.76202 78.000
16.78197 99.000
16.80191 91.000
16.82186 82.000
16.84181 80.000
16.86175 83.000
16.88170 81.000
16.90165 95.000
16.92160 79.000
16.94154 85.000
16.96149 75.000
16.98144 94.000
17.00138 74.000
17.02133 77.000
17.04128 86.000
17.06122 79.000
17.08117 67.000
17.10112 78.000
17.12107 73.000
17.14101 93.000
17.16096 81.000
17.18091 72.000
17.20085 90.000
17.22080 98.000
17.24075 93.000
17.26069 73.000
17.28064 79.000
17.30059 83.000
17.32053 101.000
17.34048 66.000
17.36043 81.000
17.38038 92.000
17.40032 79.000
17.42027 70.000
17.44022 69.000
17.46016 76.000
17.48011 84.000
17.50006 84.000
17.52000 86.000
17.53995 71.000
17.55990 86.000
17.57985 80.000
17.59979 83.000
17.61974 69.000
17.63969 77.000
17.65963 102.000
17.67958 85.000
17.69953 68.000
17.71947 92.000
17.73942 69.000
17.75937 78.000
17.77932 67.000
17.79926 77.000
17.81921 77.000
17.83916 83.000
17.85910 68.000
17.87905 88.000
17.89900 82.000
17.91894 72.000
17.93889 64.000
17.95884 90.000
17.97878 96.000
17.99873 87.000
18.01868 79.000
18.03863 77.000
18.05857 85.000
18.07852 75.000
18.09847 98.000
18.11841 108.000
18.13836 92.000
18.15831 86.000
18.17825 105.000
18.19820 161.000
18.21815 179.000
18.23810 210.000
18.25804 203.000
18.27799 225.000
18.29794 209.000
18.31788 245.000
18.33783 290.000
18.35778 307.000
18.37772 279.000
18.39767 259.000
18.41762 167.000
18.43756 135.000
18.45751 122.000
18.47746 84.000
18.49741 76.000
18.51735 76.000
18.53730 97.000
18.55725 82.000
18.57719 77.000
18.59714 80.000
18.61709 75.000
18.63703 69.000
18.65698 77.000
18.67693 93.000
18.69688 78.000
18.71682 78.000
18.73677 82.000
18.75672 93.000
18.77666 88.000
18.79661 69.000
18.81656 74.000
18.83650 87.000
18.85645 91.000
18.87640 78.000
18.89634 88.000
18.91629 75.000
18.93624 79.000
18.95619 84.000
18.97613 84.000
18.99608 62.000
19.01603 93.000
19.03597 94.000
19.05592 90.000
19.07587 72.000
19.09581 73.000
19.11576 89.000
19.13571 80.000
19.15566 72.000
19.17560 75.000
19.19555 81.000
19.21550 88.000
19.23544 86.000
19.25539 96.000
19.27534 64.000
19.29528 96.000
19.31523 73.000
19.33518 68.000
19.35513 103.000
19.37507 76.000
19.39502 80.000
19.41497 81.000
19.43491 84.000
19.45486 66.000
19.47481 84.000
19.49475 79.000
19.51470 70.000
19.53465 78.000
19.55459 91.000
19.57454 73.000
19.59449 88.000
19.61444 92.000
19.63438 87.000
19.65433 81.000
19.67428 72.000
19.69422 82.000
19.71417 81.000
19.73412 91.000
19.75406 70.000
19.77401 69.000
19.79396 61.000
19.81391 81.000
19.83385 91.000
19.85380 72.000
19.87375 91.000
19.89369 86.000
19.91364 83.000
19.93359 75.000
19.95353 73.000
19.97348 77.000
19.99343 80.000
20.01337 67.000
20.03332 75.000
20.05327 80.000
20.07322 76.000
20.09316 75.000
20.11311 74.000
20.13306 80.000
20.15300 70.000
20.17295 77.000
20.19290 84.000
20.21284 81.000
20.23279 92.000
20.25274 74.000
20.27269 67.000
20.29263 82.000
20.31258 68.000
20.33253 79.000
20.35247 72.000
20.37242 81.000
20.39237 76.000
20.41231 83.000
20.43226 78.000
20.45221 71.000
20.47215 86.000
20.49210 84.000
20.51205 74.000
20.53200 78.000
20.55194 81.000
20.57189 79.000
20.59184 78.000
20.61178 72.000
20.63173 74.000
20.65168 79.000
20.67162 76.000
20.69157 76.000
20.71152 86.000
20.73147 75.000
20.75141 63.000
20.77136 76.000
20.79131 93.000
20.81125 87.000
20.83120 67.000
20.85115 74.000
20.87109 86.000
20.89104 82.000
20.91099 87.000
20.93094 94.000
20.95088 84.000
20.97083 86.000
20.99078 101.000
21.01072 79.000
21.03067 88.000
21.05062 77.000
21.07056 91.000
21.09051 87.000
21.11046 94.000
21.13040 94.000
21.15035 77.000
21.17030 80.000
21.19025 78.000
21.21019 83.000
21.23014 70.000
21.25009 75.000
21.27003 79.000
21.28998 73.000
21.30993 70.000
21.32987 92.000
21.34982 88.000
21.36977 75.000
21.38972 82.000
21.40966 78.000
21.42961 85.000
21.44956 78.000
21.46950 90.000
21.48945 87.000
21.50940 74.000
21.52934 69.000
21.54929 97.000
21.56924 95.000
21.58918 88.000
21.60913 67.000
21.62908 88.000
21.64903 79.000
21.66897 70.000
21.68892 79.000
21.70887 91.000
21.72881 80.000
21.74876 77.000
21.76871 83.000
21.78865 89.000
21.80860 65.000
21.82855 70.000
21.84850 69.000
21.86844 70.000
21.88839 70.000
21.90834 78.000
21.92828 94.000
21.94823 84.000
21.96818 75.000
21.98812 83.000
22.00807 92.000
22.02802 85.000
22.04796 80.000
22.06791 74.000
22.08786 70.000
22.10781 70.000
22.12775 74.000
22.14770 68.000
22.16765 68.000
22.18759 74.000
22.20754 67.000
22.22749 89.000
22.24743 71.000
22.26738 84.000
22.28733 86.000
22.30728 84.000
22.32722 76.000
22.34717 72.000
22.36712 84.000
22.38706 65.000
22.40701 75.000
22.42696 76.000
22.44690 71.000
22.46685 86.000
22.48680 86.000
22.50675 90.000
22.52669 87.000
22.54664 81.000
22.56659 75.000
22.58653 76.000
22.60648 104.000
22.62643 78.000
22.64637 79.000
22.66632 82.000
22.68627 80.000
22.70621 82.000
22.72616 82.000
22.74611 75.000
22.76606 84.000
22.78600 80.000
22.80595 83.000
22.82590 94.000
22.84584 86.000
22.86579 89.000
22.88574 111.000
22.90568 72.000
22.92563 76.000
22.94558 95.000
22.96553 80.000
22.98547 66.000
23.00542 84.000
23.02537 74.000
23.04531 65.000
23.06526 81.000
23.08521 83.000
23.10515 86.000
23.12510 77.000
23.14505 91.000
23.16499 58.000
23.18494 100.000
23.20489 88.000
23.22484 71.000
23.24478 73.000
23.26473 82.000
23.28468 76.000
23.30462 80.000
23.32457 81.000
23.34452 68.000
23.36446 82.000
23.38441 86.000
23.40436 80.000
23.42431 86.000
23.44425 75.000
23.46420 84.000
23.48415 76.000
23.50409 87.000
23.52404 86.000
23.54399 83.000
23.56393 77.000
23.58388 64.000
23.60383 82.000
23.62377 92.000
23.64372 99.000
23.66367 71.000
23.68362 82.000
23.70356 84.000
23.72351 75.000
23.74346 73.000
23.76340 82.000
23.78335 71.000
23.80330 62.000
23.82324 76.000
23.84319 75.000
23.86314 92.000
23.88309 79.000
23.90303 73.000
23.92298 99.000
23.94293 105.000
23.96287 85.000
23.98282 93.000
24.00277 81.000
24.02271 65.000
24.04266 76.000
24.06261 85.000
24.08256 67.000
24.10250 70.000
24.12245 96.000
24.14240 113.000
24.16234 81.000
24.18229 61.000
24.20224 95.000
24.22218 73.000
24.24213 88.000
24.26208 71.000
24.28202 78.000
24.30197 79.000
24.32192 85.000
24.34187 71.000
24.36181 96.000
24.38176 73.000
24.40171 101.000
24.42165 89.000
24.44160 72.000
24.46155 69.000
24.48149 80.000
24.50144 79.000
24.52139 93.000
24.54134 80.000
24.56128 80.000
24.58123 80.000
24.60118 77.000
24.62112 81.000
24.64107 71.000
24.66102 75.000
24.68096 82.000
24.70091 72.000
24.72086 81.000
24.74080 99.000
24.76075 103.000
24.78070 78.000
24.80065 92.000
24.82059 78.000
24.84054 92.000
24.86049 90.000
24.88043 94.000
24.90038 75.000
24.92033 92.000
24.94027 97.000
24.96022 77.000
24.98017 91.000
25.00012 69.000
25.02006 81.000
25.04001 97.000
25.05996 84.000
25.07990 77.000
25.09985 95.000
25.11980 98.000
25.13974 89.000
25.15969 80.000
25.17964 70.000
25.19958 54.000
25.21953 81.000
25.23948 76.000
25.25943 81.000
25.27937 72.000
25.29932 84.000
25.31927 73.000
25.33921 78.000
25.35916 84.000
25.37911 86.000
25.39905 73.000
25.41900 76.000
25.43895 89.000
25.45890 69.000
25.47884 80.000
25.49879 81.000
25.51874 73.000
25.53868 65.000
25.55863 65.000
25.57858 91.000
25.59852 84.000
25.61847 80.000
25.63842 71.000
25.65837 79.000
25.67831 73.000
25.69826 74.000
25.71821 88.000
25.73815 81.000
25.75810 87.000
25.77805 82.000
25.79799 90.000
25.81794 72.000
25.83789 88.000
25.85783 94.000
25.87778 91.000
25.89773 86.000
25.91768 77.000
25.93762 74.000
25.95757 75.000
25.97752 83.000
25.99746 88.000
26.01741 75.000
26.03736 82.000
26.05730 95.000
26.07725 90.000
26.09720 90.000
26.11715 89.000
26.13709 80.000
26.15704 88.000
26.17699 80.000
26.19693 90.000
26.21688 82.000
26.23683 63.000
26.25677 82.000
26.27672 102.000
26.29667 73.000
26.31661 65.000
26.33656 73.000
26.35651 78.000
26.37646 87.000
26.39640 88.000
26.41635 92.000
26.43630 88.000
26.45624 97.000
26.47619 102.000
26.49614 76.000
26.51608 73.000
26.53603 83.000
26.55598 85.000
26.57593 84.000
26.59587 84.000
26.61582 105.000
26.63577 83.000
26.65571 84.000
26.67566 99.000
26.69561 90.000
26.71555 82.000
26.73550 87.000
26.75545 75.000
26.77539 75.000
26.79534 74.000
26.81529 88.000
26.83524 96.000
26.85518 78.000
26.87513 92.000
26.89508 71.000
26.91502 79.000
26.93497 73.000
26.95492 76.000
26.97486 80.000
26.99481 97.000
27.01476 77.000
27.03471 81.000
27.05465 73.000
27.07460 92.000
27.09455 86.000
27.11449 81.000
27.13444 97.000
27.15439 86.000
27.17433 92.000
27.19428 88.000
27.21423 85.000
27.23417 95.000
27.25412 86.000
27.27407 91.000
27.29402 78.000
27.31396 103.000
27.33391 85.000
27.35386 93.000
27.37380 87.000
27.39375 80.000
27.41370 94.000
27.43364 83.000
27.45359 77.000
27.47354 78.000
27.49349 62.000
27.51343 71.000
27.53338 89.000
27.55333 85.000
27.57327 95.000
27.59322 87.000
27.61317 67.000
27.63311 80.000
27.65306 85.000
27.67301 93.000
27.69296 68.000
27.71290 90.000
27.73285 91.000
27.75280 72.000
27.77274 80.000
27.79269 84.000
27.81264 79.000
27.83258 71.000
27.85253 81.000
27.87248 85.000
27.89242 76.000
27.91237 72.000
27.93232 66.000
27.95227 80.000
27.97221 96.000
27.99216 84.000
28.01211 87.000
28.03205 66.000
28.05200 83.000
28.07195 94.000
28.09189 84.000
28.11184 95.000
28.13179 89.000
28.15174 84.000
28.17168 93.000
28.19163 85.000
28.21158 84.000
28.23152 57.000
28.25147 91.000
28.27142 79.000
28.29136 86.000
28.31131 97.000
28.33126 75.000
28.35120 94.000
28.37115 96.000
28.39110 79.000
28.41105 94.000
28.43099 100.000
28.45094 78.000
28.47089 84.000
28.49083 94.000
28.51078 79.000
28.53073 82.000
28.55067 93.000
28.57062 72.000
28.59057 94.000
28.61052 87.000
28.63046 80.000
28.65041 65.000
28.67036 97.000
28.69030 93.000
28.71025 96.000
28.73020 89.000
28.75014 73.000
28.77009 85.000
28.79004 101.000
28.80998 82.000
28.82993 89.000
28.84988 83.000
28.86983 88.000
28.88977 85.000
28.90972 92.000
28.92967 90.000
28.94961 72.000
28.96956 98.000
28.98951 80.000
29.00945 83.000
29.02940 87.000
29.04935 85.000
29.06930 74.000
29.08924 87.000
29.10919 95.000
29.12914 98.000
29.14908 90.000
29.16903 72.000
29.18898 96.000
29.20892 66.000
29.22887 89.000
29.24882 86.000
29.26877 76.000
29.28871 84.000
29.30866 81.000
29.32861 90.000
29.34855 77.000
29.36850 101.000
29.38845 84.000
29.40839 89.000
29.42834 81.000
29.44829 80.000
29.46823 99.000
29.48818 103.000
29.50813 85.000
29.52808 94.000
29.54802 106.000
29.56797 93.000
29.58792 84.000
29.60786 88.000
29.62781 101.000
29.64776 107.000
29.66770 93.000
29.68765 88.000
29.70760 98.000
29.72755 91.000
29.74749 109.000
29.76744 77.000
29.78739 98.000
29.80733 96.000
29.82728 94.000
29.84723 97.000
29.86717 86.000
29.88712 121.000
29.90707 118.000
29.92701 143.000
29.94696 155.000
29.96691 184.000
29.98686 228.000
30.00680 211.000
30.02675 226.000
30.04670 229.000
30.06664 242.000
30.08659 242.000
30.10654 269.000
30.12648 278.000
30.14643 336.000
30.16638 449.000
30.18633 490.000
30.20627 500.000
30.22622 517.000
30.24617 462.000
30.26611 390.000
30.28606 347.000
30.30601 305.000
30.32595 214.000
30.34590 194.000
30.36585 123.000
30.38579 117.000
30.40574 102.000
30.42569 129.000
30.44564 99.000
30.46558 93.000
30.48553 121.000
30.50548 104.000
30.52542 94.000
30.54537 90.000
30.56532 96.000
30.58526 93.000
30.60521 105.000
30.62516 71.000
30.64511 91.000
30.66505 79.000
30.68500 88.000
30.70495 87.000
30.72489 81.000
30.74484 100.000
30.76479 76.000
30.78473 87.000
30.80468 74.000
30.82463 79.000
30.84458 82.000
30.86452 81.000
30.88447 71.000
30.90442 97.000
30.92436 63.000
30.94431 104.000
30.96426 84.000
30.98420 74.000
31.00415 88.000
31.02410 86.000
31.04404 83.000
31.06399 88.000
31.08394 76.000
31.10389 94.000
31.12383 102.000
31.14378 99.000
31.16373 82.000
31.18367 102.000
31.20362 101.000
31.22357 70.000
31.24351 82.000
31.26346 79.000
31.28341 63.000
31.30336 87.000
31.32330 94.000
31.34325 89.000
31.36320 83.000
31.38314 79.000
31.40309 90.000
31.42304 93.000
31.44298 91.000
31.46293 77.000
31.48288 94.000
31.50282 98.000
31.52277 102.000
31.54272 89.000
31.56267 98.000
31.58261 110.000
31.60256 107.000
31.62251 109.000
31.64245 134.000
31.66240 143.000
31.68235 155.000
31.70229 153.000
31.72224 166.000
31.74219 192.000
31.76214 230.000
31.78208 309.000
31.80203 363.000
31.82198 410.000
31.84192 541.000
31.86187 473.000
31.88182 481.000
31.90176 419.000
31.92171 428.000
31.94166 374.000
31.96160 349.000
31.98155 258.000
32.00150 234.000
32.02145 187.000
32.04139 155.000
32.06134 139.000
32.08129 133.000
32.10123 126.000
32.12118 135.000
32.14113 109.000
32.16107 97.000
32.18102 105.000
32.20097 83.000
32.22092 87.000
32.24086 99.000
32.26081 114.000
32.28076 103.000
32.30070 93.000
32.32065 97.000
32.34060 94.000
32.36054 97.000
32.38049 94.000
32.40044 95.000
32.42039 116.000
32.44033 102.000
32.46028 92.000
32.48023 102.000
32.50017 84.000
32.52012 91.000
32.54007 94.000
32.56001 97.000
32.57996 80.000
32.59991 84.000
32.61985 85.000
32.63980 83.000
32.65975 95.000
32.67970 91.000
32.69964 85.000
32.71959 92.000
32.73954 90.000
32.75948 79.000
32.77943 80.000
32.79938 82.000
32.81932 82.000
32.83927 77.000
32.85922 97.000
32.87917 88.000
32.89911 91.000
32.91906 98.000
32.93901 89.000
32.95895 92.000
32.97890 87.000
32.99885 87.000
33.01879 77.000
33.03874 93.000
33.05869 84.000
33.07863 88.000
33.09858 89.000
33.11853 78.000
33.13848 83.000
33.15842 86.000
33.17837 86.000
33.19832 97.000
33.21826 78.000
33.23821 111.000
33.25816 89.000
33.27810 86.000
33.29805 87.000
33.31800 81.000
33.33795 91.000
33.35789 83.000
33.37784 88.000
33.39779 79.000
33.41773 86.000
33.43768 80.000
33.45763 88.000
33.47757 96.000
33.49752 84.000
33.51747 81.000
33.53741 108.000
33.55736 80.000
33.57731 102.000
33.59726 109.000
33.61720 90.000
33.63715 93.000
33.65710 89.000
33.67704 101.000
33.69699 77.000
33.71694 96.000
33.73688 88.000
33.75683 74.000
33.77678 85.000
33.79673 99.000
33.81667 99.000
33.83662 94.000
33.85657 104.000
33.87651 110.000
33.89646 97.000
33.91641 86.000
33.93635 81.000
33.95630 98.000
33.97625 98.000
33.99620 92.000
34.01614 88.000
34.03609 110.000
34.05604 95.000
34.07598 99.000
34.09593 104.000
34.11588 91.000
34.13582 100.000
34.15577 84.000
34.17572 108.000
34.19566 102.000
34.21561 88.000
34.23556 98.000
34.25551 104.000
34.27545 83.000
34.29540 102.000
34.31535 90.000
34.33529 108.000
34.35524 92.000
34.37519 102.000
34.39513 100.000
34.41508 97.000
34.43503 118.000
34.45498 97.000
34.47492 92.000
34.49487 84.000
34.51482 93.000
34.53476 94.000
34.55471 100.000
34.57466 115.000
34.59460 121.000
34.61455 108.000
34.63450 96.000
34.65444 138.000
34.67439 94.000
34.69434 86.000
34.71429 106.000
34.73423 110.000
34.75418 102.000
34.77413 110.000
34.79407 109.000
34.81402 97.000
34.83397 106.000
34.85391 84.000
34.87386 90.000
34.89381 121.000
34.91376 112.000
34.93370 93.000
34.95365 112.000
34.97360 103.000
34.99354 115.000
35.01349 110.000
35.03344 117.000
35.05338 121.000
35.07333 118.000
35.09328 126.000
35.11322 128.000
35.13317 119.000
35.15312 149.000
35.17307 144.000
35.19301 194.000
35.21296 203.000
35.23291 243.000
35.25285 288.000
35.27280 353.000
35.29275 420.000
35.31269 494.000
35.33264 519.000
35.35259 555.000
35.37254 585.000
35.39248 661.000
35.41243 689.000
35.43238 722.000
35.45232 810.000
35.47227 879.000
35.49222 1062.000
35.51216 1187.000
35.53211 1530.000
35.55206 1733.000
35.57201 1870.000
35.59195 1934.000
35.61190 1830.000
35.63185 1706.000
35.65179 1423.000
35.67174 1365.000
35.69169 1175.000
35.71163 921.000
35.73158 760.000
35.75153 575.000
35.77147 410.000
35.79142 300.000
35.81137 289.000
35.83132 236.000
35.85126 204.000
35.87121 168.000
35.89116 155.000
35.91110 142.000
35.93105 130.000
35.95100 127.000
35.97094 125.000
35.99089 101.000
36.01084 109.000
36.03079 95.000
36.05073 110.000
36.07068 78.000
36.09063 108.000
36.11057 108.000
36.13052 94.000
36.15047 107.000
36.17041 133.000
36.19036 103.000
36.21031 108.000
36.23025 114.000
36.25020 81.000
36.27015 102.000
36.29010 119.000
36.31004 91.000
36.32999 104.000
36.34994 98.000
36.36988 105.000
36.38983 97.000
36.40978 88.000
36.42972 121.000
36.44967 121.000
36.46962 133.000
36.48957 126.000
36.50951 145.000
36.52946 159.000
36.54941 134.000
36.56935 129.000
36.58930 134.000
36.60925 123.000
36.62919 119.000
36.64914 140.000
36.66909 132.000
36.68903 99.000
36.70898 113.000
36.72893 102.000
36.74888 109.000
36.76882 98.000
36.78877 117.000
36.80872 97.000
36.82866 110.000
36.84861 114.000
36.86856 98.000
36.88850 105.000
36.90845 116.000
36.92840 101.000
36.94835 127.000
36.96829 145.000
36.98824 124.000
37.00819 144.000
37.02813 107.000
37.04808 132.000
37.06803 140.000
37.08797 134.000
37.10792 110.000
37.12787 138.000
37.14781 157.000
37.16776 194.000
37.18771 185.000
37.20766 198.000
37.22760 183.000
37.24755 184.000
37.26750 169.000
37.28744 134.000
37.30739 160.000
37.32734 154.000
37.34728 141.000
37.36723 117.000
37.38718 115.000
37.40713 91.000
37.42707 103.000
37.44702 98.000
37.46697 84.000
37.48691 85.000
37.50686 101.000
37.52681 110.000
37.54675 91.000
37.56670 84.000
37.58665 102.000
37.60660 91.000
37.62654 109.000
37.64649 84.000
37.66644 100.000
37.68638 96.000
37.70633 107.000
37.72628 103.000
37.74622 96.000
37.76617 86.000
37.78612 93.000
37.80606 81.000
37.82601 96.000
37.84596 91.000
37.86591 93.000
37.88585 81.000
37.90580 86.000
37.92575 92.000
37.94569 74.000
37.96564 102.000
37.98559 98.000
38.00553 76.000
38.02548 108.000
38.04543 93.000
38.06538 95.000
38.08532 105.000
38.10527 102.000
38.12522 108.000
38.14516 96.000
38.16511 106.000
38.18506 96.000
38.20500 74.000
38.22495 82.000
38.24490 91.000
38.26484 99.000
38.28479 99.000
38.30474 88.000
38.32469 116.000
38.34463 79.000
38.36458 99.000
38.38453 91.000
38.40447 111.000
38.42442 91.000
38.44437 107.000
38.46431 89.000
38.48426 124.000
38.50421 106.000
38.52416 102.000
38.54410 111.000
38.56405 124.000
38.58400 100.000
38.60394 136.000
38.62389 158.000
38.64384 152.000
38.66378 191.000
38.68373 187.000
38.70368 211.000
38.72362 236.000
38.74357 207.000
38.76352 222.000
38.78347 201.000
38.80341 208.000
38.82336 212.000
38.84331 190.000
38.86325 203.000
38.88320 194.000
38.90315 213.000
38.92309 213.000
38.94304 256.000
38.96299 243.000
38.98294 254.000
39.00288 318.000
39.02283 408.000
39.04278 500.000
39.06272 525.000
39.08267 680.000
39.10262 836.000
39.12256 971.000
39.14251 1046.000
39.16246 1052.000
39.18241 1065.000
39.20235 1019.000
39.22230 935.000
39.24225 866.000
39.26219 822.000
39.28214 748.000
39.30209 618.000
39.32203 490.000
39.34198 450.000
39.36193 354.000
39.38187 306.000
39.40182 264.000
39.42177 225.000
39.44172 236.000
39.46166 173.000
39.48161 157.000
39.50156 146.000
39.52150 139.000
39.54145 137.000
39.56140 127.000
39.58134 122.000
39.60129 111.000
39.62124 109.000
39.64119 116.000
39.66113 95.000
39.68108 121.000
39.70103 85.000
39.72097 103.000
39.74092 116.000
39.76087 113.000
39.78081 103.000
39.80076 97.000
39.82071 89.000
39.84065 87.000
39.86060 122.000
39.88055 88.000
39.90050 99.000
39.92044 82.000
39.94039 97.000
39.96034 101.000
39.98028 106.000
40.00023 91.000
40.02018 98.000
40.04012 98.000
40.06007 101.000
40.08002 96.000
40.09997 88.000
40.11991 95.000
40.13986 88.000
40.15981 79.000
40.17975 79.000
40.19970 87.000
40.21965 110.000
40.23959 91.000
40.25954 89.000
40.27949 110.000
40.29943 109.000
40.31938 91.000
40.33933 71.000
40.35928 87.000
40.37922 87.000
40.39917 90.000
40.41912 79.000
40.43906 94.000
40.45901 79.000
40.47896 109.000
40.49890 76.000
40.51885 80.000
40.53880 71.000
40.55875 91.000
40.57869 91.000
40.59864 86.000
40.61859 103.000
40.63853 77.000
40.65848 97.000
40.67843 102.000
40.69837 89.000
40.71832 85.000
40.73827 80.000
40.75822 90.000
40.77816 95.000
40.79811 88.000
40.81806 68.000
40.83800 93.000
40.85795 97.000
40.87790 87.000
40.89784 77.000
40.91779 77.000
40.93774 89.000
40.95768 98.000
40.97763 85.000
40.99758 84.000
41.01753 91.000
41.03747 90.000
41.05742 81.000
41.07737 97.000
41.09731 72.000
41.11726 93.000
41.13721 86.000
41.15715 107.000
41.17710 94.000
41.19705 89.000
41.21700 93.000
41.23694 86.000
41.25689 100.000
41.27684 91.000
41.29678 69.000
41.31673 87.000
41.33668 82.000
41.35662 84.000
41.37657 81.000
41.39652 99.000
41.41646 98.000
41.43641 95.000
41.45636 88.000
41.47631 86.000
41.49625 93.000
41.51620 86.000
41.53615 87.000
41.55609 74.000
41.57604 92.000
41.59599 99.000
41.61593 77.000
41.63588 85.000
41.65583 94.000
41.67578 91.000
41.69572 86.000
41.71567 92.000
41.73562 87.000
41.75556 80.000
41.77551 84.000
41.79546 85.000
41.81540 89.000
41.83535 99.000
41.85530 75.000
41.87524 90.000
41.89519 85.000
41.91514 88.000
41.93509 89.000
41.95503 86.000
41.97498 90.000
41.99493 89.000
42.01487 104.000
42.03482 93.000
42.05477 89.000
42.07471 76.000
42.09466 79.000
42.11461 89.000
42.13456 92.000
42.15450 99.000
42.17445 96.000
42.19440 80.000
42.21434 88.000
42.23429 96.000
42.25424 87.000
42.27418 82.000
42.29413 86.000
42.31408 85.000
42.33403 82.000
42.35397 82.000
42.37392 77.000
42.39387 92.000
42.41381 65.000
42.43376 85.000
42.45371 99.000
42.47365 103.000
42.49360 81.000
42.51355 99.000
42.53349 98.000
42.55344 79.000
42.57339 78.000
42.59334 96.000
42.61328 87.000
42.63323 73.000
42.65318 91.000
42.67312 100.000
42.69307 102.000
42.71302 99.000
42.73296 106.000
42.75291 112.000
42.77286 96.000
42.79281 132.000
42.81275 108.000
42.83270 122.000
42.85265 128.000
42.87259 148.000
42.89254 161.000
42.91249 155.000
42.93243 186.000
42.95238 186.000
42.97233 182.000
42.99227 212.000
43.01222 236.000
43.03217 192.000
43.05212 248.000
43.07206 256.000
43.09201 257.000
43.11196 297.000
43.13190 346.000
43.15185 415.000
43.17180 446.000
43.19174 550.000
43.21169 638.000
43.23164 653.000
43.25159 719.000
43.27153 701.000
43.29148 679.000
43.31143 617.000
43.33137 616.000
43.35132 529.000
43.37127 467.000
43.39121 442.000
43.41116 386.000
43.43111 316.000
43.45105 282.000
43.47100 207.000
43.49095 200.000
43.51090 154.000
43.53084 169.000
43.55079 140.000
43.57074 155.000
43.59068 121.000
43.61063 108.000
43.63058 123.000
43.65052 106.000
43.67047 104.000
43.69042 87.000
43.71037 104.000
43.73031 90.000
43.75026 101.000
43.77021 107.000
43.79015 78.000
43.81010 101.000
43.83005 96.000
43.84999 93.000
43.86994 75.000
43.88989 87.000
43.90984 73.000
43.92978 89.000
43.94973 89.000
43.96968 87.000
43.98962 96.000
44.00957 90.000
44.02952 84.000
44.04946 101.000
44.06941 80.000
44.08936 93.000
44.10930 92.000
44.12925 96.000
44.14920 87.000
44.16915 84.000
44.18909 94.000
44.20904 90.000
44.22899 81.000
44.24893 95.000
44.26888 87.000
44.28883 96.000
44.30877 65.000
44.32872 79.000
44.34867 86.000
44.36862 75.000
44.38856 86.000
44.40851 89.000
44.42846 93.000
44.44840 92.000
44.46835 104.000
44.48830 88.000
44.50824 82.000
44.52819 87.000
44.54814 74.000
44.56808 73.000
44.58803 81.000
44.60798 90.000
44.62793 91.000
44.64787 91.000
44.66782 77.000
44.68777 94.000
44.70771 68.000
44.72766 106.000
44.74761 83.000
44.76755 101.000
44.78750 96.000
44.80745 91.000
44.82740 73.000
44.84734 77.000
44.86729 103.000
44.88724 80.000
44.90718 96.000
44.92713 99.000
44.94708 104.000
44.96702 90.000
44.98697 90.000
45.00692 85.000
45.02686 78.000
45.04681 76.000
45.06676 72.000
45.08671 85.000
45.10665 95.000
45.12660 90.000
45.14655 72.000
45.16649 84.000
45.18644 90.000
45.20639 73.000
45.22633 62.000
45.24628 63.000
45.26623 76.000
45.28618 86.000
45.30612 64.000
45.32607 81.000
45.34602 102.000
45.36596 84.000
45.38591 79.000
45.40586 86.000
45.42580 96.000
45.44575 88.000
45.46570 82.000
45.48565 81.000
45.50559 86.000
45.52554 91.000
45.54549 68.000
45.56543 70.000
45.58538 87.000
45.60533 81.000
45.62527 88.000
45.64522 79.000
45.66517 79.000
45.68511 86.000
45.70506 66.000
45.72501 85.000
45.74496 87.000
45.76490 97.000
45.78485 87.000
45.80480 73.000
45.82474 100.000
45.84469 76.000
45.86464 95.000
45.88458 85.000
45.90453 91.000
45.92448 96.000
45.94443 91.000
45.96437 79.000
45.98432 79.000
46.00427 78.000
46.02421 96.000
46.04416 68.000
46.06411 75.000
46.08405 96.000
46.10400 75.000
46.12395 95.000
46.14389 92.000
46.16384 79.000
46.18379 73.000
46.20374 90.000
46.22368 78.000
46.24363 79.000
46.26358 95.000
46.28352 90.000
46.30347 90.000
46.32342 88.000
46.34336 85.000
46.36331 83.000
46.38326 90.000
46.40321 83.000
46.42315 85.000
46.44310 87.000
46.46305 93.000
46.48299 85.000
46.50294 84.000
46.52289 99.000
46.54283 87.000
46.56278 83.000
46.58273 103.000
46.60267 79.000
46.62262 85.000
46.64257 93.000
46.66252 83.000
46.68246 98.000
46.70241 76.000
46.72236 78.000
46.74230 91.000
46.76225 72.000
46.78220 103.000
46.80214 80.000
46.82209 87.000
46.84204 87.000
46.86199 87.000
46.88193 84.000
46.90188 94.000
46.92183 81.000
46.94177 89.000
46.96172 85.000
46.98167 101.000
47.00161 82.000
47.02156 93.000
47.04151 78.000
47.06146 88.000
47.08140 96.000
47.10135 95.000
47.12130 91.000
47.14124 109.000
47.16119 94.000
47.18114 91.000
47.20108 86.000
47.22103 88.000
47.24098 71.000
47.26092 89.000
47.28087 103.000
47.30082 94.000
47.32077 84.000
47.34071 94.000
47.36066 89.000
47.38061 101.000
47.40055 88.000
47.42050 96.000
47.44045 94.000
47.46039 74.000
47.48034 69.000
47.50029 97.000
47.52024 89.000
47.54018 93.000
47.56013 80.000
47.58008 92.000
47.60002 88.000
47.61997 101.000
47.63992 96.000
47.65986 100.000
47.67981 83.000
47.69976 90.000
47.71970 82.000
47.73965 111.000
47.75960 88.000
47.77955 68.000
47.79949 89.000
47.81944 91.000
47.83939 91.000
47.85933 113.000
47.87928 94.000
47.89923 95.000
47.91917 115.000
47.93912 110.000
47.95907 104.000
47.97902 105.000
47.99896 98.000
48.01891 113.000
48.03886 122.000
48.05880 105.000
48.07875 111.000
48.09870 103.000
48.11864 114.000
48.13859 122.000
48.15854 137.000
48.17848 161.000
48.19843 143.000
48.21838 130.000
48.23833 187.000
48.25827 174.000
48.27822 185.000
48.29817 208.000
48.31811 233.000
48.33806 246.000
48.35801 307.000
48.37795 390.000
48.39790 438.000
48.41785 505.000
48.43780 561.000
48.45774 763.000
48.47769 851.000
48.49764 940.000
48.51758 922.000
48.53753 932.000
48.55748 845.000
48.57742 826.000
48.59737 783.000
48.61732 756.000
48.63726 722.000
48.65721 657.000
48.67716 616.000
48.69711 536.000
48.71705 426.000
48.73700 379.000
48.75695 367.000
48.77689 290.000
48.79684 266.000
48.81679 230.000
48.83673 236.000
48.85668 187.000
48.87663 187.000
48.89658 171.000
48.91652 142.000
48.93647 139.000
48.95642 146.000
48.97636 127.000
48.99631 112.000
49.01626 129.000
49.03620 111.000
49.05615 118.000
49.07610 102.000
49.09605 104.000
49.11599 119.000
49.13594 104.000
49.15589 91.000
49.17583 94.000
49.19578 106.000
49.21573 78.000
49.23567 103.000
49.25562 89.000
49.27557 102.000
49.29551 99.000
49.31546 99.000
49.33541 89.000
49.35536 92.000
49.37530 76.000
49.39525 100.000
49.41520 93.000
49.43514 82.000
49.45509 92.000
49.47504 85.000
49.49498 102.000
49.51493 74.000
49.53488 85.000
49.55483 80.000
49.57477 87.000
49.59472 94.000
49.61467 95.000
49.63461 89.000
49.65456 89.000
49.67451 84.000
49.69445 93.000
49.71440 94.000
49.73435 78.000
49.75429 107.000
49.77424 85.000
49.79419 92.000
49.81414 75.000
49.83408 78.000
49.85403 79.000
49.87398 89.000
49.89392 82.000
49.91387 80.000
49.93382 87.000
49.95376 96.000
49.97371 91.000
49.99366 74.000
50.01361 88.000
50.03355 82.000
50.05350 85.000
50.07345 98.000
50.09339 65.000
50.11334 67.000
50.13329 92.000
50.15323 84.000
50.17318 79.000
50.19313 81.000
50.21307 89.000
50.23302 73.000
50.25297 75.000
50.27292 78.000
50.29286 94.000
50.31281 67.000
50.33276 79.000
50.35270 64.000
50.37265 75.000
50.39260 81.000
50.41254 95.000
50.43249 81.000
50.45244 84.000
50.47239 75.000
50.49233 84.000
50.51228 72.000
50.53223 92.000
50.55217 79.000
50.57212 78.000
50.59207 90.000
50.61201 81.000
50.63196 81.000
50.65191 80.000
50.67186 80.000
50.69180 81.000
50.71175 77.000
50.73170 72.000
50.75164 80.000
50.77159 83.000
50.79154 79.000
50.81148 84.000
50.83143 83.000
50.85138 85.000
50.87132 78.000
50.89127 80.000
50.91122 78.000
50.93117 76.000
50.95111 75.000
50.97106 79.000
50.99101 91.000
51.01095 93.000
51.03090 98.000
51.05085 86.000
51.07079 82.000
51.09074 78.000
51.11069 89.000
51.13064 81.000
51.15058 74.000
51.17053 75.000
51.19048 73.000
51.21042 76.000
51.23037 74.000
51.25032 74.000
51.27026 86.000
51.29021 83.000
51.31016 94.000
51.33010 86.000
51.35005 100.000
51.37000 83.000
51.38995 71.000
51.40989 76.000
51.42984 88.000
51.44979 88.000
51.46973 68.000
51.48968 72.000
51.50963 90.000
51.52957 72.000
51.54952 80.000
51.56947 85.000
51.58942 86.000
51.60936 77.000
51.62931 73.000
51.64926 84.000
51.66920 80.000
51.68915 94.000
51.70910 71.000
51.72904 90.000
51.74899 74.000
51.76894 80.000
51.78888 87.000
51.80883 73.000
51.82878 92.000
51.84873 81.000
51.86867 84.000
51.88862 76.000
51.90857 72.000
51.92851 67.000
51.94846 72.000
51.96841 81.000
51.98835 76.000
52.00830 80.000
52.02825 82.000
52.04820 73.000
52.06814 93.000
52.08809 97.000
52.10804 83.000
52.12798 90.000
52.14793 77.000
52.16788 78.000
52.18782 85.000
52.20777 91.000
52.22772 84.000
52.24767 106.000
52.26761 65.000
52.28756 84.000
52.30751 65.000
52.32745 90.000
52.34740 64.000
52.36735 74.000
52.38729 81.000
52.40724 101.000
52.42719 73.000
52.44713 101.000
52.46708 84.000
52.48703 94.000
52.50698 94.000
52.52692 74.000
52.54687 90.000
52.56682 72.000
52.58676 63.000
52.60671 80.000
52.62666 79.000
52.64660 82.000
52.66655 73.000
52.68650 86.000
52.70645 76.000
52.72639 76.000
52.74634 84.000
52.76629 98.000
52.78623 86.000
52.80618 76.000
52.82613 97.000
52.84607 90.000
52.86602 91.000
52.88597 61.000
52.90591 87.000
52.92586 97.000
52.94581 76.000
52.96576 91.000
52.98570 91.000
53.00565 82.000
53.02560 78.000
53.04554 89.000
53.06549 89.000
53.08544 70.000
53.10538 93.000
53.12533 81.000
53.14528 91.000
53.16523 86.000
53.18517 98.000
53.20512 104.000
53.22507 99.000
53.24501 114.000
53.26496 103.000
53.28491 88.000
53.30485 111.000
53.32480 124.000
53.34475 114.000
53.36469 108.000
53.38464 117.000
53.40459 123.000
53.42454 106.000
53.44448 106.000
53.46443 134.000
53.48438 119.000
53.50432 124.000
53.52427 142.000
53.54422 109.000
53.56416 136.000
53.58411 134.000
53.60406 128.000
53.62401 157.000
53.64395 182.000
53.66390 168.000
53.68385 176.000
53.70379 161.000
53.72374 142.000
53.74369 177.000
53.76363 143.000
53.78358 158.000
53.80353 137.000
53.82348 130.000
53.84342 140.000
53.86337 95.000
53.88332 103.000
53.90326 93.000
53.92321 88.000
53.94316 94.000
53.96310 81.000
53.98305 82.000
54.00300 110.000
54.02294 86.000
54.04289 104.000
54.06284 86.000
54.08279 88.000
54.10273 78.000
54.12268 81.000
54.14263 81.000
54.16257 92.000
54.18252 83.000
54.20247 73.000
54.22241 94.000
54.24236 79.000
54.26231 89.000
54.28226 79.000
54.30220 66.000
54.32215 86.000
54.34210 83.000
54.36204 80.000
54.38199 87.000
54.40194 79.000
54.42188 76.000
54.44183 101.000
54.46178 84.000
54.48172 80.000
54.50167 75.000
54.52162 77.000
54.54157 91.000
54.56151 76.000
54.58146 80.000
54.60141 88.000
54.62135 85.000
54.64130 80.000
54.66125 81.000
54.68119 70.000
54.70114 73.000
54.72109 94.000
54.74104 76.000
54.76098 72.000
54.78093 87.000
54.80088 75.000
54.82082 80.000
54.84077 81.000
54.86072 90.000
54.88066 64.000
54.90061 84.000
54.92056 73.000
54.94050 68.000
54.96045 68.000
54.98040 81.000
55.00035 84.000
55.02029 80.000
55.04024 95.000
55.06019 81.000
55.08013 82.000
55.10008 77.000
55.12003 91.000
55.13997 88.000
55.15992 84.000
55.17987 89.000
55.19982 89.000
55.21976 95.000
55.23971 79.000
55.25966 76.000
55.27960 72.000
55.29955 69.000
55.31950 91.000
55.33944 97.000
55.35939 83.000
55.37934 82.000
55.39929 70.000
55.41923 81.000
55.43918 85.000
55.45913 78.000
55.47907 87.000
55.49902 84.000
55.51897 94.000
55.53891 89.000
55.55886 73.000
55.57881 83.000
55.59875 84.000
55.61870 78.000
55.63865 86.000
55.65860 84.000
55.67854 78.000
55.69849 78.000
55.71844 69.000
55.73838 93.000
55.75833 77.000
55.77828 84.000
55.79822 73.000
55.81817 90.000
55.83812 76.000
55.85807 71.000
55.87801 90.000
55.89796 92.000
55.91791 101.000
55.93785 76.000
55.95780 78.000
55.97775 77.000
55.99769 84.000
56.01764 82.000
56.03759 82.000
56.05753 75.000
56.07748 72.000
56.09743 93.000
56.11738 85.000
56.13732 101.000
56.15727 95.000
56.17722 82.000
56.19716 82.000
56.21711 81.000
56.23706 72.000
56.25700 85.000
56.27695 75.000
56.29690 84.000
56.31685 86.000
56.33679 83.000
56.35674 84.000
56.37669 69.000
56.39663 71.000
56.41658 78.000
56.43653 68.000
56.45647 83.000
56.47642 91.000
56.49637 96.000
56.51631 90.000
56.53626 104.000
56.55621 86.000
56.57616 118.000
56.59610 114.000
56.61605 83.000
56.63600 109.000
56.65594 127.000
56.67589 111.000
56.69584 148.000
56.71578 152.000
56.73573 146.000
56.75568 147.000
56.77563 184.000
56.79557 166.000
56.81552 171.000
56.83547 148.000
56.85541 168.000
56.87536 185.000
56.89531 166.000
56.91525 187.000
56.93520 163.000
56.95515 196.000
56.97510 193.000
56.99504 183.000
57.01499 199.000
57.03494 204.000
57.05488 221.000
57.07483 218.000
57.09478 237.000
57.11472 247.000
57.13467 285.000
57.15462 350.000
57.17456 334.000
57.19451 358.000
57.21446 313.000
57.23441 358.000
57.25435 347.000
57.27430 327.000
57.29425 292.000
57.31419 275.000
57.33414 256.000
57.35409 247.000
57.37403 240.000
57.39398 230.000
57.41393 199.000
57.43388 153.000
57.45382 151.000
57.47377 161.000
57.49372 114.000
57.51366 108.000
57.53361 100.000
57.55356 95.000
57.57350 92.000
57.59345 99.000
57.61340 90.000
57.63334 90.000
57.65329 96.000
57.67324 77.000
57.69319 97.000
57.71313 77.000
57.73308 93.000
57.75303 77.000
57.77297 83.000
57.79292 103.000
57.81287 73.000
57.83281 80.000
57.85276 73.000
57.87271 77.000
57.89266 78.000
57.91260 68.000
57.93255 87.000
57.95250 95.000
57.97244 98.000
57.99239 113.000
58.01234 96.000
58.03228 101.000
58.05223 87.000
58.07218 79.000
58.09212 97.000
58.11207 67.000
58.13202 88.000
58.15197 98.000
58.17191 82.000
58.19186 94.000
58.21181 90.000
58.23175 109.000
58.25170 89.000
58.27165 105.000
58.29159 97.000
58.31154 95.000
58.33149 98.000
58.35144 92.000
58.37138 102.000
58.39133 86.000
58.41128 90.000
58.43122 77.000
58.45117 97.000
58.47112 88.000
58.49106 95.000
58.51101 93.000
58.53096 89.000
58.55090 90.000
58.57085 80.000
58.59080 73.000
58.61075 81.000
58.63069 65.000
58.65064 90.000
58.67059 76.000
58.69053 75.000
58.71048 80.000
58.73043 82.000
58.75037 108.000
58.77032 69.000
58.79027 87.000
58.81022 90.000
58.83016 78.000
58.85011 91.000
58.87006 82.000
58.89000 90.000
58.90995 89.000
58.92990 83.000
58.94984 85.000
58.96979 76.000
58.98974 89.000
59.00969 93.000
59.02963 94.000
59.04958 84.000
59.06953 78.000
59.08947 104.000
59.10942 72.000
59.12937 74.000
59.14931 97.000
59.16926 85.000
59.18921 93.000
59.20915 70.000
59.22910 89.000
59.24905 79.000
59.26900 80.000
59.28894 86.000
59.30889 80.000
59.32884 72.000
59.34878 104.000
59.36873 71.000
59.38868 100.000
59.40862 72.000
59.42857 77.000
59.44852 80.000
59.46847 85.000
59.48841 71.000
59.50836 81.000
59.52831 74.000
59.54825 111.000
59.56820 94.000
59.58815 114.000
59.60809 82.000
59.62804 79.000
59.64799 86.000
59.66793 75.000
59.68788 84.000
59.70783 94.000
59.72778 76.000
59.74772 86.000
59.76767 86.000
59.78762 89.000
59.80756 106.000
59.82751 78.000
59.84746 96.000
59.86740 86.000
59.88735 77.000
59.90730 99.000
59.92725 75.000
59.94719 78.000
59.96714 71.000
59.98709 93.000
60.00703 88.000
60.02698 77.000
60.04693 83.000
60.06687 83.000
60.08682 93.000
60.10677 85.000
60.12671 83.000
60.14666 81.000
60.16661 95.000
60.18656 91.000
60.20650 86.000
60.22645 77.000
60.24640 97.000
60.26634 75.000
60.28629 90.000
60.30624 88.000
60.32618 75.000
60.34613 73.000
60.36608 75.000
60.38603 89.000
60.40597 96.000
60.42592 92.000
60.44587 83.000
60.46581 90.000
60.48576 88.000
60.50571 77.000
60.52565 82.000
60.54560 83.000
60.56555 98.000
60.58550 93.000
60.60544 93.000
60.62539 93.000
60.64534 89.000
60.66528 103.000
60.68523 82.000
60.70518 76.000
60.72512 110.000
60.74507 100.000
60.76502 71.000
60.78496 82.000
60.80491 92.000
60.82486 105.000
60.84481 103.000
60.86475 98.000
60.88470 80.000
60.90465 101.000
60.92459 83.000
60.94454 99.000
60.96449 81.000
60.98443 79.000
61.00438 95.000
61.02433 106.000
61.04428 101.000
61.06422 90.000
61.08417 103.000
61.10412 92.000
61.12406 91.000
61.14401 104.000
61.16396 96.000
61.18390 88.000
61.20385 88.000
61.22380 92.000
61.24374 110.000
61.26369 117.000
61.28364 105.000
61.30359 122.000
61.32353 110.000
61.34348 111.000
61.36343 127.000
61.38337 109.000
61.40332 137.000
61.42327 140.000
61.44321 160.000
61.46316 158.000
61.48311 182.000
61.50306 185.000
61.52300 202.000
61.54295 266.000
61.56290 257.000
61.58284 271.000
61.60279 316.000
61.62274 319.000
61.64268 366.000
61.66263 408.000
61.68258 421.000
61.70252 389.000
61.72247 408.000
61.74242 381.000
61.76237 361.000
61.78231 386.000
61.80226 348.000
61.82221 326.000
61.84215 323.000
61.86210 312.000
61.88205 302.000
61.90199 308.000
61.92194 257.000
61.94189 232.000
61.96184 237.000
61.98178 199.000
62.00173 181.000
62.02168 152.000
62.04162 164.000
62.06157 163.000
62.08152 142.000
62.10146 158.000
62.12141 129.000
62.14136 128.000
62.16131 148.000
62.18125 152.000
62.20120 145.000
62.22115 155.000
62.24109 151.000
62.26104 154.000
62.28099 196.000
62.30093 194.000
62.32088 199.000
62.34083 229.000
62.36077 206.000
62.38072 217.000
62.40067 178.000
62.42062 181.000
62.44056 166.000
62.46051 212.000
62.48046 178.000
62.50040 201.000
62.52035 224.000
62.54030 213.000
62.56024 235.000
62.58019 230.000
62.60014 199.000
62.62009 255.000
62.64003 216.000
62.65998 250.000
62.67993 248.000
62.69987 275.000
62.71982 310.000
62.73977 330.000
62.75971 394.000
62.77966 466.000
62.79961 477.000
62.81955 426.000
62.83950 430.000
62.85945 400.000
62.87940 379.000
62.89934 353.000
62.91929 364.000
62.93924 368.000
62.95918 325.000
62.97913 315.000
62.99908 291.000
63.01902 300.000
63.03897 237.000
63.05892 217.000
63.07887 229.000
63.09881 171.000
63.11876 179.000
63.13871 140.000
63.15865 144.000
63.17860 123.000
63.19855 92.000
63.21849 97.000
63.23844 97.000
63.25839 103.000
63.27833 92.000
63.29828 97.000
63.31823 100.000
63.33818 110.000
63.35812 96.000
63.37807 83.000
63.39802 112.000
63.41796 110.000
63.43791 90.000
63.45786 89.000
63.47780 89.000
63.49775 93.000
63.51770 120.000
63.53765 98.000
63.55759 113.000
63.57754 106.000
63.59749 135.000
63.61743 99.000
63.63738 114.000
63.65733 122.000
63.67727 142.000
63.69722 128.000
63.71717 156.000
63.73712 153.000
63.75706 142.000
63.77701 205.000
63.79696 205.000
63.81690 222.000
63.83685 261.000
63.85680 261.000
63.87674 272.000
63.89669 285.000
63.91664 277.000
63.93658 277.000
63.95653 284.000
63.97648 325.000
63.99643 300.000
64.01637 277.000
64.03632 286.000
64.05627 297.000
64.07621 257.000
64.09616 243.000
64.11611 267.000
64.13605 254.000
64.15600 212.000
64.17595 216.000
64.19590 217.000
64.21584 218.000
64.23579 204.000
64.25574 158.000
64.27568 156.000
64.29563 192.000
64.31558 146.000
64.33552 157.000
64.35547 142.000
64.37542 135.000
64.39536 140.000
64.41531 134.000
64.43526 96.000
64.45521 104.000
64.47515 112.000
64.49510 115.000
64.51505 105.000
64.53499 108.000
64.55494 100.000
64.57489 93.000
64.59483 99.000
64.61478 92.000
64.63473 96.000
64.65468 90.000
64.67462 77.000
64.69457 84.000
64.71452 85.000
64.73446 93.000
64.75441 84.000
64.77436 85.000
64.79430 92.000
64.81425 88.000
64.83420 97.000
64.85414 110.000
64.87409 107.000
64.89404 82.000
64.91399 92.000
64.93393 92.000
64.95388 75.000
64.97383 88.000
64.99377 98.000
65.01372 101.000
65.03367 83.000
65.05361 82.000
65.07356 86.000
65.09351 91.000
65.11346 77.000
65.13340 103.000
65.15335 96.000
65.17330 92.000
65.19324 71.000
65.21319 80.000
65.23314 88.000
65.25308 77.000
65.27303 94.000
65.29298 112.000
65.31293 98.000
65.33287 93.000
65.35282 102.000
65.37277 86.000
65.39271 97.000
65.41266 107.000
65.43261 80.000
65.45255 86.000
65.47250 89.000
65.49245 104.000
65.51239 81.000
65.53234 82.000
65.55229 117.000
65.57224 95.000
65.59218 96.000
65.61213 104.000
65.63208 93.000
65.65202 88.000
65.67197 93.000
65.69192 95.000
65.71186 100.000
65.73181 98.000
65.75176 109.000
65.77171 107.000
65.79165 97.000
65.81160 105.000
65.83155 118.000
65.85149 120.000
65.87144 104.000
65.89139 111.000
65.91133 106.000
65.93128 113.000
65.95123 120.000
65.97117 106.000
65.99112 122.000
66.01107 131.000
66.03102 130.000
66.05096 141.000
66.07091 140.000
66.09086 132.000
66.11080 159.000
66.13075 165.000
66.15070 170.000
66.17064 196.000
66.19059 201.000
66.21054 219.000
66.23049 236.000
66.25043 233.000
66.27038 251.000
66.29033 254.000
66.31027 255.000
66.33022 247.000
66.35017 264.000
66.37011 267.000
66.39006 237.000
66.41001 259.000
66.42995 242.000
66.44990 245.000
66.46985 247.000
66.48980 234.000
66.50974 242.000
66.52969 213.000
66.54964 196.000
66.56958 194.000
66.58953 202.000
66.60948 200.000
66.62942 190.000
66.64937 197.000
66.66932 164.000
66.68927 155.000
66.70921 163.000
66.72916 150.000
66.74911 149.000
66.76905 120.000
66.78900 139.000
66.80895 134.000
66.82889 114.000
66.84884 106.000
66.86879 101.000
66.88874 99.000
66.90868 118.000
66.92863 97.000
66.94858 102.000
66.96852 98.000
66.98847 88.000
67.00842 96.000
67.02836 79.000
67.04831 79.000
67.06826 90.000
67.08820 84.000
67.10815 76.000
67.12810 101.000
67.14805 94.000
67.16799 81.000
67.18794 71.000
67.20789 92.000
67.22783 79.000
67.24778 88.000
67.26773 91.000
67.28767 94.000
67.30762 88.000
67.32757 73.000
67.34752 82.000
67.36746 97.000
67.38741 80.000
67.40736 89.000
67.42730 89.000
67.44725 81.000
67.46720 96.000
67.48714 94.000
67.50709 109.000
67.52704 95.000
67.54698 85.000
67.56693 65.000
67.58688 82.000
67.60683 97.000
67.62677 79.000
67.64672 85.000
67.66667 75.000
67.68661 101.000
67.70656 85.000
67.72651 93.000
67.74645 86.000
67.76640 77.000
67.78635 84.000
67.80630 105.000
67.82624 104.000
67.84619 84.000
67.86614 100.000
67.88608 103.000
67.90603 97.000
67.92598 110.000
67.94592 89.000
67.96587 97.000
67.98582 101.000
68.00576 91.000
68.02571 82.000
68.04566 104.000
68.06561 101.000
68.08555 101.000
68.10550 109.000
68.12545 95.000
68.14539 88.000
68.16534 86.000
68.18529 103.000
68.20523 78.000
68.22518 97.000
68.24513 97.000
68.26508 101.000
68.28502 89.000
68.30497 82.000
68.32492 95.000
68.34486 96.000
68.36481 84.000
68.38476 81.000
68.40470 90.000
68.42465 90.000
68.44460 98.000
68.46455 104.000
68.48449 84.000
68.50444 99.000
68.52439 73.000
68.54433 80.000
68.56428 91.000
68.58423 76.000
68.60417 75.000
68.62412 74.000
68.64407 79.000
68.66401 91.000
68.68396 87.000
68.70391 82.000
68.72386 84.000
68.74380 79.000
68.76375 74.000
68.78370 67.000
68.80364 77.000
68.82359 83.000
68.84354 76.000
68.86348 66.000
68.88343 81.000
68.90338 97.000
68.92333 79.000
68.94327 77.000
68.96322 89.000
68.98317 66.000
69.00311 93.000
69.02306 88.000
69.04301 92.000
69.06295 79.000
69.08290 80.000
69.10285 73.000
69.12279 67.000
69.14274 86.000
69.16269 79.000
69.18264 98.000
69.20258 74.000
69.22253 100.000
69.24248 73.000
69.26242 78.000
69.28237 73.000
69.30232 75.000
69.32226 69.000
69.34221 73.000
69.36216 58.000
69.38211 84.000
69.40205 69.000
69.42200 84.000
69.44195 86.000
69.46189 99.000
69.48184 86.000
69.50179 91.000
69.52173 86.000
69.54168 88.000
69.56163 86.000
69.58157 88.000
69.60152 85.000
69.62147 91.000
69.64142 79.000
69.66136 84.000
69.68131 83.000
69.70126 84.000
69.72120 69.000
69.74115 70.000
69.76110 86.000
69.78104 65.000
69.80099 79.000
69.82094 63.000
69.84089 84.000
69.86083 75.000
69.88078 72.000
69.90073 75.000
69.92067 92.000
69.94062 71.000
69.96057 93.000
69.98051 73.000
70.00046 72.000
70.02041 97.000
70.04035 75.000
70.06030 67.000
70.08025 76.000
70.10020 69.000
70.12014 76.000
70.14009 71.000
70.16004 65.000
70.17998 82.000
70.19993 88.000
70.21988 74.000
70.23982 95.000
70.25977 93.000
70.27972 84.000
70.29967 76.000
70.31961 72.000
70.33956 86.000
70.35951 63.000
70.37945 92.000
70.39940 106.000
70.41935 84.000
70.43929 90.000
70.45924 81.000
70.47919 85.000
70.49914 86.000
70.51908 68.000
70.53903 81.000
70.55898 73.000
70.57892 89.000
70.59887 103.000
70.61882 73.000
70.63876 78.000
70.65871 87.000
70.67866 81.000
70.69860 85.000
70.71855 83.000
70.73850 92.000
70.75845 75.000
70.77839 76.000
70.79834 98.000
70.81829 92.000
70.83823 76.000
70.85818 96.000
70.87813 96.000
70.89807 81.000
70.91802 87.000
70.93797 88.000
70.95792 91.000
70.97786 88.000
70.99781 76.000
71.01776 91.000
71.03770 114.000
71.05765 80.000
71.07760 97.000
71.09754 102.000
71.11749 106.000
71.13744 101.000
71.15738 100.000
71.17733 87.000
71.19728 78.000
71.21723 113.000
71.23717 95.000
71.25712 105.000
71.27707 101.000
71.29701 94.000
71.31696 94.000
71.33691 103.000
71.35685 104.000
71.37680 80.000
71.39675 94.000
71.41670 94.000
71.43664 119.000
71.45659 77.000
71.47654 95.000
71.49648 108.000
71.51643 88.000
71.53638 96.000
71.55632 92.000
71.57627 83.000
71.59622 91.000
71.61616 99.000
71.63611 84.000
71.65606 75.000
71.67601 86.000
71.69595 86.000
71.71590 91.000
71.73585 69.000
71.75579 78.000
71.77574 85.000
71.79569 66.000
71.81563 80.000
71.83558 89.000
71.85553 71.000
71.87548 92.000
71.89542 82.000
71.91537 71.000
71.93532 91.000
71.95526 82.000
71.97521 70.000
71.99516 86.000
72.01510 82.000
72.03505 83.000
72.05500 71.000
72.07495 78.000
72.09489 72.000
72.11484 84.000
72.13479 74.000
72.15473 81.000
72.17468 94.000
72.19463 98.000
72.21457 82.000
72.23452 93.000
72.25447 83.000
72.27441 78.000
72.29436 83.000
72.31431 97.000
72.33426 89.000
72.35420 104.000
72.37415 92.000
72.39410 84.000
72.41404 85.000
72.43399 89.000
72.45394 75.000
72.47388 94.000
72.49383 78.000
72.51378 85.000
72.53373 83.000
72.55367 77.000
72.57362 87.000
72.59357 108.000
72.61351 74.000
72.63346 89.000
72.65341 100.000
72.67335 83.000
72.69330 62.000
72.71325 84.000
72.73319 86.000
72.75314 89.000
72.77309 90.000
72.79304 86.000
72.81298 91.000
72.83293 75.000
72.85288 107.000
72.87282 91.000
72.89277 101.000
72.91272 110.000
72.93266 92.000
72.95261 111.000
72.97256 103.000
72.99251 106.000
73.01245 115.000
73.03240 101.000
73.05235 126.000
73.07229 132.000
73.09224 129.000
73.11219 139.000
73.13213 134.000
73.15208 137.000
73.17203 145.000
73.19197 134.000
73.21192 133.000
73.23187 153.000
73.25182 160.000
73.27176 153.000
73.29171 151.000
73.31166 131.000
73.33160 138.000
73.35155 145.000
73.37150 128.000
73.39144 130.000
73.41139 128.000
73.43134 126.000
73.45129 146.000
73.47123 124.000
73.49118 119.000
73.51113 124.000
73.53107 106.000
73.55102 112.000
73.57097 110.000
73.59091 119.000
73.61086 93.000
73.63081 93.000
73.65076 98.000
73.67070 103.000
73.69065 132.000
73.71060 115.000
73.73054 109.000
73.75049 92.000
73.77044 123.000
73.79038 94.000
73.81033 113.000
73.83028 100.000
73.85022 103.000
73.87017 96.000
73.89012 108.000
73.91007 121.000
73.93001 87.000
73.94996 109.000
73.96991 96.000
73.98985 99.000
74.00980 119.000
74.02975 90.000
74.04969 99.000
74.06964 99.000
74.08959 104.000
74.10954 91.000
74.12948 107.000
74.14943 100.000
74.16938 114.000
74.18932 141.000
74.20927 110.000
74.22922 113.000
74.24916 139.000
74.26911 150.000
74.28906 158.000
74.30900 144.000
74.32895 142.000
74.34890 144.000
74.36885 153.000
74.38879 132.000
74.40874 130.000
74.42869 128.000
74.44863 110.000
74.46858 111.000
74.48853 140.000
74.50847 132.000
74.52842 124.000
74.54837 131.000
74.56832 109.000
74.58826 116.000
74.60821 97.000
74.62816 133.000
74.64810 96.000
74.66805 95.000
74.68800 86.000
74.70794 118.000
74.72789 116.000
74.74784 112.000
74.76778 105.000
74.78773 89.000
74.80768 118.000
74.82763 95.000
74.84757 99.000
74.86752 88.000
74.88747 75.000
74.90741 101.000
74.92736 93.000
74.94731 104.000
74.96725 96.000
74.98720 97.000
75.00715 89.000
75.02710 89.000
75.04704 133.000
75.06699 102.000
75.08694 106.000
75.10688 101.000
75.12683 106.000
75.14678 126.000
75.16672 123.000
75.18667 119.000
75.20662 113.000
75.22657 116.000
75.24651 135.000
75.26646 129.000
75.28641 117.000
75.30635 111.000
75.32630 146.000
75.34625 144.000
75.36619 135.000
75.38614 117.000
75.40609 136.000
75.42603 115.000
75.44598 128.000
75.46593 140.000
75.48588 122.000
75.50582 131.000
75.52577 122.000
75.54572 109.000
75.56566 119.000
75.58561 104.000
75.60556 120.000
75.62550 114.000
75.64545 133.000
75.66540 102.000
75.68535 95.000
75.70529 95.000
75.72524 92.000
75.74519 120.000
75.76513 101.000
75.78508 85.000
75.80503 92.000
75.82497 93.000
75.84492 93.000
75.86487 90.000
75.88481 84.000
75.90476 77.000
75.92471 88.000
75.94466 98.000
75.96460 90.000
75.98455 80.000
76.00450 97.000
76.02444 81.000
76.04439 95.000
76.06434 90.000
76.08428 86.000
76.10423 91.000
76.12418 68.000
76.14413 75.000
76.16407 81.000
76.18402 98.000
76.20397 94.000
76.22391 82.000
76.24386 74.000
76.26381 84.000
76.28375 70.000
76.30370 74.000
76.32365 85.000
76.34359 87.000
76.36354 83.000
76.38349 72.000
76.40344 90.000
76.42338 82.000
76.44333 82.000
76.46328 82.000
76.48322 98.000
76.50317 89.000
76.52312 86.000
76.54306 92.000
76.56301 68.000
76.58296 79.000
76.60291 90.000
76.62285 63.000
76.64280 70.000
76.66275 87.000
76.68269 86.000
76.70264 84.000
76.72259 86.000
76.74253 81.000
76.76248 81.000
76.78243 68.000
76.80238 73.000
76.82232 81.000
76.84227 94.000
76.86222 67.000
76.88216 83.000
76.90211 99.000
76.92206 94.000
76.94200 79.000
76.96195 80.000
76.98190 76.000
77.00184 75.000
77.02179 80.000
77.04174 93.000
77.06169 80.000
77.08163 91.000
77.10158 86.000
77.12153 96.000
77.14147 108.000
77.16142 83.000
77.18137 78.000
77.20131 83.000
77.22126 98.000
77.24121 104.000
77.26116 91.000
77.28110 88.000
77.30105 104.000
77.32100 90.000
77.34094 109.000
77.36089 91.000
77.38084 102.000
77.40078 122.000
77.42073 114.000
77.44068 134.000
77.46062 132.000
77.48057 136.000
77.50052 150.000
77.52047 138.000
77.54041 167.000
77.56036 187.000
77.58031 157.000
77.60025 143.000
77.62020 179.000
77.64015 163.000
77.66009 182.000
77.68004 178.000
77.69999 182.000
77.71994 169.000
77.73988 169.000
77.75983 194.000
77.77978 205.000
77.79972 187.000
77.81967 214.000
77.83962 195.000
77.85956 211.000
77.87951 195.000
77.89946 166.000
77.91940 180.000
77.93935 169.000
77.95930 173.000
77.97925 174.000
77.99919 171.000
78.01914 165.000
78.03909 160.000
78.05903 175.000
78.07898 121.000
78.09893 146.000
78.11887 142.000
78.13882 130.000
78.15877 131.000
78.17872 119.000
78.19866 118.000
78.21861 111.000
78.23856 113.000
78.25850 92.000
78.27845 109.000
78.29840 104.000
78.31834 107.000
78.33829 93.000
78.35824 102.000
78.37819 90.000
78.39813 113.000
78.41808 91.000
78.43803 76.000
78.45797 85.000
78.47792 77.000
78.49787 70.000
78.51781 100.000
78.53776 100.000
78.55771 96.000
78.57765 103.000
78.59760 93.000
78.61755 89.000
78.63750 94.000
78.65744 100.000
78.67739 88.000
78.69734 94.000
78.71728 98.000
78.73723 86.000
78.75718 116.000
78.77712 88.000
78.79707 89.000
78.81702 93.000
78.83697 84.000
78.85691 98.000
78.87686 84.000
78.89681 83.000
78.91675 85.000
78.93670 86.000
78.95665 89.000
78.97659 91.000
78.99654 80.000
79.01649 82.000
79.03643 79.000
79.05638 83.000
79.07633 75.000
79.09628 73.000
79.11622 87.000
79.13617 85.000
79.15612 104.000
79.17606 105.000
79.19601 88.000
79.21596 84.000
79.23590 89.000
79.25585 113.000
79.27580 94.000
79.29575 120.000
79.31569 120.000
79.33564 114.000
79.35559 102.000
79.37553 96.000
79.39548 102.000
79.41543 104.000
79.43537 101.000
79.45532 84.000
79.47527 102.000
79.49521 82.000
79.51516 104.000
79.53511 99.000
79.55506 92.000
79.57500 104.000
79.59495 85.000
79.61490 92.000
79.63484 84.000
79.65479 85.000
79.67474 79.000
79.69468 78.000
79.71463 77.000
79.73458 95.000
79.75453 90.000
79.77447 69.000
79.79442 98.000
79.81437 98.000
79.83431 88.000
79.85426 75.000
79.87421 78.000
79.89415 89.000
79.91410 76.000
79.93405 68.000
79.95399 90.000
79.97394 86.000
79.99389 83.000
80.01384 77.000
80.03378 80.000
80.05373 95.000
80.07368 86.000
80.09362 81.000
80.11357 101.000
80.13352 94.000
80.15346 97.000
80.17341 100.000
80.19336 90.000
80.21331 86.000
80.23325 85.000
80.25320 85.000
80.27315 105.000
80.29309 80.000
80.31304 75.000
80.33299 103.000
80.35293 104.000
80.37288 90.000
80.39283 88.000
80.41278 115.000
80.43272 89.000
80.45267 108.000
80.47262 94.000
80.49256 95.000
80.51251 66.000
80.53246 110.000
80.55240 96.000
80.57235 84.000
80.59230 81.000
80.61224 107.000
80.63219 99.000
80.65214 81.000
80.67209 90.000
80.69203 86.000
80.71198 88.000
80.73193 76.000
80.75187 70.000
80.77182 78.000
80.79177 74.000
80.81171 98.000
80.83166 81.000
80.85161 75.000
80.87156 98.000
80.89150 73.000
80.91145 85.000
80.93140 100.000
80.95134 74.000
80.97129 83.000
80.99124 71.000
81.01118 80.000
81.03113 86.000
81.05108 76.000
81.07102 80.000
81.09097 79.000
81.11092 81.000
81.13087 84.000
81.15081 68.000
81.17076 97.000
81.19071 87.000
81.21065 79.000
81.23060 95.000
81.25055 81.000
81.27049 89.000
81.29044 85.000
81.31039 90.000
81.33034 76.000
81.35028 72.000
81.37023 72.000
81.39018 74.000
81.41012 78.000
81.43007 91.000
81.45002 70.000
81.46996 84.000
81.48991 94.000
81.50986 82.000
81.52980 75.000
81.54975 76.000
81.56970 76.000
81.58965 73.000
81.60959 83.000
81.62954 75.000
81.64949 84.000
81.66943 83.000
81.68938 82.000
81.70933 73.000
81.72927 97.000
81.74922 81.000
81.76917 84.000
81.78912 83.000
81.80906 71.000
81.82901 82.000
81.84896 83.000
81.86890 89.000
81.88885 72.000
81.90880 92.000
81.92874 79.000
81.94869 86.000
81.96864 77.000
81.98859 77.000
82.00853 75.000
82.02848 97.000
82.04843 83.000
82.06837 78.000
82.08832 74.000
82.10827 80.000
82.12821 90.000
82.14816 93.000
82.16811 79.000
82.18805 85.000
82.20800 79.000
82.22795 79.000
82.24790 100.000
82.26784 81.000
82.28779 86.000
82.30774 88.000
82.32768 83.000
82.34763 79.000
82.36758 88.000
82.38752 92.000
82.40747 86.000
82.42742 88.000
82.44737 83.000
82.46731 90.000
82.48726 84.000
82.50721 90.000
82.52715 87.000
82.54710 86.000
82.56705 74.000
82.58699 81.000
82.60694 103.000
82.62689 98.000
82.64683 75.000
82.66678 71.000
82.68673 96.000
82.70668 84.000
82.72662 77.000
82.74657 73.000
82.76652 72.000
82.78646 84.000
82.80641 78.000
82.82636 72.000
82.84630 83.000
82.86625 85.000
82.88620 96.000
82.90615 80.000
82.92609 75.000
82.94604 88.000
82.96599 97.000
82.98593 81.000
83.00588 83.000
83.02583 86.000
83.04577 84.000
83.06572 89.000
83.08567 86.000
83.10561 86.000
83.12556 85.000
83.14551 81.000
83.16546 107.000
83.18540 92.000
83.20535 85.000
83.22530 87.000
83.24524 94.000
83.26519 85.000
83.28514 81.000
83.30508 85.000
83.32503 76.000
83.34498 99.000
83.36493 94.000
83.38487 91.000
83.40482 97.000
83.42477 90.000
83.44471 92.000
83.46466 91.000
83.48461 72.000
83.50455 80.000
83.52450 92.000
83.54445 90.000
83.56440 97.000
83.58434 82.000
83.60429 98.000
83.62424 85.000
83.64418 86.000
83.66413 73.000
83.68408 83.000
83.70402 85.000
83.72397 100.000
83.74392 79.000
83.76386 89.000
83.78381 84.000
83.80376 100.000
83.82371 82.000
83.84365 95.000
83.86360 118.000
83.88355 108.000
83.90349 106.000
83.92344 109.000
83.94339 122.000
83.96333 116.000
83.98328 123.000
84.00323 113.000
84.02318 139.000
84.04312 140.000
84.06307 129.000
84.08302 146.000
84.10296 149.000
84.12291 147.000
84.14286 141.000
84.16280 144.000
84.18275 145.000
84.20270 151.000
84.22264 160.000
84.24259 163.000
84.26254 141.000
84.28249 157.000
84.30243 180.000
84.32238 155.000
84.34233 147.000
84.36227 153.000
84.38222 149.000
84.40217 119.000
84.42211 120.000
84.44206 152.000
84.46201 122.000
84.48196 125.000
84.50190 123.000
84.52185 125.000
84.54180 128.000
84.56174 113.000
84.58169 121.000
84.60164 111.000
84.62158 102.000
84.64153 108.000
84.66148 106.000
84.68142 114.000
84.70137 98.000
84.72132 81.000
84.74127 88.000
84.76121 90.000
84.78116 99.000
84.80111 79.000
84.82105 98.000
84.84100 85.000
84.86095 77.000
84.88089 89.000
84.90084 108.000
84.92079 94.000
84.94074 97.000
84.96068 96.000
84.98063 83.000
85.00058 78.000
85.02052 82.000
85.04047 81.000
85.06042 74.000
85.08036 94.000
85.10031 75.000
85.12026 96.000
85.14021 78.000
85.16015 75.000
85.18010 76.000
85.20005 79.000
85.21999 82.000
85.23994 59.000
85.25989 100.000
85.27983 74.000
85.29978 87.000
85.31973 67.000
85.33967 95.000
85.35962 88.000
85.37957 67.000
85.39952 79.000
85.41946 66.000
85.43941 78.000
85.45936 82.000
85.47930 91.000
85.49925 86.000
85.51920 95.000
85.53914 78.000
85.55909 91.000
85.57904 79.000
85.59899 73.000
85.61893 74.000
85.63888 80.000
85.65883 85.000
85.67877 82.000
85.69872 81.000
85.71867 84.000
85.73861 82.000
85.75856 84.000
85.77851 92.000
85.79845 93.000
85.81840 70.000
85.83835 94.000
85.85830 75.000
85.87824 79.000
85.89819 78.000
85.91814 85.000
85.93808 92.000
85.95803 74.000
85.97798 82.000
85.99792 68.000
86.01787 82.000
86.03782 79.000
86.05777 86.000
86.07771 77.000
86.09766 80.000
86.11761 71.000
86.13755 90.000
86.15750 82.000
86.17745 73.000
86.19739 87.000
86.21734 95.000
86.23729 80.000
86.25723 75.000
86.27718 85.000
86.29713 64.000
86.31708 101.000
86.33702 85.000
86.35697 80.000
86.37692 77.000
86.39686 90.000
86.41681 80.000
86.43676 105.000
86.45670 105.000
86.47665 99.000
86.49660 81.000
86.51655 77.000
86.53649 81.000
86.55644 97.000
86.57639 90.000
86.59633 80.000
86.61628 83.000
86.63623 105.000
86.65617 102.000
86.67612 101.000
86.69607 90.000
86.71602 94.000
86.73596 115.000
86.75591 93.000
86.77586 83.000
86.79580 100.000
86.81575 97.000
86.83570 105.000
86.85564 105.000
86.87559 100.000
86.89554 92.000
86.91548 95.000
86.93543 113.000
86.95538 84.000
86.97533 91.000
86.99527 118.000
87.01522 97.000
87.03517 109.000
87.05511 107.000
87.07506 94.000
87.09501 117.000
87.11495 118.000
87.13490 125.000
87.15485 97.000
87.17480 130.000
87.19474 111.000
87.21469 112.000
87.23464 99.000
87.25458 85.000
87.27453 104.000
87.29448 102.000
87.31442 109.000
87.33437 103.000
87.35432 108.000
87.37426 101.000
87.39421 103.000
87.41416 96.000
87.43411 114.000
87.45405 105.000
87.47400 82.000
87.49395 99.000
87.51389 85.000
87.53384 91.000
87.55379 99.000
87.57373 82.000
87.59368 87.000
87.61363 69.000
87.63358 73.000
87.65352 84.000
87.67347 90.000
87.69342 85.000
87.71336 89.000
87.73331 78.000
87.75326 92.000
87.77320 76.000
87.79315 87.000
87.81310 62.000
87.83304 84.000
87.85299 87.000
87.87294 75.000
87.89289 81.000
87.91283 85.000
87.93278 72.000
87.95273 79.000
87.97267 76.000
87.99262 73.000
88.01257 74.000
88.03251 86.000
88.05246 68.000
88.07241 80.000
88.09236 76.000
88.11230 90.000
88.13225 79.000
88.15220 90.000
88.17214 90.000
88.19209 67.000
88.21204 84.000
88.23198 76.000
88.25193 79.000
88.27188 87.000
88.29183 95.000
88.31177 90.000
88.33172 75.000
88.35167 78.000
88.37161 75.000
88.39156 80.000
88.41151 85.000
88.43145 70.000
88.45140 83.000
88.47135 89.000
88.49129 81.000
88.51124 81.000
88.53119 80.000
88.55114 80.000
88.57108 85.000
88.59103 88.000
88.61098 66.000
88.63092 83.000
88.65087 89.000
88.67082 80.000
88.69076 89.000
88.71071 69.000
88.73066 85.000
88.75061 94.000
88.77055 89.000
88.79050 77.000
88.81045 80.000
88.83039 95.000
88.85034 72.000
88.87029 97.000
88.89023 84.000
88.91018 87.000
88.93013 78.000
88.95007 83.000
88.97002 76.000
88.98997 91.000
89.00992 96.000
89.02986 74.000
89.04981 86.000
89.06976 80.000
89.08970 101.000
89.10965 80.000
89.12960 94.000
89.14954 88.000
89.16949 93.000
89.18944 80.000
89.20939 96.000
89.22933 99.000
89.24928 100.000
89.26923 102.000
89.28917 110.000
89.30912 111.000
89.32907 91.000
89.34901 83.000
89.36896 113.000
89.38891 100.000
89.40885 92.000
89.42880 113.000
89.44875 104.000
89.46870 109.000
89.48864 98.000
89.50859 97.000
89.52854 88.000
89.54848 101.000
89.56843 104.000
89.58838 113.000
89.60832 101.000
89.62827 84.000
89.64822 102.000
89.66817 113.000
89.68811 89.000
89.70806 95.000
89.72801 99.000
89.74795 104.000
89.76790 109.000
89.78785 98.000
89.80779 103.000
89.82774 96.000
89.84769 105.000
89.86764 130.000
89.88758 104.000
89.90753 114.000
89.92748 130.000
89.94742 106.000
89.96737 127.000
89.98732 137.000
90.00726 148.000
