10.00000 89.000
10.01995 88.000
10.03989 74.000
10.05984 82.000
10.07979 85.000
10.09973 88.000
10.11968 98.000
10.13963 94.000
10.15958 98.000
10.17952 84.000
10.19947 90.000
10.21942 102.000
10.23936 97.000
10.25931 89.000
10.27926 102.000
10.29920 87.000
10.31915 97.000
10.33910 96.000
10.35905 97.000
10.37899 105.000
10.39894 94.000
10.41889 93.000
10.43883 87.000
10.45878 76.000
10.47873 96.000
10.49867 92.000
10.51862 79.000
10.53857 85.000
10.55851 87.000
10.57846 89.000
10.59841 101.000
10.61836 92.000
10.63830 100.000
10.65825 77.000
10.67820 94.000
10.69814 75.000
10.71809 88.000
10.73804 85.000
10.75798 103.000
10.77793 85.000
10.79788 100.000
10.81783 70.000
10.83777 79.000
10.85772 99.000
10.87767 61.000
10.89761 81.000
10.91756 94.000
10.93751 102.000
10.95745 106.000
10.97740 89.000
10.99735 85.000
11.01730 88.000
11.03724 84.000
11.05719 92.000
11.07714 81.000
11.09708 80.000
11.11703 112.000
11.13698 89.000
11.15692 88.000
11.17687 86.000
11.19682 93.000
11.21676 78.000
11.23671 99.000
11.25666 81.000
11.27661 93.000
11.29655 100.000
11.31650 96.000
11.33645 101.000
11.35639 85.000
11.37634 90.000
11.39629 87.000
11.41623 98.000
11.43618 92.000
11.45613 96.000
11.47608 91.000
11.49602 95.000
11.51597 96.000
11.53592 101.000
11.55586 97.000
11.57581 101.000
11.59576 74.000
11.61570 95.000
11.63565 78.000
11.65560 94.000
11.67554 77.000
11.69549 99.000
11.71544 81.000
11.73539 102.000
11.75533 99.000
11.77528 82.000
11.79523 77.000
11.81517 86.000
11.83512 84.000
11.85507 79.000
11.87501 107.000
11.89496 95.000
11.91491 83.000
11.93486 85.000
11.95480 101.000
11.97475 97.000
11.99470 95.000
12.01464 82.000
12.03459 102.000
12.05454 85.000
12.07448 92.000
12.09443 89.000
12.11438 84.000
12.13432 102.000
12.15427 90.000
12.17422 99.000
12.19417 92.000
12.21411 95.000
12.23406 102.000
12.25401 106.000
12.27395 84.000
12.29390 95.000
12.31385 92.000
12.33379 91.000
12.35374 100.000
12.37369 84.000
12.39364 98.000
12.41358 94.000
12.43353 82.000
12.45348 90.000
12.47342 99.000
12.49337 95.000
12.51332 113.000
12.53326 91.000
12.55321 112.000
12.57316 94.000
12.59311 95.000
12.61305 110.000
12.63300 85.000
12.65295 93.000
12.67289 118.000
12.69284 114.000
12.71279 100.000
12.73273 115.000
12.75268 101.000
12.77263 110.000
12.79257 108.000
12.81252 91.000
12.83247 102.000
12.85242 107.000
12.87236 94.000
12.89231 89.000
12.91226 122.000
12.93220 101.000
12.95215 117.000
12.97210 117.000
12.99204 88.000
13.01199 128.000
13.03194 107.000
13.05189 124.000
13.07183 90.000
13.09178 104.000
13.11173 121.000
13.13167 105.000
13.15162 110.000
13.17157 113.000
13.19151 114.000
13.21146 99.000
13.23141 94.000
13.25135 111.000
13.27130 92.000
13.29125 117.000
13.31120 107.000
13.33114 109.000
13.35109 110.000
13.37104 95.000
13.39098 98.000
13.41093 100.000
13.43088 110.000
13.45082 117.000
13.47077 116.000
13.49072 106.000
13.51067 122.000
13.53061 128.000
13.55056 109.000
13.57051 105.000
13.59045 106.000
13.61040 119.000
13.63035 137.000
13.65029 119.000
13.67024 120.000
13.69019 121.000
13.71013 103.000
13.73008 110.000
13.75003 114.000
13.76998 101.000
13.78992 126.000
13.80987 113.000
13.82982 144.000
13.84976 126.000
13.86971 106.000
13.88966 132.000
13.90960 116.000
13.92955 143.000
13.94950 116.000
13.96945 135.000
13.98939 131.000
14.00934 121.000
14.02929 148.000
14.04923 123.000
14.06918 151.000
14.08913 152.000
14.10907 138.000
14.12902 157.000
14.14897 136.000
14.16892 175.000
14.18886 148.000
14.20881 159.000
14.22876 117.000
14.24870 136.000
14.26865 143.000
14.28860 148.000
14.30854 154.000
14.32849 133.000
14.34844 152.000
14.36838 137.000
14.38833 135.000
14.40828 151.000
14.42823 162.000
14.44817 146.000
14.46812 166.000
14.48807 151.000
14.50801 146.000
14.52796 149.000
14.54791 180.000
14.56785 160.000
14.58780 152.000
14.60775 151.000
14.62770 161.000
14.64764 161.000
14.66759 130.000
14.68754 165.000
14.70748 155.000
14.72743 159.000
14.74738 158.000
14.76732 155.000
14.78727 170.000
14.80722 154.000
14.82716 178.000
14.84711 208.000
14.86706 195.000
14.88701 183.000
14.90695 182.000
14.92690 203.000
14.94685 198.000
14.96679 229.000
14.98674 257.000
15.00669 250.000
15.02663 259.000
15.04658 242.000
15.06653 261.000
15.08648 218.000
15.10642 266.000
15.12637 255.000
15.14632 255.000
15.16626 274.000
15.18621 243.000
15.20616 258.000
15.22610 299.000
15.24605 294.000
15.26600 292.000
15.28594 285.000
15.30589 299.000
15.32584 384.000
15.34579 375.000
15.36573 399.000
15.38568 393.000
15.40563 455.000
15.42557 425.000
15.44552 522.000
15.46547 658.000
15.48541 691.000
15.50536 827.000
15.52531 1024.000
15.54526 1415.000
15.56520 1828.000
15.58515 2753.000
15.60510 4186.000
15.62504 6470.000
15.64499 9995.000
15.66494 13372.000
15.68488 13738.000
15.70483 11986.000
15.72478 8681.000
15.74472 5363.000
15.76467 3014.000
15.78462 1649.000
15.80457 1086.000
15.82451 741.000
15.84446 613.000
15.86441 514.000
15.88435 450.000
15.90430 366.000
15.92425 349.000
15.94419 257.000
15.96414 290.000
15.98409 226.000
16.00404 263.000
16.02398 225.000
16.04393 213.000
16.06388 217.000
16.08382 200.000
16.10377 213.000
16.12372 198.000
16.14366 180.000
16.16361 194.000
16.18356 184.000
16.20351 177.000
16.22345 163.000
16.24340 164.000
16.26335 150.000
16.28329 154.000
16.30324 151.000
16.32319 160.000
16.34313 160.000
16.36308 158.000
16.38303 143.000
16.40297 137.000
16.42292 148.000
16.44287 144.000
16.46282 134.000
16.48276 147.000
16.50271 134.000
16.52266 129.000
16.54260 137.000
16.56255 136.000
16.58250 157.000
16.60244 101.000
16.62239 113.000
16.64234 122.000
16.66229 119.000
16.68223 98.000
16.70218 124.000
16.72213 115.000
16.74207 111.000
16.76202 98.000
16.78197 98.000
16.80191 106.000
16.82186 127.000
16.84181 86.000
16.86175 104.000
16.88170 101.000
16.90165 95.000
16.92160 93.000
16.94154 104.000
16.96149 107.000
16.98144 110.000
17.00138 104.000
17.02133 119.000
17.04128 89.000
17.06122 93.000
17.08117 116.000
17.10112 105.000
17.12107 101.000
17.14101 91.000
17.16096 109.000
17.18091 85.000
17.20085 93.000
17.22080 88.000
17.24075 91.000
17.26069 100.000
17.28064 85.000
17.30059 92.000
17.32053 122.000
17.34048 98.000
17.36043 97.000
17.38038 94.000
17.40032 86.000
17.42027 108.000
17.44022 92.000
17.46016 100.000
17.48011 106.000
17.50006 111.000
17.52000 88.000
17.53995 97.000
17.55990 98.000
17.57985 77.000
17.59979 85.000
17.61974 85.000
17.63969 90.000
17.65963 107.000
17.67958 79.000
17.69953 95.000
17.71947 99.000
17.73942 91.000
17.75937 88.000
17.77932 108.000
17.79926 96.000
17.81921 115.000
17.83916 78.000
17.85910 96.000
17.87905 95.000
17.89900 77.000
17.91894 105.000
17.93889 100.000
17.95884 78.000
17.97878 100.000
17.99873 73.000
18.01868 104.000
18.03863 103.000
18.05857 102.000
18.07852 105.000
18.09847 125.000
18.11841 124.000
18.13836 106.000
18.15831 128.000
18.17825 129.000
18.19820 126.000
18.21815 126.000
18.23810 96.000
18.25804 100.000
18.27799 88.000
18.29794 95.000
18.31788 79.000
18.33783 91.000
18.35778 101.000
18.37772 82.000
18.39767 87.000
18.41762 94.000
18.43756 82.000
18.45751 103.000
18.47746 106.000
18.49741 91.000
18.51735 89.000
18.53730 96.000
18.55725 102.000
18.57719 73.000
18.59714 101.000
18.61709 92.000
18.63703 91.000
18.65698 97.000
18.67693 83.000
18.69688 90.000
18.71682 75.000
18.73677 91.000
18.75672 101.000
18.77666 91.000
18.79661 96.000
18.81656 77.000
18.83650 77.000
18.85645 88.000
18.87640 104.000
18.89634 82.000
18.91629 93.000
18.93624 87.000
18.95619 90.000
18.97613 99.000
18.99608 110.000
19.01603 89.000
19.03597 93.000
19.05592 86.000
19.07587 95.000
19.09581 92.000
19.11576 93.000
19.13571 82.000
19.15566 80.000
19.17560 83.000
19.19555 87.000
19.21550 89.000
19.23544 103.000
19.25539 91.000
19.27534 92.000
19.29528 90.000
19.31523 70.000
19.33518 97.000
19.35513 93.000
19.37507 87.000
19.39502 90.000
19.41497 79.000
19.43491 93.000
19.45486 94.000
19.47481 96.000
19.49475 81.000
19.51470 89.000
19.53465 97.000
19.55459 74.000
19.57454 103.000
19.59449 81.000
19.61444 116.000
19.63438 94.000
19.65433 91.000
19.67428 85.000
19.69422 101.000
19.71417 91.000
19.73412 96.000
19.75406 102.000
19.77401 87.000
19.79396 104.000
19.81391 98.000
19.83385 95.000
19.85380 95.000
19.87375 80.000
19.89369 99.000
19.91364 81.000
19.93359 88.000
19.95353 96.000
19.97348 106.000
19.99343 105.000
20.01337 81.000
20.03332 86.000
20.05327 73.000
20.07322 105.000
20.09316 83.000
20.11311 99.000
20.13306 92.000
20.15300 83.000
20.17295 93.000
20.19290 97.000
20.21284 86.000
20.23279 104.000
20.25274 94.000
20.27269 81.000
20.29263 89.000
20.31258 86.000
20.33253 77.000
20.35247 69.000
20.37242 102.000
20.39237 82.000
20.41231 111.000
20.43226 84.000
20.45221 93.000
20.47215 97.000
20.49210 115.000
20.51205 99.000
20.53200 102.000
20.55194 101.000
20.57189 94.000
20.59184 99.000
20.61178 94.000
20.63173 77.000
20.65168 93.000
20.67162 85.000
20.69157 90.000
20.71152 98.000
20.73147 91.000
20.75141 97.000
20.77136 79.000
20.79131 110.000
20.81125 91.000
20.83120 102.000
20.85115 94.000
20.87109 83.000
20.89104 93.000
20.91099 111.000
20.93094 98.000
20.95088 75.000
20.97083 105.000
20.99078 119.000
21.01072 120.000
21.03067 141.000
21.05062 134.000
21.07056 150.000
21.09051 157.000
21.11046 169.000
21.13040 149.000
21.15035 150.000
21.17030 139.000
21.19025 113.000
21.21019 93.000
21.23014 101.000
21.25009 97.000
21.27003 100.000
21.28998 88.000
21.30993 105.000
21.32987 94.000
21.34982 84.000
21.36977 101.000
21.38972 84.000
21.40966 97.000
21.42961 99.000
21.44956 97.000
21.46950 100.000
21.48945 104.000
21.50940 78.000
21.52934 97.000
21.54929 84.000
21.56924 82.000
21.58918 92.000
21.60913 94.000
21.62908 88.000
21.64903 83.000
21.66897 87.000
21.68892 80.000
21.70887 110.000
21.72881 110.000
21.74876 78.000
21.76871 118.000
21.78865 100.000
21.80860 84.000
21.82855 97.000
21.84850 101.000
21.86844 73.000
21.88839 98.000
21.90834 81.000
21.92828 84.000
21.94823 96.000
21.96818 111.000
21.98812 90.000
22.00807 89.000
22.02802 89.000
22.04796 81.000
22.06791 104.000
22.08786 93.000
22.10781 92.000
22.12775 96.000
22.14770 89.000
22.16765 98.000
22.18759 82.000
22.20754 89.000
22.22749 106.000
22.24743 89.000
22.26738 92.000
22.28733 83.000
22.30728 102.000
22.32722 85.000
22.34717 100.000
22.36712 94.000
22.38706 98.000
22.40701 91.000
22.42696 92.000
22.44690 88.000
22.46685 90.000
22.48680 105.000
22.50675 108.000
22.52669 105.000
22.54664 100.000
22.56659 89.000
22.58653 97.000
22.60648 74.000
22.62643 91.000
22.64637 70.000
22.66632 92.000
22.68627 92.000
22.70621 111.000
22.72616 93.000
22.74611 128.000
22.76606 76.000
22.78600 87.000
22.80595 79.000
22.82590 96.000
22.84584 105.000
22.86579 83.000
22.88574 95.000
22.90568 88.000
22.92563 85.000
22.94558 80.000
22.96553 88.000
22.98547 85.000
23.00542 98.000
23.02537 96.000
23.04531 93.000
23.06526 79.000
23.08521 101.000
23.10515 95.000
23.12510 107.000
23.14505 112.000
23.16499 85.000
23.18494 110.000
23.20489 101.000
23.22484 90.000
23.24478 91.000
23.26473 87.000
23.28468 95.000
23.30462 112.000
23.32457 89.000
23.34452 91.000
23.36446 99.000
23.38441 86.000
23.40436 80.000
23.42431 99.000
23.44425 92.000
23.46420 99.000
23.48415 97.000
23.50409 81.000
23.52404 94.000
23.54399 91.000
23.56393 88.000
23.58388 102.000
23.60383 92.000
23.62377 86.000
23.64372 93.000
23.66367 96.000
23.68362 99.000
23.70356 95.000
23.72351 96.000
23.74346 83.000
23.76340 93.000
23.78335 100.000
23.80330 108.000
23.82324 95.000
23.84319 111.000
23.86314 90.000
23.88309 103.000
23.90303 118.000
23.92298 89.000
23.94293 94.000
23.96287 82.000
23.98282 92.000
24.00277 99.000
24.02271 105.000
24.04266 98.000
24.06261 80.000
24.08256 96.000
24.10250 102.000
24.12245 94.000
24.14240 92.000
24.16234 95.000
24.18229 112.000
24.20224 99.000
24.22218 102.000
24.24213 97.000
24.26208 102.000
24.28202 83.000
24.30197 106.000
24.32192 97.000
24.34187 79.000
24.36181 96.000
24.38176 93.000
24.40171 95.000
24.42165 87.000
24.44160 91.000
24.46155 99.000
24.48149 101.000
24.50144 102.000
24.52139 101.000
24.54134 110.000
24.56128 84.000
24.58123 103.000
24.60118 87.000
24.62112 83.000
24.64107 103.000
24.66102 108.000
24.68096 101.000
24.70091 94.000
24.72086 98.000
24.74080 92.000
24.76075 97.000
24.78070 104.000
24.80065 99.000
24.82059 90.000
24.84054 90.000
24.86049 97.000
24.88043 108.000
24.90038 101.000
24.92033 90.000
24.94027 104.000
24.96022 96.000
24.98017 94.000
25.00012 109.000
25.02006 94.000
25.04001 92.000
25.05996 89.000
25.07990 81.000
25.09985 118.000
25.11980 103.000
25.13974 96.000
25.15969 103.000
25.17964 89.000
25.19958 106.000
25.21953 103.000
25.23948 99.000
25.25943 111.000
25.27937 102.000
25.29932 100.000
25.31927 89.000
25.33921 91.000
25.35916 94.000
25.37911 110.000
25.39905 106.000
25.41900 106.000
25.43895 98.000
25.45890 124.000
25.47884 98.000
25.49879 79.000
25.51874 88.000
25.53868 84.000
25.55863 89.000
25.57858 90.000
25.59852 101.000
25.61847 90.000
25.63842 98.000
25.65837 93.000
25.67831 91.000
25.69826 108.000
25.71821 115.000
25.73815 87.000
25.75810 77.000
25.77805 107.000
25.79799 113.000
25.81794 90.000
25.83789 84.000
25.85783 98.000
25.87778 113.000
25.89773 107.000
25.91768 105.000
25.93762 109.000
25.95757 84.000
25.97752 110.000
25.99746 111.000
26.01741 84.000
26.03736 102.000
26.05730 105.000
26.07725 89.000
26.09720 101.000
26.11715 127.000
26.13709 100.000
26.15704 98.000
26.17699 93.000
26.19693 104.000
26.21688 110.000
26.23683 109.000
26.25677 101.000
26.27672 109.000
26.29667 79.000
26.31661 95.000
26.33656 106.000
26.35651 94.000
26.37646 109.000
26.39640 119.000
26.41635 108.000
26.43630 111.000
26.45624 93.000
26.47619 89.000
26.49614 120.000
26.51608 112.000
26.53603 117.000
26.55598 97.000
26.57593 103.000
26.59587 113.000
26.61582 114.000
26.63577 107.000
26.65571 115.000
26.67566 99.000
26.69561 117.000
26.71555 106.000
26.73550 100.000
26.75545 93.000
26.77539 109.000
26.79534 102.000
26.81529 81.000
26.83524 107.000
26.85518 88.000
26.87513 112.000
26.89508 88.000
26.91502 97.000
26.93497 99.000
26.95492 103.000
26.97486 91.000
26.99481 82.000
27.01476 95.000
27.03471 97.000
27.05465 98.000
27.07460 110.000
27.09455 124.000
27.11449 94.000
27.13444 111.000
27.15439 94.000
27.17433 89.000
27.19428 99.000
27.21423 94.000
27.23417 105.000
27.25412 125.000
27.27407 111.000
27.29402 110.000
27.31396 88.000
27.33391 98.000
27.35386 103.000
27.37380 84.000
27.39375 91.000
27.41370 87.000
27.43364 98.000
27.45359 98.000
27.47354 93.000
27.49349 110.000
27.51343 106.000
27.53338 127.000
27.55333 94.000
27.57327 128.000
27.59322 104.000
27.61317 102.000
27.63311 118.000
27.65306 97.000
27.67301 100.000
27.69296 98.000
27.71290 95.000
27.73285 112.000
27.75280 120.000
27.77274 88.000
27.79269 109.000
27.81264 89.000
27.83258 107.000
27.85253 103.000
27.87248 111.000
27.89242 101.000
27.91237 88.000
27.93232 99.000
27.95227 117.000
27.97221 92.000
27.99216 77.000
28.01211 105.000
28.03205 106.000
28.05200 93.000
28.07195 112.000
28.09189 98.000
28.11184 94.000
28.13179 93.000
28.15174 98.000
28.17168 132.000
28.19163 107.000
28.21158 97.000
28.23152 105.000
28.25147 121.000
28.27142 104.000
28.29136 119.000
28.31131 96.000
28.33126 109.000
28.35120 101.000
28.37115 94.000
28.39110 105.000
28.41105 103.000
28.43099 110.000
28.45094 90.000
28.47089 110.000
28.49083 121.000
28.51078 115.000
28.53073 97.000
28.55067 118.000
28.57062 106.000
28.59057 115.000
28.61052 97.000
28.63046 100.000
28.65041 108.000
28.67036 113.000
28.69030 115.000
28.71025 113.000
28.73020 113.000
28.75014 103.000
28.77009 87.000
28.79004 107.000
28.80998 109.000
28.82993 109.000
28.84988 87.000
28.86983 107.000
28.88977 98.000
28.90972 106.000
28.92967 123.000
28.94961 124.000
28.96956 116.000
28.98951 100.000
29.00945 102.000
29.02940 115.000
29.04935 92.000
29.06930 99.000
29.08924 107.000
29.10919 96.000
29.12914 105.000
29.14908 109.000
29.16903 106.000
29.18898 97.000
29.20892 98.000
29.22887 98.000
29.24882 111.000
29.26877 109.000
29.28871 97.000
29.30866 101.000
29.32861 124.000
29.34855 119.000
29.36850 104.000
29.38845 115.000
29.40839 128.000
29.42834 91.000
29.44829 121.000
29.46823 95.000
29.48818 115.000
29.50813 114.000
29.52808 110.000
29.54802 114.000
29.56797 97.000
29.58792 136.000
29.60786 105.000
29.62781 111.000
29.64776 97.000
29.66770 99.000
29.68765 113.000
29.70760 98.000
29.72755 106.000
29.74749 103.000
29.76744 116.000
29.78739 115.000
29.80733 134.000
29.82728 127.000
29.84723 151.000
29.86717 156.000
29.88712 148.000
29.90707 148.000
29.92701 158.000
29.94696 137.000
29.96691 134.000
29.98686 115.000
30.00680 125.000
30.02675 124.000
30.04670 115.000
30.06664 133.000
30.08659 133.000
30.10654 122.000
30.12648 112.000
30.14643 150.000
30.16638 119.000
30.18633 122.000
30.20627 121.000
30.22622 118.000
30.24617 113.000
30.26611 110.000
30.28606 106.000
30.30601 92.000
30.32595 126.000
30.34590 118.000
30.36585 104.000
30.38579 100.000
30.40574 118.000
30.42569 107.000
30.44564 122.000
30.46558 117.000
30.48553 115.000
30.50548 107.000
30.52542 102.000
30.54537 91.000
30.56532 111.000
30.58526 126.000
30.60521 99.000
30.62516 105.000
30.64511 110.000
30.66505 102.000
30.68500 94.000
30.70495 122.000
30.72489 115.000
30.74484 116.000
30.76479 124.000
30.78473 129.000
30.80468 119.000
30.82463 123.000
30.84458 121.000
30.86452 127.000
30.88447 104.000
30.90442 147.000
30.92436 103.000
30.94431 111.000
30.96426 105.000
30.98420 104.000
31.00415 118.000
31.02410 113.000
31.04404 116.000
31.06399 111.000
31.08394 132.000
31.10389 131.000
31.12383 130.000
31.14378 124.000
31.16373 123.000
31.18367 124.000
31.20362 119.000
31.22357 112.000
31.24351 110.000
31.26346 136.000
31.28341 112.000
31.30336 129.000
31.32330 119.000
31.34325 147.000
31.36320 135.000
31.38314 142.000
31.40309 146.000
31.42304 126.000
31.44298 165.000
31.46293 160.000
31.48288 160.000
31.50282 192.000
31.52277 246.000
31.54272 226.000
31.56267 275.000
31.58261 392.000
31.60256 484.000
31.62251 601.000
31.64245 731.000
31.66240 894.000
31.68235 957.000
31.70229 926.000
31.72224 898.000
31.74219 879.000
31.76214 659.000
31.78208 528.000
31.80203 449.000
31.82198 371.000
31.84192 309.000
31.86187 207.000
31.88182 218.000
31.90176 177.000
31.92171 164.000
31.94166 152.000
31.96160 134.000
31.98155 122.000
32.00150 134.000
32.02145 137.000
32.04139 129.000
32.06134 141.000
32.08129 123.000
32.10123 129.000
32.12118 120.000
32.14113 114.000
32.16107 112.000
32.18102 114.000
32.20097 115.000
32.22092 114.000
32.24086 111.000
32.26081 105.000
32.28076 93.000
32.30070 112.000
32.32065 133.000
32.34060 120.000
32.36054 107.000
32.38049 116.000
32.40044 113.000
32.42039 107.000
32.44033 114.000
32.46028 113.000
32.48023 101.000
32.50017 121.000
32.52012 113.000
32.54007 123.000
32.56001 103.000
32.57996 92.000
32.59991 93.000
32.61985 130.000
32.63980 104.000
32.65975 113.000
32.67970 114.000
32.69964 120.000
32.71959 116.000
32.73954 114.000
32.75948 121.000
32.77943 109.000
32.79938 101.000
32.81932 108.000
32.83927 127.000
32.85922 106.000
32.87917 109.000
32.89911 108.000
32.91906 111.000
32.93901 107.000
32.95895 109.000
32.97890 123.000
32.99885 104.000
33.01879 106.000
33.03874 136.000
33.05869 101.000
33.07863 118.000
33.09858 111.000
33.11853 116.000
33.13848 105.000
33.15842 96.000
33.17837 112.000
33.19832 107.000
33.21826 125.000
33.23821 99.000
33.25816 90.000
33.27810 96.000
33.29805 106.000
33.31800 98.000
33.33795 124.000
33.35789 92.000
33.37784 121.000
33.39779 105.000
33.41773 114.000
33.43768 108.000
33.45763 105.000
33.47757 108.000
33.49752 106.000
33.51747 108.000
33.53741 108.000
33.55736 100.000
33.57731 101.000
33.59726 99.000
33.61720 121.000
33.63715 103.000
33.65710 105.000
33.67704 97.000
33.69699 122.000
33.71694 119.000
33.73688 128.000
33.75683 108.000
33.77678 105.000
33.79673 112.000
33.81667 89.000
33.83662 109.000
33.85657 125.000
33.87651 102.000
33.89646 120.000
33.91641 98.000
33.93635 120.000
33.95630 92.000
33.97625 103.000
33.99620 120.000
34.01614 96.000
34.03609 105.000
34.05604 91.000
34.07598 132.000
34.09593 104.000
34.11588 99.000
34.13582 121.000
34.15577 114.000
34.17572 127.000
34.19566 135.000
34.21561 125.000
34.23556 131.000
34.25551 106.000
34.27545 105.000
34.29540 98.000
34.31535 102.000
34.33529 105.000
34.35524 121.000
34.37519 137.000
34.39513 131.000
34.41508 114.000
34.43503 115.000
34.45498 111.000
34.47492 129.000
34.49487 140.000
34.51482 102.000
34.53476 134.000
34.55471 127.000
34.57466 134.000
34.59460 140.000
34.61455 129.000
34.63450 154.000
34.65444 123.000
34.67439 121.000
34.69434 125.000
34.71429 134.000
34.73423 159.000
34.75418 133.000
34.77413 138.000
34.79407 152.000
34.81402 136.000
34.83397 144.000
34.85391 132.000
34.87386 155.000
34.89381 143.000
34.91376 147.000
34.93370 133.000
34.95365 131.000
34.97360 147.000
34.99354 149.000
35.01349 143.000
35.03344 146.000
35.05338 157.000
35.07333 167.000
35.09328 156.000
35.11322 174.000
35.13317 173.000
35.15312 176.000
35.17307 220.000
35.19301 206.000
35.21296 205.000
35.23291 204.000
35.25285 197.000
35.27280 188.000
35.29275 172.000
35.31269 185.000
35.33264 184.000
35.35259 182.000
35.37254 197.000
35.39248 169.000
35.41243 183.000
35.43238 200.000
35.45232 222.000
35.47227 204.000
35.49222 235.000
35.51216 274.000
35.53211 294.000
35.55206 284.000
35.57201 329.000
35.59195 395.000
35.61190 490.000
35.63185 662.000
35.65179 750.000
35.67174 779.000
35.69169 902.000
35.71163 889.000
35.73158 866.000
35.75153 779.000
35.77147 712.000
35.79142 636.000
35.81137 552.000
35.83132 455.000
35.85126 390.000
35.87121 346.000
35.89116 287.000
35.91110 269.000
35.93105 237.000
35.95100 210.000
35.97094 180.000
35.99089 198.000
36.01084 156.000
36.03079 168.000
36.05073 164.000
36.07068 152.000
36.09063 158.000
36.11057 122.000
36.13052 152.000
36.15047 129.000
36.17041 126.000
36.19036 116.000
36.21031 124.000
36.23025 105.000
36.25020 139.000
36.27015 120.000
36.29010 117.000
36.31004 128.000
36.32999 145.000
36.34994 149.000
36.36988 127.000
36.38983 136.000
36.40978 112.000
36.42972 113.000
36.44967 146.000
36.46962 134.000
36.48957 132.000
36.50951 139.000
36.52946 179.000
36.54941 173.000
36.56935 191.000
36.58930 210.000
36.60925 201.000
36.62919 171.000
36.64914 177.000
36.66909 184.000
36.68903 168.000
36.70898 173.000
36.72893 186.000
36.74888 166.000
36.76882 164.000
36.78877 140.000
36.80872 133.000
36.82866 141.000
36.84861 144.000
36.86856 131.000
36.88850 144.000
36.90845 124.000
36.92840 98.000
36.94835 120.000
36.96829 115.000
36.98824 118.000
37.00819 105.000
37.02813 106.000
37.04808 101.000
37.06803 107.000
37.08797 114.000
37.10792 104.000
37.12787 109.000
37.14781 103.000
37.16776 123.000
37.18771 114.000
37.20766 110.000
37.22760 100.000
37.24755 120.000
37.26750 124.000
37.28744 112.000
37.30739 118.000
37.32734 131.000
37.34728 93.000
37.36723 118.000
37.38718 116.000
37.40713 111.000
37.42707 127.000
37.44702 112.000
37.46697 133.000
37.48691 109.000
37.50686 102.000
37.52681 115.000
37.54675 120.000
37.56670 102.000
37.58665 104.000
37.60660 101.000
37.62654 104.000
37.64649 110.000
37.66644 114.000
37.68638 105.000
37.70633 121.000
37.72628 110.000
37.74622 100.000
37.76617 107.000
37.78612 111.000
37.80606 132.000
37.82601 145.000
37.84596 131.000
37.86591 138.000
37.88585 113.000
37.90580 109.000
37.92575 107.000
37.94569 125.000
37.96564 89.000
37.98559 110.000
38.00553 123.000
38.02548 116.000
38.04543 146.000
38.06538 128.000
38.08532 134.000
38.10527 127.000
38.12522 120.000
38.14516 110.000
38.16511 127.000
38.18506 124.000
38.20500 102.000
38.22495 90.000
38.24490 122.000
38.26484 131.000
38.28479 123.000
38.30474 139.000
38.32469 116.000
38.34463 124.000
38.36458 107.000
38.38453 136.000
38.40447 139.000
38.42442 132.000
38.44437 107.000
38.46431 133.000
38.48426 136.000
38.50421 134.000
38.52416 153.000
38.54410 138.000
38.56405 155.000
38.58400 157.000
38.60394 153.000
38.62389 173.000
38.64384 170.000
38.66378 176.000
38.68373 194.000
38.70368 213.000
38.72362 223.000
38.74357 210.000
38.76352 204.000
38.78347 216.000
38.80341 227.000
38.82336 214.000
38.84331 205.000
38.86325 222.000
38.88320 209.000
38.90315 209.000
38.92309 240.000
38.94304 245.000
38.96299 232.000
38.98294 285.000
39.00288 304.000
39.02283 324.000
39.04278 344.000
39.06272 409.000
39.08267 442.000
39.10262 606.000
39.12256 811.000
39.14251 1102.000
39.16246 1336.000
39.18241 1556.000
39.20235 1587.000
39.22230 1600.000
39.24225 1457.000
39.26219 1450.000
39.28214 1441.000
39.30209 1230.000
39.32203 1039.000
39.34198 829.000
39.36193 714.000
39.38187 586.000
39.40182 523.000
39.42177 450.000
39.44172 363.000
39.46166 299.000
39.48161 280.000
39.50156 253.000
39.52150 269.000
39.54145 213.000
39.56140 203.000
39.58134 200.000
39.60129 187.000
39.62124 168.000
39.64119 169.000
39.66113 133.000
39.68108 153.000
39.70103 147.000
39.72097 161.000
39.74092 155.000
39.76087 140.000
39.78081 128.000
39.80076 122.000
39.82071 156.000
39.84065 137.000
39.86060 130.000
39.88055 143.000
39.90050 115.000
39.92044 118.000
39.94039 122.000
39.96034 101.000
39.98028 116.000
40.00023 151.000
40.02018 135.000
40.04012 110.000
40.06007 121.000
40.08002 114.000
40.09997 110.000
40.11991 115.000
40.13986 140.000
40.15981 121.000
40.17975 130.000
40.19970 116.000
40.21965 116.000
40.23959 121.000
40.25954 140.000
40.27949 127.000
40.29943 98.000
40.31938 99.000
40.33933 117.000
40.35928 100.000
40.37922 104.000
40.39917 112.000
40.41912 120.000
40.43906 110.000
40.45901 104.000
40.47896 119.000
40.49890 108.000
40.51885 103.000
40.53880 119.000
40.55875 105.000
40.57869 110.000
40.59864 99.000
40.61859 109.000
40.63853 105.000
40.65848 118.000
40.67843 87.000
40.69837 107.000
40.71832 97.000
40.73827 102.000
40.75822 106.000
40.77816 102.000
40.79811 90.000
40.81806 101.000
40.83800 112.000
40.85795 104.000
40.87790 91.000
40.89784 88.000
40.91779 87.000
40.93774 110.000
40.95768 112.000
40.97763 116.000
40.99758 96.000
41.01753 110.000
41.03747 110.000
41.05742 122.000
41.07737 78.000
41.09731 106.000
41.11726 121.000
41.13721 98.000
41.15715 112.000
41.17710 94.000
41.19705 110.000
41.21700 95.000
41.23694 106.000
41.25689 111.000
41.27684 113.000
41.29678 131.000
41.31673 118.000
41.33668 105.000
41.35662 116.000
41.37657 114.000
41.39652 112.000
41.41646 110.000
41.43641 118.000
41.45636 113.000
41.47631 102.000
41.49625 117.000
41.51620 102.000
41.53615 107.000
41.55609 107.000
41.57604 98.000
41.59599 99.000
41.61593 123.000
41.63588 115.000
41.65583 130.000
41.67578 99.000
41.69572 110.000
41.71567 98.000
41.73562 97.000
41.75556 100.000
41.77551 112.000
41.79546 110.000
41.81540 99.000
41.83535 86.000
41.85530 86.000
41.87524 97.000
41.89519 103.000
41.91514 87.000
41.93509 99.000
41.95503 79.000
41.97498 96.000
41.99493 99.000
42.01487 90.000
42.03482 110.000
42.05477 103.000
42.07471 111.000
42.09466 88.000
42.11461 115.000
42.13456 125.000
42.15450 83.000
42.17445 106.000
42.19440 88.000
42.21434 92.000
42.23429 113.000
42.25424 107.000
42.27418 108.000
42.29413 110.000
42.31408 121.000
42.33403 127.000
42.35397 110.000
42.37392 122.000
42.39387 110.000
42.41381 102.000
42.43376 108.000
42.45371 92.000
42.47365 130.000
42.49360 103.000
42.51355 119.000
42.53349 116.000
42.55344 91.000
42.57339 118.000
42.59334 113.000
42.61328 129.000
42.63323 114.000
42.65318 131.000
42.67312 115.000
42.69307 122.000
42.71302 115.000
42.73296 112.000
42.75291 130.000
42.77286 119.000
42.79281 141.000
42.81275 130.000
42.83270 140.000
42.85265 133.000
42.87259 130.000
42.89254 132.000
42.91249 122.000
42.93243 145.000
42.95238 151.000
42.97233 132.000
42.99227 152.000
43.01222 140.000
43.03217 152.000
43.05212 151.000
43.07206 157.000
43.09201 182.000
43.11196 184.000
43.13190 249.000
43.15185 277.000
43.17180 321.000
43.19174 416.000
43.21169 471.000
43.23164 550.000
43.25159 611.000
43.27153 600.000
43.29148 550.000
43.31143 555.000
43.33137 498.000
43.35132 506.000
43.37127 415.000
43.39121 409.000
43.41116 348.000
43.43111 292.000
43.45105 258.000
43.47100 231.000
43.49095 223.000
43.51090 176.000
43.53084 155.000
43.55079 147.000
43.57074 149.000
43.59068 147.000
43.61063 133.000
43.63058 130.000
43.65052 143.000
43.67047 138.000
43.69042 114.000
43.71037 121.000
43.73031 125.000
43.75026 116.000
43.77021 113.000
43.79015 110.000
43.81010 100.000
43.83005 116.000
43.84999 107.000
43.86994 93.000
43.88989 121.000
43.90984 107.000
43.92978 124.000
43.94973 95.000
43.96968 107.000
43.98962 120.000
44.00957 90.000
44.02952 109.000
44.04946 96.000
44.06941 110.000
44.08936 104.000
44.10930 83.000
44.12925 96.000
44.14920 105.000
44.16915 113.000
44.18909 88.000
44.20904 96.000
44.22899 78.000
44.24893 90.000
44.26888 114.000
44.28883 114.000
44.30877 106.000
44.32872 89.000
44.34867 81.000
44.36862 89.000
44.38856 101.000
44.40851 118.000
44.42846 117.000
44.44840 108.000
44.46835 113.000
44.48830 107.000
44.50824 95.000
44.52819 114.000
44.54814 116.000
44.56808 112.000
44.58803 105.000
44.60798 86.000
44.62793 97.000
44.64787 99.000
44.66782 99.000
44.68777 119.000
44.70771 98.000
44.72766 79.000
44.74761 84.000
44.76755 110.000
44.78750 90.000
44.80745 98.000
44.82740 94.000
44.84734 105.000
44.86729 100.000
44.88724 104.000
44.90718 88.000
44.92713 98.000
44.94708 101.000
44.96702 94.000
44.98697 105.000
45.00692 112.000
45.02686 97.000
45.04681 102.000
45.06676 84.000
45.08671 103.000
45.10665 109.000
45.12660 100.000
45.14655 94.000
45.16649 117.000
45.18644 66.000
45.20639 95.000
45.22633 111.000
45.24628 101.000
45.26623 103.000
45.28618 95.000
45.30612 86.000
45.32607 81.000
45.34602 77.000
45.36596 90.000
45.38591 100.000
45.40586 101.000
45.42580 94.000
45.44575 88.000
45.46570 93.000
45.48565 104.000
45.50559 89.000
45.52554 90.000
45.54549 116.000
45.56543 91.000
45.58538 94.000
45.60533 76.000
45.62527 101.000
45.64522 103.000
45.66517 84.000
45.68511 117.000
45.70506 105.000
45.72501 96.000
45.74496 112.000
45.76490 108.000
45.78485 107.000
45.80480 112.000
45.82474 103.000
45.84469 108.000
45.86464 97.000
45.88458 100.000
45.90453 94.000
45.92448 89.000
45.94443 92.000
45.96437 111.000
45.98432 79.000
46.00427 96.000
46.02421 92.000
46.04416 89.000
46.06411 99.000
46.08405 118.000
46.10400 110.000
46.12395 90.000
46.14389 103.000
46.16384 104.000
46.18379 108.000
46.20374 108.000
46.22368 99.000
46.24363 117.000
46.26358 96.000
46.28352 87.000
46.30347 124.000
46.32342 101.000
46.34336 110.000
46.36331 114.000
46.38326 130.000
46.40321 103.000
46.42315 93.000
46.44310 118.000
46.46305 90.000
46.48299 113.000
46.50294 124.000
46.52289 96.000
46.54283 98.000
46.56278 98.000
46.58273 108.000
46.60267 105.000
46.62262 86.000
46.64257 106.000
46.66252 103.000
46.68246 106.000
46.70241 121.000
46.72236 104.000
46.74230 104.000
46.76225 119.000
46.78220 106.000
46.80214 97.000
46.82209 104.000
46.84204 104.000
46.86199 101.000
46.88193 123.000
46.90188 109.000
46.92183 100.000
46.94177 95.000
46.96172 96.000
46.98167 91.000
47.00161 108.000
47.02156 90.000
47.04151 108.000
47.06146 97.000
47.08140 103.000
47.10135 113.000
47.12130 118.000
47.14124 112.000
47.16119 86.000
47.18114 96.000
47.20108 97.000
47.22103 106.000
47.24098 105.000
47.26092 97.000
47.28087 89.000
47.30082 105.000
47.32077 116.000
47.34071 95.000
47.36066 91.000
47.38061 114.000
47.40055 99.000
47.42050 100.000
47.44045 103.000
47.46039 120.000
47.48034 86.000
47.50029 96.000
47.52024 116.000
47.54018 123.000
47.56013 99.000
47.58008 114.000
47.60002 99.000
47.61997 110.000
47.63992 112.000
47.65986 123.000
47.67981 117.000
47.69976 119.000
47.71970 96.000
47.73965 119.000
47.75960 115.000
47.77955 117.000
47.79949 118.000
47.81944 118.000
47.83939 108.000
47.85933 115.000
47.87928 142.000
47.89923 129.000
47.91917 148.000
47.93912 140.000
47.95907 133.000
47.97902 140.000
47.99896 142.000
48.01891 159.000
48.03886 177.000
48.05880 155.000
48.07875 157.000
48.09870 167.000
48.11864 194.000
48.13859 190.000
48.15854 173.000
48.17848 240.000
48.19843 262.000
48.21838 252.000
48.23833 236.000
48.25827 294.000
48.27822 331.000
48.29817 342.000
48.31811 394.000
48.33806 459.000
48.35801 560.000
48.37795 674.000
48.39790 802.000
48.41785 1045.000
48.43780 1260.000
48.45774 1378.000
48.47769 1396.000
48.49764 1312.000
48.51758 1205.000
48.53753 1037.000
48.55748 1104.000
48.57742 1139.000
48.59737 987.000
48.61732 904.000
48.63726 758.000
48.65721 641.000
48.67716 543.000
48.69711 492.000
48.71705 420.000
48.73700 336.000
48.75695 260.000
48.77689 301.000
48.79684 260.000
48.81679 240.000
48.83673 197.000
48.85668 195.000
48.87663 202.000
48.89658 188.000
48.91652 182.000
48.93647 173.000
48.95642 146.000
48.97636 163.000
48.99631 157.000
49.01626 142.000
49.03620 147.000
49.05615 132.000
49.07610 140.000
49.09605 151.000
49.11599 150.000
49.13594 145.000
49.15589 123.000
49.17583 142.000
49.19578 121.000
49.21573 123.000
49.23567 117.000
49.25562 136.000
49.27557 114.000
49.29551 121.000
49.31546 122.000
49.33541 105.000
49.35536 122.000
49.37530 121.000
49.39525 114.000
49.41520 110.000
49.43514 108.000
49.45509 102.000
49.47504 104.000
49.49498 94.000
49.51493 112.000
49.53488 114.000
49.55483 114.000
49.57477 105.000
49.59472 113.000
49.61467 96.000
49.63461 116.000
49.65456 100.000
49.67451 111.000
49.69445 85.000
49.71440 124.000
49.73435 116.000
49.75429 92.000
49.77424 112.000
49.79419 105.000
49.81414 105.000
49.83408 104.000
49.85403 92.000
49.87398 113.000
49.89392 95.000
49.91387 89.000
49.93382 97.000
49.95376 107.000
49.97371 107.000
49.99366 112.000
50.01361 106.000
50.03355 87.000
50.05350 105.000
50.07345 109.000
50.09339 79.000
50.11334 85.000
50.13329 117.000
50.15323 87.000
50.17318 95.000
50.19313 87.000
50.21307 85.000
50.23302 99.000
50.25297 101.000
50.27292 96.000
50.29286 91.000
50.31281 86.000
50.33276 109.000
50.35270 91.000
50.37265 131.000
50.39260 103.000
50.41254 99.000
50.43249 99.000
50.45244 100.000
50.47239 94.000
50.49233 102.000
50.51228 88.000
50.53223 100.000
50.55217 98.000
50.57212 112.000
50.59207 88.000
50.61201 108.000
50.63196 94.000
50.65191 71.000
50.67186 100.000
50.69180 101.000
50.71175 98.000
50.73170 75.000
50.75164 101.000
50.77159 99.000
50.79154 88.000
50.81148 110.000
50.83143 101.000
50.85138 103.000
50.87132 97.000
50.89127 90.000
50.91122 103.000
50.93117 85.000
50.95111 78.000
50.97106 95.000
50.99101 103.000
51.01095 101.000
51.03090 109.000
51.05085 92.000
51.07079 86.000
51.09074 82.000
51.11069 96.000
51.13064 107.000
51.15058 111.000
51.17053 91.000
51.19048 74.000
51.21042 112.000
51.23037 102.000
51.25032 95.000
51.27026 76.000
51.29021 96.000
51.31016 80.000
51.33010 88.000
51.35005 86.000
51.37000 95.000
51.38995 95.000
51.40989 104.000
51.42984 98.000
51.44979 100.000
51.46973 92.000
51.48968 81.000
51.50963 102.000
51.52957 98.000
51.54952 104.000
51.56947 85.000
51.58942 95.000
51.60936 95.000
51.62931 88.000
51.64926 105.000
51.66920 108.000
51.68915 79.000
51.70910 89.000
51.72904 68.000
51.74899 82.000
51.76894 101.000
51.78888 66.000
51.80883 85.000
51.82878 90.000
51.84873 85.000
51.86867 78.000
51.88862 86.000
51.90857 90.000
51.92851 88.000
51.94846 100.000
51.96841 89.000
51.98835 100.000
52.00830 86.000
52.02825 81.000
52.04820 89.000
52.06814 81.000
52.08809 93.000
52.10804 83.000
52.12798 105.000
52.14793 87.000
52.16788 74.000
52.18782 104.000
52.20777 79.000
52.22772 85.000
52.24767 86.000
52.26761 75.000
52.28756 92.000
52.30751 81.000
52.32745 88.000
52.34740 96.000
52.36735 83.000
52.38729 83.000
52.40724 85.000
52.42719 71.000
52.44713 78.000
52.46708 96.000
52.48703 75.000
52.50698 80.000
52.52692 98.000
52.54687 102.000
52.56682 95.000
52.58676 86.000
52.60671 85.000
52.62666 96.000
52.64660 81.000
52.66655 93.000
52.68650 88.000
52.70645 104.000
52.72639 80.000
52.74634 84.000
52.76629 95.000
52.78623 82.000
52.80618 90.000
52.82613 86.000
52.84607 96.000
52.86602 123.000
52.88597 79.000
52.90591 72.000
52.92586 105.000
52.94581 94.000
52.96576 77.000
52.98570 88.000
53.00565 79.000
53.02560 80.000
53.04554 90.000
53.06549 87.000
53.08544 99.000
53.10538 105.000
53.12533 102.000
53.14528 83.000
53.16523 84.000
53.18517 92.000
53.20512 93.000
53.22507 86.000
53.24501 94.000
53.26496 92.000
53.28491 70.000
53.30485 107.000
53.32480 97.000
53.34475 94.000
53.36469 101.000
53.38464 77.000
53.40459 76.000
53.42454 94.000
53.44448 96.000
53.46443 103.000
53.48438 97.000
53.50432 98.000
53.52427 99.000
53.54422 122.000
53.56416 95.000
53.58411 125.000
53.60406 85.000
53.62401 81.000
53.64395 91.000
53.66390 94.000
53.68385 99.000
53.70379 88.000
53.72374 86.000
53.74369 92.000
53.76363 96.000
53.78358 101.000
53.80353 103.000
53.82348 90.000
53.84342 111.000
53.86337 106.000
53.88332 116.000
53.90326 87.000
53.92321 75.000
53.94316 77.000
53.96310 82.000
53.98305 66.000
54.00300 89.000
54.02294 90.000
54.04289 91.000
54.06284 99.000
54.08279 107.000
54.10273 85.000
54.12268 106.000
54.14263 81.000
54.16257 90.000
54.18252 104.000
54.20247 89.000
54.22241 111.000
54.24236 109.000
54.26231 77.000
54.28226 90.000
54.30220 71.000
54.32215 98.000
54.34210 83.000
54.36204 87.000
54.38199 93.000
54.40194 65.000
54.42188 91.000
54.44183 93.000
54.46178 105.000
54.48172 95.000
54.50167 95.000
54.52162 91.000
54.54157 78.000
54.56151 82.000
54.58146 87.000
54.60141 97.000
54.62135 93.000
54.64130 78.000
54.66125 90.000
54.68119 88.000
54.70114 88.000
54.72109 84.000
54.74104 82.000
54.76098 84.000
54.78093 86.000
54.80088 110.000
54.82082 93.000
54.84077 85.000
54.86072 108.000
54.88066 97.000
54.90061 104.000
54.92056 88.000
54.94050 85.000
54.96045 110.000
54.98040 85.000
55.00035 98.000
55.02029 94.000
55.04024 76.000
55.06019 84.000
55.08013 73.000
55.10008 83.000
55.12003 85.000
55.13997 87.000
55.15992 88.000
55.17987 105.000
55.19982 85.000
55.21976 95.000
55.23971 67.000
55.25966 94.000
55.27960 83.000
55.29955 89.000
55.31950 88.000
55.33944 95.000
55.35939 92.000
55.37934 93.000
55.39929 101.000
55.41923 91.000
55.43918 94.000
55.45913 89.000
55.47907 75.000
55.49902 98.000
55.51897 72.000
55.53891 81.000
55.55886 87.000
55.57881 95.000
55.59875 112.000
55.61870 103.000
55.63865 96.000
55.65860 80.000
55.67854 84.000
55.69849 100.000
55.71844 103.000
55.73838 98.000
55.75833 103.000
55.77828 88.000
55.79822 98.000
55.81817 89.000
55.83812 85.000
55.85807 85.000
55.87801 80.000
55.89796 93.000
55.91791 93.000
55.93785 88.000
55.95780 96.000
55.97775 77.000
55.99769 82.000
56.01764 84.000
56.03759 89.000
56.05753 90.000
56.07748 74.000
56.09743 102.000
56.11738 109.000
56.13732 88.000
56.15727 98.000
56.17722 89.000
56.19716 89.000
56.21711 98.000
56.23706 103.000
56.25700 101.000
56.27695 100.000
56.29690 88.000
56.31685 97.000
56.33679 97.000
56.35674 91.000
56.37669 116.000
56.39663 83.000
56.41658 106.000
56.43653 96.000
56.45647 93.000
56.47642 119.000
56.49637 112.000
56.51631 116.000
56.53626 109.000
56.55621 129.000
56.57616 107.000
56.59610 101.000
56.61605 116.000
56.63600 100.000
56.65594 97.000
56.67589 114.000
56.69584 104.000
56.71578 86.000
56.73573 101.000
56.75568 101.000
56.77563 107.000
56.79557 99.000
56.81552 93.000
56.83547 96.000
56.85541 82.000
56.87536 92.000
56.89531 87.000
56.91525 92.000
56.93520 92.000
56.95515 87.000
56.97510 92.000
56.99504 93.000
57.01499 95.000
57.03494 100.000
57.05488 96.000
57.07483 79.000
57.09478 75.000
57.11472 93.000
57.13467 82.000
57.15462 84.000
57.17456 88.000
57.19451 84.000
57.21446 118.000
57.23441 87.000
57.25435 106.000
57.27430 99.000
57.29425 104.000
57.31419 101.000
57.33414 100.000
57.35409 105.000
57.37403 116.000
57.39398 101.000
57.41393 86.000
57.43388 103.000
57.45382 88.000
57.47377 102.000
57.49372 92.000
57.51366 85.000
57.53361 83.000
57.55356 83.000
57.57350 86.000
57.59345 94.000
57.61340 89.000
57.63334 84.000
57.65329 75.000
57.67324 84.000
57.69319 82.000
57.71313 57.000
57.73308 74.000
57.75303 81.000
57.77297 93.000
57.79292 81.000
57.81287 110.000
57.83281 85.000
57.85276 89.000
57.87271 82.000
57.89266 80.000
57.91260 101.000
57.93255 87.000
57.95250 91.000
57.97244 89.000
57.99239 84.000
58.01234 98.000
58.03228 98.000
58.05223 100.000
58.07218 95.000
58.09212 89.000
58.11207 92.000
58.13202 100.000
58.15197 96.000
58.17191 84.000
58.19186 92.000
58.21181 106.000
58.23175 86.000
58.25170 97.000
58.27165 85.000
58.29159 91.000
58.31154 86.000
58.33149 94.000
58.35144 100.000
58.37138 94.000
58.39133 108.000
58.41128 103.000
58.43122 101.000
58.45117 98.000
58.47112 104.000
58.49106 97.000
58.51101 90.000
58.53096 103.000
58.55090 95.000
58.57085 93.000
58.59080 99.000
58.61075 82.000
58.63069 82.000
58.65064 86.000
58.67059 96.000
58.69053 82.000
58.71048 93.000
58.73043 84.000
58.75037 93.000
58.77032 119.000
58.79027 98.000
58.81022 84.000
58.83016 97.000
58.85011 103.000
58.87006 101.000
58.89000 102.000
58.90995 97.000
58.92990 91.000
58.94984 80.000
58.96979 93.000
58.98974 90.000
59.00969 88.000
59.02963 101.000
59.04958 91.000
59.06953 117.000
59.08947 92.000
59.10942 90.000
59.12937 100.000
59.14931 104.000
59.16926 87.000
59.18921 98.000
59.20915 87.000
59.22910 87.000
59.24905 105.000
59.26900 99.000
59.28894 98.000
59.30889 81.000
59.32884 111.000
59.34878 94.000
59.36873 109.000
59.38868 90.000
59.40862 104.000
59.42857 76.000
59.44852 91.000
59.46847 92.000
59.48841 91.000
59.50836 95.000
59.52831 89.000
59.54825 93.000
59.56820 82.000
59.58815 100.000
59.60809 85.000
59.62804 106.000
59.64799 83.000
59.66793 109.000
59.68788 97.000
59.70783 104.000
59.72778 90.000
59.74772 80.000
59.76767 82.000
59.78762 126.000
59.80756 90.000
59.82751 95.000
59.84746 95.000
59.86740 95.000
59.88735 83.000
59.90730 101.000
59.92725 109.000
59.94719 85.000
59.96714 99.000
59.98709 108.000
60.00703 99.000
60.02698 94.000
60.04693 97.000
60.06687 94.000
60.08682 99.000
60.10677 111.000
60.12671 84.000
60.14666 112.000
60.16661 98.000
60.18656 95.000
60.20650 99.000
60.22645 104.000
60.24640 108.000
60.26634 93.000
60.28629 109.000
60.30624 81.000
60.32618 89.000
60.34613 99.000
60.36608 82.000
60.38603 111.000
60.40597 104.000
60.42592 98.000
60.44587 109.000
60.46581 97.000
60.48576 121.000
60.50571 95.000
60.52565 108.000
60.54560 90.000
60.56555 92.000
60.58550 96.000
60.60544 105.000
60.62539 95.000
60.64534 96.000
60.66528 110.000
60.68523 96.000
60.70518 112.000
60.72512 95.000
60.74507 126.000
60.76502 105.000
60.78496 113.000
60.80491 117.000
60.82486 110.000
60.84481 122.000
60.86475 87.000
60.88470 114.000
60.90465 113.000
60.92459 103.000
60.94454 113.000
60.96449 128.000
60.98443 114.000
61.00438 126.000
61.02433 100.000
61.04428 115.000
61.06422 145.000
61.08417 126.000
61.10412 117.000
61.12406 111.000
61.14401 116.000
61.16396 126.000
61.18390 153.000
61.20385 169.000
61.22380 164.000
61.24374 140.000
61.26369 153.000
61.28364 167.000
61.30359 188.000
61.32353 193.000
61.34348 195.000
61.36343 239.000
61.38337 268.000
61.40332 249.000
61.42327 293.000
61.44321 322.000
61.46316 398.000
61.48311 450.000
61.50306 480.000
61.52300 523.000
61.54295 556.000
61.56290 544.000
61.58284 550.000
61.60279 495.000
61.62274 491.000
61.64268 430.000
61.66263 452.000
61.68258 442.000
61.70252 439.000
61.72247 401.000
61.74242 392.000
61.76237 350.000
61.78231 302.000
61.80226 237.000
61.82221 259.000
61.84215 209.000
61.86210 203.000
61.88205 194.000
61.90199 179.000
61.92194 181.000
61.94189 169.000
61.96184 165.000
61.98178 163.000
62.00173 166.000
62.02168 138.000
62.04162 147.000
62.06157 147.000
62.08152 144.000
62.10146 138.000
62.12141 130.000
62.14136 154.000
62.16131 136.000
62.18125 151.000
62.20120 153.000
62.22115 145.000
62.24109 135.000
62.26104 146.000
62.28099 106.000
62.30093 138.000
62.32088 127.000
62.34083 133.000
62.36077 131.000
62.38072 128.000
62.40067 121.000
62.42062 102.000
62.44056 118.000
62.46051 109.000
62.48046 122.000
62.50040 111.000
62.52035 106.000
62.54030 103.000
62.56024 108.000
62.58019 105.000
62.60014 100.000
62.62009 115.000
62.64003 120.000
62.65998 93.000
62.67993 124.000
62.69987 134.000
62.71982 108.000
62.73977 111.000
62.75971 121.000
62.77966 127.000
62.79961 105.000
62.81955 97.000
62.83950 139.000
62.85945 107.000
62.87940 99.000
62.89934 96.000
62.91929 104.000
62.93924 95.000
62.95918 109.000
62.97913 107.000
62.99908 107.000
63.01902 105.000
63.03897 112.000
63.05892 100.000
63.07887 90.000
63.09881 100.000
63.11876 89.000
63.13871 117.000
63.15865 98.000
63.17860 89.000
63.19855 101.000
63.21849 120.000
63.23844 123.000
63.25839 105.000
63.27833 101.000
63.29828 120.000
63.31823 104.000
63.33818 99.000
63.35812 81.000
63.37807 138.000
63.39802 109.000
63.41796 102.000
63.43791 100.000
63.45786 107.000
63.47780 110.000
63.49775 99.000
63.51770 95.000
63.53765 126.000
63.55759 106.000
63.57754 106.000
63.59749 116.000
63.61743 130.000
63.63738 107.000
63.65733 129.000
63.67727 112.000
63.69722 123.000
63.71717 117.000
63.73712 116.000
63.75706 120.000
63.77701 128.000
63.79696 133.000
63.81690 121.000
63.83685 122.000
63.85680 143.000
63.87674 132.000
63.89669 166.000
63.91664 166.000
63.93658 191.000
63.95653 177.000
63.97648 220.000
63.99643 276.000
64.01637 304.000
64.03632 303.000
64.05627 349.000
64.07621 365.000
64.09616 408.000
64.11611 380.000
64.13605 392.000
64.15600 408.000
64.17595 434.000
64.19590 365.000
64.21584 346.000
64.23579 359.000
64.25574 377.000
64.27568 328.000
64.29563 334.000
64.31558 292.000
64.33552 285.000
64.35547 270.000
64.37542 257.000
64.39536 218.000
64.41531 259.000
64.43526 213.000
64.45521 201.000
64.47515 193.000
64.49510 170.000
64.51505 172.000
64.53499 190.000
64.55494 179.000
64.57489 116.000
64.59483 130.000
64.61478 147.000
64.63473 128.000
64.65468 134.000
64.67462 126.000
64.69457 147.000
64.71452 109.000
64.73446 132.000
64.75441 98.000
64.77436 101.000
64.79430 108.000
64.81425 119.000
64.83420 115.000
64.85414 98.000
64.87409 116.000
64.89404 102.000
64.91399 103.000
64.93393 106.000
64.95388 94.000
64.97383 99.000
64.99377 103.000
65.01372 110.000
65.03367 107.000
65.05361 105.000
65.07356 106.000
65.09351 116.000
65.11346 121.000
65.13340 88.000
65.15335 91.000
65.17330 80.000
65.19324 101.000
65.21319 108.000
65.23314 100.000
65.25308 104.000
65.27303 91.000
65.29298 94.000
65.31293 99.000
65.33287 99.000
65.35282 103.000
65.37277 102.000
65.39271 109.000
65.41266 96.000
65.43261 109.000
65.45255 127.000
65.47250 97.000
65.49245 124.000
65.51239 96.000
65.53234 100.000
65.55229 101.000
65.57224 94.000
65.59218 89.000
65.61213 103.000
65.63208 95.000
65.65202 100.000
65.67197 103.000
65.69192 102.000
65.71186 113.000
65.73181 116.000
65.75176 103.000
65.77171 91.000
65.79165 116.000
65.81160 101.000
65.83155 122.000
65.85149 98.000
65.87144 118.000
65.89139 116.000
65.91133 123.000
65.93128 133.000
65.95123 103.000
65.97117 139.000
65.99112 123.000
66.01107 138.000
66.03102 137.000
66.05096 156.000
66.07091 153.000
66.09086 156.000
66.11080 177.000
66.13075 184.000
66.15070 169.000
66.17064 164.000
66.19059 181.000
66.21054 203.000
66.23049 213.000
66.25043 215.000
66.27038 214.000
66.29033 214.000
66.31027 254.000
66.33022 245.000
66.35017 278.000
66.37011 275.000
66.39006 336.000
66.41001 327.000
66.42995 373.000
66.44990 342.000
66.46985 339.000
66.48980 336.000
66.50974 338.000
66.52969 319.000
66.54964 328.000
66.56958 286.000
66.58953 311.000
66.60948 311.000
66.62942 304.000
66.64937 266.000
66.66932 267.000
66.68927 251.000
66.70921 231.000
66.72916 219.000
66.74911 206.000
66.76905 189.000
66.78900 201.000
66.80895 152.000
66.82889 161.000
66.84884 168.000
66.86879 152.000
66.88874 146.000
66.90868 153.000
66.92863 127.000
66.94858 113.000
66.96852 117.000
66.98847 114.000
67.00842 106.000
67.02836 96.000
67.04831 120.000
67.06826 85.000
67.08820 114.000
67.10815 103.000
67.12810 106.000
67.14805 101.000
67.16799 117.000
67.18794 108.000
67.20789 97.000
67.22783 92.000
67.24778 86.000
67.26773 101.000
67.28767 112.000
67.30762 92.000
67.32757 99.000
67.34752 102.000
67.36746 85.000
67.38741 105.000
67.40736 100.000
67.42730 104.000
67.44725 88.000
67.46720 98.000
67.48714 85.000
67.50709 107.000
67.52704 112.000
67.54698 83.000
67.56693 86.000
67.58688 93.000
67.60683 86.000
67.62677 101.000
67.64672 93.000
67.66667 98.000
67.68661 76.000
67.70656 99.000
67.72651 100.000
67.74645 95.000
67.76640 95.000
67.78635 90.000
67.80630 93.000
67.82624 94.000
67.84619 106.000
67.86614 108.000
67.88608 89.000
67.90603 91.000
67.92598 87.000
67.94592 97.000
67.96587 96.000
67.98582 82.000
68.00576 81.000
68.02571 94.000
68.04566 87.000
68.06561 98.000
68.08555 101.000
68.10550 109.000
68.12545 93.000
68.14539 105.000
68.16534 101.000
68.18529 94.000
68.20523 101.000
68.22518 83.000
68.24513 74.000
68.26508 110.000
68.28502 104.000
68.30497 83.000
68.32492 87.000
68.34486 87.000
68.36481 94.000
68.38476 80.000
68.40470 98.000
68.42465 100.000
68.44460 87.000
68.46455 90.000
68.48449 105.000
68.50444 108.000
68.52439 78.000
68.54433 79.000
68.56428 97.000
68.58423 94.000
68.60417 88.000
68.62412 105.000
68.64407 97.000
68.66401 89.000
68.68396 78.000
68.70391 66.000
68.72386 108.000
68.74380 91.000
68.76375 76.000
68.78370 80.000
68.80364 79.000
68.82359 87.000
68.84354 80.000
68.86348 79.000
68.88343 87.000
68.90338 68.000
68.92333 72.000
68.94327 105.000
68.96322 93.000
68.98317 77.000
69.00311 101.000
69.02306 98.000
69.04301 99.000
69.06295 91.000
69.08290 92.000
69.10285 95.000
69.12279 95.000
69.14274 108.000
69.16269 83.000
69.18264 83.000
69.20258 77.000
69.22253 102.000
69.24248 91.000
69.26242 93.000
69.28237 92.000
69.30232 83.000
69.32226 91.000
69.34221 95.000
69.36216 87.000
69.38211 89.000
69.40205 79.000
69.42200 84.000
69.44195 67.000
69.46189 92.000
69.48184 74.000
69.50179 88.000
69.52173 91.000
69.54168 79.000
69.56163 88.000
69.58157 89.000
69.60152 82.000
69.62147 67.000
69.64142 87.000
69.66136 84.000
69.68131 105.000
69.70126 93.000
69.72120 79.000
69.74115 80.000
69.76110 84.000
69.78104 87.000
69.80099 91.000
69.82094 85.000
69.84089 89.000
69.86083 92.000
69.88078 89.000
69.90073 86.000
69.92067 74.000
69.94062 85.000
69.96057 93.000
69.98051 81.000
70.00046 79.000
70.02041 73.000
70.04035 69.000
70.06030 81.000
70.08025 87.000
70.10020 87.000
70.12014 72.000
70.14009 78.000
70.16004 84.000
70.17998 110.000
70.19993 90.000
70.21988 106.000
70.23982 95.000
70.25977 80.000
70.27972 98.000
70.29967 78.000
70.31961 71.000
70.33956 93.000
70.35951 92.000
70.37945 83.000
70.39940 77.000
70.41935 81.000
70.43929 106.000
70.45924 100.000
70.47919 76.000
70.49914 83.000
70.51908 78.000
70.53903 77.000
70.55898 78.000
70.57892 84.000
70.59887 91.000
70.61882 80.000
70.63876 92.000
70.65871 84.000
70.67866 89.000
70.69860 89.000
70.71855 89.000
70.73850 88.000
70.75845 79.000
70.77839 82.000
70.79834 72.000
70.81829 77.000
70.83823 87.000
70.85818 95.000
70.87813 82.000
70.89807 91.000
70.91802 85.000
70.93797 80.000
70.95792 77.000
70.97786 92.000
70.99781 98.000
71.01776 66.000
71.03770 79.000
71.05765 84.000
71.07760 97.000
71.09754 85.000
71.11749 72.000
71.13744 85.000
71.15738 85.000
71.17733 78.000
71.19728 85.000
71.21723 94.000
71.23717 92.000
71.25712 90.000
71.27707 98.000
71.29701 69.000
71.31696 89.000
71.33691 78.000
71.35685 85.000
71.37680 81.000
71.39675 86.000
71.41670 94.000
71.43664 68.000
71.45659 84.000
71.47654 84.000
71.49648 86.000
71.51643 97.000
71.53638 96.000
71.55632 108.000
71.57627 99.000
71.59622 67.000
71.61616 80.000
71.63611 75.000
71.65606 80.000
71.67601 89.000
71.69595 95.000
71.71590 81.000
71.73585 93.000
71.75579 75.000
71.77574 84.000
71.79569 81.000
71.81563 92.000
71.83558 88.000
71.85553 88.000
71.87548 84.000
71.89542 79.000
71.91537 86.000
71.93532 72.000
71.95526 96.000
71.97521 98.000
71.99516 87.000
72.01510 89.000
72.03505 70.000
72.05500 86.000
72.07495 92.000
72.09489 86.000
72.11484 84.000
72.13479 90.000
72.15473 79.000
72.17468 93.000
72.19463 111.000
72.21457 84.000
72.23452 104.000
72.25447 90.000
72.27441 109.000
72.29436 87.000
72.31431 87.000
72.33426 105.000
72.35420 107.000
72.37415 99.000
72.39410 114.000
72.41404 113.000
72.43399 108.000
72.45394 113.000
72.47388 106.000
72.49383 96.000
72.51378 91.000
72.53373 97.000
72.55367 90.000
72.57362 105.000
72.59357 118.000
72.61351 88.000
72.63346 114.000
72.65341 100.000
72.67335 92.000
72.69330 97.000
72.71325 99.000
72.73319 101.000
72.75314 102.000
72.77309 97.000
72.79304 85.000
72.81298 90.000
72.83293 88.000
72.85288 91.000
72.87282 84.000
72.89277 90.000
72.91272 100.000
72.93266 84.000
72.95261 86.000
72.97256 88.000
72.99251 83.000
73.01245 106.000
73.03240 125.000
73.05235 106.000
73.07229 111.000
73.09224 123.000
73.11219 109.000
73.13213 105.000
73.15208 139.000
73.17203 123.000
73.19197 153.000
73.21192 148.000
73.23187 153.000
73.25182 196.000
73.27176 151.000
73.29171 176.000
73.31166 195.000
73.33160 186.000
73.35155 171.000
73.37150 191.000
73.39144 184.000
73.41139 153.000
73.43134 163.000
73.45129 188.000
73.47123 151.000
73.49118 165.000
73.51113 166.000
73.53107 151.000
73.55102 161.000
73.57097 140.000
73.59091 122.000
73.61086 137.000
73.63081 113.000
73.65076 126.000
73.67070 121.000
73.69065 104.000
73.71060 116.000
73.73054 94.000
73.75049 87.000
73.77044 101.000
73.79038 113.000
73.81033 99.000
73.83028 115.000
73.85022 101.000
73.87017 89.000
73.89012 101.000
73.91007 91.000
73.93001 94.000
73.94996 78.000
73.96991 91.000
73.98985 76.000
74.00980 99.000
74.02975 90.000
74.04969 83.000
74.06964 95.000
74.08959 88.000
74.10954 73.000
74.12948 78.000
74.14943 99.000
74.16938 84.000
74.18932 93.000
74.20927 98.000
74.22922 87.000
74.24916 94.000
74.26911 90.000
74.28906 75.000
74.30900 93.000
74.32895 89.000
74.34890 79.000
74.36885 90.000
74.38879 70.000
74.40874 81.000
74.42869 83.000
74.44863 108.000
74.46858 98.000
74.48853 79.000
74.50847 86.000
74.52842 70.000
74.54837 110.000
74.56832 89.000
74.58826 82.000
74.60821 96.000
74.62816 81.000
74.64810 93.000
74.66805 90.000
74.68800 90.000
74.70794 83.000
74.72789 81.000
74.74784 75.000
74.76778 105.000
74.78773 84.000
74.80768 78.000
74.82763 101.000
74.84757 84.000
74.86752 84.000
74.88747 82.000
74.90741 83.000
74.92736 91.000
74.94731 91.000
74.96725 82.000
74.98720 96.000
75.00715 77.000
75.02710 81.000
75.04704 87.000
75.06699 75.000
75.08694 76.000
75.10688 106.000
75.12683 92.000
75.14678 80.000
75.16672 93.000
75.18667 101.000
75.20662 99.000
75.22657 79.000
75.24651 94.000
75.26646 80.000
75.28641 86.000
75.30635 96.000
75.32630 85.000
75.34625 95.000
75.36619 97.000
75.38614 78.000
75.40609 106.000
75.42603 104.000
75.44598 121.000
75.46593 104.000
75.48588 90.000
75.50582 124.000
75.52577 139.000
75.54572 122.000
75.56566 112.000
75.58561 107.000
75.60556 111.000
75.62550 125.000
75.64545 127.000
75.66540 118.000
75.68535 121.000
75.70529 119.000
75.72524 113.000
75.74519 137.000
75.76513 103.000
75.78508 123.000
75.80503 117.000
75.82497 110.000
75.84492 110.000
75.86487 95.000
75.88481 121.000
75.90476 100.000
75.92471 117.000
75.94466 93.000
75.96460 84.000
75.98455 91.000
76.00450 94.000
76.02444 105.000
76.04439 88.000
76.06434 96.000
76.08428 101.000
76.10423 79.000
76.12418 95.000
76.14413 103.000
76.16407 101.000
76.18402 82.000
76.20397 77.000
76.22391 102.000
76.24386 80.000
76.26381 92.000
76.28375 91.000
76.30370 86.000
76.32365 81.000
76.34359 72.000
76.36354 87.000
76.38349 77.000
76.40344 89.000
76.42338 81.000
76.44333 89.000
76.46328 95.000
76.48322 87.000
76.50317 86.000
76.52312 87.000
76.54306 92.000
76.56301 94.000
76.58296 87.000
76.60291 90.000
76.62285 82.000
76.64280 88.000
76.66275 86.000
76.68269 91.000
76.70264 97.000
76.72259 99.000
76.74253 85.000
76.76248 83.000
76.78243 108.000
76.80238 82.000
76.82232 89.000
76.84227 97.000
76.86222 88.000
76.88216 96.000
76.90211 86.000
76.92206 95.000
76.94200 108.000
76.96195 101.000
76.98190 98.000
77.00184 90.000
77.02179 85.000
77.04174 95.000
77.06169 97.000
77.08163 95.000
77.10158 110.000
77.12153 87.000
77.14147 91.000
77.16142 105.000
77.18137 96.000
77.20131 110.000
77.22126 102.000
77.24121 98.000
77.26116 126.000
77.28110 124.000
77.30105 114.000
77.32100 128.000
77.34094 151.000
77.36089 148.000
77.38084 147.000
77.40078 144.000
77.42073 158.000
77.44068 150.000
77.46062 147.000
77.48057 201.000
77.50052 174.000
77.52047 196.000
77.54041 228.000
77.56036 215.000
77.58031 248.000
77.60025 241.000
77.62020 227.000
77.64015 226.000
77.66009 244.000
77.68004 263.000
77.69999 232.000
77.71994 228.000
77.73988 220.000
77.75983 241.000
77.77978 231.000
77.79972 240.000
77.81967 213.000
77.83962 264.000
77.85956 216.000
77.87951 211.000
77.89946 221.000
77.91940 234.000
77.93935 183.000
77.95930 182.000
77.97925 183.000
77.99919 160.000
78.01914 177.000
78.03909 175.000
78.05903 136.000
78.07898 172.000
78.09893 150.000
78.11887 120.000
78.13882 142.000
78.15877 117.000
78.17872 123.000
78.19866 109.000
78.21861 115.000
78.23856 94.000
78.25850 131.000
78.27845 107.000
78.29840 115.000
78.31834 119.000
78.33829 95.000
78.35824 98.000
78.37819 89.000
78.39813 86.000
78.41808 85.000
78.43803 106.000
78.45797 99.000
78.47792 80.000
78.49787 80.000
78.51781 105.000
78.53776 79.000
78.55771 88.000
78.57765 86.000
78.59760 106.000
78.61755 77.000
78.63750 100.000
78.65744 86.000
78.67739 76.000
78.69734 98.000
78.71728 75.000
78.73723 93.000
78.75718 97.000
78.77712 90.000
78.79707 71.000
78.81702 82.000
78.83697 94.000
78.85691 70.000
78.87686 111.000
78.89681 94.000
78.91675 83.000
78.93670 89.000
78.95665 75.000
78.97659 74.000
78.99654 63.000
79.01649 85.000
79.03643 75.000
79.05638 70.000
79.07633 80.000
79.09628 87.000
79.11622 82.000
79.13617 72.000
79.15612 81.000
79.17606 87.000
79.19601 86.000
79.21596 100.000
79.23590 98.000
79.25585 72.000
79.27580 87.000
79.29575 95.000
79.31569 89.000
79.33564 71.000
79.35559 111.000
79.37553 63.000
79.39548 85.000
79.41543 86.000
79.43537 80.000
79.45532 86.000
79.47527 98.000
79.49521 86.000
79.51516 86.000
79.53511 88.000
79.55506 95.000
79.57500 73.000
79.59495 80.000
79.61490 74.000
79.63484 91.000
79.65479 70.000
79.67474 83.000
79.69468 88.000
79.71463 84.000
79.73458 76.000
79.75453 67.000
79.77447 75.000
79.79442 79.000
79.81437 69.000
79.83431 72.000
79.85426 71.000
79.87421 73.000
79.89415 77.000
79.91410 91.000
79.93405 92.000
79.95399 90.000
79.97394 97.000
79.99389 90.000
80.01384 66.000
80.03378 83.000
80.05373 85.000
80.07368 71.000
80.09362 71.000
80.11357 98.000
80.13352 90.000
80.15346 101.000
80.17341 80.000
80.19336 78.000
80.21331 89.000
80.23325 89.000
80.25320 83.000
80.27315 83.000
80.29309 71.000
80.31304 85.000
80.33299 92.000
80.35293 106.000
80.37288 81.000
80.39283 86.000
80.41278 97.000
80.43272 95.000
80.45267 84.000
80.47262 101.000
80.49256 93.000
80.51251 102.000
80.53246 89.000
80.55240 90.000
80.57235 113.000
80.59230 97.000
80.61224 101.000
80.63219 101.000
80.65214 110.000
80.67209 99.000
80.69203 81.000
80.71198 91.000
80.73193 89.000
80.75187 75.000
80.77182 94.000
80.79177 103.000
80.81171 92.000
80.83166 76.000
80.85161 96.000
80.87156 90.000
80.89150 94.000
80.91145 92.000
80.93140 91.000
80.95134 95.000
80.97129 84.000
80.99124 81.000
81.01118 70.000
81.03113 69.000
81.05108 77.000
81.07102 89.000
81.09097 65.000
81.11092 83.000
81.13087 63.000
81.15081 73.000
81.17076 72.000
81.19071 93.000
81.21065 85.000
81.23060 82.000
81.25055 97.000
81.27049 75.000
81.29044 89.000
81.31039 85.000
81.33034 88.000
81.35028 76.000
81.37023 82.000
81.39018 81.000
81.41012 73.000
81.43007 72.000
81.45002 79.000
81.46996 67.000
81.48991 78.000
81.50986 83.000
81.52980 76.000
81.54975 85.000
81.56970 80.000
81.58965 75.000
81.60959 71.000
81.62954 75.000
81.64949 97.000
81.66943 85.000
81.68938 85.000
81.70933 93.000
81.72927 80.000
81.74922 77.000
81.76917 93.000
81.78912 63.000
81.80906 87.000
81.82901 84.000
81.84896 96.000
81.86890 68.000
81.88885 71.000
81.90880 86.000
81.92874 64.000
81.94869 67.000
81.96864 71.000
81.98859 66.000
82.00853 90.000
82.02848 83.000
82.04843 102.000
82.06837 84.000
82.08832 86.000
82.10827 90.000
82.12821 71.000
82.14816 77.000
82.16811 77.000
82.18805 82.000
82.20800 75.000
82.22795 99.000
82.24790 72.000
82.26784 72.000
82.28779 81.000
82.30774 72.000
82.32768 92.000
82.34763 87.000
82.36758 89.000
82.38752 78.000
82.40747 95.000
82.42742 81.000
82.44737 94.000
82.46731 79.000
82.48726 91.000
82.50721 86.000
82.52715 100.000
82.54710 79.000
82.56705 84.000
82.58699 69.000
82.60694 78.000
82.62689 57.000
82.64683 80.000
82.66678 91.000
82.68673 69.000
82.70668 76.000
82.72662 65.000
82.74657 90.000
82.76652 70.000
82.78646 92.000
82.80641 82.000
82.82636 84.000
82.84630 81.000
82.86625 66.000
82.88620 83.000
82.90615 83.000
82.92609 88.000
82.94604 81.000
82.96599 86.000
82.98593 100.000
83.00588 61.000
83.02583 76.000
83.04577 70.000
83.06572 84.000
83.08567 69.000
83.10561 93.000
83.12556 83.000
83.14551 77.000
83.16546 85.000
83.18540 86.000
83.20535 87.000
83.22530 72.000
83.24524 79.000
83.26519 86.000
83.28514 96.000
83.30508 78.000
83.32503 90.000
83.34498 88.000
83.36493 100.000
83.38487 89.000
83.40482 85.000
83.42477 68.000
83.44471 78.000
83.46466 83.000
83.48461 93.000
83.50455 72.000
83.52450 91.000
83.54445 82.000
83.56440 98.000
83.58434 103.000
83.60429 80.000
83.62424 84.000
83.64418 86.000
83.66413 103.000
83.68408 96.000
83.70402 78.000
83.72397 78.000
83.74392 75.000
83.76386 86.000
83.78381 94.000
83.80376 91.000
83.82371 94.000
83.84365 84.000
83.86360 104.000
83.88355 93.000
83.90349 102.000
83.92344 104.000
83.94339 104.000
83.96333 93.000
83.98328 96.000
84.00323 108.000
84.02318 110.000
84.04312 105.000
84.06307 118.000
84.08302 126.000
84.10296 131.000
84.12291 110.000
84.14286 147.000
84.16280 151.000
84.18275 157.000
84.20270 159.000
84.22264 184.000
84.24259 208.000
84.26254 199.000
84.28249 178.000
84.30243 174.000
84.32238 172.000
84.34233 212.000
84.36227 172.000
84.38222 176.000
84.40217 167.000
84.42211 183.000
84.44206 181.000
84.46201 150.000
84.48196 169.000
84.50190 170.000
84.52185 166.000
84.54180 200.000
84.56174 148.000
84.58169 161.000
84.60164 130.000
84.62158 170.000
84.64153 132.000
84.66148 139.000
84.68142 120.000
84.70137 114.000
84.72132 113.000
84.74127 123.000
84.76121 118.000
84.78116 108.000
84.80111 130.000
84.82105 105.000
84.84100 100.000
84.86095 98.000
84.88089 78.000
84.90084 106.000
84.92079 89.000
84.94074 80.000
84.96068 100.000
84.98063 96.000
85.00058 82.000
85.02052 90.000
85.04047 83.000
85.06042 85.000
85.08036 90.000
85.10031 93.000
85.12026 79.000
85.14021 77.000
85.16015 72.000
85.18010 90.000
85.20005 79.000
85.21999 86.000
85.23994 81.000
85.25989 74.000
85.27983 83.000
85.29978 73.000
85.31973 93.000
85.33967 81.000
85.35962 78.000
85.37957 81.000
85.39952 97.000
85.41946 97.000
85.43941 91.000
85.45936 72.000
85.47930 81.000
85.49925 92.000
85.51920 78.000
85.53914 90.000
85.55909 92.000
85.57904 89.000
85.59899 92.000
85.61893 82.000
85.63888 78.000
85.65883 90.000
85.67877 82.000
85.69872 81.000
85.71867 86.000
85.73861 95.000
85.75856 90.000
85.77851 76.000
85.79845 81.000
85.81840 87.000
85.83835 83.000
85.85830 75.000
85.87824 58.000
85.89819 71.000
85.91814 83.000
85.93808 103.000
85.95803 80.000
85.97798 103.000
85.99792 100.000
86.01787 105.000
86.03782 100.000
86.05777 89.000
86.07771 101.000
86.09766 81.000
86.11761 113.000
86.13755 102.000
86.15750 99.000
86.17745 86.000
86.19739 103.000
86.21734 81.000
86.23729 96.000
86.25723 82.000
86.27718 79.000
86.29713 103.000
86.31708 90.000
86.33702 78.000
86.35697 95.000
86.37692 92.000
86.39686 104.000
86.41681 83.000
86.43676 107.000
86.45670 96.000
86.47665 91.000
86.49660 95.000
86.51655 83.000
86.53649 93.000
86.55644 106.000
86.57639 89.000
86.59633 97.000
86.61628 108.000
86.63623 98.000
86.65617 92.000
86.67612 69.000
86.69607 88.000
86.71602 110.000
86.73596 92.000
86.75591 94.000
86.77586 104.000
86.79580 84.000
86.81575 110.000
86.83570 121.000
86.85564 90.000
86.87559 101.000
86.89554 93.000
86.91548 87.000
86.93543 85.000
86.95538 85.000
86.97533 87.000
86.99527 87.000
87.01522 106.000
87.03517 72.000
87.05511 83.000
87.07506 88.000
87.09501 70.000
87.11495 80.000
87.13490 62.000
87.15485 90.000
87.17480 74.000
87.19474 82.000
87.21469 72.000
87.23464 68.000
87.25458 90.000
87.27453 72.000
87.29448 64.000
87.31442 92.000
87.33437 73.000
87.35432 66.000
87.37426 99.000
87.39421 76.000
87.41416 97.000
87.43411 87.000
87.45405 77.000
87.47400 78.000
87.49395 93.000
87.51389 97.000
87.53384 80.000
87.55379 77.000
87.57373 83.000
87.59368 76.000
87.61363 75.000
87.63358 72.000
87.65352 81.000
87.67347 69.000
87.69342 85.000
87.71336 85.000
87.73331 81.000
87.75326 97.000
87.77320 69.000
87.79315 72.000
87.81310 80.000
87.83304 71.000
87.85299 70.000
87.87294 73.000
87.89289 77.000
87.91283 90.000
87.93278 74.000
87.95273 82.000
87.97267 72.000
87.99262 62.000
88.01257 80.000
88.03251 81.000
88.05246 62.000
88.07241 79.000
88.09236 76.000
88.11230 70.000
88.13225 97.000
88.15220 82.000
88.17214 67.000
88.19209 77.000
88.21204 71.000
88.23198 76.000
88.25193 84.000
88.27188 68.000
88.29183 69.000
88.31177 77.000
88.33172 92.000
88.35167 75.000
88.37161 81.000
88.39156 59.000
88.41151 73.000
88.43145 82.000
88.45140 73.000
88.47135 83.000
88.49129 87.000
88.51124 74.000
88.53119 83.000
88.55114 74.000
88.57108 93.000
88.59103 87.000
88.61098 70.000
88.63092 66.000
88.65087 77.000
88.67082 70.000
88.69076 70.000
88.71071 71.000
88.73066 91.000
88.75061 89.000
88.77055 81.000
88.79050 88.000
88.81045 86.000
88.83039 83.000
88.85034 60.000
88.87029 72.000
88.89023 75.000
88.91018 86.000
88.93013 82.000
88.95007 89.000
88.97002 75.000
88.98997 80.000
89.00992 81.000
89.02986 84.000
89.04981 82.000
89.06976 85.000
89.08970 66.000
89.10965 98.000
89.12960 91.000
89.14954 77.000
89.16949 74.000
89.18944 78.000
89.20939 64.000
89.22933 80.000
89.24928 73.000
89.26923 88.000
89.28917 81.000
89.30912 78.000
89.32907 86.000
89.34901 88.000
89.36896 71.000
89.38891 82.000
89.40885 76.000
89.42880 82.000
89.44875 80.000
89.46870 82.000
89.48864 71.000
89.50859 91.000
89.52854 92.000
89.54848 80.000
89.56843 77.000
89.58838 75.000
89.60832 84.000
89.62827 76.000
89.64822 66.000
89.66817 87.000
89.68811 77.000
89.70806 78.000
89.72801 68.000
89.74795 73.000
89.76790 87.000
89.78785 70.000
89.80779 75.000
89.82774 93.000
89.84769 81.000
89.86764 76.000
89.88758 78.000
89.90753 92.000
89.92748 72.000
89.94742 81.000
89.96737 85.000
89.98732 90.000
90.00726 82.000
