10.00000 111.000
10.01995 111.000
10.03989 136.000
10.05984 129.000
10.07979 143.000
10.09973 135.000
10.11968 130.000
10.13963 134.000
10.15958 135.000
10.17952 109.000
10.19947 132.000
10.21942 140.000
10.23936 137.000
10.25931 125.000
10.27926 135.000
10.29920 136.000
10.31915 149.000
10.33910 123.000
10.35905 134.000
10.37899 140.000
10.39894 136.000
10.41889 139.000
10.43883 141.000
10.45878 123.000
10.47873 128.000
10.49867 133.000
10.51862 150.000
10.53857 143.000
10.55851 141.000
10.57846 119.000
10.59841 126.000
10.61836 147.000
10.63830 133.000
10.65825 140.000
10.67820 117.000
10.69814 123.000
10.71809 135.000
10.73804 121.000
10.75798 113.000
10.77793 135.000
10.79788 141.000
10.81783 131.000
10.83777 156.000
10.85772 124.000
10.87767 127.000
10.89761 144.000
10.91756 114.000
10.93751 142.000
10.95745 147.000
10.97740 122.000
10.99735 141.000
11.01730 131.000
11.03724 162.000
11.05719 119.000
11.07714 123.000
11.09708 111.000
11.11703 131.000
11.13698 133.000
11.15692 138.000
11.17687 125.000
11.19682 149.000
11.21676 137.000
11.23671 135.000
11.25666 128.000
11.27661 115.000
11.29655 122.000
11.31650 122.000
11.33645 113.000
11.35639 148.000
11.37634 151.000
11.39629 123.000
11.41623 108.000
11.43618 118.000
11.45613 125.000
11.47608 126.000
11.49602 118.000
11.51597 138.000
11.53592 131.000
11.55586 138.000
11.57581 132.000
11.59576 135.000
11.61570 123.000
11.63565 117.000
11.65560 133.000
11.67554 145.000
11.69549 128.000
11.71544 138.000
11.73539 125.000
11.75533 124.000
11.77528 127.000
11.79523 148.000
11.81517 123.000
11.83512 137.000
11.85507 138.000
11.87501 146.000
11.89496 136.000
11.91491 141.000
11.93486 140.000
11.95480 140.000
11.97475 128.000
11.99470 139.000
12.01464 132.000
12.03459 132.000
12.05454 135.000
12.07448 132.000
12.09443 128.000
12.11438 125.000
12.13432 141.000
12.15427 140.000
12.17422 126.000
12.19417 114.000
12.21411 133.000
12.23406 139.000
12.25401 128.000
12.27395 138.000
12.29390 141.000
12.31385 120.000
12.33379 138.000
12.35374 131.000
12.37369 155.000
12.39364 138.000
12.41358 128.000
12.43353 127.000
12.45348 119.000
12.47342 135.000
12.49337 140.000
12.51332 137.000
12.53326 127.000
12.55321 127.000
12.57316 129.000
12.59311 133.000
12.61305 129.000
12.63300 121.000
12.65295 157.000
12.67289 136.000
12.69284 143.000
12.71279 127.000
12.73273 146.000
12.75268 124.000
12.77263 123.000
12.79257 122.000
12.81252 132.000
12.83247 118.000
12.85242 133.000
12.87236 130.000
12.89231 126.000
12.91226 132.000
12.93220 119.000
12.95215 118.000
12.97210 144.000
12.99204 116.000
13.01199 121.000
13.03194 158.000
13.05189 124.000
13.07183 138.000
13.09178 116.000
13.11173 130.000
13.13167 136.000
13.15162 120.000
13.17157 137.000
13.19151 125.000
13.21146 146.000
13.23141 165.000
13.25135 141.000
13.27130 140.000
13.29125 123.000
13.31120 125.000
13.33114 150.000
13.35109 127.000
13.37104 151.000
13.39098 129.000
13.41093 141.000
13.43088 141.000
13.45082 134.000
13.47077 135.000
13.49072 129.000
13.51067 143.000
13.53061 153.000
13.55056 140.000
13.57051 130.000
13.59045 127.000
13.61040 124.000
13.63035 129.000
13.65029 125.000
13.67024 137.000
13.69019 134.000
13.71013 132.000
13.73008 151.000
13.75003 139.000
13.76998 135.000
13.78992 135.000
13.80987 151.000
13.82982 134.000
13.84976 137.000
13.86971 126.000
13.88966 128.000
13.90960 150.000
13.92955 151.000
13.94950 134.000
13.96945 140.000
13.98939 114.000
14.00934 127.000
14.02929 116.000
14.04923 149.000
14.06918 126.000
14.08913 137.000
14.10907 122.000
14.12902 124.000
14.14897 136.000
14.16892 130.000
14.18886 131.000
14.20881 128.000
14.22876 167.000
14.24870 137.000
14.26865 164.000
14.28860 126.000
14.30854 144.000
14.32849 142.000
14.34844 144.000
14.36838 127.000
14.38833 143.000
14.40828 138.000
14.42823 131.000
14.44817 116.000
14.46812 148.000
14.48807 143.000
14.50801 123.000
14.52796 148.000
14.54791 148.000
14.56785 133.000
14.58780 152.000
14.60775 131.000
14.62770 165.000
14.64764 161.000
14.66759 150.000
14.68754 141.000
14.70748 159.000
14.72743 145.000
14.74738 146.000
14.76732 154.000
14.78727 158.000
14.80722 130.000
14.82716 148.000
14.84711 164.000
14.86706 131.000
14.88701 139.000
14.90695 163.000
14.92690 152.000
14.94685 142.000
14.96679 150.000
14.98674 168.000
15.00669 158.000
15.02663 174.000
15.04658 173.000
15.06653 182.000
15.08648 169.000
15.10642 181.000
15.12637 195.000
15.14632 190.000
15.16626 203.000
15.18621 192.000
15.20616 198.000
15.22610 188.000
15.24605 186.000
15.26600 175.000
15.28594 208.000
15.30589 201.000
15.32584 183.000
15.34579 211.000
15.36573 204.000
15.38568 220.000
15.40563 207.000
15.42557 189.000
15.44552 224.000
15.46547 223.000
15.48541 263.000
15.50536 276.000
15.52531 296.000
15.54526 289.000
15.56520 317.000
15.58515 355.000
15.60510 397.000
15.62504 445.000
15.64499 511.000
15.66494 606.000
15.68488 803.000
15.70483 1025.000
15.72478 1362.000
15.74472 2086.000
15.76467 3111.000
15.78462 4543.000
15.80457 5941.000
15.82451 6524.000
15.84446 5926.000
15.86441 4624.000
15.88435 3086.000
15.90430 1999.000
15.92425 1153.000
15.94419 762.000
15.96414 550.000
15.98409 450.000
16.00404 369.000
16.02398 366.000
16.04393 318.000
16.06388 304.000
16.08382 274.000
16.10377 281.000
16.12372 271.000
16.14366 251.000
16.16361 228.000
16.18356 201.000
16.20351 213.000
16.22345 206.000
16.24340 208.000
16.26335 218.000
16.28329 205.000
16.30324 184.000
16.32319 183.000
16.34313 180.000
16.36308 154.000
16.38303 168.000
16.40297 166.000
16.42292 169.000
16.44287 184.000
16.46282 187.000
16.48276 158.000
16.50271 160.000
16.52266 163.000
16.54260 163.000
16.56255 157.000
16.58250 164.000
16.60244 172.000
16.62239 162.000
16.64234 157.000
16.66229 154.000
16.68223 167.000
16.70218 153.000
16.72213 158.000
16.74207 136.000
16.76202 162.000
16.78197 133.000
16.80191 145.000
16.82186 141.000
16.84181 158.000
16.86175 136.000
16.88170 142.000
16.90165 120.000
16.92160 164.000
16.94154 143.000
16.96149 135.000
16.98144 144.000
17.00138 137.000
17.02133 164.000
17.04128 156.000
17.06122 135.000
17.08117 169.000
17.10112 160.000
17.12107 139.000
17.14101 121.000
17.16096 152.000
17.18091 132.000
17.20085 122.000
17.22080 127.000
17.24075 152.000
17.26069 137.000
17.28064 152.000
17.30059 141.000
17.32053 143.000
17.34048 132.000
17.36043 132.000
17.38038 129.000
17.40032 142.000
17.42027 160.000
17.44022 145.000
17.46016 138.000
17.48011 131.000
17.50006 120.000
17.52000 139.000
17.53995 140.000
17.55990 118.000
17.57985 134.000
17.59979 160.000
17.61974 123.000
17.63969 134.000
17.65963 143.000
17.67958 129.000
17.69953 155.000
17.71947 135.000
17.73942 122.000
17.75937 144.000
17.77932 141.000
17.79926 145.000
17.81921 144.000
17.83916 132.000
17.85910 131.000
17.87905 152.000
17.89900 128.000
17.91894 128.000
17.93889 139.000
17.95884 131.000
17.97878 128.000
17.99873 133.000
18.01868 146.000
18.03863 121.000
18.05857 125.000
18.07852 124.000
18.09847 147.000
18.11841 145.000
18.13836 126.000
18.15831 144.000
18.17825 134.000
18.19820 127.000
18.21815 167.000
18.23810 148.000
18.25804 182.000
18.27799 173.000
18.29794 225.000
18.31788 306.000
18.33783 403.000
18.35778 582.000
18.37772 569.000
18.39767 546.000
18.41762 458.000
18.43756 350.000
18.45751 217.000
18.47746 188.000
18.49741 193.000
18.51735 165.000
18.53730 146.000
18.55725 149.000
18.57719 127.000
18.59714 147.000
18.61709 151.000
18.63703 136.000
18.65698 146.000
18.67693 141.000
18.69688 139.000
18.71682 124.000
18.73677 131.000
18.75672 142.000
18.77666 126.000
18.79661 136.000
18.81656 130.000
18.83650 119.000
18.85645 125.000
18.87640 129.000
18.89634 103.000
18.91629 146.000
18.93624 147.000
18.95619 132.000
18.97613 125.000
18.99608 147.000
19.01603 125.000
19.03597 118.000
19.05592 97.000
19.07587 116.000
19.09581 154.000
19.11576 114.000
19.13571 109.000
19.15566 127.000
19.17560 112.000
19.19555 139.000
19.21550 122.000
19.23544 113.000
19.25539 143.000
19.27534 119.000
19.29528 140.000
19.31523 114.000
19.33518 126.000
19.35513 130.000
19.37507 145.000
19.39502 126.000
19.41497 124.000
19.43491 130.000
19.45486 132.000
19.47481 154.000
19.49475 147.000
19.51470 135.000
19.53465 147.000
19.55459 134.000
19.57454 110.000
19.59449 118.000
19.61444 121.000
19.63438 118.000
19.65433 124.000
19.67428 138.000
19.69422 134.000
19.71417 119.000
19.73412 140.000
19.75406 122.000
19.77401 141.000
19.79396 121.000
19.81391 129.000
19.83385 128.000
19.85380 139.000
19.87375 153.000
19.89369 131.000
19.91364 135.000
19.93359 125.000
19.95353 138.000
19.97348 131.000
19.99343 141.000
20.01337 128.000
20.03332 131.000
20.05327 113.000
20.07322 124.000
20.09316 150.000
20.11311 130.000
20.13306 128.000
20.15300 143.000
20.17295 121.000
20.19290 128.000
20.21284 146.000
20.23279 127.000
20.25274 138.000
20.27269 148.000
20.29263 151.000
20.31258 120.000
20.33253 134.000
20.35247 144.000
20.37242 140.000
20.39237 131.000
20.41231 136.000
20.43226 131.000
20.45221 136.000
20.47215 142.000
20.49210 137.000
20.51205 145.000
20.53200 114.000
20.55194 146.000
20.57189 145.000
20.59184 122.000
20.61178 129.000
20.63173 133.000
20.65168 146.000
20.67162 128.000
20.69157 141.000
20.71152 133.000
20.73147 129.000
20.75141 120.000
20.77136 153.000
20.79131 118.000
20.81125 160.000
20.83120 141.000
20.85115 153.000
20.87109 171.000
20.89104 178.000
20.91099 189.000
20.93094 161.000
20.95088 194.000
20.97083 210.000
20.99078 259.000
21.01072 261.000
21.03067 239.000
21.05062 212.000
21.07056 184.000
21.09051 187.000
21.11046 170.000
21.13040 146.000
21.15035 162.000
21.17030 166.000
21.19025 137.000
21.21019 137.000
21.23014 139.000
21.25009 161.000
21.27003 134.000
21.28998 132.000
21.30993 146.000
21.32987 150.000
21.34982 157.000
21.36977 140.000
21.38972 126.000
21.40966 124.000
21.42961 124.000
21.44956 142.000
21.46950 136.000
21.48945 141.000
21.50940 149.000
21.52934 142.000
21.54929 129.000
21.56924 110.000
21.58918 130.000
21.60913 129.000
21.62908 121.000
21.64903 156.000
21.66897 134.000
21.68892 128.000
21.70887 141.000
21.72881 128.000
21.74876 132.000
21.76871 132.000
21.78865 125.000
21.80860 122.000
21.82855 149.000
21.84850 130.000
21.86844 152.000
21.88839 115.000
21.90834 126.000
21.92828 135.000
21.94823 133.000
21.96818 119.000
21.98812 135.000
22.00807 150.000
22.02802 122.000
22.04796 147.000
22.06791 131.000
22.08786 131.000
22.10781 97.000
22.12775 153.000
22.14770 127.000
22.16765 126.000
22.18759 156.000
22.20754 132.000
22.22749 137.000
22.24743 137.000
22.26738 133.000
22.28733 139.000
22.30728 131.000
22.32722 127.000
22.34717 146.000
22.36712 134.000
22.38706 122.000
22.40701 125.000
22.42696 145.000
22.44690 143.000
22.46685 131.000
22.48680 126.000
22.50675 124.000
22.52669 117.000
22.54664 138.000
22.56659 133.000
22.58653 110.000
22.60648 130.000
22.62643 126.000
22.64637 114.000
22.66632 145.000
22.68627 144.000
22.70621 118.000
22.72616 140.000
22.74611 117.000
22.76606 132.000
22.78600 131.000
22.80595 136.000
22.82590 138.000
22.84584 141.000
22.86579 135.000
22.88574 139.000
22.90568 118.000
22.92563 131.000
22.94558 124.000
22.96553 120.000
22.98547 116.000
23.00542 126.000
23.02537 145.000
23.04531 132.000
23.06526 130.000
23.08521 123.000
23.10515 121.000
23.12510 150.000
23.14505 106.000
23.16499 133.000
23.18494 140.000
23.20489 124.000
23.22484 117.000
23.24478 143.000
23.26473 136.000
23.28468 128.000
23.30462 143.000
23.32457 146.000
23.34452 134.000
23.36446 123.000
23.38441 128.000
23.40436 119.000
23.42431 138.000
23.44425 129.000
23.46420 127.000
23.48415 112.000
23.50409 135.000
23.52404 137.000
23.54399 125.000
23.56393 134.000
23.58388 137.000
23.60383 133.000
23.62377 140.000
23.64372 125.000
23.66367 134.000
23.68362 133.000
23.70356 138.000
23.72351 125.000
23.74346 148.000
23.76340 128.000
23.78335 120.000
23.80330 127.000
23.82324 144.000
23.84319 126.000
23.86314 121.000
23.88309 137.000
23.90303 131.000
23.92298 148.000
23.94293 141.000
23.96287 143.000
23.98282 125.000
24.00277 137.000
24.02271 135.000
24.04266 112.000
24.06261 140.000
24.08256 129.000
24.10250 137.000
24.12245 139.000
24.14240 128.000
24.16234 131.000
24.18229 143.000
24.20224 153.000
24.22218 135.000
24.24213 148.000
24.26208 128.000
24.28202 116.000
24.30197 147.000
24.32192 129.000
24.34187 145.000
24.36181 126.000
24.38176 126.000
24.40171 121.000
24.42165 143.000
24.44160 131.000
24.46155 119.000
24.48149 120.000
24.50144 125.000
24.52139 154.000
24.54134 130.000
24.56128 158.000
24.58123 136.000
24.60118 140.000
24.62112 106.000
24.64107 142.000
24.66102 141.000
24.68096 139.000
24.70091 138.000
24.72086 147.000
24.74080 137.000
24.76075 112.000
24.78070 127.000
24.80065 138.000
24.82059 124.000
24.84054 126.000
24.86049 135.000
24.88043 124.000
24.90038 128.000
24.92033 137.000
24.94027 108.000
24.96022 136.000
24.98017 146.000
25.00012 144.000
25.02006 122.000
25.04001 129.000
25.05996 130.000
25.07990 126.000
25.09985 154.000
25.11980 121.000
25.13974 143.000
25.15969 143.000
25.17964 136.000
25.19958 140.000
25.21953 128.000
25.23948 156.000
25.25943 135.000
25.27937 148.000
25.29932 156.000
25.31927 120.000
25.33921 147.000
25.35916 155.000
25.37911 164.000
25.39905 146.000
25.41900 133.000
25.43895 140.000
25.45890 145.000
25.47884 137.000
25.49879 128.000
25.51874 153.000
25.53868 141.000
25.55863 144.000
25.57858 128.000
25.59852 132.000
25.61847 114.000
25.63842 125.000
25.65837 126.000
25.67831 140.000
25.69826 129.000
25.71821 151.000
25.73815 135.000
25.75810 125.000
25.77805 130.000
25.79799 138.000
25.81794 144.000
25.83789 150.000
25.85783 150.000
25.87778 154.000
25.89773 155.000
25.91768 163.000
25.93762 136.000
25.95757 128.000
25.97752 149.000
25.99746 143.000
26.01741 141.000
26.03736 136.000
26.05730 147.000
26.07725 130.000
26.09720 149.000
26.11715 135.000
26.13709 123.000
26.15704 143.000
26.17699 124.000
26.19693 133.000
26.21688 161.000
26.23683 140.000
26.25677 143.000
26.27672 138.000
26.29667 138.000
26.31661 128.000
26.33656 137.000
26.35651 129.000
26.37646 125.000
26.39640 133.000
26.41635 130.000
26.43630 121.000
26.45624 130.000
26.47619 138.000
26.49614 143.000
26.51608 144.000
26.53603 149.000
26.55598 140.000
26.57593 164.000
26.59587 142.000
26.61582 144.000
26.63577 129.000
26.65571 148.000
26.67566 144.000
26.69561 148.000
26.71555 145.000
26.73550 116.000
26.75545 130.000
26.77539 163.000
26.79534 134.000
26.81529 119.000
26.83524 140.000
26.85518 145.000
26.87513 130.000
26.89508 129.000
26.91502 134.000
26.93497 140.000
26.95492 142.000
26.97486 148.000
26.99481 144.000
27.01476 169.000
27.03471 124.000
27.05465 114.000
27.07460 149.000
27.09455 135.000
27.11449 117.000
27.13444 138.000
27.15439 138.000
27.17433 164.000
27.19428 135.000
27.21423 159.000
27.23417 133.000
27.25412 112.000
27.27407 137.000
27.29402 141.000
27.31396 144.000
27.33391 131.000
27.35386 134.000
27.37380 150.000
27.39375 135.000
27.41370 135.000
27.43364 142.000
27.45359 145.000
27.47354 136.000
27.49349 147.000
27.51343 143.000
27.53338 120.000
27.55333 135.000
27.57327 148.000
27.59322 135.000
27.61317 135.000
27.63311 138.000
27.65306 150.000
27.67301 137.000
27.69296 164.000
27.71290 141.000
27.73285 142.000
27.75280 120.000
27.77274 153.000
27.79269 146.000
27.81264 126.000
27.83258 138.000
27.85253 150.000
27.87248 144.000
27.89242 148.000
27.91237 130.000
27.93232 137.000
27.95227 130.000
27.97221 121.000
27.99216 148.000
28.01211 163.000
28.03205 140.000
28.05200 142.000
28.07195 139.000
28.09189 128.000
28.11184 152.000
28.13179 163.000
28.15174 155.000
28.17168 122.000
28.19163 141.000
28.21158 158.000
28.23152 157.000
28.25147 136.000
28.27142 125.000
28.29136 137.000
28.31131 151.000
28.33126 150.000
28.35120 148.000
28.37115 136.000
28.39110 140.000
28.41105 130.000
28.43099 164.000
28.45094 151.000
28.47089 146.000
28.49083 156.000
28.51078 156.000
28.53073 143.000
28.55067 125.000
28.57062 148.000
28.59057 145.000
28.61052 154.000
28.63046 161.000
28.65041 149.000
28.67036 137.000
28.69030 140.000
28.71025 136.000
28.73020 168.000
28.75014 126.000
28.77009 127.000
28.79004 129.000
28.80998 126.000
28.82993 133.000
28.84988 146.000
28.86983 134.000
28.88977 153.000
28.90972 139.000
28.92967 141.000
28.94961 124.000
28.96956 126.000
28.98951 134.000
29.00945 158.000
29.02940 119.000
29.04935 125.000
29.06930 138.000
29.08924 148.000
29.10919 143.000
29.12914 154.000
29.14908 122.000
29.16903 140.000
29.18898 151.000
29.20892 126.000
29.22887 141.000
29.24882 156.000
29.26877 139.000
29.28871 159.000
29.30866 152.000
29.32861 154.000
29.34855 137.000
29.36850 138.000
29.38845 141.000
29.40839 125.000
29.42834 163.000
29.44829 135.000
29.46823 120.000
29.48818 157.000
29.50813 156.000
29.52808 134.000
29.54802 141.000
29.56797 162.000
29.58792 146.000
29.60786 155.000
29.62781 168.000
29.64776 146.000
29.66770 147.000
29.68765 126.000
29.70760 133.000
29.72755 140.000
29.74749 152.000
29.76744 144.000
29.78739 156.000
29.80733 160.000
29.82728 170.000
29.84723 146.000
29.86717 161.000
29.88712 147.000
29.90707 148.000
29.92701 149.000
29.94696 145.000
29.96691 164.000
29.98686 149.000
30.00680 165.000
30.02675 186.000
30.04670 151.000
30.06664 193.000
30.08659 197.000
30.10654 232.000
30.12648 251.000
30.14643 275.000
30.16638 383.000
30.18633 464.000
30.20627 723.000
30.22622 1026.000
30.24617 1117.000
30.26611 1046.000
30.28606 906.000
30.30601 847.000
30.32595 776.000
30.34590 635.000
30.36585 465.000
30.38579 306.000
30.40574 248.000
30.42569 226.000
30.44564 213.000
30.46558 184.000
30.48553 164.000
30.50548 182.000
30.52542 180.000
30.54537 172.000
30.56532 169.000
30.58526 167.000
30.60521 132.000
30.62516 159.000
30.64511 151.000
30.66505 140.000
30.68500 174.000
30.70495 147.000
30.72489 144.000
30.74484 159.000
30.76479 185.000
30.78473 141.000
30.80468 159.000
30.82463 179.000
30.84458 148.000
30.86452 162.000
30.88447 136.000
30.90442 163.000
30.92436 141.000
30.94431 157.000
30.96426 130.000
30.98420 154.000
31.00415 152.000
31.02410 127.000
31.04404 139.000
31.06399 165.000
31.08394 157.000
31.10389 156.000
31.12383 158.000
31.14378 139.000
31.16373 141.000
31.18367 159.000
31.20362 149.000
31.22357 158.000
31.24351 136.000
31.26346 143.000
31.28341 147.000
31.30336 160.000
31.32330 146.000
31.34325 143.000
31.36320 150.000
31.38314 163.000
31.40309 151.000
31.42304 149.000
31.44298 161.000
31.46293 152.000
31.48288 156.000
31.50282 146.000
31.52277 149.000
31.54272 149.000
31.56267 145.000
31.58261 152.000
31.60256 156.000
31.62251 161.000
31.64245 165.000
31.66240 173.000
31.68235 150.000
31.70229 162.000
31.72224 149.000
31.74219 188.000
31.76214 194.000
31.78208 173.000
31.80203 160.000
31.82198 223.000
31.84192 204.000
31.86187 218.000
31.88182 260.000
31.90176 312.000
31.92171 383.000
31.94166 444.000
31.96160 542.000
31.98155 587.000
32.00150 574.000
32.02145 615.000
32.04139 584.000
32.06134 490.000
32.08129 472.000
32.10123 383.000
32.12118 330.000
32.14113 332.000
32.16107 232.000
32.18102 222.000
32.20097 209.000
32.22092 157.000
32.24086 194.000
32.26081 165.000
32.28076 151.000
32.30070 181.000
32.32065 143.000
32.34060 170.000
32.36054 164.000
32.38049 162.000
32.40044 173.000
32.42039 154.000
32.44033 147.000
32.46028 160.000
32.48023 172.000
32.50017 160.000
32.52012 187.000
32.54007 166.000
32.56001 162.000
32.57996 158.000
32.59991 176.000
32.61985 129.000
32.63980 156.000
32.65975 151.000
32.67970 146.000
32.69964 155.000
32.71959 142.000
32.73954 140.000
32.75948 132.000
32.77943 134.000
32.79938 162.000
32.81932 131.000
32.83927 135.000
32.85922 138.000
32.87917 146.000
32.89911 133.000
32.91906 137.000
32.93901 134.000
32.95895 136.000
32.97890 134.000
32.99885 157.000
33.01879 149.000
33.03874 154.000
33.05869 142.000
33.07863 150.000
33.09858 128.000
33.11853 156.000
33.13848 149.000
33.15842 146.000
33.17837 153.000
33.19832 152.000
33.21826 149.000
33.23821 152.000
33.25816 125.000
33.27810 164.000
33.29805 150.000
33.31800 147.000
33.33795 152.000
33.35789 137.000
33.37784 146.000
33.39779 163.000
33.41773 134.000
33.43768 150.000
33.45763 164.000
33.47757 151.000
33.49752 134.000
33.51747 143.000
33.53741 142.000
33.55736 161.000
33.57731 158.000
33.59726 145.000
33.61720 154.000
33.63715 136.000
33.65710 142.000
33.67704 138.000
33.69699 151.000
33.71694 122.000
33.73688 119.000
33.75683 157.000
33.77678 159.000
33.79673 155.000
33.81667 124.000
33.83662 127.000
33.85657 135.000
33.87651 136.000
33.89646 126.000
33.91641 166.000
33.93635 178.000
33.95630 142.000
33.97625 139.000
33.99620 136.000
34.01614 142.000
34.03609 143.000
34.05604 170.000
34.07598 147.000
34.09593 154.000
34.11588 141.000
34.13582 157.000
34.15577 157.000
34.17572 153.000
34.19566 176.000
34.21561 189.000
34.23556 136.000
34.25551 155.000
34.27545 178.000
34.29540 149.000
34.31535 154.000
34.33529 151.000
34.35524 161.000
34.37519 169.000
34.39513 201.000
34.41508 183.000
34.43503 213.000
34.45498 196.000
34.47492 202.000
34.49487 204.000
34.51482 199.000
34.53476 220.000
34.55471 219.000
34.57466 238.000
34.59460 221.000
34.61455 244.000
34.63450 226.000
34.65444 231.000
34.67439 228.000
34.69434 214.000
34.71429 230.000
34.73423 210.000
34.75418 215.000
34.77413 216.000
34.79407 221.000
34.81402 221.000
34.83397 193.000
34.85391 185.000
34.87386 164.000
34.89381 192.000
34.91376 189.000
34.93370 193.000
34.95365 193.000
34.97360 173.000
34.99354 170.000
35.01349 184.000
35.03344 152.000
35.05338 181.000
35.07333 180.000
35.09328 194.000
35.11322 190.000
35.13317 188.000
35.15312 206.000
35.17307 192.000
35.19301 233.000
35.21296 228.000
35.23291 217.000
35.25285 248.000
35.27280 244.000
35.29275 277.000
35.31269 297.000
35.33264 274.000
35.35259 306.000
35.37254 323.000
35.39248 343.000
35.41243 438.000
35.43238 417.000
35.45232 509.000
35.47227 588.000
35.49222 641.000
35.51216 827.000
35.53211 903.000
35.55206 1180.000
35.57201 1646.000
35.59195 2325.000
35.61190 3130.000
35.63185 3562.000
35.65179 3254.000
35.67174 2879.000
35.69169 2747.000
35.71163 2651.000
35.73158 2427.000
35.75153 1798.000
35.77147 1500.000
35.79142 1089.000
35.81137 892.000
35.83132 690.000
35.85126 579.000
35.87121 438.000
35.89116 379.000
35.91110 360.000
35.93105 331.000
35.95100 286.000
35.97094 274.000
35.99089 243.000
36.01084 247.000
36.03079 236.000
36.05073 194.000
36.07068 201.000
36.09063 218.000
36.11057 191.000
36.13052 208.000
36.15047 190.000
36.17041 199.000
36.19036 210.000
36.21031 191.000
36.23025 178.000
36.25020 184.000
36.27015 192.000
36.29010 193.000
36.31004 159.000
36.32999 170.000
36.34994 185.000
36.36988 195.000
36.38983 193.000
36.40978 189.000
36.42972 185.000
36.44967 194.000
36.46962 204.000
36.48957 177.000
36.50951 200.000
36.52946 217.000
36.54941 195.000
36.56935 206.000
36.58930 197.000
36.60925 183.000
36.62919 191.000
36.64914 219.000
36.66909 198.000
36.68903 214.000
36.70898 206.000
36.72893 194.000
36.74888 198.000
36.76882 224.000
36.78877 202.000
36.80872 198.000
36.82866 217.000
36.84861 205.000
36.86856 247.000
36.88850 225.000
36.90845 261.000
36.92840 260.000
36.94835 282.000
36.96829 312.000
36.98824 353.000
37.00819 390.000
37.02813 448.000
37.04808 494.000
37.06803 555.000
37.08797 555.000
37.10792 603.000
37.12787 617.000
37.14781 561.000
37.16776 547.000
37.18771 517.000
37.20766 466.000
37.22760 491.000
37.24755 466.000
37.26750 492.000
37.28744 467.000
37.30739 380.000
37.32734 369.000
37.34728 296.000
37.36723 314.000
37.38718 307.000
37.40713 279.000
37.42707 230.000
37.44702 230.000
37.46697 187.000
37.48691 207.000
37.50686 178.000
37.52681 180.000
37.54675 190.000
37.56670 176.000
37.58665 163.000
37.60660 144.000
37.62654 200.000
37.64649 153.000
37.66644 168.000
37.68638 163.000
37.70633 176.000
37.72628 182.000
37.74622 139.000
37.76617 145.000
37.78612 167.000
37.80606 173.000
37.82601 163.000
37.84596 171.000
37.86591 157.000
37.88585 164.000
37.90580 149.000
37.92575 175.000
37.94569 189.000
37.96564 174.000
37.98559 157.000
38.00553 145.000
38.02548 161.000
38.04543 164.000
38.06538 130.000
38.08532 146.000
38.10527 168.000
38.12522 166.000
38.14516 164.000
38.16511 150.000
38.18506 174.000
38.20500 193.000
38.22495 187.000
38.24490 159.000
38.26484 156.000
38.28479 183.000
38.30474 173.000
38.32469 169.000
38.34463 174.000
38.36458 192.000
38.38453 167.000
38.40447 154.000
38.42442 188.000
38.44437 164.000
38.46431 199.000
38.48426 202.000
38.50421 231.000
38.52416 213.000
38.54410 214.000
38.56405 226.000
38.58400 244.000
38.60394 267.000
38.62389 282.000
38.64384 276.000
38.66378 284.000
38.68373 265.000
38.70368 271.000
38.72362 287.000
38.74357 288.000
38.76352 261.000
38.78347 283.000
38.80341 290.000
38.82336 299.000
38.84331 276.000
38.86325 277.000
38.88320 278.000
38.90315 260.000
38.92309 274.000
38.94304 295.000
38.96299 277.000
38.98294 308.000
39.00288 321.000
39.02283 334.000
39.04278 364.000
39.06272 403.000
39.08267 447.000
39.10262 505.000
39.12256 517.000
39.14251 598.000
39.16246 655.000
39.18241 676.000
39.20235 793.000
39.22230 859.000
39.24225 912.000
39.26219 916.000
39.28214 881.000
39.30209 860.000
39.32203 790.000
39.34198 764.000
39.36193 714.000
39.38187 637.000
39.40182 557.000
39.42177 524.000
39.44172 446.000
39.46166 430.000
39.48161 362.000
39.50156 296.000
39.52150 274.000
39.54145 285.000
39.56140 221.000
39.58134 236.000
39.60129 211.000
39.62124 232.000
39.64119 208.000
39.66113 199.000
39.68108 196.000
39.70103 186.000
39.72097 177.000
39.74092 176.000
39.76087 188.000
39.78081 176.000
39.80076 186.000
39.82071 168.000
39.84065 181.000
39.86060 166.000
39.88055 190.000
39.90050 204.000
39.92044 167.000
39.94039 162.000
39.96034 159.000
39.98028 130.000
40.00023 174.000
40.02018 168.000
40.04012 161.000
40.06007 184.000
40.08002 149.000
40.09997 171.000
40.11991 132.000
40.13986 175.000
40.15981 159.000
40.17975 184.000
40.19970 156.000
40.21965 161.000
40.23959 141.000
40.25954 162.000
40.27949 148.000
40.29943 168.000
40.31938 143.000
40.33933 162.000
40.35928 132.000
40.37922 161.000
40.39917 148.000
40.41912 130.000
40.43906 169.000
40.45901 153.000
40.47896 132.000
40.49890 143.000
40.51885 160.000
40.53880 149.000
40.55875 155.000
40.57869 146.000
40.59864 153.000
40.61859 141.000
40.63853 147.000
40.65848 159.000
40.67843 122.000
40.69837 136.000
40.71832 141.000
40.73827 148.000
40.75822 128.000
40.77816 175.000
40.79811 178.000
40.81806 156.000
40.83800 137.000
40.85795 150.000
40.87790 145.000
40.89784 142.000
40.91779 147.000
40.93774 147.000
40.95768 146.000
40.97763 165.000
40.99758 152.000
41.01753 127.000
41.03747 163.000
41.05742 139.000
41.07737 143.000
41.09731 156.000
41.11726 143.000
41.13721 156.000
41.15715 157.000
41.17710 135.000
41.19705 159.000
41.21700 170.000
41.23694 157.000
41.25689 145.000
41.27684 158.000
41.29678 144.000
41.31673 160.000
41.33668 143.000
41.35662 167.000
41.37657 155.000
41.39652 144.000
41.41646 159.000
41.43641 145.000
41.45636 138.000
41.47631 154.000
41.49625 150.000
41.51620 138.000
41.53615 158.000
41.55609 156.000
41.57604 182.000
41.59599 164.000
41.61593 157.000
41.63588 146.000
41.65583 146.000
41.67578 141.000
41.69572 161.000
41.71567 121.000
41.73562 171.000
41.75556 119.000
41.77551 146.000
41.79546 135.000
41.81540 155.000
41.83535 142.000
41.85530 143.000
41.87524 151.000
41.89519 148.000
41.91514 133.000
41.93509 134.000
41.95503 143.000
41.97498 153.000
41.99493 136.000
42.01487 161.000
42.03482 157.000
42.05477 156.000
42.07471 163.000
42.09466 142.000
42.11461 136.000
42.13456 157.000
42.15450 143.000
42.17445 139.000
42.19440 162.000
42.21434 144.000
42.23429 149.000
42.25424 154.000
42.27418 163.000
42.29413 148.000
42.31408 181.000
42.33403 164.000
42.35397 146.000
42.37392 153.000
42.39387 142.000
42.41381 169.000
42.43376 147.000
42.45371 160.000
42.47365 179.000
42.49360 162.000
42.51355 173.000
42.53349 156.000
42.55344 179.000
42.57339 172.000
42.59334 164.000
42.61328 156.000
42.63323 171.000
42.65318 168.000
42.67312 186.000
42.69307 181.000
42.71302 190.000
42.73296 193.000
42.75291 224.000
42.77286 228.000
42.79281 255.000
42.81275 229.000
42.83270 233.000
42.85265 273.000
42.87259 287.000
42.89254 313.000
42.91249 346.000
42.93243 364.000
42.95238 369.000
42.97233 401.000
42.99227 422.000
43.01222 488.000
43.03217 543.000
43.05212 565.000
43.07206 604.000
43.09201 664.000
43.11196 696.000
43.13190 708.000
43.15185 723.000
43.17180 738.000
43.19174 813.000
43.21169 792.000
43.23164 824.000
43.25159 871.000
43.27153 999.000
43.29148 1067.000
43.31143 1156.000
43.33137 1078.000
43.35132 1051.000
43.37127 993.000
43.39121 906.000
43.41116 885.000
43.43111 860.000
43.45105 729.000
43.47100 684.000
43.49095 577.000
43.51090 470.000
43.53084 425.000
43.55079 391.000
43.57074 329.000
43.59068 298.000
43.61063 268.000
43.63058 263.000
43.65052 234.000
43.67047 217.000
43.69042 224.000
43.71037 205.000
43.73031 211.000
43.75026 184.000
43.77021 179.000
43.79015 196.000
43.81010 174.000
43.83005 165.000
43.84999 183.000
43.86994 186.000
43.88989 183.000
43.90984 146.000
43.92978 153.000
43.94973 168.000
43.96968 187.000
43.98962 163.000
44.00957 162.000
44.02952 175.000
44.04946 140.000
44.06941 167.000
44.08936 130.000
44.10930 154.000
44.12925 149.000
44.14920 140.000
44.16915 142.000
44.18909 148.000
44.20904 163.000
44.22899 151.000
44.24893 156.000
44.26888 139.000
44.28883 155.000
44.30877 147.000
44.32872 162.000
44.34867 154.000
44.36862 155.000
44.38856 152.000
44.40851 135.000
44.42846 153.000
44.44840 146.000
44.46835 154.000
44.48830 165.000
44.50824 145.000
44.52819 128.000
44.54814 166.000
44.56808 180.000
44.58803 154.000
44.60798 159.000
44.62793 140.000
44.64787 153.000
44.66782 151.000
44.68777 143.000
44.70771 130.000
44.72766 164.000
44.74761 159.000
44.76755 149.000
44.78750 142.000
44.80745 175.000
44.82740 140.000
44.84734 140.000
44.86729 164.000
44.88724 142.000
44.90718 144.000
44.92713 161.000
44.94708 146.000
44.96702 153.000
44.98697 147.000
45.00692 157.000
45.02686 149.000
45.04681 148.000
45.06676 156.000
45.08671 147.000
45.10665 167.000
45.12660 152.000
45.14655 154.000
45.16649 136.000
45.18644 147.000
45.20639 160.000
45.22633 136.000
45.24628 158.000
45.26623 156.000
45.28618 145.000
45.30612 120.000
45.32607 140.000
45.34602 137.000
45.36596 143.000
45.38591 122.000
45.40586 141.000
45.42580 147.000
45.44575 119.000
45.46570 129.000
45.48565 155.000
45.50559 142.000
45.52554 141.000
45.54549 128.000
45.56543 153.000
45.58538 145.000
45.60533 142.000
45.62527 133.000
45.64522 139.000
45.66517 157.000
45.68511 138.000
45.70506 144.000
45.72501 150.000
45.74496 133.000
45.76490 142.000
45.78485 141.000
45.80480 149.000
45.82474 122.000
45.84469 147.000
45.86464 124.000
45.88458 144.000
45.90453 149.000
45.92448 144.000
45.94443 146.000
45.96437 142.000
45.98432 146.000
46.00427 125.000
46.02421 133.000
46.04416 110.000
46.06411 140.000
46.08405 146.000
46.10400 142.000
46.12395 139.000
46.14389 145.000
46.16384 112.000
46.18379 151.000
46.20374 144.000
46.22368 152.000
46.24363 158.000
46.26358 140.000
46.28352 135.000
46.30347 149.000
46.32342 150.000
46.34336 163.000
46.36331 135.000
46.38326 142.000
46.40321 129.000
46.42315 147.000
46.44310 160.000
46.46305 154.000
46.48299 147.000
46.50294 138.000
46.52289 146.000
46.54283 152.000
46.56278 133.000
46.58273 140.000
46.60267 150.000
46.62262 148.000
46.64257 146.000
46.66252 128.000
46.68246 143.000
46.70241 137.000
46.72236 155.000
46.74230 171.000
46.76225 136.000
46.78220 140.000
46.80214 132.000
46.82209 146.000
46.84204 148.000
46.86199 145.000
46.88193 153.000
46.90188 146.000
46.92183 149.000
46.94177 133.000
46.96172 130.000
46.98167 144.000
47.00161 121.000
47.02156 143.000
47.04151 142.000
47.06146 137.000
47.08140 152.000
47.10135 140.000
47.12130 167.000
47.14124 163.000
47.16119 131.000
47.18114 120.000
47.20108 169.000
47.22103 164.000
47.24098 156.000
47.26092 149.000
47.28087 162.000
47.30082 152.000
47.32077 127.000
47.34071 144.000
47.36066 151.000
47.38061 132.000
47.40055 145.000
47.42050 150.000
47.44045 152.000
47.46039 170.000
47.48034 156.000
47.50029 164.000
47.52024 139.000
47.54018 158.000
47.56013 142.000
47.58008 144.000
47.60002 161.000
47.61997 161.000
47.63992 133.000
47.65986 129.000
47.67981 151.000
47.69976 137.000
47.71970 171.000
47.73965 151.000
47.75960 157.000
47.77955 151.000
47.79949 190.000
47.81944 147.000
47.83939 152.000
47.85933 172.000
47.87928 171.000
47.89923 166.000
47.91917 168.000
47.93912 143.000
47.95907 151.000
47.97902 184.000
47.99896 158.000
48.01891 174.000
48.03886 167.000
48.05880 170.000
48.07875 157.000
48.09870 169.000
48.11864 169.000
48.13859 155.000
48.15854 167.000
48.17848 184.000
48.19843 179.000
48.21838 191.000
48.23833 201.000
48.25827 207.000
48.27822 224.000
48.29817 204.000
48.31811 225.000
48.33806 231.000
48.35801 237.000
48.37795 241.000
48.39790 252.000
48.41785 248.000
48.43780 256.000
48.45774 280.000
48.47769 303.000
48.49764 332.000
48.51758 370.000
48.53753 393.000
48.55748 441.000
48.57742 561.000
48.59737 579.000
48.61732 664.000
48.63726 746.000
48.65721 770.000
48.67716 754.000
48.69711 807.000
48.71705 768.000
48.73700 754.000
48.75695 732.000
48.77689 677.000
48.79684 657.000
48.81679 617.000
48.83673 607.000
48.85668 542.000
48.87663 479.000
48.89658 415.000
48.91652 385.000
48.93647 360.000
48.95642 306.000
48.97636 285.000
48.99631 274.000
49.01626 303.000
49.03620 222.000
49.05615 217.000
49.07610 232.000
49.09605 193.000
49.11599 213.000
49.13594 195.000
49.15589 212.000
49.17583 194.000
49.19578 173.000
49.21573 190.000
49.23567 192.000
49.25562 156.000
49.27557 188.000
49.29551 179.000
49.31546 140.000
49.33541 165.000
49.35536 164.000
49.37530 147.000
49.39525 155.000
49.41520 176.000
49.43514 148.000
49.45509 161.000
49.47504 182.000
49.49498 163.000
49.51493 140.000
49.53488 162.000
49.55483 162.000
49.57477 155.000
49.59472 168.000
49.61467 134.000
49.63461 157.000
49.65456 158.000
49.67451 151.000
49.69445 167.000
49.71440 166.000
49.73435 170.000
49.75429 171.000
49.77424 162.000
49.79419 147.000
49.81414 167.000
49.83408 168.000
49.85403 172.000
49.87398 152.000
49.89392 161.000
49.91387 160.000
49.93382 163.000
49.95376 158.000
49.97371 133.000
49.99366 146.000
50.01361 144.000
50.03355 138.000
50.05350 145.000
50.07345 119.000
50.09339 140.000
50.11334 149.000
50.13329 154.000
50.15323 156.000
50.17318 158.000
50.19313 142.000
50.21307 163.000
50.23302 146.000
50.25297 132.000
50.27292 165.000
50.29286 143.000
50.31281 141.000
50.33276 127.000
50.35270 153.000
50.37265 135.000
50.39260 156.000
50.41254 145.000
50.43249 143.000
50.45244 139.000
50.47239 144.000
50.49233 139.000
50.51228 152.000
50.53223 114.000
50.55217 155.000
50.57212 136.000
50.59207 149.000
50.61201 142.000
50.63196 127.000
50.65191 143.000
50.67186 153.000
50.69180 146.000
50.71175 145.000
50.73170 138.000
50.75164 148.000
50.77159 127.000
50.79154 136.000
50.81148 123.000
50.83143 141.000
50.85138 142.000
50.87132 132.000
50.89127 125.000
50.91122 142.000
50.93117 156.000
50.95111 151.000
50.97106 128.000
50.99101 147.000
51.01095 139.000
51.03090 117.000
51.05085 156.000
51.07079 135.000
51.09074 137.000
51.11069 140.000
51.13064 145.000
51.15058 134.000
51.17053 145.000
51.19048 139.000
51.21042 156.000
51.23037 142.000
51.25032 170.000
51.27026 126.000
51.29021 123.000
51.31016 149.000
51.33010 149.000
51.35005 120.000
51.37000 135.000
51.38995 143.000
51.40989 137.000
51.42984 137.000
51.44979 124.000
51.46973 126.000
51.48968 138.000
51.50963 139.000
51.52957 135.000
51.54952 141.000
51.56947 146.000
51.58942 132.000
51.60936 141.000
51.62931 132.000
51.64926 136.000
51.66920 150.000
51.68915 127.000
51.70910 135.000
51.72904 133.000
51.74899 138.000
51.76894 119.000
51.78888 142.000
51.80883 124.000
51.82878 138.000
51.84873 111.000
51.86867 155.000
51.88862 139.000
51.90857 151.000
51.92851 158.000
51.94846 159.000
51.96841 128.000
51.98835 164.000
52.00830 152.000
52.02825 157.000
52.04820 112.000
52.06814 144.000
52.08809 154.000
52.10804 129.000
52.12798 135.000
52.14793 139.000
52.16788 139.000
52.18782 151.000
52.20777 131.000
52.22772 149.000
52.24767 145.000
52.26761 137.000
52.28756 127.000
52.30751 147.000
52.32745 141.000
52.34740 129.000
52.36735 126.000
52.38729 139.000
52.40724 139.000
52.42719 113.000
52.44713 122.000
52.46708 141.000
52.48703 144.000
52.50698 145.000
52.52692 141.000
52.54687 138.000
52.56682 135.000
52.58676 125.000
52.60671 159.000
52.62666 150.000
52.64660 144.000
52.66655 112.000
52.68650 138.000
52.70645 129.000
52.72639 151.000
52.74634 135.000
52.76629 156.000
52.78623 139.000
52.80618 144.000
52.82613 150.000
52.84607 130.000
52.86602 110.000
52.88597 136.000
52.90591 115.000
52.92586 127.000
52.94581 143.000
52.96576 135.000
52.98570 140.000
53.00565 120.000
53.02560 130.000
53.04554 157.000
53.06549 125.000
53.08544 145.000
53.10538 130.000
53.12533 150.000
53.14528 125.000
53.16523 141.000
53.18517 131.000
53.20512 139.000
53.22507 145.000
53.24501 138.000
53.26496 148.000
53.28491 131.000
53.30485 160.000
53.32480 144.000
53.34475 157.000
53.36469 134.000
53.38464 151.000
53.40459 133.000
53.42454 145.000
53.44448 116.000
53.46443 166.000
53.48438 127.000
53.50432 141.000
53.52427 163.000
53.54422 130.000
53.56416 150.000
53.58411 173.000
53.60406 173.000
53.62401 184.000
53.64395 155.000
53.66390 197.000
53.68385 230.000
53.70379 263.000
53.72374 300.000
53.74369 355.000
53.76363 350.000
53.78358 351.000
53.80353 275.000
53.82348 293.000
53.84342 275.000
53.86337 288.000
53.88332 313.000
53.90326 250.000
53.92321 271.000
53.94316 253.000
53.96310 218.000
53.98305 201.000
54.00300 185.000
54.02294 177.000
54.04289 172.000
54.06284 148.000
54.08279 163.000
54.10273 146.000
54.12268 139.000
54.14263 128.000
54.16257 135.000
54.18252 126.000
54.20247 154.000
54.22241 149.000
54.24236 154.000
54.26231 153.000
54.28226 141.000
54.30220 133.000
54.32215 132.000
54.34210 124.000
54.36204 162.000
54.38199 120.000
54.40194 136.000
54.42188 136.000
54.44183 119.000
54.46178 131.000
54.48172 142.000
54.50167 129.000
54.52162 137.000
54.54157 137.000
54.56151 144.000
54.58146 135.000
54.60141 134.000
54.62135 160.000
54.64130 130.000
54.66125 153.000
54.68119 144.000
54.70114 121.000
54.72109 146.000
54.74104 145.000
54.76098 129.000
54.78093 132.000
54.80088 165.000
54.82082 148.000
54.84077 139.000
54.86072 149.000
54.88066 168.000
54.90061 144.000
54.92056 148.000
54.94050 121.000
54.96045 159.000
54.98040 120.000
55.00035 126.000
55.02029 116.000
55.04024 135.000
55.06019 154.000
55.08013 155.000
55.10008 151.000
55.12003 167.000
55.13997 153.000
55.15992 141.000
55.17987 148.000
55.19982 133.000
55.21976 129.000
55.23971 128.000
55.25966 163.000
55.27960 126.000
55.29955 151.000
55.31950 147.000
55.33944 123.000
55.35939 127.000
55.37934 146.000
55.39929 138.000
55.41923 154.000
55.43918 158.000
55.45913 131.000
55.47907 141.000
55.49902 142.000
55.51897 138.000
55.53891 154.000
55.55886 117.000
55.57881 151.000
55.59875 139.000
55.61870 145.000
55.63865 138.000
55.65860 129.000
55.67854 127.000
55.69849 138.000
55.71844 123.000
55.73838 147.000
55.75833 142.000
55.77828 136.000
55.79822 142.000
55.81817 134.000
55.83812 154.000
55.85807 147.000
55.87801 125.000
55.89796 134.000
55.91791 128.000
55.93785 147.000
55.95780 135.000
55.97775 128.000
55.99769 147.000
56.01764 136.000
56.03759 157.000
56.05753 129.000
56.07748 126.000
56.09743 150.000
56.11738 143.000
56.13732 141.000
56.15727 116.000
56.17722 148.000
56.19716 142.000
56.21711 113.000
56.23706 145.000
56.25700 154.000
56.27695 150.000
56.29690 126.000
56.31685 139.000
56.33679 136.000
56.35674 147.000
56.37669 148.000
56.39663 126.000
56.41658 156.000
56.43653 165.000
56.45647 140.000
56.47642 154.000
56.49637 157.000
56.51631 127.000
56.53626 139.000
56.55621 150.000
56.57616 151.000
56.59610 144.000
56.61605 159.000
56.63600 157.000
56.65594 149.000
56.67589 153.000
56.69584 135.000
56.71578 131.000
56.73573 133.000
56.75568 140.000
56.77563 145.000
56.79557 156.000
56.81552 152.000
56.83547 149.000
56.85541 148.000
56.87536 150.000
56.89531 161.000
56.91525 125.000
56.93520 170.000
56.95515 170.000
56.97510 172.000
56.99504 146.000
57.01499 173.000
57.03494 153.000
57.05488 200.000
57.07483 206.000
57.09478 194.000
57.11472 212.000
57.13467 201.000
57.15462 242.000
57.17456 247.000
57.19451 289.000
57.21446 331.000
57.23441 419.000
57.25435 507.000
57.27430 648.000
57.29425 700.000
57.31419 745.000
57.33414 737.000
57.35409 652.000
57.37403 591.000
57.39398 579.000
57.41393 564.000
57.43388 585.000
57.45382 569.000
57.47377 526.000
57.49372 505.000
57.51366 453.000
57.53361 361.000
57.55356 340.000
57.57350 282.000
57.59345 218.000
57.61340 232.000
57.63334 222.000
57.65329 202.000
57.67324 198.000
57.69319 185.000
57.71313 180.000
57.73308 163.000
57.75303 169.000
57.77297 167.000
57.79292 167.000
57.81287 170.000
57.83281 140.000
57.85276 149.000
57.87271 159.000
57.89266 141.000
57.91260 132.000
57.93255 162.000
57.95250 146.000
57.97244 143.000
57.99239 150.000
58.01234 184.000
58.03228 154.000
58.05223 146.000
58.07218 166.000
58.09212 152.000
58.11207 137.000
58.13202 146.000
58.15197 160.000
58.17191 151.000
58.19186 142.000
58.21181 141.000
58.23175 166.000
58.25170 171.000
58.27165 150.000
58.29159 158.000
58.31154 138.000
58.33149 150.000
58.35144 159.000
58.37138 159.000
58.39133 155.000
58.41128 154.000
58.43122 153.000
58.45117 158.000
58.47112 135.000
58.49106 144.000
58.51101 135.000
58.53096 150.000
58.55090 148.000
58.57085 130.000
58.59080 160.000
58.61075 125.000
58.63069 142.000
58.65064 145.000
58.67059 133.000
58.69053 131.000
58.71048 149.000
58.73043 109.000
58.75037 154.000
58.77032 119.000
58.79027 141.000
58.81022 121.000
58.83016 133.000
58.85011 137.000
58.87006 149.000
58.89000 131.000
58.90995 134.000
58.92990 153.000
58.94984 154.000
58.96979 140.000
58.98974 148.000
59.00969 155.000
59.02963 154.000
59.04958 153.000
59.06953 159.000
59.08947 154.000
59.10942 135.000
59.12937 149.000
59.14931 146.000
59.16926 146.000
59.18921 129.000
59.20915 139.000
59.22910 137.000
59.24905 133.000
59.26900 141.000
59.28894 117.000
59.30889 135.000
59.32884 136.000
59.34878 159.000
59.36873 148.000
59.38868 145.000
59.40862 158.000
59.42857 138.000
59.44852 132.000
59.46847 152.000
59.48841 143.000
59.50836 159.000
59.52831 133.000
59.54825 134.000
59.56820 136.000
59.58815 156.000
59.60809 144.000
59.62804 151.000
59.64799 141.000
59.66793 152.000
59.68788 137.000
59.70783 132.000
59.72778 130.000
59.74772 122.000
59.76767 128.000
59.78762 128.000
59.80756 153.000
59.82751 151.000
59.84746 120.000
59.86740 134.000
59.88735 148.000
59.90730 149.000
59.92725 156.000
59.94719 123.000
59.96714 163.000
59.98709 147.000
60.00703 130.000
60.02698 141.000
60.04693 141.000
60.06687 135.000
60.08682 145.000
60.10677 139.000
60.12671 151.000
60.14666 121.000
60.16661 133.000
60.18656 144.000
60.20650 135.000
60.22645 148.000
60.24640 134.000
60.26634 143.000
60.28629 130.000
60.30624 163.000
60.32618 140.000
60.34613 141.000
60.36608 149.000
60.38603 139.000
60.40597 145.000
60.42592 129.000
60.44587 149.000
60.46581 152.000
60.48576 144.000
60.50571 169.000
60.52565 148.000
60.54560 137.000
60.56555 145.000
60.58550 155.000
60.60544 117.000
60.62539 154.000
60.64534 122.000
60.66528 128.000
60.68523 146.000
60.70518 165.000
60.72512 146.000
60.74507 133.000
60.76502 152.000
60.78496 168.000
60.80491 141.000
60.82486 138.000
60.84481 130.000
60.86475 165.000
60.88470 138.000
60.90465 149.000
60.92459 138.000
60.94454 134.000
60.96449 159.000
60.98443 152.000
61.00438 149.000
61.02433 138.000
61.04428 146.000
61.06422 170.000
61.08417 122.000
61.10412 139.000
61.12406 145.000
61.14401 164.000
61.16396 145.000
61.18390 150.000
61.20385 180.000
61.22380 156.000
61.24374 157.000
61.26369 146.000
61.28364 163.000
61.30359 126.000
61.32353 168.000
61.34348 170.000
61.36343 162.000
61.38337 153.000
61.40332 170.000
61.42327 187.000
61.44321 173.000
61.46316 173.000
61.48311 172.000
61.50306 199.000
61.52300 204.000
61.54295 208.000
61.56290 198.000
61.58284 197.000
61.60279 204.000
61.62274 195.000
61.64268 190.000
61.66263 203.000
61.68258 232.000
61.70252 221.000
61.72247 234.000
61.74242 227.000
61.76237 250.000
61.78231 245.000
61.80226 305.000
61.82221 301.000
61.84215 313.000
61.86210 299.000
61.88205 328.000
61.90199 394.000
61.92194 400.000
61.94189 449.000
61.96184 426.000
61.98178 449.000
62.00173 464.000
62.02168 394.000
62.04162 423.000
62.06157 358.000
62.08152 359.000
62.10146 377.000
62.12141 334.000
62.14136 360.000
62.16131 328.000
62.18125 304.000
62.20120 316.000
62.22115 292.000
62.24109 299.000
62.26104 271.000
62.28099 264.000
62.30093 278.000
62.32088 259.000
62.34083 271.000
62.36077 273.000
62.38072 266.000
62.40067 256.000
62.42062 286.000
62.44056 301.000
62.46051 253.000
62.48046 288.000
62.50040 301.000
62.52035 321.000
62.54030 317.000
62.56024 345.000
62.58019 335.000
62.60014 389.000
62.62009 392.000
62.64003 414.000
62.65998 380.000
62.67993 389.000
62.69987 415.000
62.71982 403.000
62.73977 374.000
62.75971 365.000
62.77966 371.000
62.79961 448.000
62.81955 414.000
62.83950 508.000
62.85945 553.000
62.87940 669.000
62.89934 816.000
62.91929 964.000
62.93924 1087.000
62.95918 1108.000
62.97913 955.000
62.99908 821.000
63.01902 722.000
63.03897 678.000
63.05892 726.000
63.07887 657.000
63.09881 740.000
63.11876 701.000
63.13871 692.000
63.15865 529.000
63.17860 512.000
63.19855 422.000
63.21849 372.000
63.23844 333.000
63.25839 303.000
63.27833 256.000
63.29828 261.000
63.31823 218.000
63.33818 244.000
63.35812 222.000
63.37807 194.000
63.39802 172.000
63.41796 202.000
63.43791 191.000
63.45786 175.000
63.47780 165.000
63.49775 166.000
63.51770 170.000
63.53765 196.000
63.55759 159.000
63.57754 158.000
63.59749 165.000
63.61743 189.000
63.63738 173.000
63.65733 190.000
63.67727 192.000
63.69722 172.000
63.71717 191.000
63.73712 172.000
63.75706 200.000
63.77701 208.000
63.79696 223.000
63.81690 246.000
63.83685 209.000
63.85680 260.000
63.87674 253.000
63.89669 199.000
63.91664 222.000
63.93658 207.000
63.95653 258.000
63.97648 258.000
63.99643 261.000
64.01637 254.000
64.03632 305.000
64.05627 278.000
64.07621 255.000
64.09616 315.000
64.11611 285.000
64.13605 297.000
64.15600 312.000
64.17595 316.000
64.19590 303.000
64.21584 310.000
64.23579 262.000
64.25574 277.000
64.27568 313.000
64.29563 273.000
64.31558 278.000
64.33552 252.000
64.35547 239.000
64.37542 259.000
64.39536 221.000
64.41531 193.000
64.43526 212.000
64.45521 180.000
64.47515 220.000
64.49510 201.000
64.51505 185.000
64.53499 187.000
64.55494 171.000
64.57489 174.000
64.59483 178.000
64.61478 173.000
64.63473 185.000
64.65468 169.000
64.67462 169.000
64.69457 162.000
64.71452 163.000
64.73446 149.000
64.75441 146.000
64.77436 136.000
64.79430 162.000
64.81425 152.000
64.83420 150.000
64.85414 146.000
64.87409 143.000
64.89404 177.000
64.91399 157.000
64.93393 145.000
64.95388 146.000
64.97383 131.000
64.99377 159.000
65.01372 164.000
65.03367 165.000
65.05361 159.000
65.07356 157.000
65.09351 152.000
65.11346 145.000
65.13340 144.000
65.15335 157.000
65.17330 164.000
65.19324 150.000
65.21319 153.000
65.23314 140.000
65.25308 159.000
65.27303 147.000
65.29298 146.000
65.31293 123.000
65.33287 162.000
65.35282 170.000
65.37277 154.000
65.39271 155.000
65.41266 137.000
65.43261 154.000
65.45255 146.000
65.47250 154.000
65.49245 156.000
65.51239 149.000
65.53234 141.000
65.55229 144.000
65.57224 167.000
65.59218 159.000
65.61213 153.000
65.63208 171.000
65.65202 150.000
65.67197 156.000
65.69192 158.000
65.71186 150.000
65.73181 150.000
65.75176 146.000
65.77171 180.000
65.79165 160.000
65.81160 160.000
65.83155 178.000
65.85149 160.000
65.87144 170.000
65.89139 190.000
65.91133 177.000
65.93128 165.000
65.95123 163.000
65.97117 156.000
65.99112 151.000
66.01107 170.000
66.03102 180.000
66.05096 180.000
66.07091 156.000
66.09086 176.000
66.11080 174.000
66.13075 192.000
66.15070 179.000
66.17064 192.000
66.19059 207.000
66.21054 229.000
66.23049 207.000
66.25043 235.000
66.27038 245.000
66.29033 204.000
66.31027 231.000
66.33022 237.000
66.35017 219.000
66.37011 242.000
66.39006 275.000
66.41001 236.000
66.42995 251.000
66.44990 267.000
66.46985 238.000
66.48980 261.000
66.50974 274.000
66.52969 238.000
66.54964 261.000
66.56958 267.000
66.58953 221.000
66.60948 255.000
66.62942 268.000
66.64937 242.000
66.66932 226.000
66.68927 219.000
66.70921 239.000
66.72916 238.000
66.74911 225.000
66.76905 203.000
66.78900 213.000
66.80895 239.000
66.82889 222.000
66.84884 196.000
66.86879 215.000
66.88874 239.000
66.90868 207.000
66.92863 229.000
66.94858 197.000
66.96852 206.000
66.98847 216.000
67.00842 208.000
67.02836 193.000
67.04831 161.000
67.06826 190.000
67.08820 199.000
67.10815 169.000
67.12810 185.000
67.14805 170.000
67.16799 176.000
67.18794 173.000
67.20789 155.000
67.22783 150.000
67.24778 181.000
67.26773 174.000
67.28767 163.000
67.30762 173.000
67.32757 156.000
67.34752 140.000
67.36746 157.000
67.38741 166.000
67.40736 133.000
67.42730 141.000
67.44725 153.000
67.46720 164.000
67.48714 162.000
67.50709 137.000
67.52704 145.000
67.54698 154.000
67.56693 133.000
67.58688 134.000
67.60683 144.000
67.62677 175.000
67.64672 160.000
67.66667 134.000
67.68661 148.000
67.70656 155.000
67.72651 144.000
67.74645 143.000
67.76640 167.000
67.78635 146.000
67.80630 135.000
67.82624 140.000
67.84619 153.000
67.86614 147.000
67.88608 139.000
67.90603 136.000
67.92598 144.000
67.94592 152.000
67.96587 153.000
67.98582 151.000
68.00576 145.000
68.02571 159.000
68.04566 136.000
68.06561 130.000
68.08555 165.000
68.10550 125.000
68.12545 170.000
68.14539 133.000
68.16534 140.000
68.18529 133.000
68.20523 162.000
68.22518 134.000
68.24513 138.000
68.26508 120.000
68.28502 143.000
68.30497 141.000
68.32492 143.000
68.34486 151.000
68.36481 136.000
68.38476 140.000
68.40470 143.000
68.42465 129.000
68.44460 158.000
68.46455 156.000
68.48449 143.000
68.50444 158.000
68.52439 144.000
68.54433 133.000
68.56428 142.000
68.58423 143.000
68.60417 135.000
68.62412 173.000
68.64407 113.000
68.66401 134.000
68.68396 130.000
68.70391 129.000
68.72386 127.000
68.74380 122.000
68.76375 142.000
68.78370 144.000
68.80364 118.000
68.82359 133.000
68.84354 155.000
68.86348 154.000
68.88343 132.000
68.90338 132.000
68.92333 136.000
68.94327 147.000
68.96322 148.000
68.98317 141.000
69.00311 133.000
69.02306 152.000
69.04301 119.000
69.06295 163.000
69.08290 152.000
69.10285 132.000
69.12279 134.000
69.14274 120.000
69.16269 135.000
69.18264 120.000
69.20258 136.000
69.22253 125.000
69.24248 141.000
69.26242 148.000
69.28237 134.000
69.30232 118.000
69.32226 135.000
69.34221 122.000
69.36216 134.000
69.38211 129.000
69.40205 139.000
69.42200 111.000
69.44195 151.000
69.46189 129.000
69.48184 135.000
69.50179 136.000
69.52173 123.000
69.54168 127.000
69.56163 140.000
69.58157 134.000
69.60152 136.000
69.62147 161.000
69.64142 124.000
69.66136 107.000
69.68131 117.000
69.70126 135.000
69.72120 127.000
69.74115 133.000
69.76110 133.000
69.78104 142.000
69.80099 117.000
69.82094 118.000
69.84089 145.000
69.86083 122.000
69.88078 136.000
69.90073 132.000
69.92067 124.000
69.94062 166.000
69.96057 129.000
69.98051 139.000
70.00046 147.000
70.02041 121.000
70.04035 134.000
70.06030 154.000
70.08025 149.000
70.10020 107.000
70.12014 131.000
70.14009 145.000
70.16004 124.000
70.17998 152.000
70.19993 140.000
70.21988 119.000
70.23982 127.000
70.25977 115.000
70.27972 133.000
70.29967 126.000
70.31961 131.000
70.33956 157.000
70.35951 145.000
70.37945 122.000
70.39940 124.000
70.41935 133.000
70.43929 144.000
70.45924 115.000
70.47919 132.000
70.49914 133.000
70.51908 120.000
70.53903 147.000
70.55898 128.000
70.57892 144.000
70.59887 131.000
70.61882 130.000
70.63876 164.000
70.65871 136.000
70.67866 140.000
70.69860 145.000
70.71855 122.000
70.73850 141.000
70.75845 130.000
70.77839 129.000
70.79834 127.000
70.81829 137.000
70.83823 139.000
70.85818 145.000
70.87813 147.000
70.89807 157.000
70.91802 146.000
70.93797 144.000
70.95792 114.000
70.97786 123.000
70.99781 133.000
71.01776 135.000
71.03770 140.000
71.05765 140.000
71.07760 146.000
71.09754 122.000
71.11749 132.000
71.13744 140.000
71.15738 151.000
71.17733 160.000
71.19728 172.000
71.21723 149.000
71.23717 130.000
71.25712 145.000
71.27707 129.000
71.29701 166.000
71.31696 193.000
71.33691 165.000
71.35685 170.000
71.37680 164.000
71.39675 194.000
71.41670 206.000
71.43664 155.000
71.45659 170.000
71.47654 189.000
71.49648 172.000
71.51643 169.000
71.53638 156.000
71.55632 162.000
71.57627 176.000
71.59622 163.000
71.61616 191.000
71.63611 153.000
71.65606 143.000
71.67601 152.000
71.69595 149.000
71.71590 167.000
71.73585 143.000
71.75579 149.000
71.77574 135.000
71.79569 154.000
71.81563 156.000
71.83558 143.000
71.85553 122.000
71.87548 140.000
71.89542 137.000
71.91537 152.000
71.93532 138.000
71.95526 153.000
71.97521 160.000
71.99516 123.000
72.01510 141.000
72.03505 146.000
72.05500 121.000
72.07495 135.000
72.09489 140.000
72.11484 139.000
72.13479 137.000
72.15473 132.000
72.17468 138.000
72.19463 138.000
72.21457 153.000
72.23452 133.000
72.25447 156.000
72.27441 138.000
72.29436 139.000
72.31431 133.000
72.33426 156.000
72.35420 147.000
72.37415 142.000
72.39410 139.000
72.41404 144.000
72.43399 143.000
72.45394 157.000
72.47388 120.000
72.49383 138.000
72.51378 155.000
72.53373 131.000
72.55367 133.000
72.57362 165.000
72.59357 129.000
72.61351 139.000
72.63346 129.000
72.65341 130.000
72.67335 149.000
72.69330 155.000
72.71325 118.000
72.73319 123.000
72.75314 121.000
72.77309 137.000
72.79304 127.000
72.81298 151.000
72.83293 131.000
72.85288 142.000
72.87282 148.000
72.89277 137.000
72.91272 142.000
72.93266 158.000
72.95261 149.000
72.97256 142.000
72.99251 143.000
73.01245 152.000
73.03240 153.000
73.05235 146.000
73.07229 160.000
73.09224 151.000
73.11219 152.000
73.13213 159.000
73.15208 150.000
73.17203 154.000
73.19197 144.000
73.21192 159.000
73.23187 141.000
73.25182 168.000
73.27176 166.000
73.29171 177.000
73.31166 179.000
73.33160 170.000
73.35155 185.000
73.37150 186.000
73.39144 184.000
73.41139 203.000
73.43134 180.000
73.45129 178.000
73.47123 184.000
73.49118 188.000
73.51113 193.000
73.53107 185.000
73.55102 178.000
73.57097 189.000
73.59091 182.000
73.61086 180.000
73.63081 198.000
73.65076 157.000
73.67070 177.000
73.69065 164.000
73.71060 170.000
73.73054 148.000
73.75049 163.000
73.77044 158.000
73.79038 129.000
73.81033 158.000
73.83028 151.000
73.85022 153.000
73.87017 194.000
73.89012 138.000
73.91007 152.000
73.93001 164.000
73.94996 169.000
73.96991 171.000
73.98985 168.000
74.00980 157.000
74.02975 152.000
74.04969 156.000
74.06964 152.000
74.08959 150.000
74.10954 141.000
74.12948 137.000
74.14943 146.000
74.16938 161.000
74.18932 150.000
74.20927 153.000
74.22922 164.000
74.24916 127.000
74.26911 146.000
74.28906 157.000
74.30900 163.000
74.32895 173.000
74.34890 164.000
74.36885 166.000
74.38879 184.000
74.40874 208.000
74.42869 196.000
74.44863 237.000
74.46858 259.000
74.48853 279.000
74.50847 319.000
74.52842 297.000
74.54837 244.000
74.56832 271.000
74.58826 240.000
74.60821 239.000
74.62816 256.000
74.64810 242.000
74.66805 219.000
74.68800 219.000
74.70794 234.000
74.72789 245.000
74.74784 235.000
74.76778 218.000
74.78773 210.000
74.80768 214.000
74.82763 205.000
74.84757 194.000
74.86752 185.000
74.88747 195.000
74.90741 173.000
74.92736 201.000
74.94731 190.000
74.96725 205.000
74.98720 185.000
75.00715 203.000
75.02710 212.000
75.04704 223.000
75.06699 220.000
75.08694 171.000
75.10688 212.000
75.12683 198.000
75.14678 204.000
75.16672 197.000
75.18667 215.000
75.20662 202.000
75.22657 195.000
75.24651 192.000
75.26646 213.000
75.28641 219.000
75.30635 204.000
75.32630 192.000
75.34625 184.000
75.36619 193.000
75.38614 225.000
75.40609 201.000
75.42603 194.000
75.44598 193.000
75.46593 190.000
75.48588 239.000
75.50582 240.000
75.52577 245.000
75.54572 214.000
75.56566 221.000
75.58561 209.000
75.60556 198.000
75.62550 162.000
75.64545 189.000
75.66540 198.000
75.68535 180.000
75.70529 209.000
75.72524 204.000
75.74519 204.000
75.76513 192.000
75.78508 191.000
75.80503 169.000
75.82497 170.000
75.84492 185.000
75.86487 169.000
75.88481 165.000
75.90476 158.000
75.92471 167.000
75.94466 146.000
75.96460 145.000
75.98455 134.000
76.00450 163.000
76.02444 146.000
76.04439 144.000
76.06434 147.000
76.08428 147.000
76.10423 161.000
76.12418 144.000
76.14413 152.000
76.16407 125.000
76.18402 146.000
76.20397 134.000
76.22391 124.000
76.24386 132.000
76.26381 147.000
76.28375 129.000
76.30370 131.000
76.32365 140.000
76.34359 143.000
76.36354 120.000
76.38349 122.000
76.40344 123.000
76.42338 141.000
76.44333 129.000
76.46328 155.000
76.48322 147.000
76.50317 136.000
76.52312 151.000
76.54306 129.000
76.56301 146.000
76.58296 127.000
76.60291 143.000
76.62285 142.000
76.64280 137.000
76.66275 119.000
76.68269 134.000
76.70264 116.000
76.72259 146.000
76.74253 132.000
76.76248 143.000
76.78243 121.000
76.80238 143.000
76.82232 134.000
76.84227 123.000
76.86222 143.000
76.88216 142.000
76.90211 162.000
76.92206 145.000
76.94200 154.000
76.96195 124.000
76.98190 133.000
77.00184 133.000
77.02179 136.000
77.04174 120.000
77.06169 144.000
77.08163 123.000
77.10158 135.000
77.12153 148.000
77.14147 135.000
77.16142 148.000
77.18137 162.000
77.20131 146.000
77.22126 123.000
77.24121 129.000
77.26116 130.000
77.28110 135.000
77.30105 149.000
77.32100 122.000
77.34094 144.000
77.36089 127.000
77.38084 147.000
77.40078 152.000
77.42073 126.000
77.44068 145.000
77.46062 151.000
77.48057 135.000
77.50052 147.000
77.52047 143.000
77.54041 161.000
77.56036 163.000
77.58031 162.000
77.60025 165.000
77.62020 152.000
77.64015 165.000
77.66009 155.000
77.68004 174.000
77.69999 173.000
77.71994 178.000
77.73988 187.000
77.75983 195.000
77.77978 174.000
77.79972 179.000
77.81967 186.000
77.83962 206.000
77.85956 210.000
77.87951 182.000
77.89946 182.000
77.91940 217.000
77.93935 197.000
77.95930 203.000
77.97925 221.000
77.99919 194.000
78.01914 187.000
78.03909 206.000
78.05903 215.000
78.07898 190.000
78.09893 169.000
78.11887 194.000
78.13882 196.000
78.15877 226.000
78.17872 202.000
78.19866 188.000
78.21861 204.000
78.23856 229.000
78.25850 188.000
78.27845 241.000
78.29840 224.000
78.31834 215.000
78.33829 194.000
78.35824 236.000
78.37819 216.000
78.39813 197.000
78.41808 172.000
78.43803 185.000
78.45797 182.000
78.47792 182.000
78.49787 205.000
78.51781 191.000
78.53776 180.000
78.55771 177.000
78.57765 180.000
78.59760 152.000
78.61755 177.000
78.63750 164.000
78.65744 157.000
78.67739 168.000
78.69734 160.000
78.71728 185.000
78.73723 158.000
78.75718 155.000
78.77712 164.000
78.79707 177.000
78.81702 165.000
78.83697 158.000
78.85691 181.000
78.87686 163.000
78.89681 170.000
78.91675 168.000
78.93670 170.000
78.95665 186.000
78.97659 193.000
78.99654 190.000
79.01649 149.000
79.03643 176.000
79.05638 198.000
79.07633 201.000
79.09628 185.000
79.11622 182.000
79.13617 191.000
79.15612 191.000
79.17606 190.000
79.19601 186.000
79.21596 189.000
79.23590 187.000
79.25585 166.000
79.27580 178.000
79.29575 158.000
79.31569 175.000
79.33564 167.000
79.35559 168.000
79.37553 157.000
79.39548 175.000
79.41543 164.000
79.43537 198.000
79.45532 181.000
79.47527 188.000
79.49521 214.000
79.51516 200.000
79.53511 195.000
79.55506 196.000
79.57500 175.000
79.59495 171.000
79.61490 152.000
79.63484 148.000
79.65479 149.000
79.67474 164.000
79.69468 174.000
79.71463 146.000
79.73458 164.000
79.75453 175.000
79.77447 191.000
79.79442 147.000
79.81437 160.000
79.83431 130.000
79.85426 161.000
79.87421 132.000
79.89415 150.000
79.91410 153.000
79.93405 151.000
79.95399 145.000
79.97394 141.000
79.99389 126.000
80.01384 122.000
80.03378 145.000
80.05373 150.000
80.07368 131.000
80.09362 139.000
80.11357 165.000
80.13352 138.000
80.15346 131.000
80.17341 121.000
80.19336 135.000
80.21331 138.000
80.23325 137.000
80.25320 117.000
80.27315 151.000
80.29309 130.000
80.31304 168.000
80.33299 151.000
80.35293 134.000
80.37288 128.000
80.39283 138.000
80.41278 127.000
80.43272 145.000
80.45267 155.000
80.47262 142.000
80.49256 138.000
80.51251 145.000
80.53246 137.000
80.55240 158.000
80.57235 141.000
80.59230 144.000
80.61224 140.000
80.63219 140.000
80.65214 141.000
80.67209 149.000
80.69203 149.000
80.71198 122.000
80.73193 139.000
80.75187 125.000
80.77182 140.000
80.79177 131.000
80.81171 140.000
80.83166 141.000
80.85161 112.000
80.87156 134.000
80.89150 138.000
80.91145 132.000
80.93140 152.000
80.95134 127.000
80.97129 133.000
80.99124 141.000
81.01118 132.000
81.03113 126.000
81.05108 135.000
81.07102 131.000
81.09097 155.000
81.11092 150.000
81.13087 110.000
81.15081 155.000
81.17076 143.000
81.19071 134.000
81.21065 120.000
81.23060 143.000
81.25055 133.000
81.27049 129.000
81.29044 141.000
81.31039 132.000
81.33034 118.000
81.35028 142.000
81.37023 135.000
81.39018 121.000
81.41012 152.000
81.43007 121.000
81.45002 125.000
81.46996 143.000
81.48991 133.000
81.50986 129.000
81.52980 101.000
81.54975 134.000
81.56970 124.000
81.58965 124.000
81.60959 119.000
81.62954 119.000
81.64949 148.000
81.66943 144.000
81.68938 141.000
81.70933 119.000
81.72927 138.000
81.74922 125.000
81.76917 114.000
81.78912 130.000
81.80906 145.000
81.82901 129.000
81.84896 129.000
81.86890 152.000
81.88885 137.000
81.90880 141.000
81.92874 149.000
81.94869 145.000
81.96864 128.000
81.98859 144.000
82.00853 147.000
82.02848 152.000
82.04843 138.000
82.06837 131.000
82.08832 139.000
82.10827 134.000
82.12821 141.000
82.14816 117.000
82.16811 118.000
82.18805 146.000
82.20800 154.000
82.22795 124.000
82.24790 130.000
82.26784 146.000
82.28779 129.000
82.30774 158.000
82.32768 146.000
82.34763 129.000
82.36758 142.000
82.38752 111.000
82.40747 139.000
82.42742 160.000
82.44737 147.000
82.46731 144.000
82.48726 138.000
82.50721 142.000
82.52715 145.000
82.54710 143.000
82.56705 136.000
82.58699 148.000
82.60694 150.000
82.62689 158.000
82.64683 134.000
82.66678 122.000
82.68673 135.000
82.70668 145.000
82.72662 125.000
82.74657 139.000
82.76652 138.000
82.78646 172.000
82.80641 140.000
82.82636 152.000
82.84630 132.000
82.86625 143.000
82.88620 122.000
82.90615 131.000
82.92609 122.000
82.94604 133.000
82.96599 122.000
82.98593 125.000
83.00588 135.000
83.02583 127.000
83.04577 136.000
83.06572 137.000
83.08567 153.000
83.10561 114.000
83.12556 131.000
83.14551 144.000
83.16546 137.000
83.18540 127.000
83.20535 116.000
83.22530 115.000
83.24524 149.000
83.26519 136.000
83.28514 149.000
83.30508 126.000
83.32503 144.000
83.34498 143.000
83.36493 138.000
83.38487 129.000
83.40482 170.000
83.42477 141.000
83.44471 141.000
83.46466 144.000
83.48461 132.000
83.50455 154.000
83.52450 155.000
83.54445 156.000
83.56440 120.000
83.58434 127.000
83.60429 152.000
83.62424 137.000
83.64418 143.000
83.66413 123.000
83.68408 120.000
83.70402 118.000
83.72397 131.000
83.74392 129.000
83.76386 117.000
83.78381 141.000
83.80376 142.000
83.82371 144.000
83.84365 140.000
83.86360 152.000
83.88355 146.000
83.90349 123.000
83.92344 157.000
83.94339 134.000
83.96333 136.000
83.98328 147.000
84.00323 135.000
84.02318 141.000
84.04312 144.000
84.06307 142.000
84.08302 148.000
84.10296 163.000
84.12291 149.000
84.14286 155.000
84.16280 144.000
84.18275 138.000
84.20270 177.000
84.22264 167.000
84.24259 158.000
84.26254 149.000
84.28249 164.000
84.30243 189.000
84.32238 167.000
84.34233 178.000
84.36227 177.000
84.38222 173.000
84.40217 156.000
84.42211 163.000
84.44206 178.000
84.46201 162.000
84.48196 178.000
84.50190 190.000
84.52185 175.000
84.54180 177.000
84.56174 182.000
84.58169 183.000
84.60164 184.000
84.62158 185.000
84.64153 194.000
84.66148 188.000
84.68142 202.000
84.70137 186.000
84.72132 156.000
84.74127 180.000
84.76121 181.000
84.78116 168.000
84.80111 139.000
84.82105 164.000
84.84100 190.000
84.86095 175.000
84.88089 155.000
84.90084 120.000
84.92079 160.000
84.94074 158.000
84.96068 125.000
84.98063 160.000
85.00058 143.000
85.02052 132.000
85.04047 148.000
85.06042 138.000
85.08036 142.000
85.10031 139.000
85.12026 142.000
85.14021 151.000
85.16015 164.000
85.18010 126.000
85.20005 138.000
85.21999 142.000
85.23994 147.000
85.25989 120.000
85.27983 149.000
85.29978 144.000
85.31973 139.000
85.33967 138.000
85.35962 147.000
85.37957 130.000
85.39952 114.000
85.41946 134.000
85.43941 128.000
85.45936 130.000
85.47930 131.000
85.49925 133.000
85.51920 124.000
85.53914 109.000
85.55909 119.000
85.57904 146.000
85.59899 140.000
85.61893 115.000
85.63888 135.000
85.65883 124.000
85.67877 141.000
85.69872 131.000
85.71867 139.000
85.73861 124.000
85.75856 130.000
85.77851 126.000
85.79845 129.000
85.81840 129.000
85.83835 131.000
85.85830 129.000
85.87824 127.000
85.89819 125.000
85.91814 135.000
85.93808 152.000
85.95803 138.000
85.97798 142.000
85.99792 131.000
86.01787 136.000
86.03782 119.000
86.05777 138.000
86.07771 143.000
86.09766 125.000
86.11761 126.000
86.13755 127.000
86.15750 126.000
86.17745 126.000
86.19739 115.000
86.21734 127.000
86.23729 105.000
86.25723 121.000
86.27718 158.000
86.29713 120.000
86.31708 118.000
86.33702 116.000
86.35697 145.000
86.37692 140.000
86.39686 131.000
86.41681 114.000
86.43676 117.000
86.45670 141.000
86.47665 146.000
86.49660 134.000
86.51655 125.000
86.53649 123.000
86.55644 140.000
86.57639 132.000
86.59633 151.000
86.61628 128.000
86.63623 128.000
86.65617 145.000
86.67612 139.000
86.69607 125.000
86.71602 137.000
86.73596 133.000
86.75591 125.000
86.77586 107.000
86.79580 138.000
86.81575 156.000
86.83570 121.000
86.85564 122.000
86.87559 123.000
86.89554 156.000
86.91548 121.000
86.93543 120.000
86.95538 130.000
86.97533 137.000
86.99527 136.000
87.01522 150.000
87.03517 132.000
87.05511 159.000
87.07506 120.000
87.09501 154.000
87.11495 140.000
87.13490 171.000
87.15485 164.000
87.17480 130.000
87.19474 144.000
87.21469 145.000
87.23464 164.000
87.25458 143.000
87.27453 157.000
87.29448 199.000
87.31442 178.000
87.33437 202.000
87.35432 187.000
87.37426 194.000
87.39421 194.000
87.41416 197.000
87.43411 157.000
87.45405 171.000
87.47400 177.000
87.49395 178.000
87.51389 181.000
87.53384 158.000
87.55379 191.000
87.57373 195.000
87.59368 147.000
87.61363 192.000
87.63358 146.000
87.65352 178.000
87.67347 193.000
87.69342 171.000
87.71336 151.000
87.73331 172.000
87.75326 164.000
87.77320 146.000
87.79315 179.000
87.81310 153.000
87.83304 156.000
87.85299 146.000
87.87294 136.000
87.89289 151.000
87.91283 159.000
87.93278 139.000
87.95273 132.000
87.97267 121.000
87.99262 137.000
88.01257 156.000
88.03251 134.000
88.05246 131.000
88.07241 148.000
88.09236 134.000
88.11230 140.000
88.13225 133.000
88.15220 142.000
88.17214 143.000
88.19209 119.000
88.21204 123.000
88.23198 135.000
88.25193 145.000
88.27188 124.000
88.29183 149.000
88.31177 116.000
88.33172 146.000
88.35167 127.000
88.37161 152.000
88.39156 125.000
88.41151 136.000
88.43145 160.000
88.45140 141.000
88.47135 133.000
88.49129 142.000
88.51124 123.000
88.53119 117.000
88.55114 129.000
88.57108 141.000
88.59103 131.000
88.61098 117.000
88.63092 127.000
88.65087 126.000
88.67082 123.000
88.69076 143.000
88.71071 133.000
88.73066 122.000
88.75061 115.000
88.77055 139.000
88.79050 141.000
88.81045 113.000
88.83039 146.000
88.85034 123.000
88.87029 104.000
88.89023 118.000
88.91018 136.000
88.93013 143.000
88.95007 149.000
88.97002 143.000
88.98997 145.000
89.00992 125.000
89.02986 139.000
89.04981 133.000
89.06976 123.000
89.08970 152.000
89.10965 142.000
89.12960 129.000
89.14954 111.000
89.16949 131.000
89.18944 140.000
89.20939 119.000
89.22933 125.000
89.24928 140.000
89.26923 136.000
89.28917 137.000
89.30912 148.000
89.32907 121.000
89.34901 156.000
89.36896 127.000
89.38891 132.000
89.40885 157.000
89.42880 116.000
89.44875 126.000
89.46870 120.000
89.48864 114.000
89.50859 149.000
89.52854 147.000
89.54848 152.000
89.56843 128.000
89.58838 141.000
89.60832 117.000
89.62827 128.000
89.64822 111.000
89.66817 126.000
89.68811 138.000
89.70806 147.000
89.72801 127.000
89.74795 121.000
89.76790 130.000
89.78785 139.000
89.80779 128.000
89.82774 130.000
89.84769 125.000
89.86764 147.000
89.88758 138.000
89.90753 164.000
89.92748 138.000
89.94742 139.000
89.96737 149.000
89.98732 151.000
90.00726 144.000
