10.00000 212.000
10.01995 215.000
10.03989 211.000
10.05984 235.000
10.07979 215.000
10.09973 239.000
10.11968 204.000
10.13963 278.000
10.15958 236.000
10.17952 229.000
10.19947 253.000
10.21942 227.000
10.23936 237.000
10.25931 245.000
10.27926 219.000
10.29920 255.000
10.31915 215.000
10.33910 246.000
10.35905 231.000
10.37899 235.000
10.39894 219.000
10.41889 214.000
10.43883 234.000
10.45878 221.000
10.47873 214.000
10.49867 227.000
10.51862 238.000
10.53857 228.000
10.55851 223.000
10.57846 226.000
10.59841 191.000
10.61836 249.000
10.63830 242.000
10.65825 248.000
10.67820 215.000
10.69814 201.000
10.71809 209.000
10.73804 227.000
10.75798 250.000
10.77793 214.000
10.79788 212.000
10.81783 244.000
10.83777 216.000
10.85772 268.000
10.87767 224.000
10.89761 241.000
10.91756 246.000
10.93751 245.000
10.95745 215.000
10.97740 232.000
10.99735 198.000
11.01730 212.000
11.03724 200.000
11.05719 223.000
11.07714 232.000
11.09708 212.000
11.11703 241.000
11.13698 226.000
11.15692 199.000
11.17687 229.000
11.19682 239.000
11.21676 225.000
11.23671 227.000
11.25666 237.000
11.27661 230.000
11.29655 247.000
11.31650 214.000
11.33645 170.000
11.35639 247.000
11.37634 245.000
11.39629 174.000
11.41623 215.000
11.43618 225.000
11.45613 229.000
11.47608 221.000
11.49602 222.000
11.51597 254.000
11.53592 210.000
11.55586 213.000
11.57581 244.000
11.59576 220.000
11.61570 254.000
11.63565 215.000
11.65560 239.000
11.67554 205.000
11.69549 236.000
11.71544 230.000
11.73539 228.000
11.75533 221.000
11.77528 232.000
11.79523 224.000
11.81517 234.000
11.83512 191.000
11.85507 234.000
11.87501 233.000
11.89496 240.000
11.91491 242.000
11.93486 254.000
11.95480 277.000
11.97475 239.000
11.99470 223.000
12.01464 242.000
12.03459 234.000
12.05454 216.000
12.07448 216.000
12.09443 243.000
12.11438 217.000
12.13432 208.000
12.15427 227.000
12.17422 240.000
12.19417 205.000
12.21411 202.000
12.23406 225.000
12.25401 211.000
12.27395 234.000
12.29390 240.000
12.31385 218.000
12.33379 213.000
12.35374 243.000
12.37369 224.000
12.39364 214.000
12.41358 206.000
12.43353 236.000
12.45348 257.000
12.47342 205.000
12.49337 225.000
12.51332 255.000
12.53326 215.000
12.55321 239.000
12.57316 227.000
12.59311 232.000
12.61305 231.000
12.63300 231.000
12.65295 214.000
12.67289 226.000
12.69284 226.000
12.71279 233.000
12.73273 222.000
12.75268 220.000
12.77263 213.000
12.79257 238.000
12.81252 202.000
12.83247 233.000
12.85242 210.000
12.87236 270.000
12.89231 230.000
12.91226 229.000
12.93220 211.000
12.95215 207.000
12.97210 221.000
12.99204 245.000
13.01199 241.000
13.03194 239.000
13.05189 241.000
13.07183 210.000
13.09178 202.000
13.11173 203.000
13.13167 232.000
13.15162 221.000
13.17157 204.000
13.19151 222.000
13.21146 239.000
13.23141 207.000
13.25135 233.000
13.27130 226.000
13.29125 233.000
13.31120 223.000
13.33114 226.000
13.35109 203.000
13.37104 239.000
13.39098 220.000
13.41093 226.000
13.43088 231.000
13.45082 232.000
13.47077 221.000
13.49072 248.000
13.51067 214.000
13.53061 221.000
13.55056 229.000
13.57051 225.000
13.59045 221.000
13.61040 252.000
13.63035 222.000
13.65029 231.000
13.67024 226.000
13.69019 240.000
13.71013 208.000
13.73008 190.000
13.75003 192.000
13.76998 224.000
13.78992 226.000
13.80987 233.000
13.82982 252.000
13.84976 229.000
13.86971 233.000
13.88966 208.000
13.90960 210.000
13.92955 207.000
13.94950 249.000
13.96945 216.000
13.98939 245.000
14.00934 204.000
14.02929 239.000
14.04923 232.000
14.06918 240.000
14.08913 237.000
14.10907 228.000
14.12902 214.000
14.14897 226.000
14.16892 225.000
14.18886 216.000
14.20881 234.000
14.22876 209.000
14.24870 210.000
14.26865 247.000
14.28860 219.000
14.30854 211.000
14.32849 200.000
14.34844 252.000
14.36838 270.000
14.38833 216.000
14.40828 234.000
14.42823 240.000
14.44817 225.000
14.46812 217.000
14.48807 258.000
14.50801 210.000
14.52796 236.000
14.54791 219.000
14.56785 229.000
14.58780 234.000
14.60775 230.000
14.62770 233.000
14.64764 226.000
14.66759 215.000
14.68754 209.000
14.70748 222.000
14.72743 227.000
14.74738 228.000
14.76732 228.000
14.78727 204.000
14.80722 235.000
14.82716 212.000
14.84711 226.000
14.86706 199.000
14.88701 244.000
14.90695 213.000
14.92690 247.000
14.94685 242.000
14.96679 227.000
14.98674 240.000
15.00669 219.000
15.02663 258.000
15.04658 220.000
15.06653 237.000
15.08648 231.000
15.10642 238.000
15.12637 201.000
15.14632 218.000
15.16626 258.000
15.18621 250.000
15.20616 244.000
15.22610 244.000
15.24605 216.000
15.26600 225.000
15.28594 252.000
15.30589 287.000
15.32584 261.000
15.34579 237.000
15.36573 266.000
15.38568 250.000
15.40563 229.000
15.42557 235.000
15.44552 232.000
15.46547 237.000
15.48541 249.000
15.50536 224.000
15.52531 275.000
15.54526 275.000
15.56520 271.000
15.58515 257.000
15.60510 282.000
15.62504 279.000
15.64499 308.000
15.66494 293.000
15.68488 337.000
15.70483 381.000
15.72478 429.000
15.74472 471.000
15.76467 647.000
15.78462 867.000
15.80457 1215.000
15.82451 1590.000
15.84446 2107.000
15.86441 2443.000
15.88435 2334.000
15.90430 2197.000
15.92425 1606.000
15.94419 1147.000
15.96414 810.000
15.98409 536.000
16.00404 441.000
16.02398 358.000
16.04393 362.000
16.06388 342.000
16.08382 350.000
16.10377 360.000
16.12372 433.000
16.14366 483.000
16.16361 496.000
16.18356 616.000
16.20351 700.000
16.22345 708.000
16.24340 644.000
16.26335 603.000
16.28329 500.000
16.30324 467.000
16.32319 410.000
16.34313 345.000
16.36308 310.000
16.38303 299.000
16.40297 284.000
16.42292 248.000
16.44287 255.000
16.46282 268.000
16.48276 292.000
16.50271 258.000
16.52266 233.000
16.54260 220.000
16.56255 264.000
16.58250 236.000
16.60244 257.000
16.62239 254.000
16.64234 243.000
16.66229 242.000
16.68223 244.000
16.70218 237.000
16.72213 242.000
16.74207 279.000
16.76202 266.000
16.78197 282.000
16.80191 315.000
16.82186 286.000
16.84181 303.000
16.86175 303.000
16.88170 294.000
16.90165 259.000
16.92160 252.000
16.94154 265.000
16.96149 262.000
16.98144 247.000
17.00138 245.000
17.02133 249.000
17.04128 218.000
17.06122 261.000
17.08117 254.000
17.10112 238.000
17.12107 225.000
17.14101 254.000
17.16096 242.000
17.18091 263.000
17.20085 224.000
17.22080 246.000
17.24075 247.000
17.26069 238.000
17.28064 218.000
17.30059 230.000
17.32053 214.000
17.34048 241.000
17.36043 229.000
17.38038 214.000
17.40032 236.000
17.42027 204.000
17.44022 206.000
17.46016 235.000
17.48011 227.000
17.50006 232.000
17.52000 236.000
17.53995 224.000
17.55990 222.000
17.57985 227.000
17.59979 223.000
17.61974 239.000
17.63969 214.000
17.65963 217.000
17.67958 242.000
17.69953 243.000
17.71947 258.000
17.73942 243.000
17.75937 205.000
17.77932 235.000
17.79926 226.000
17.81921 190.000
17.83916 240.000
17.85910 247.000
17.87905 232.000
17.89900 241.000
17.91894 251.000
17.93889 249.000
17.95884 241.000
17.97878 244.000
17.99873 208.000
18.01868 223.000
18.03863 250.000
18.05857 222.000
18.07852 238.000
18.09847 210.000
18.11841 221.000
18.13836 235.000
18.15831 228.000
18.17825 227.000
18.19820 228.000
18.21815 210.000
18.23810 241.000
18.25804 230.000
18.27799 227.000
18.29794 253.000
18.31788 238.000
18.33783 270.000
18.35778 303.000
18.37772 330.000
18.39767 345.000
18.41762 372.000
18.43756 333.000
18.45751 337.000
18.47746 298.000
18.49741 242.000
18.51735 260.000
18.53730 245.000
18.55725 245.000
18.57719 230.000
18.59714 248.000
18.61709 247.000
18.63703 220.000
18.65698 261.000
18.67693 244.000
18.69688 245.000
18.71682 232.000
18.73677 241.000
18.75672 248.000
18.77666 250.000
18.79661 230.000
18.81656 248.000
18.83650 236.000
18.85645 222.000
18.87640 228.000
18.89634 232.000
18.91629 251.000
18.93624 261.000
18.95619 226.000
18.97613 239.000
18.99608 245.000
19.01603 265.000
19.03597 222.000
19.05592 245.000
19.07587 249.000
19.09581 241.000
19.11576 246.000
19.13571 243.000
19.15566 231.000
19.17560 245.000
19.19555 254.000
19.21550 224.000
19.23544 231.000
19.25539 240.000
19.27534 229.000
19.29528 230.000
19.31523 214.000
19.33518 258.000
19.35513 261.000
19.37507 235.000
19.39502 218.000
19.41497 257.000
19.43491 268.000
19.45486 254.000
19.47481 224.000
19.49475 270.000
19.51470 275.000
19.53465 248.000
19.55459 232.000
19.57454 249.000
19.59449 257.000
19.61444 260.000
19.63438 231.000
19.65433 215.000
19.67428 266.000
19.69422 247.000
19.71417 248.000
19.73412 230.000
19.75406 254.000
19.77401 236.000
19.79396 253.000
19.81391 237.000
19.83385 217.000
19.85380 206.000
19.87375 216.000
19.89369 253.000
19.91364 249.000
19.93359 234.000
19.95353 211.000
19.97348 238.000
19.99343 228.000
20.01337 246.000
20.03332 268.000
20.05327 247.000
20.07322 256.000
20.09316 214.000
20.11311 244.000
20.13306 254.000
20.15300 229.000
20.17295 249.000
20.19290 229.000
20.21284 245.000
20.23279 224.000
20.25274 242.000
20.27269 242.000
20.29263 253.000
20.31258 246.000
20.33253 227.000
20.35247 236.000
20.37242 246.000
20.39237 229.000
20.41231 250.000
20.43226 247.000
20.45221 259.000
20.47215 235.000
20.49210 235.000
20.51205 240.000
20.53200 252.000
20.55194 263.000
20.57189 242.000
20.59184 224.000
20.61178 252.000
20.63173 257.000
20.65168 285.000
20.67162 248.000
20.69157 277.000
20.71152 258.000
20.73147 253.000
20.75141 270.000
20.77136 313.000
20.79131 322.000
20.81125 326.000
20.83120 353.000
20.85115 379.000
20.87109 386.000
20.89104 410.000
20.91099 465.000
20.93094 433.000
20.95088 495.000
20.97083 537.000
20.99078 556.000
21.01072 646.000
21.03067 620.000
21.05062 656.000
21.07056 598.000
21.09051 599.000
21.11046 514.000
21.13040 450.000
21.15035 389.000
21.17030 365.000
21.19025 310.000
21.21019 276.000
21.23014 251.000
21.25009 218.000
21.27003 262.000
21.28998 255.000
21.30993 252.000
21.32987 232.000
21.34982 252.000
21.36977 259.000
21.38972 252.000
21.40966 238.000
21.42961 247.000
21.44956 232.000
21.46950 245.000
21.48945 246.000
21.50940 253.000
21.52934 264.000
21.54929 245.000
21.56924 223.000
21.58918 266.000
21.60913 249.000
21.62908 244.000
21.64903 258.000
21.66897 239.000
21.68892 249.000
21.70887 258.000
21.72881 237.000
21.74876 249.000
21.76871 253.000
21.78865 247.000
21.80860 244.000
21.82855 258.000
21.84850 246.000
21.86844 228.000
21.88839 234.000
21.90834 239.000
21.92828 252.000
21.94823 225.000
21.96818 238.000
21.98812 270.000
22.00807 219.000
22.02802 232.000
22.04796 245.000
22.06791 240.000
22.08786 253.000
22.10781 255.000
22.12775 234.000
22.14770 235.000
22.16765 238.000
22.18759 222.000
22.20754 231.000
22.22749 247.000
22.24743 239.000
22.26738 266.000
22.28733 224.000
22.30728 225.000
22.32722 255.000
22.34717 270.000
22.36712 221.000
22.38706 211.000
22.40701 245.000
22.42696 256.000
22.44690 251.000
22.46685 254.000
22.48680 234.000
22.50675 253.000
22.52669 233.000
22.54664 242.000
22.56659 254.000
22.58653 266.000
22.60648 223.000
22.62643 260.000
22.64637 251.000
22.66632 247.000
22.68627 247.000
22.70621 242.000
22.72616 215.000
22.74611 251.000
22.76606 256.000
22.78600 257.000
22.80595 257.000
22.82590 233.000
22.84584 255.000
22.86579 272.000
22.88574 250.000
22.90568 266.000
22.92563 231.000
22.94558 237.000
22.96553 228.000
22.98547 261.000
23.00542 273.000
23.02537 244.000
23.04531 251.000
23.06526 259.000
23.08521 256.000
23.10515 275.000
23.12510 265.000
23.14505 226.000
23.16499 221.000
23.18494 223.000
23.20489 243.000
23.22484 284.000
23.24478 232.000
23.26473 256.000
23.28468 222.000
23.30462 224.000
23.32457 245.000
23.34452 266.000
23.36446 251.000
23.38441 255.000
23.40436 248.000
23.42431 254.000
23.44425 244.000
23.46420 247.000
23.48415 212.000
23.50409 234.000
23.52404 271.000
23.54399 242.000
23.56393 225.000
23.58388 229.000
23.60383 228.000
23.62377 252.000
23.64372 269.000
23.66367 220.000
23.68362 235.000
23.70356 241.000
23.72351 272.000
23.74346 233.000
23.76340 242.000
23.78335 260.000
23.80330 273.000
23.82324 233.000
23.84319 258.000
23.86314 254.000
23.88309 253.000
23.90303 254.000
23.92298 254.000
23.94293 258.000
23.96287 255.000
23.98282 292.000
24.00277 257.000
24.02271 250.000
24.04266 276.000
24.06261 229.000
24.08256 261.000
24.10250 224.000
24.12245 245.000
24.14240 252.000
24.16234 259.000
24.18229 234.000
24.20224 242.000
24.22218 303.000
24.24213 250.000
24.26208 263.000
24.28202 248.000
24.30197 296.000
24.32192 248.000
24.34187 263.000
24.36181 256.000
24.38176 247.000
24.40171 254.000
24.42165 246.000
24.44160 239.000
24.46155 239.000
24.48149 241.000
24.50144 267.000
24.52139 269.000
24.54134 245.000
24.56128 264.000
24.58123 283.000
24.60118 241.000
24.62112 258.000
24.64107 234.000
24.66102 221.000
24.68096 245.000
24.70091 252.000
24.72086 241.000
24.74080 257.000
24.76075 267.000
24.78070 248.000
24.80065 232.000
24.82059 257.000
24.84054 243.000
24.86049 279.000
24.88043 293.000
24.90038 251.000
24.92033 285.000
24.94027 286.000
24.96022 334.000
24.98017 287.000
25.00012 306.000
25.02006 279.000
25.04001 259.000
25.05996 270.000
25.07990 293.000
25.09985 229.000
25.11980 260.000
25.13974 266.000
25.15969 257.000
25.17964 234.000
25.19958 243.000
25.21953 251.000
25.23948 260.000
25.25943 239.000
25.27937 252.000
25.29932 221.000
25.31927 251.000
25.33921 268.000
25.35916 258.000
25.37911 241.000
25.39905 280.000
25.41900 267.000
25.43895 223.000
25.45890 221.000
25.47884 269.000
25.49879 279.000
25.51874 251.000
25.53868 255.000
25.55863 246.000
25.57858 253.000
25.59852 240.000
25.61847 269.000
25.63842 287.000
25.65837 262.000
25.67831 275.000
25.69826 245.000
25.71821 253.000
25.73815 256.000
25.75810 243.000
25.77805 270.000
25.79799 232.000
25.81794 247.000
25.83789 263.000
25.85783 252.000
25.87778 258.000
25.89773 247.000
25.91768 264.000
25.93762 276.000
25.95757 254.000
25.97752 254.000
25.99746 245.000
26.01741 220.000
26.03736 231.000
26.05730 239.000
26.07725 258.000
26.09720 251.000
26.11715 240.000
26.13709 234.000
26.15704 254.000
26.17699 245.000
26.19693 279.000
26.21688 248.000
26.23683 263.000
26.25677 240.000
26.27672 252.000
26.29667 259.000
26.31661 234.000
26.33656 235.000
26.35651 277.000
26.37646 252.000
26.39640 248.000
26.41635 275.000
26.43630 251.000
26.45624 266.000
26.47619 280.000
26.49614 255.000
26.51608 253.000
26.53603 274.000
26.55598 238.000
26.57593 222.000
26.59587 274.000
26.61582 244.000
26.63577 257.000
26.65571 225.000
26.67566 269.000
26.69561 230.000
26.71555 292.000
26.73550 256.000
26.75545 259.000
26.77539 261.000
26.79534 255.000
26.81529 237.000
26.83524 292.000
26.85518 262.000
26.87513 278.000
26.89508 234.000
26.91502 242.000
26.93497 265.000
26.95492 266.000
26.97486 231.000
26.99481 279.000
27.01476 276.000
27.03471 292.000
27.05465 242.000
27.07460 247.000
27.09455 255.000
27.11449 265.000
27.13444 252.000
27.15439 255.000
27.17433 260.000
27.19428 259.000
27.21423 266.000
27.23417 286.000
27.25412 253.000
27.27407 271.000
27.29402 263.000
27.31396 245.000
27.33391 268.000
27.35386 254.000
27.37380 244.000
27.39375 258.000
27.41370 292.000
27.43364 254.000
27.45359 249.000
27.47354 281.000
27.49349 232.000
27.51343 254.000
27.53338 275.000
27.55333 253.000
27.57327 266.000
27.59322 264.000
27.61317 276.000
27.63311 259.000
27.65306 252.000
27.67301 299.000
27.69296 263.000
27.71290 251.000
27.73285 279.000
27.75280 252.000
27.77274 270.000
27.79269 249.000
27.81264 267.000
27.83258 252.000
27.85253 275.000
27.87248 255.000
27.89242 253.000
27.91237 267.000
27.93232 278.000
27.95227 270.000
27.97221 282.000
27.99216 266.000
28.01211 240.000
28.03205 252.000
28.05200 274.000
28.07195 252.000
28.09189 270.000
28.11184 280.000
28.13179 235.000
28.15174 236.000
28.17168 294.000
28.19163 255.000
28.21158 283.000
28.23152 277.000
28.25147 279.000
28.27142 254.000
28.29136 252.000
28.31131 275.000
28.33126 285.000
28.35120 291.000
28.37115 248.000
28.39110 288.000
28.41105 244.000
28.43099 269.000
28.45094 252.000
28.47089 263.000
28.49083 238.000
28.51078 286.000
28.53073 253.000
28.55067 275.000
28.57062 243.000
28.59057 272.000
28.61052 305.000
28.63046 237.000
28.65041 239.000
28.67036 278.000
28.69030 263.000
28.71025 274.000
28.73020 265.000
28.75014 266.000
28.77009 296.000
28.79004 260.000
28.80998 246.000
28.82993 277.000
28.84988 269.000
28.86983 260.000
28.88977 245.000
28.90972 253.000
28.92967 261.000
28.94961 255.000
28.96956 292.000
28.98951 274.000
29.00945 284.000
29.02940 275.000
29.04935 286.000
29.06930 254.000
29.08924 282.000
29.10919 254.000
29.12914 247.000
29.14908 272.000
29.16903 284.000
29.18898 274.000
29.20892 322.000
29.22887 324.000
29.24882 316.000
29.26877 326.000
29.28871 351.000
29.30866 414.000
29.32861 410.000
29.34855 407.000
29.36850 405.000
29.38845 439.000
29.40839 412.000
29.42834 366.000
29.44829 377.000
29.46823 362.000
29.48818 338.000
29.50813 339.000
29.52808 332.000
29.54802 298.000
29.56797 275.000
29.58792 307.000
29.60786 264.000
29.62781 293.000
29.64776 320.000
29.66770 302.000
29.68765 282.000
29.70760 266.000
29.72755 278.000
29.74749 295.000
29.76744 258.000
29.78739 267.000
29.80733 276.000
29.82728 268.000
29.84723 291.000
29.86717 255.000
29.88712 287.000
29.90707 290.000
29.92701 249.000
29.94696 271.000
29.96691 286.000
29.98686 300.000
30.00680 284.000
30.02675 308.000
30.04670 279.000
30.06664 247.000
30.08659 318.000
30.10654 316.000
30.12648 296.000
30.14643 287.000
30.16638 312.000
30.18633 335.000
30.20627 342.000
30.22622 374.000
30.24617 445.000
30.26611 469.000
30.28606 555.000
30.30601 571.000
30.32595 518.000
30.34590 444.000
30.36585 417.000
30.38579 445.000
30.40574 369.000
30.42569 344.000
30.44564 338.000
30.46558 299.000
30.48553 290.000
30.50548 280.000
30.52542 301.000
30.54537 294.000
30.56532 295.000
30.58526 277.000
30.60521 270.000
30.62516 283.000
30.64511 310.000
30.66505 293.000
30.68500 336.000
30.70495 255.000
30.72489 283.000
30.74484 302.000
30.76479 248.000
30.78473 285.000
30.80468 280.000
30.82463 282.000
30.84458 276.000
30.86452 283.000
30.88447 277.000
30.90442 255.000
30.92436 264.000
30.94431 332.000
30.96426 313.000
30.98420 275.000
31.00415 292.000
31.02410 281.000
31.04404 279.000
31.06399 267.000
31.08394 259.000
31.10389 279.000
31.12383 267.000
31.14378 289.000
31.16373 276.000
31.18367 273.000
31.20362 277.000
31.22357 271.000
31.24351 269.000
31.26346 303.000
31.28341 252.000
31.30336 274.000
31.32330 291.000
31.34325 268.000
31.36320 294.000
31.38314 280.000
31.40309 285.000
31.42304 265.000
31.44298 306.000
31.46293 296.000
31.48288 280.000
31.50282 277.000
31.52277 252.000
31.54272 302.000
31.56267 278.000
31.58261 300.000
31.60256 283.000
31.62251 289.000
31.64245 276.000
31.66240 279.000
31.68235 260.000
31.70229 260.000
31.72224 264.000
31.74219 300.000
31.76214 305.000
31.78208 294.000
31.80203 327.000
31.82198 301.000
31.84192 266.000
31.86187 299.000
31.88182 293.000
31.90176 332.000
31.92171 341.000
31.94166 340.000
31.96160 322.000
31.98155 389.000
32.00150 366.000
32.02145 430.000
32.04139 458.000
32.06134 450.000
32.08129 429.000
32.10123 454.000
32.12118 455.000
32.14113 384.000
32.16107 410.000
32.18102 364.000
32.20097 337.000
32.22092 351.000
32.24086 338.000
32.26081 308.000
32.28076 271.000
32.30070 296.000
32.32065 326.000
32.34060 273.000
32.36054 282.000
32.38049 248.000
32.40044 249.000
32.42039 241.000
32.44033 273.000
32.46028 283.000
32.48023 271.000
32.50017 278.000
32.52012 268.000
32.54007 244.000
32.56001 307.000
32.57996 261.000
32.59991 283.000
32.61985 331.000
32.63980 322.000
32.65975 298.000
32.67970 287.000
32.69964 293.000
32.71959 288.000
32.73954 320.000
32.75948 317.000
32.77943 300.000
32.79938 314.000
32.81932 320.000
32.83927 259.000
32.85922 318.000
32.87917 298.000
32.89911 332.000
32.91906 311.000
32.93901 289.000
32.95895 284.000
32.97890 271.000
32.99885 293.000
33.01879 301.000
33.03874 269.000
33.05869 294.000
33.07863 267.000
33.09858 287.000
33.11853 316.000
33.13848 289.000
33.15842 270.000
33.17837 303.000
33.19832 290.000
33.21826 285.000
33.23821 267.000
33.25816 242.000
33.27810 270.000
33.29805 290.000
33.31800 279.000
33.33795 282.000
33.35789 288.000
33.37784 284.000
33.39779 284.000
33.41773 289.000
33.43768 259.000
33.45763 263.000
33.47757 278.000
33.49752 277.000
33.51747 277.000
33.53741 272.000
33.55736 296.000
33.57731 257.000
33.59726 261.000
33.61720 277.000
33.63715 270.000
33.65710 264.000
33.67704 270.000
33.69699 273.000
33.71694 267.000
33.73688 310.000
33.75683 287.000
33.77678 305.000
33.79673 272.000
33.81667 304.000
33.83662 277.000
33.85657 283.000
33.87651 289.000
33.89646 255.000
33.91641 279.000
33.93635 291.000
33.95630 278.000
33.97625 306.000
33.99620 296.000
34.01614 314.000
34.03609 254.000
34.05604 288.000
34.07598 285.000
34.09593 293.000
34.11588 288.000
34.13582 303.000
34.15577 317.000
34.17572 291.000
34.19566 291.000
34.21561 297.000
34.23556 317.000
34.25551 326.000
34.27545 388.000
34.29540 364.000
34.31535 409.000
34.33529 405.000
34.35524 408.000
34.37519 369.000
34.39513 440.000
34.41508 397.000
34.43503 412.000
34.45498 402.000
34.47492 431.000
34.49487 440.000
34.51482 453.000
34.53476 494.000
34.55471 531.000
34.57466 503.000
34.59460 569.000
34.61455 594.000
34.63450 600.000
34.65444 600.000
34.67439 568.000
34.69434 583.000
34.71429 509.000
34.73423 550.000
34.75418 563.000
34.77413 540.000
34.79407 569.000
34.81402 493.000
34.83397 462.000
34.85391 457.000
34.87386 478.000
34.89381 434.000
34.91376 376.000
34.93370 365.000
34.95365 357.000
34.97360 346.000
34.99354 339.000
35.01349 309.000
35.03344 312.000
35.05338 308.000
35.07333 287.000
35.09328 298.000
35.11322 298.000
35.13317 300.000
35.15312 315.000
35.17307 314.000
35.19301 338.000
35.21296 322.000
35.23291 327.000
35.25285 291.000
35.27280 300.000
35.29275 313.000
35.31269 342.000
35.33264 307.000
35.35259 351.000
35.37254 315.000
35.39248 323.000
35.41243 351.000
35.43238 354.000
35.45232 418.000
35.47227 385.000
35.49222 373.000
35.51216 460.000
35.53211 463.000
35.55206 484.000
35.57201 559.000
35.59195 652.000
35.61190 738.000
35.63185 901.000
35.65179 1084.000
35.67174 1186.000
35.69169 1132.000
35.71163 1172.000
35.73158 1030.000
35.75153 985.000
35.77147 927.000
35.79142 897.000
35.81137 808.000
35.83132 690.000
35.85126 625.000
35.87121 517.000
35.89116 517.000
35.91110 485.000
35.93105 429.000
35.95100 405.000
35.97094 343.000
35.99089 368.000
36.01084 342.000
36.03079 352.000
36.05073 314.000
36.07068 320.000
36.09063 301.000
36.11057 306.000
36.13052 334.000
36.15047 290.000
36.17041 308.000
36.19036 319.000
36.21031 309.000
36.23025 291.000
36.25020 339.000
36.27015 328.000
36.29010 303.000
36.31004 345.000
36.32999 351.000
36.34994 322.000
36.36988 339.000
36.38983 346.000
36.40978 325.000
36.42972 323.000
36.44967 337.000
36.46962 330.000
36.48957 358.000
36.50951 329.000
36.52946 318.000
36.54941 336.000
36.56935 354.000
36.58930 326.000
36.60925 340.000
36.62919 384.000
36.64914 368.000
36.66909 351.000
36.68903 366.000
36.70898 361.000
36.72893 407.000
36.74888 397.000
36.76882 441.000
36.78877 423.000
36.80872 414.000
36.82866 500.000
36.84861 467.000
36.86856 492.000
36.88850 568.000
36.90845 629.000
36.92840 704.000
36.94835 820.000
36.96829 951.000
36.98824 1158.000
37.00819 1456.000
37.02813 1801.000
37.04808 2157.000
37.06803 2650.000
37.08797 3028.000
37.10792 3522.000
37.12787 3945.000
37.14781 4513.000
37.16776 4511.000
37.18771 4251.000
37.20766 3821.000
37.22760 3435.000
37.24755 2768.000
37.26750 2420.000
37.28744 2043.000
37.30739 1563.000
37.32734 1185.000
37.34728 871.000
37.36723 674.000
37.38718 604.000
37.40713 481.000
37.42707 452.000
37.44702 474.000
37.46697 417.000
37.48691 422.000
37.50686 356.000
37.52681 387.000
37.54675 343.000
37.56670 359.000
37.58665 321.000
37.60660 319.000
37.62654 311.000
37.64649 309.000
37.66644 340.000
37.68638 318.000
37.70633 318.000
37.72628 312.000
37.74622 293.000
37.76617 258.000
37.78612 314.000
37.80606 276.000
37.82601 302.000
37.84596 279.000
37.86591 302.000
37.88585 273.000
37.90580 327.000
37.92575 296.000
37.94569 273.000
37.96564 308.000
37.98559 297.000
38.00553 296.000
38.02548 287.000
38.04543 306.000
38.06538 268.000
38.08532 299.000
38.10527 292.000
38.12522 276.000
38.14516 274.000
38.16511 268.000
38.18506 312.000
38.20500 269.000
38.22495 247.000
38.24490 292.000
38.26484 272.000
38.28479 305.000
38.30474 310.000
38.32469 291.000
38.34463 288.000
38.36458 296.000
38.38453 316.000
38.40447 261.000
38.42442 288.000
38.44437 281.000
38.46431 278.000
38.48426 280.000
38.50421 289.000
38.52416 272.000
38.54410 255.000
38.56405 279.000
38.58400 250.000
38.60394 286.000
38.62389 299.000
38.64384 298.000
38.66378 283.000
38.68373 265.000
38.70368 300.000
38.72362 294.000
38.74357 278.000
38.76352 311.000
38.78347 313.000
38.80341 297.000
38.82336 306.000
38.84331 292.000
38.86325 308.000
38.88320 263.000
38.90315 305.000
38.92309 295.000
38.94304 275.000
38.96299 283.000
38.98294 325.000
39.00288 285.000
39.02283 280.000
39.04278 292.000
39.06272 292.000
39.08267 292.000
39.10262 323.000
39.12256 292.000
39.14251 330.000
39.16246 371.000
39.18241 358.000
39.20235 401.000
39.22230 457.000
39.24225 483.000
39.26219 491.000
39.28214 589.000
39.30209 534.000
39.32203 608.000
39.34198 607.000
39.36193 630.000
39.38187 594.000
39.40182 634.000
39.42177 529.000
39.44172 529.000
39.46166 535.000
39.48161 485.000
39.50156 430.000
39.52150 404.000
39.54145 373.000
39.56140 313.000
39.58134 344.000
39.60129 317.000
39.62124 266.000
39.64119 292.000
39.66113 273.000
39.68108 283.000
39.70103 259.000
39.72097 277.000
39.74092 271.000
39.76087 283.000
39.78081 277.000
39.80076 249.000
39.82071 289.000
39.84065 281.000
39.86060 290.000
39.88055 281.000
39.90050 302.000
39.92044 251.000
39.94039 287.000
39.96034 312.000
39.98028 297.000
40.00023 240.000
40.02018 299.000
40.04012 268.000
40.06007 256.000
40.08002 249.000
40.09997 268.000
40.11991 248.000
40.13986 253.000
40.15981 278.000
40.17975 276.000
40.19970 234.000
40.21965 236.000
40.23959 266.000
40.25954 272.000
40.27949 286.000
40.29943 250.000
40.31938 285.000
40.33933 294.000
40.35928 255.000
40.37922 273.000
40.39917 290.000
40.41912 242.000
40.43906 256.000
40.45901 254.000
40.47896 264.000
40.49890 267.000
40.51885 243.000
40.53880 291.000
40.55875 263.000
40.57869 238.000
40.59864 280.000
40.61859 281.000
40.63853 269.000
40.65848 282.000
40.67843 272.000
40.69837 274.000
40.71832 259.000
40.73827 271.000
40.75822 262.000
40.77816 274.000
40.79811 240.000
40.81806 254.000
40.83800 290.000
40.85795 254.000
40.87790 256.000
40.89784 280.000
40.91779 270.000
40.93774 306.000
40.95768 240.000
40.97763 284.000
40.99758 285.000
41.01753 242.000
41.03747 241.000
41.05742 280.000
41.07737 271.000
41.09731 267.000
41.11726 302.000
41.13721 296.000
41.15715 300.000
41.17710 272.000
41.19705 300.000
41.21700 264.000
41.23694 251.000
41.25689 258.000
41.27684 293.000
41.29678 308.000
41.31673 307.000
41.33668 288.000
41.35662 293.000
41.37657 284.000
41.39652 267.000
41.41646 295.000
41.43641 285.000
41.45636 316.000
41.47631 293.000
41.49625 320.000
41.51620 282.000
41.53615 311.000
41.55609 325.000
41.57604 310.000
41.59599 398.000
41.61593 345.000
41.63588 376.000
41.65583 449.000
41.67578 481.000
41.69572 493.000
41.71567 529.000
41.73562 523.000
41.75556 549.000
41.77551 536.000
41.79546 498.000
41.81540 485.000
41.83535 449.000
41.85530 412.000
41.87524 415.000
41.89519 374.000
41.91514 347.000
41.93509 345.000
41.95503 305.000
41.97498 298.000
41.99493 319.000
42.01487 318.000
42.03482 302.000
42.05477 285.000
42.07471 297.000
42.09466 307.000
42.11461 280.000
42.13456 291.000
42.15450 286.000
42.17445 281.000
42.19440 306.000
42.21434 304.000
42.23429 301.000
42.25424 301.000
42.27418 300.000
42.29413 330.000
42.31408 302.000
42.33403 322.000
42.35397 269.000
42.37392 300.000
42.39387 321.000
42.41381 293.000
42.43376 323.000
42.45371 295.000
42.47365 332.000
42.49360 346.000
42.51355 352.000
42.53349 328.000
42.55344 368.000
42.57339 352.000
42.59334 352.000
42.61328 356.000
42.63323 393.000
42.65318 405.000
42.67312 383.000
42.69307 411.000
42.71302 385.000
42.73296 449.000
42.75291 461.000
42.77286 483.000
42.79281 521.000
42.81275 554.000
42.83270 600.000
42.85265 592.000
42.87259 690.000
42.89254 758.000
42.91249 863.000
42.93243 931.000
42.95238 1267.000
42.97233 1527.000
42.99227 1840.000
43.01222 2194.000
43.03217 2478.000
43.05212 2900.000
43.07206 3393.000
43.09201 3870.000
43.11196 4440.000
43.13190 4847.000
43.15185 5520.000
43.17180 5783.000
43.19174 5789.000
43.21169 5624.000
43.23164 5262.000
43.25159 4767.000
43.27153 4157.000
43.29148 3575.000
43.31143 3252.000
43.33137 2804.000
43.35132 2381.000
43.37127 1849.000
43.39121 1541.000
43.41116 1232.000
43.43111 1003.000
43.45105 909.000
43.47100 792.000
43.49095 742.000
43.51090 625.000
43.53084 611.000
43.55079 582.000
43.57074 532.000
43.59068 518.000
43.61063 476.000
43.63058 463.000
43.65052 395.000
43.67047 408.000
43.69042 361.000
43.71037 375.000
43.73031 388.000
43.75026 338.000
43.77021 343.000
43.79015 346.000
43.81010 347.000
43.83005 339.000
43.84999 290.000
43.86994 305.000
43.88989 309.000
43.90984 304.000
43.92978 280.000
43.94973 300.000
43.96968 319.000
43.98962 307.000
44.00957 294.000
44.02952 292.000
44.04946 282.000
44.06941 273.000
44.08936 298.000
44.10930 265.000
44.12925 295.000
44.14920 291.000
44.16915 294.000
44.18909 269.000
44.20904 289.000
44.22899 261.000
44.24893 290.000
44.26888 300.000
44.28883 252.000
44.30877 267.000
44.32872 281.000
44.34867 270.000
44.36862 295.000
44.38856 275.000
44.40851 277.000
44.42846 268.000
44.44840 282.000
44.46835 284.000
44.48830 296.000
44.50824 268.000
44.52819 277.000
44.54814 281.000
44.56808 276.000
44.58803 258.000
44.60798 286.000
44.62793 277.000
44.64787 285.000
44.66782 294.000
44.68777 301.000
44.70771 293.000
44.72766 279.000
44.74761 289.000
44.76755 269.000
44.78750 285.000
44.80745 265.000
44.82740 275.000
44.84734 303.000
44.86729 272.000
44.88724 292.000
44.90718 268.000
44.92713 294.000
44.94708 283.000
44.96702 269.000
44.98697 275.000
45.00692 293.000
45.02686 283.000
45.04681 297.000
45.06676 305.000
45.08671 284.000
45.10665 304.000
45.12660 278.000
45.14655 324.000
45.16649 307.000
45.18644 311.000
45.20639 300.000
45.22633 322.000
45.24628 329.000
45.26623 321.000
45.28618 320.000
45.30612 307.000
45.32607 323.000
45.34602 305.000
45.36596 277.000
45.38591 304.000
45.40586 284.000
45.42580 273.000
45.44575 318.000
45.46570 300.000
45.48565 312.000
45.50559 264.000
45.52554 264.000
45.54549 250.000
45.56543 275.000
45.58538 272.000
45.60533 248.000
45.62527 283.000
45.64522 264.000
45.66517 266.000
45.68511 259.000
45.70506 280.000
45.72501 270.000
45.74496 272.000
45.76490 249.000
45.78485 299.000
45.80480 226.000
45.82474 287.000
45.84469 275.000
45.86464 286.000
45.88458 254.000
45.90453 259.000
45.92448 238.000
45.94443 294.000
45.96437 248.000
45.98432 253.000
46.00427 269.000
46.02421 235.000
46.04416 278.000
46.06411 236.000
46.08405 258.000
46.10400 243.000
46.12395 239.000
46.14389 296.000
46.16384 271.000
46.18379 257.000
46.20374 259.000
46.22368 250.000
46.24363 287.000
46.26358 248.000
46.28352 262.000
46.30347 296.000
46.32342 264.000
46.34336 248.000
46.36331 253.000
46.38326 269.000
46.40321 266.000
46.42315 229.000
46.44310 235.000
46.46305 263.000
46.48299 253.000
46.50294 260.000
46.52289 236.000
46.54283 255.000
46.56278 269.000
46.58273 241.000
46.60267 245.000
46.62262 262.000
46.64257 274.000
46.66252 273.000
46.68246 258.000
46.70241 284.000
46.72236 253.000
46.74230 248.000
46.76225 238.000
46.78220 259.000
46.80214 245.000
46.82209 250.000
46.84204 264.000
46.86199 262.000
46.88193 292.000
46.90188 251.000
46.92183 276.000
46.94177 281.000
46.96172 263.000
46.98167 278.000
47.00161 266.000
47.02156 246.000
47.04151 272.000
47.06146 258.000
47.08140 257.000
47.10135 247.000
47.12130 252.000
47.14124 271.000
47.16119 240.000
47.18114 201.000
47.20108 266.000
47.22103 238.000
47.24098 243.000
47.26092 244.000
47.28087 267.000
47.30082 256.000
47.32077 261.000
47.34071 224.000
47.36066 247.000
47.38061 261.000
47.40055 260.000
47.42050 249.000
47.44045 239.000
47.46039 277.000
47.48034 285.000
47.50029 247.000
47.52024 280.000
47.54018 257.000
47.56013 258.000
47.58008 293.000
47.60002 252.000
47.61997 252.000
47.63992 240.000
47.65986 259.000
47.67981 253.000
47.69976 275.000
47.71970 267.000
47.73965 276.000
47.75960 252.000
47.77955 247.000
47.79949 270.000
47.81944 262.000
47.83939 251.000
47.85933 253.000
47.87928 269.000
47.89923 270.000
47.91917 262.000
47.93912 271.000
47.95907 269.000
47.97902 263.000
47.99896 267.000
48.01891 282.000
48.03886 283.000
48.05880 262.000
48.07875 287.000
48.09870 283.000
48.11864 260.000
48.13859 270.000
48.15854 266.000
48.17848 293.000
48.19843 284.000
48.21838 284.000
48.23833 319.000
48.25827 300.000
48.27822 242.000
48.29817 269.000
48.31811 276.000
48.33806 274.000
48.35801 264.000
48.37795 284.000
48.39790 282.000
48.41785 283.000
48.43780 274.000
48.45774 307.000
48.47769 275.000
48.49764 290.000
48.51758 291.000
48.53753 256.000
48.55748 278.000
48.57742 300.000
48.59737 306.000
48.61732 314.000
48.63726 351.000
48.65721 387.000
48.67716 405.000
48.69711 440.000
48.71705 502.000
48.73700 535.000
48.75695 590.000
48.77689 618.000
48.79684 589.000
48.81679 551.000
48.83673 560.000
48.85668 576.000
48.87663 517.000
48.89658 543.000
48.91652 497.000
48.93647 479.000
48.95642 412.000
48.97636 406.000
48.99631 347.000
49.01626 309.000
49.03620 314.000
49.05615 335.000
49.07610 298.000
49.09605 264.000
49.11599 298.000
49.13594 310.000
49.15589 306.000
49.17583 304.000
49.19578 274.000
49.21573 244.000
49.23567 268.000
49.25562 266.000
49.27557 268.000
49.29551 294.000
49.31546 296.000
49.33541 261.000
49.35536 289.000
49.37530 274.000
49.39525 275.000
49.41520 293.000
49.43514 290.000
49.45509 279.000
49.47504 275.000
49.49498 268.000
49.51493 287.000
49.53488 282.000
49.55483 279.000
49.57477 291.000
49.59472 347.000
49.61467 275.000
49.63461 266.000
49.65456 279.000
49.67451 277.000
49.69445 263.000
49.71440 281.000
49.73435 281.000
49.75429 279.000
49.77424 248.000
49.79419 305.000
49.81414 287.000
49.83408 287.000
49.85403 270.000
49.87398 261.000
49.89392 271.000
49.91387 271.000
49.93382 290.000
49.95376 272.000
49.97371 264.000
49.99366 269.000
50.01361 279.000
50.03355 256.000
50.05350 293.000
50.07345 237.000
50.09339 260.000
50.11334 296.000
50.13329 249.000
50.15323 296.000
50.17318 243.000
50.19313 280.000
50.21307 263.000
50.23302 278.000
50.25297 255.000
50.27292 246.000
50.29286 298.000
50.31281 251.000
50.33276 261.000
50.35270 275.000
50.37265 272.000
50.39260 253.000
50.41254 252.000
50.43249 257.000
50.45244 261.000
50.47239 262.000
50.49233 247.000
50.51228 246.000
50.53223 239.000
50.55217 286.000
50.57212 248.000
50.59207 284.000
50.61201 268.000
50.63196 261.000
50.65191 258.000
50.67186 249.000
50.69180 279.000
50.71175 246.000
50.73170 258.000
50.75164 262.000
50.77159 269.000
50.79154 243.000
50.81148 242.000
50.83143 253.000
50.85138 259.000
50.87132 286.000
50.89127 263.000
50.91122 260.000
50.93117 225.000
50.95111 265.000
50.97106 244.000
50.99101 251.000
51.01095 297.000
51.03090 263.000
51.05085 249.000
51.07079 241.000
51.09074 268.000
51.11069 242.000
51.13064 248.000
51.15058 248.000
51.17053 239.000
51.19048 245.000
51.21042 262.000
51.23037 254.000
51.25032 238.000
51.27026 271.000
51.29021 265.000
51.31016 244.000
51.33010 260.000
51.35005 251.000
51.37000 269.000
51.38995 265.000
51.40989 278.000
51.42984 253.000
51.44979 260.000
51.46973 267.000
51.48968 268.000
51.50963 259.000
51.52957 252.000
51.54952 231.000
51.56947 240.000
51.58942 243.000
51.60936 249.000
51.62931 231.000
51.64926 225.000
51.66920 256.000
51.68915 290.000
51.70910 234.000
51.72904 266.000
51.74899 248.000
51.76894 276.000
51.78888 273.000
51.80883 249.000
51.82878 253.000
51.84873 242.000
51.86867 273.000
51.88862 235.000
51.90857 245.000
51.92851 268.000
51.94846 279.000
51.96841 259.000
51.98835 269.000
52.00830 295.000
52.02825 282.000
52.04820 298.000
52.06814 287.000
52.08809 278.000
52.10804 287.000
52.12798 266.000
52.14793 285.000
52.16788 294.000
52.18782 272.000
52.20777 285.000
52.22772 263.000
52.24767 300.000
52.26761 283.000
52.28756 266.000
52.30751 259.000
52.32745 282.000
52.34740 276.000
52.36735 300.000
52.38729 271.000
52.40724 255.000
52.42719 285.000
52.44713 249.000
52.46708 249.000
52.48703 258.000
52.50698 244.000
52.52692 303.000
52.54687 267.000
52.56682 256.000
52.58676 262.000
52.60671 298.000
52.62666 246.000
52.64660 245.000
52.66655 262.000
52.68650 277.000
52.70645 250.000
52.72639 251.000
52.74634 243.000
52.76629 277.000
52.78623 247.000
52.80618 249.000
52.82613 260.000
52.84607 288.000
52.86602 264.000
52.88597 295.000
52.90591 268.000
52.92586 291.000
52.94581 257.000
52.96576 266.000
52.98570 283.000
53.00565 276.000
53.02560 287.000
53.04554 272.000
53.06549 262.000
53.08544 305.000
53.10538 306.000
53.12533 301.000
53.14528 283.000
53.16523 280.000
53.18517 261.000
53.20512 298.000
53.22507 262.000
53.24501 271.000
53.26496 291.000
53.28491 288.000
53.30485 263.000
53.32480 267.000
53.34475 260.000
53.36469 267.000
53.38464 246.000
53.40459 264.000
53.42454 266.000
53.44448 247.000
53.46443 290.000
53.48438 282.000
53.50432 235.000
53.52427 260.000
53.54422 281.000
53.56416 304.000
53.58411 259.000
53.60406 248.000
53.62401 238.000
53.64395 250.000
53.66390 279.000
53.68385 266.000
53.70379 276.000
53.72374 284.000
53.74369 271.000
53.76363 305.000
53.78358 280.000
53.80353 342.000
53.82348 319.000
53.84342 309.000
53.86337 310.000
53.88332 317.000
53.90326 303.000
53.92321 242.000
53.94316 269.000
53.96310 276.000
53.98305 273.000
54.00300 282.000
54.02294 265.000
54.04289 260.000
54.06284 259.000
54.08279 253.000
54.10273 237.000
54.12268 275.000
54.14263 265.000
54.16257 264.000
54.18252 254.000
54.20247 265.000
54.22241 233.000
54.24236 276.000
54.26231 263.000
54.28226 255.000
54.30220 258.000
54.32215 252.000
54.34210 255.000
54.36204 249.000
54.38199 240.000
54.40194 249.000
54.42188 264.000
54.44183 242.000
54.46178 262.000
54.48172 266.000
54.50167 248.000
54.52162 262.000
54.54157 285.000
54.56151 263.000
54.58146 271.000
54.60141 263.000
54.62135 241.000
54.64130 265.000
54.66125 281.000
54.68119 246.000
54.70114 280.000
54.72109 288.000
54.74104 259.000
54.76098 281.000
54.78093 281.000
54.80088 288.000
54.82082 277.000
54.84077 265.000
54.86072 272.000
54.88066 254.000
54.90061 235.000
54.92056 246.000
54.94050 274.000
54.96045 273.000
54.98040 255.000
55.00035 241.000
55.02029 252.000
55.04024 233.000
55.06019 247.000
55.08013 261.000
55.10008 255.000
55.12003 257.000
55.13997 262.000
55.15992 263.000
55.17987 224.000
55.19982 223.000
55.21976 267.000
55.23971 268.000
55.25966 230.000
55.27960 243.000
55.29955 273.000
55.31950 254.000
55.33944 243.000
55.35939 263.000
55.37934 270.000
55.39929 253.000
55.41923 277.000
55.43918 250.000
55.45913 262.000
55.47907 244.000
55.49902 274.000
55.51897 259.000
55.53891 259.000
55.55886 260.000
55.57881 242.000
55.59875 243.000
55.61870 234.000
55.63865 259.000
55.65860 247.000
55.67854 259.000
55.69849 257.000
55.71844 302.000
55.73838 258.000
55.75833 261.000
55.77828 264.000
55.79822 255.000
55.81817 238.000
55.83812 271.000
55.85807 222.000
55.87801 257.000
55.89796 270.000
55.91791 230.000
55.93785 262.000
55.95780 265.000
55.97775 257.000
55.99769 257.000
56.01764 271.000
56.03759 259.000
56.05753 257.000
56.07748 274.000
56.09743 273.000
56.11738 260.000
56.13732 272.000
56.15727 268.000
56.17722 250.000
56.19716 259.000
56.21711 280.000
56.23706 241.000
56.25700 260.000
56.27695 262.000
56.29690 249.000
56.31685 265.000
56.33679 263.000
56.35674 257.000
56.37669 280.000
56.39663 244.000
56.41658 231.000
56.43653 257.000
56.45647 288.000
56.47642 253.000
56.49637 247.000
56.51631 278.000
56.53626 236.000
56.55621 247.000
56.57616 267.000
56.59610 243.000
56.61605 246.000
56.63600 279.000
56.65594 230.000
56.67589 266.000
56.69584 253.000
56.71578 278.000
56.73573 254.000
56.75568 256.000
56.77563 284.000
56.79557 276.000
56.81552 238.000
56.83547 253.000
56.85541 278.000
56.87536 253.000
56.89531 255.000
56.91525 232.000
56.93520 275.000
56.95515 226.000
56.97510 268.000
56.99504 256.000
57.01499 255.000
57.03494 289.000
57.05488 274.000
57.07483 293.000
57.09478 291.000
57.11472 282.000
57.13467 269.000
57.15462 295.000
57.17456 318.000
57.19451 337.000
57.21446 330.000
57.23441 304.000
57.25435 335.000
57.27430 340.000
57.29425 367.000
57.31419 441.000
57.33414 421.000
57.35409 436.000
57.37403 447.000
57.39398 446.000
57.41393 432.000
57.43388 377.000
57.45382 375.000
57.47377 376.000
57.49372 383.000
57.51366 381.000
57.53361 382.000
57.55356 392.000
57.57350 358.000
57.59345 358.000
57.61340 331.000
57.63334 315.000
57.65329 330.000
57.67324 332.000
57.69319 295.000
57.71313 320.000
57.73308 319.000
57.75303 322.000
57.77297 301.000
57.79292 284.000
57.81287 274.000
57.83281 279.000
57.85276 326.000
57.87271 288.000
57.89266 278.000
57.91260 262.000
57.93255 284.000
57.95250 289.000
57.97244 272.000
57.99239 283.000
58.01234 251.000
58.03228 229.000
58.05223 264.000
58.07218 297.000
58.09212 283.000
58.11207 267.000
58.13202 242.000
58.15197 263.000
58.17191 271.000
58.19186 266.000
58.21181 266.000
58.23175 256.000
58.25170 272.000
58.27165 271.000
58.29159 269.000
58.31154 264.000
58.33149 239.000
58.35144 248.000
58.37138 265.000
58.39133 264.000
58.41128 270.000
58.43122 276.000
58.45117 273.000
58.47112 263.000
58.49106 282.000
58.51101 253.000
58.53096 256.000
58.55090 243.000
58.57085 281.000
58.59080 243.000
58.61075 273.000
58.63069 255.000
58.65064 253.000
58.67059 233.000
58.69053 268.000
58.71048 250.000
58.73043 215.000
58.75037 276.000
58.77032 254.000
58.79027 268.000
58.81022 238.000
58.83016 244.000
58.85011 261.000
58.87006 278.000
58.89000 244.000
58.90995 215.000
58.92990 267.000
58.94984 286.000
58.96979 235.000
58.98974 257.000
59.00969 262.000
59.02963 267.000
59.04958 276.000
59.06953 254.000
59.08947 247.000
59.10942 264.000
59.12937 290.000
59.14931 254.000
59.16926 246.000
59.18921 231.000
59.20915 258.000
59.22910 247.000
59.24905 249.000
59.26900 240.000
59.28894 268.000
59.30889 249.000
59.32884 272.000
59.34878 256.000
59.36873 218.000
59.38868 245.000
59.40862 255.000
59.42857 269.000
59.44852 276.000
59.46847 234.000
59.48841 262.000
59.50836 260.000
59.52831 247.000
59.54825 275.000
59.56820 273.000
59.58815 260.000
59.60809 271.000
59.62804 243.000
59.64799 297.000
59.66793 240.000
59.68788 257.000
59.70783 235.000
59.72778 243.000
59.74772 238.000
59.76767 267.000
59.78762 251.000
59.80756 251.000
59.82751 236.000
59.84746 211.000
59.86740 237.000
59.88735 288.000
59.90730 305.000
59.92725 272.000
59.94719 286.000
59.96714 240.000
59.98709 258.000
60.00703 239.000
60.02698 235.000
60.04693 293.000
60.06687 250.000
60.08682 282.000
60.10677 241.000
60.12671 267.000
60.14666 262.000
60.16661 233.000
60.18656 260.000
60.20650 261.000
60.22645 260.000
60.24640 261.000
60.26634 258.000
60.28629 240.000
60.30624 275.000
60.32618 257.000
60.34613 259.000
60.36608 244.000
60.38603 259.000
60.40597 274.000
60.42592 226.000
60.44587 246.000
60.46581 271.000
60.48576 247.000
60.50571 265.000
60.52565 253.000
60.54560 255.000
60.56555 256.000
60.58550 290.000
60.60544 271.000
60.62539 300.000
60.64534 283.000
60.66528 266.000
60.68523 256.000
60.70518 250.000
60.72512 246.000
60.74507 242.000
60.76502 275.000
60.78496 250.000
60.80491 289.000
60.82486 259.000
60.84481 261.000
60.86475 277.000
60.88470 264.000
60.90465 253.000
60.92459 253.000
60.94454 274.000
60.96449 283.000
60.98443 264.000
61.00438 300.000
61.02433 258.000
61.04428 263.000
61.06422 281.000
61.08417 249.000
61.10412 255.000
61.12406 241.000
61.14401 278.000
61.16396 279.000
61.18390 302.000
61.20385 256.000
61.22380 278.000
61.24374 312.000
61.26369 255.000
61.28364 285.000
61.30359 294.000
61.32353 286.000
61.34348 294.000
61.36343 272.000
61.38337 273.000
61.40332 261.000
61.42327 289.000
61.44321 298.000
61.46316 283.000
61.48311 294.000
61.50306 270.000
61.52300 303.000
61.54295 256.000
61.56290 267.000
61.58284 295.000
61.60279 298.000
61.62274 324.000
61.64268 300.000
61.66263 276.000
61.68258 282.000
61.70252 319.000
61.72247 311.000
61.74242 312.000
61.76237 278.000
61.78231 309.000
61.80226 329.000
61.82221 341.000
61.84215 325.000
61.86210 353.000
61.88205 344.000
61.90199 330.000
61.92194 345.000
61.94189 398.000
61.96184 387.000
61.98178 393.000
62.00173 416.000
62.02168 447.000
62.04162 508.000
62.06157 451.000
62.08152 486.000
62.10146 504.000
62.12141 477.000
62.14136 520.000
62.16131 482.000
62.18125 493.000
62.20120 514.000
62.22115 488.000
62.24109 482.000
62.26104 494.000
62.28099 522.000
62.30093 507.000
62.32088 537.000
62.34083 558.000
62.36077 643.000
62.38072 618.000
62.40067 702.000
62.42062 736.000
62.44056 869.000
62.46051 911.000
62.48046 1072.000
62.50040 1153.000
62.52035 1245.000
62.54030 1355.000
62.56024 1394.000
62.58019 1561.000
62.60014 1646.000
62.62009 1865.000
62.64003 2054.000
62.65998 2213.000
62.67993 2277.000
62.69987 2403.000
62.71982 2366.000
62.73977 2342.000
62.75971 2259.000
62.77966 2270.000
62.79961 2055.000
62.81955 1818.000
62.83950 1754.000
62.85945 1611.000
62.87940 1606.000
62.89934 1445.000
62.91929 1411.000
62.93924 1353.000
62.95918 1224.000
62.97913 1013.000
62.99908 977.000
63.01902 859.000
63.03897 738.000
63.05892 696.000
63.07887 597.000
63.09881 555.000
63.11876 529.000
63.13871 510.000
63.15865 507.000
63.17860 481.000
63.19855 496.000
63.21849 446.000
63.23844 454.000
63.25839 432.000
63.27833 395.000
63.29828 374.000
63.31823 387.000
63.33818 374.000
63.35812 328.000
63.37807 358.000
63.39802 339.000
63.41796 301.000
63.43791 340.000
63.45786 300.000
63.47780 322.000
63.49775 318.000
63.51770 301.000
63.53765 280.000
63.55759 319.000
63.57754 288.000
63.59749 284.000
63.61743 296.000
63.63738 314.000
63.65733 286.000
63.67727 268.000
63.69722 257.000
63.71717 278.000
63.73712 281.000
63.75706 298.000
63.77701 275.000
63.79696 299.000
63.81690 269.000
63.83685 297.000
63.85680 289.000
63.87674 278.000
63.89669 298.000
63.91664 263.000
63.93658 286.000
63.95653 293.000
63.97648 307.000
63.99643 312.000
64.01637 283.000
64.03632 338.000
64.05627 314.000
64.07621 324.000
64.09616 353.000
64.11611 331.000
64.13605 334.000
64.15600 383.000
64.17595 351.000
64.19590 333.000
64.21584 353.000
64.23579 376.000
64.25574 375.000
64.27568 382.000
64.29563 360.000
64.31558 384.000
64.33552 374.000
64.35547 330.000
64.37542 359.000
64.39536 346.000
64.41531 359.000
64.43526 341.000
64.45521 350.000
64.47515 330.000
64.49510 344.000
64.51505 282.000
64.53499 313.000
64.55494 296.000
64.57489 311.000
64.59483 330.000
64.61478 328.000
64.63473 277.000
64.65468 297.000
64.67462 287.000
64.69457 282.000
64.71452 254.000
64.73446 292.000
64.75441 291.000
64.77436 279.000
64.79430 259.000
64.81425 254.000
64.83420 272.000
64.85414 260.000
64.87409 259.000
64.89404 276.000
64.91399 257.000
64.93393 285.000
64.95388 263.000
64.97383 271.000
64.99377 287.000
65.01372 259.000
65.03367 241.000
65.05361 258.000
65.07356 258.000
65.09351 281.000
65.11346 273.000
65.13340 267.000
65.15335 254.000
65.17330 274.000
65.19324 288.000
65.21319 310.000
65.23314 271.000
65.25308 295.000
65.27303 310.000
65.29298 264.000
65.31293 268.000
65.33287 270.000
65.35282 244.000
65.37277 287.000
65.39271 252.000
65.41266 301.000
65.43261 306.000
65.45255 280.000
65.47250 277.000
65.49245 273.000
65.51239 297.000
65.53234 330.000
65.55229 313.000
65.57224 278.000
65.59218 302.000
65.61213 314.000
65.63208 295.000
65.65202 291.000
65.67197 298.000
65.69192 305.000
65.71186 316.000
65.73181 277.000
65.75176 290.000
65.77171 310.000
65.79165 301.000
65.81160 301.000
65.83155 274.000
65.85149 298.000
65.87144 263.000
65.89139 287.000
65.91133 312.000
65.93128 275.000
65.95123 263.000
65.97117 263.000
65.99112 284.000
66.01107 271.000
66.03102 249.000
66.05096 273.000
66.07091 277.000
66.09086 251.000
66.11080 283.000
66.13075 262.000
66.15070 260.000
66.17064 271.000
66.19059 252.000
66.21054 286.000
66.23049 271.000
66.25043 287.000
66.27038 270.000
66.29033 301.000
66.31027 295.000
66.33022 277.000
66.35017 277.000
66.37011 270.000
66.39006 284.000
66.41001 298.000
66.42995 288.000
66.44990 313.000
66.46985 310.000
66.48980 312.000
66.50974 282.000
66.52969 282.000
66.54964 299.000
66.56958 311.000
66.58953 332.000
66.60948 325.000
66.62942 318.000
66.64937 304.000
66.66932 330.000
66.68927 330.000
66.70921 312.000
66.72916 306.000
66.74911 327.000
66.76905 326.000
66.78900 290.000
66.80895 331.000
66.82889 307.000
66.84884 301.000
66.86879 322.000
66.88874 276.000
66.90868 375.000
66.92863 309.000
66.94858 285.000
66.96852 306.000
66.98847 316.000
67.00842 323.000
67.02836 291.000
67.04831 307.000
67.06826 305.000
67.08820 279.000
67.10815 252.000
67.12810 320.000
67.14805 323.000
67.16799 265.000
67.18794 284.000
67.20789 275.000
67.22783 269.000
67.24778 275.000
67.26773 291.000
67.28767 290.000
67.30762 297.000
67.32757 251.000
67.34752 262.000
67.36746 242.000
67.38741 261.000
67.40736 253.000
67.42730 240.000
67.44725 288.000
67.46720 273.000
67.48714 253.000
67.50709 269.000
67.52704 267.000
67.54698 231.000
67.56693 259.000
67.58688 233.000
67.60683 285.000
67.62677 252.000
67.64672 220.000
67.66667 267.000
67.68661 240.000
67.70656 254.000
67.72651 250.000
67.74645 256.000
67.76640 244.000
67.78635 253.000
67.80630 271.000
67.82624 241.000
67.84619 245.000
67.86614 262.000
67.88608 275.000
67.90603 248.000
67.92598 263.000
67.94592 281.000
67.96587 273.000
67.98582 244.000
68.00576 276.000
68.02571 258.000
68.04566 275.000
68.06561 269.000
68.08555 238.000
68.10550 289.000
68.12545 255.000
68.14539 283.000
68.16534 258.000
68.18529 257.000
68.20523 231.000
68.22518 244.000
68.24513 254.000
68.26508 231.000
68.28502 280.000
68.30497 248.000
68.32492 264.000
68.34486 249.000
68.36481 251.000
68.38476 264.000
68.40470 241.000
68.42465 229.000
68.44460 256.000
68.46455 258.000
68.48449 259.000
68.50444 258.000
68.52439 237.000
68.54433 240.000
68.56428 256.000
68.58423 253.000
68.60417 257.000
68.62412 246.000
68.64407 272.000
68.66401 263.000
68.68396 263.000
68.70391 246.000
68.72386 251.000
68.74380 272.000
68.76375 239.000
68.78370 276.000
68.80364 257.000
68.82359 265.000
68.84354 272.000
68.86348 258.000
68.88343 238.000
68.90338 260.000
68.92333 239.000
68.94327 254.000
68.96322 237.000
68.98317 249.000
69.00311 258.000
69.02306 259.000
69.04301 284.000
69.06295 250.000
69.08290 267.000
69.10285 237.000
69.12279 260.000
69.14274 224.000
69.16269 240.000
69.18264 268.000
69.20258 266.000
69.22253 241.000
69.24248 269.000
69.26242 214.000
69.28237 235.000
69.30232 224.000
69.32226 234.000
69.34221 244.000
69.36216 261.000
69.38211 250.000
69.40205 246.000
69.42200 232.000
69.44195 268.000
69.46189 253.000
69.48184 254.000
69.50179 272.000
69.52173 252.000
69.54168 231.000
69.56163 265.000
69.58157 239.000
69.60152 227.000
69.62147 277.000
69.64142 256.000
69.66136 257.000
69.68131 261.000
69.70126 236.000
69.72120 242.000
69.74115 251.000
69.76110 247.000
69.78104 240.000
69.80099 269.000
69.82094 228.000
69.84089 264.000
69.86083 236.000
69.88078 250.000
69.90073 255.000
69.92067 244.000
69.94062 303.000
69.96057 240.000
69.98051 269.000
70.00046 250.000
70.02041 243.000
70.04035 292.000
70.06030 238.000
70.08025 240.000
70.10020 256.000
70.12014 240.000
70.14009 242.000
70.16004 242.000
70.17998 235.000
70.19993 235.000
70.21988 275.000
70.23982 230.000
70.25977 234.000
70.27972 263.000
70.29967 272.000
70.31961 234.000
70.33956 239.000
70.35951 261.000
70.37945 260.000
70.39940 241.000
70.41935 260.000
70.43929 241.000
70.45924 248.000
70.47919 255.000
70.49914 256.000
70.51908 232.000
70.53903 273.000
70.55898 255.000
70.57892 247.000
70.59887 238.000
70.61882 232.000
70.63876 240.000
70.65871 259.000
70.67866 233.000
70.69860 258.000
70.71855 233.000
70.73850 259.000
70.75845 266.000
70.77839 262.000
70.79834 283.000
70.81829 246.000
70.83823 238.000
70.85818 269.000
70.87813 256.000
70.89807 242.000
70.91802 248.000
70.93797 242.000
70.95792 250.000
70.97786 251.000
70.99781 254.000
71.01776 229.000
71.03770 261.000
71.05765 245.000
71.07760 245.000
71.09754 236.000
71.11749 246.000
71.13744 255.000
71.15738 250.000
71.17733 234.000
71.19728 264.000
71.21723 196.000
71.23717 261.000
71.25712 252.000
71.27707 255.000
71.29701 260.000
71.31696 271.000
71.33691 257.000
71.35685 264.000
71.37680 264.000
71.39675 272.000
71.41670 264.000
71.43664 253.000
71.45659 270.000
71.47654 261.000
71.49648 274.000
71.51643 257.000
71.53638 284.000
71.55632 266.000
71.57627 232.000
71.59622 272.000
71.61616 251.000
71.63611 262.000
71.65606 264.000
71.67601 257.000
71.69595 271.000
71.71590 237.000
71.73585 234.000
71.75579 262.000
71.77574 265.000
71.79569 247.000
71.81563 230.000
71.83558 267.000
71.85553 279.000
71.87548 256.000
71.89542 229.000
71.91537 243.000
71.93532 299.000
71.95526 243.000
71.97521 263.000
71.99516 261.000
72.01510 246.000
72.03505 288.000
72.05500 238.000
72.07495 237.000
72.09489 257.000
72.11484 259.000
72.13479 244.000
72.15473 244.000
72.17468 279.000
72.19463 238.000
72.21457 247.000
72.23452 283.000
72.25447 277.000
72.27441 256.000
72.29436 255.000
72.31431 236.000
72.33426 251.000
72.35420 259.000
72.37415 238.000
72.39410 282.000
72.41404 251.000
72.43399 265.000
72.45394 254.000
72.47388 265.000
72.49383 255.000
72.51378 227.000
72.53373 245.000
72.55367 249.000
72.57362 279.000
72.59357 250.000
72.61351 291.000
72.63346 254.000
72.65341 252.000
72.67335 230.000
72.69330 244.000
72.71325 269.000
72.73319 286.000
72.75314 252.000
72.77309 248.000
72.79304 240.000
72.81298 256.000
72.83293 254.000
72.85288 269.000
72.87282 271.000
72.89277 265.000
72.91272 259.000
72.93266 299.000
72.95261 266.000
72.97256 246.000
72.99251 269.000
73.01245 284.000
73.03240 279.000
73.05235 274.000
73.07229 273.000
73.09224 257.000
73.11219 279.000
73.13213 256.000
73.15208 281.000
73.17203 280.000
73.19197 261.000
73.21192 276.000
73.23187 254.000
73.25182 264.000
73.27176 292.000
73.29171 263.000
73.31166 283.000
73.33160 255.000
73.35155 245.000
73.37150 284.000
73.39144 250.000
73.41139 302.000
73.43134 288.000
73.45129 309.000
73.47123 277.000
73.49118 294.000
73.51113 321.000
73.53107 278.000
73.55102 320.000
73.57097 309.000
73.59091 291.000
73.61086 267.000
73.63081 310.000
73.65076 267.000
73.67070 300.000
73.69065 285.000
73.71060 301.000
73.73054 295.000
73.75049 302.000
73.77044 330.000
73.79038 300.000
73.81033 292.000
73.83028 310.000
73.85022 260.000
73.87017 306.000
73.89012 284.000
73.91007 291.000
73.93001 256.000
73.94996 280.000
73.96991 259.000
73.98985 255.000
74.00980 268.000
74.02975 263.000
74.04969 267.000
74.06964 274.000
74.08959 283.000
74.10954 267.000
74.12948 267.000
74.14943 287.000
74.16938 275.000
74.18932 237.000
74.20927 260.000
74.22922 266.000
74.24916 278.000
74.26911 260.000
74.28906 243.000
74.30900 266.000
74.32895 262.000
74.34890 247.000
74.36885 253.000
74.38879 262.000
74.40874 270.000
74.42869 275.000
74.44863 285.000
74.46858 259.000
74.48853 288.000
74.50847 303.000
74.52842 287.000
74.54837 303.000
74.56832 331.000
74.58826 337.000
74.60821 319.000
74.62816 309.000
74.64810 334.000
74.66805 318.000
74.68800 335.000
74.70794 319.000
74.72789 328.000
74.74784 354.000
74.76778 352.000
74.78773 379.000
74.80768 360.000
74.82763 397.000
74.84757 465.000
74.86752 441.000
74.88747 461.000
74.90741 450.000
74.92736 518.000
74.94731 516.000
74.96725 540.000
74.98720 566.000
75.00715 595.000
75.02710 609.000
75.04704 657.000
75.06699 728.000
75.08694 738.000
75.10688 737.000
75.12683 810.000
75.14678 845.000
75.16672 876.000
75.18667 907.000
75.20662 944.000
75.22657 883.000
75.24651 912.000
75.26646 827.000
75.28641 891.000
75.30635 802.000
75.32630 757.000
75.34625 758.000
75.36619 680.000
75.38614 647.000
75.40609 622.000
75.42603 617.000
75.44598 593.000
75.46593 569.000
75.48588 566.000
75.50582 458.000
75.52577 495.000
75.54572 489.000
75.56566 411.000
75.58561 370.000
75.60556 402.000
75.62550 368.000
75.64545 336.000
75.66540 323.000
75.68535 317.000
75.70529 308.000
75.72524 319.000
75.74519 298.000
75.76513 310.000
75.78508 296.000
75.80503 286.000
75.82497 267.000
75.84492 269.000
75.86487 307.000
75.88481 309.000
75.90476 293.000
75.92471 311.000
75.94466 278.000
75.96460 293.000
75.98455 284.000
76.00450 257.000
76.02444 280.000
76.04439 231.000
76.06434 265.000
76.08428 265.000
76.10423 289.000
76.12418 266.000
76.14413 282.000
76.16407 252.000
76.18402 244.000
76.20397 261.000
76.22391 280.000
76.24386 261.000
76.26381 250.000
76.28375 260.000
76.30370 239.000
76.32365 286.000
76.34359 260.000
76.36354 270.000
76.38349 237.000
76.40344 287.000
76.42338 257.000
76.44333 264.000
76.46328 249.000
76.48322 263.000
76.50317 272.000
76.52312 233.000
76.54306 252.000
76.56301 263.000
76.58296 227.000
76.60291 268.000
76.62285 260.000
76.64280 247.000
76.66275 302.000
76.68269 270.000
76.70264 250.000
76.72259 243.000
76.74253 249.000
76.76248 249.000
76.78243 257.000
76.80238 260.000
76.82232 254.000
76.84227 248.000
76.86222 247.000
76.88216 220.000
76.90211 247.000
76.92206 268.000
76.94200 252.000
76.96195 252.000
76.98190 232.000
77.00184 279.000
77.02179 246.000
77.04174 230.000
77.06169 263.000
77.08163 286.000
77.10158 272.000
77.12153 265.000
77.14147 276.000
77.16142 286.000
77.18137 266.000
77.20131 263.000
77.22126 233.000
77.24121 231.000
77.26116 265.000
77.28110 263.000
77.30105 240.000
77.32100 295.000
77.34094 249.000
77.36089 244.000
77.38084 244.000
77.40078 253.000
77.42073 263.000
77.44068 251.000
77.46062 268.000
77.48057 240.000
77.50052 265.000
77.52047 292.000
77.54041 231.000
77.56036 260.000
77.58031 242.000
77.60025 254.000
77.62020 251.000
77.64015 230.000
77.66009 271.000
77.68004 234.000
77.69999 256.000
77.71994 273.000
77.73988 262.000
77.75983 286.000
77.77978 257.000
77.79972 259.000
77.81967 279.000
77.83962 273.000
77.85956 252.000
77.87951 280.000
77.89946 279.000
77.91940 265.000
77.93935 306.000
77.95930 284.000
77.97925 289.000
77.99919 273.000
78.01914 272.000
78.03909 265.000
78.05903 262.000
78.07898 262.000
78.09893 275.000
78.11887 286.000
78.13882 260.000
78.15877 270.000
78.17872 278.000
78.19866 274.000
78.21861 286.000
78.23856 294.000
78.25850 307.000
78.27845 301.000
78.29840 281.000
78.31834 291.000
78.33829 306.000
78.35824 311.000
78.37819 291.000
78.39813 315.000
78.41808 281.000
78.43803 294.000
78.45797 300.000
78.47792 308.000
78.49787 301.000
78.51781 308.000
78.53776 286.000
78.55771 291.000
78.57765 316.000
78.59760 315.000
78.61755 301.000
78.63750 326.000
78.65744 311.000
78.67739 309.000
78.69734 325.000
78.71728 315.000
78.73723 307.000
78.75718 326.000
78.77712 356.000
78.79707 378.000
78.81702 412.000
78.83697 396.000
78.85691 403.000
78.87686 396.000
78.89681 448.000
78.91675 464.000
78.93670 484.000
78.95665 503.000
78.97659 498.000
78.99654 494.000
79.01649 528.000
79.03643 548.000
79.05638 611.000
79.07633 594.000
79.09628 632.000
79.11622 653.000
79.13617 726.000
79.15612 685.000
79.17606 750.000
79.19601 750.000
79.21596 686.000
79.23590 712.000
79.25585 671.000
79.27580 650.000
79.29575 614.000
79.31569 578.000
79.33564 560.000
79.35559 526.000
79.37553 549.000
79.39548 509.000
79.41543 537.000
79.43537 470.000
79.45532 479.000
79.47527 457.000
79.49521 492.000
79.51516 419.000
79.53511 412.000
79.55506 371.000
79.57500 362.000
79.59495 337.000
79.61490 373.000
79.63484 319.000
79.65479 310.000
79.67474 287.000
79.69468 287.000
79.71463 247.000
79.73458 270.000
79.75453 305.000
79.77447 263.000
79.79442 250.000
79.81437 269.000
79.83431 268.000
79.85426 266.000
79.87421 281.000
79.89415 276.000
79.91410 249.000
79.93405 253.000
79.95399 253.000
79.97394 255.000
79.99389 257.000
80.01384 253.000
80.03378 281.000
80.05373 257.000
80.07368 275.000
80.09362 258.000
80.11357 271.000
80.13352 229.000
80.15346 263.000
80.17341 225.000
80.19336 246.000
80.21331 276.000
80.23325 270.000
80.25320 223.000
80.27315 231.000
80.29309 242.000
80.31304 263.000
80.33299 241.000
80.35293 226.000
80.37288 266.000
80.39283 264.000
80.41278 290.000
80.43272 253.000
80.45267 284.000
80.47262 239.000
80.49256 286.000
80.51251 239.000
80.53246 234.000
80.55240 267.000
80.57235 224.000
80.59230 247.000
80.61224 271.000
80.63219 231.000
80.65214 252.000
80.67209 262.000
80.69203 239.000
80.71198 267.000
80.73193 254.000
80.75187 254.000
80.77182 244.000
80.79177 262.000
80.81171 248.000
80.83166 237.000
80.85161 287.000
80.87156 235.000
80.89150 280.000
80.91145 233.000
80.93140 282.000
80.95134 261.000
80.97129 270.000
80.99124 253.000
81.01118 246.000
81.03113 244.000
81.05108 233.000
81.07102 271.000
81.09097 284.000
81.11092 260.000
81.13087 255.000
81.15081 237.000
81.17076 242.000
81.19071 253.000
81.21065 239.000
81.23060 262.000
81.25055 219.000
81.27049 255.000
81.29044 245.000
81.31039 261.000
81.33034 233.000
81.35028 239.000
81.37023 244.000
81.39018 239.000
81.41012 265.000
81.43007 247.000
81.45002 241.000
81.46996 244.000
81.48991 212.000
81.50986 231.000
81.52980 251.000
81.54975 263.000
81.56970 246.000
81.58965 287.000
81.60959 230.000
81.62954 263.000
81.64949 241.000
81.66943 256.000
81.68938 214.000
81.70933 256.000
81.72927 235.000
81.74922 276.000
81.76917 251.000
81.78912 234.000
81.80906 240.000
81.82901 232.000
81.84896 247.000
81.86890 230.000
81.88885 269.000
81.90880 262.000
81.92874 242.000
81.94869 243.000
81.96864 268.000
81.98859 267.000
82.00853 261.000
82.02848 218.000
82.04843 234.000
82.06837 248.000
82.08832 256.000
82.10827 266.000
82.12821 225.000
82.14816 236.000
82.16811 262.000
82.18805 254.000
82.20800 272.000
82.22795 232.000
82.24790 244.000
82.26784 222.000
82.28779 240.000
82.30774 212.000
82.32768 264.000
82.34763 273.000
82.36758 258.000
82.38752 253.000
82.40747 260.000
82.42742 242.000
82.44737 261.000
82.46731 227.000
82.48726 258.000
82.50721 279.000
82.52715 250.000
82.54710 254.000
82.56705 218.000
82.58699 280.000
82.60694 234.000
82.62689 224.000
82.64683 256.000
82.66678 249.000
82.68673 239.000
82.70668 263.000
82.72662 242.000
82.74657 249.000
82.76652 249.000
82.78646 233.000
82.80641 279.000
82.82636 244.000
82.84630 241.000
82.86625 236.000
82.88620 227.000
82.90615 230.000
82.92609 241.000
82.94604 224.000
82.96599 266.000
82.98593 286.000
83.00588 239.000
83.02583 226.000
83.04577 253.000
83.06572 252.000
83.08567 260.000
83.10561 233.000
83.12556 274.000
83.14551 280.000
83.16546 257.000
83.18540 246.000
83.20535 218.000
83.22530 218.000
83.24524 263.000
83.26519 229.000
83.28514 296.000
83.30508 248.000
83.32503 238.000
83.34498 253.000
83.36493 265.000
83.38487 265.000
83.40482 245.000
83.42477 243.000
83.44471 226.000
83.46466 243.000
83.48461 243.000
83.50455 254.000
83.52450 260.000
83.54445 262.000
83.56440 297.000
83.58434 248.000
83.60429 255.000
83.62424 264.000
83.64418 238.000
83.66413 211.000
83.68408 244.000
83.70402 247.000
83.72397 257.000
83.74392 248.000
83.76386 231.000
83.78381 228.000
83.80376 262.000
83.82371 266.000
83.84365 257.000
83.86360 252.000
83.88355 250.000
83.90349 289.000
83.92344 272.000
83.94339 271.000
83.96333 268.000
83.98328 237.000
84.00323 290.000
84.02318 247.000
84.04312 258.000
84.06307 272.000
84.08302 253.000
84.10296 250.000
84.12291 239.000
84.14286 249.000
84.16280 266.000
84.18275 239.000
84.20270 241.000
84.22264 226.000
84.24259 251.000
84.26254 239.000
84.28249 245.000
84.30243 266.000
84.32238 218.000
84.34233 252.000
84.36227 265.000
84.38222 262.000
84.40217 252.000
84.42211 288.000
84.44206 253.000
84.46201 263.000
84.48196 256.000
84.50190 267.000
84.52185 264.000
84.54180 297.000
84.56174 280.000
84.58169 259.000
84.60164 272.000
84.62158 240.000
84.64153 267.000
84.66148 297.000
84.68142 282.000
84.70137 274.000
84.72132 281.000
84.74127 272.000
84.76121 279.000
84.78116 288.000
84.80111 259.000
84.82105 266.000
84.84100 252.000
84.86095 234.000
84.88089 260.000
84.90084 278.000
84.92079 259.000
84.94074 280.000
84.96068 259.000
84.98063 264.000
85.00058 237.000
85.02052 238.000
85.04047 250.000
85.06042 257.000
85.08036 204.000
85.10031 257.000
85.12026 301.000
85.14021 252.000
85.16015 269.000
85.18010 261.000
85.20005 261.000
85.21999 262.000
85.23994 252.000
85.25989 285.000
85.27983 230.000
85.29978 214.000
85.31973 243.000
85.33967 255.000
85.35962 274.000
85.37957 277.000
85.39952 226.000
85.41946 263.000
85.43941 270.000
85.45936 250.000
85.47930 250.000
85.49925 262.000
85.51920 220.000
85.53914 245.000
85.55909 250.000
85.57904 250.000
85.59899 263.000
85.61893 258.000
85.63888 250.000
85.65883 244.000
85.67877 246.000
85.69872 234.000
85.71867 244.000
85.73861 260.000
85.75856 271.000
85.77851 243.000
85.79845 237.000
85.81840 218.000
85.83835 244.000
85.85830 249.000
85.87824 246.000
85.89819 248.000
85.91814 243.000
85.93808 231.000
85.95803 255.000
85.97798 234.000
85.99792 254.000
86.01787 239.000
86.03782 269.000
86.05777 252.000
86.07771 262.000
86.09766 235.000
86.11761 233.000
86.13755 252.000
86.15750 260.000
86.17745 257.000
86.19739 240.000
86.21734 210.000
86.23729 226.000
86.25723 231.000
86.27718 231.000
86.29713 266.000
86.31708 240.000
86.33702 240.000
86.35697 233.000
86.37692 227.000
86.39686 219.000
86.41681 247.000
86.43676 251.000
86.45670 240.000
86.47665 232.000
86.49660 256.000
86.51655 230.000
86.53649 277.000
86.55644 263.000
86.57639 241.000
86.59633 247.000
86.61628 241.000
86.63623 258.000
86.65617 216.000
86.67612 255.000
86.69607 242.000
86.71602 229.000
86.73596 264.000
86.75591 249.000
86.77586 292.000
86.79580 217.000
86.81575 279.000
86.83570 224.000
86.85564 272.000
86.87559 253.000
86.89554 240.000
86.91548 269.000
86.93543 296.000
86.95538 275.000
86.97533 247.000
86.99527 250.000
87.01522 216.000
87.03517 267.000
87.05511 261.000
87.07506 254.000
87.09501 290.000
87.11495 229.000
87.13490 289.000
87.15485 272.000
87.17480 267.000
87.19474 279.000
87.21469 287.000
87.23464 285.000
87.25458 253.000
87.27453 265.000
87.29448 287.000
87.31442 269.000
87.33437 286.000
87.35432 258.000
87.37426 255.000
87.39421 278.000
87.41416 270.000
87.43411 290.000
87.45405 264.000
87.47400 242.000
87.49395 244.000
87.51389 275.000
87.53384 275.000
87.55379 246.000
87.57373 273.000
87.59368 248.000
87.61363 263.000
87.63358 264.000
87.65352 247.000
87.67347 248.000
87.69342 255.000
87.71336 263.000
87.73331 271.000
87.75326 255.000
87.77320 248.000
87.79315 264.000
87.81310 244.000
87.83304 228.000
87.85299 260.000
87.87294 242.000
87.89289 266.000
87.91283 246.000
87.93278 223.000
87.95273 283.000
87.97267 257.000
87.99262 250.000
88.01257 238.000
88.03251 255.000
88.05246 251.000
88.07241 237.000
88.09236 241.000
88.11230 232.000
88.13225 241.000
88.15220 239.000
88.17214 263.000
88.19209 242.000
88.21204 259.000
88.23198 259.000
88.25193 297.000
88.27188 244.000
88.29183 233.000
88.31177 247.000
88.33172 225.000
88.35167 250.000
88.37161 261.000
88.39156 257.000
88.41151 249.000
88.43145 250.000
88.45140 249.000
88.47135 239.000
88.49129 266.000
88.51124 264.000
88.53119 280.000
88.55114 213.000
88.57108 239.000
88.59103 236.000
88.61098 261.000
88.63092 251.000
88.65087 274.000
88.67082 241.000
88.69076 253.000
88.71071 257.000
88.73066 247.000
88.75061 268.000
88.77055 248.000
88.79050 236.000
88.81045 256.000
88.83039 254.000
88.85034 267.000
88.87029 218.000
88.89023 256.000
88.91018 261.000
88.93013 242.000
88.95007 218.000
88.97002 230.000
88.98997 270.000
89.00992 271.000
89.02986 241.000
89.04981 282.000
89.06976 222.000
89.08970 217.000
89.10965 225.000
89.12960 256.000
89.14954 212.000
89.16949 244.000
89.18944 263.000
89.20939 246.000
89.22933 226.000
89.24928 244.000
89.26923 256.000
89.28917 237.000
89.30912 251.000
89.32907 259.000
89.34901 231.000
89.36896 241.000
89.38891 252.000
89.40885 235.000
89.42880 249.000
89.44875 233.000
89.46870 240.000
89.48864 247.000
89.50859 244.000
89.52854 239.000
89.54848 246.000
89.56843 230.000
89.58838 271.000
89.60832 275.000
89.62827 251.000
89.64822 242.000
89.66817 254.000
89.68811 246.000
89.70806 248.000
89.72801 216.000
89.74795 266.000
89.76790 256.000
89.78785 243.000
89.80779 271.000
89.82774 244.000
89.84769 240.000
89.86764 225.000
89.88758 233.000
89.90753 272.000
89.92748 239.000
89.94742 254.000
89.96737 233.000
89.98732 261.000
90.00726 262.000
