10.00000 170.000
10.01995 167.000
10.03989 146.000
10.05984 146.000
10.07979 168.000
10.09973 170.000
10.11968 161.000
10.13963 147.000
10.15958 152.000
10.17952 171.000
10.19947 140.000
10.21942 164.000
10.23936 153.000
10.25931 147.000
10.27926 169.000
10.29920 147.000
10.31915 130.000
10.33910 161.000
10.35905 153.000
10.37899 167.000
10.39894 168.000
10.41889 161.000
10.43883 155.000
10.45878 143.000
10.47873 154.000
10.49867 164.000
10.51862 145.000
10.53857 166.000
10.55851 165.000
10.57846 160.000
10.59841 177.000
10.61836 146.000
10.63830 171.000
10.65825 169.000
10.67820 152.000
10.69814 154.000
10.71809 172.000
10.73804 161.000
10.75798 173.000
10.77793 150.000
10.79788 143.000
10.81783 155.000
10.83777 131.000
10.85772 156.000
10.87767 163.000
10.89761 153.000
10.91756 149.000
10.93751 154.000
10.95745 162.000
10.97740 151.000
10.99735 148.000
11.01730 139.000
11.03724 137.000
11.05719 175.000
11.07714 140.000
11.09708 145.000
11.11703 150.000
11.13698 163.000
11.15692 146.000
11.17687 139.000
11.19682 146.000
11.21676 157.000
11.23671 159.000
11.25666 152.000
11.27661 149.000
11.29655 134.000
11.31650 172.000
11.33645 159.000
11.35639 177.000
11.37634 147.000
11.39629 157.000
11.41623 151.000
11.43618 125.000
11.45613 149.000
11.47608 143.000
11.49602 146.000
11.51597 169.000
11.53592 157.000
11.55586 161.000
11.57581 161.000
11.59576 155.000
11.61570 146.000
11.63565 156.000
11.65560 167.000
11.67554 127.000
11.69549 169.000
11.71544 176.000
11.73539 151.000
11.75533 142.000
11.77528 140.000
11.79523 165.000
11.81517 169.000
11.83512 157.000
11.85507 158.000
11.87501 129.000
11.89496 168.000
11.91491 176.000
11.93486 139.000
11.95480 158.000
11.97475 172.000
11.99470 144.000
12.01464 155.000
12.03459 157.000
12.05454 155.000
12.07448 160.000
12.09443 160.000
12.11438 157.000
12.13432 159.000
12.15427 151.000
12.17422 138.000
12.19417 156.000
12.21411 134.000
12.23406 147.000
12.25401 145.000
12.27395 147.000
12.29390 155.000
12.31385 157.000
12.33379 159.000
12.35374 172.000
12.37369 133.000
12.39364 182.000
12.41358 165.000
12.43353 159.000
12.45348 150.000
12.47342 153.000
12.49337 150.000
12.51332 178.000
12.53326 142.000
12.55321 165.000
12.57316 164.000
12.59311 150.000
12.61305 141.000
12.63300 141.000
12.65295 171.000
12.67289 142.000
12.69284 154.000
12.71279 155.000
12.73273 171.000
12.75268 151.000
12.77263 169.000
12.79257 165.000
12.81252 137.000
12.83247 149.000
12.85242 150.000
12.87236 177.000
12.89231 137.000
12.91226 130.000
12.93220 146.000
12.95215 138.000
12.97210 153.000
12.99204 151.000
13.01199 175.000
13.03194 151.000
13.05189 157.000
13.07183 132.000
13.09178 145.000
13.11173 171.000
13.13167 135.000
13.15162 150.000
13.17157 139.000
13.19151 146.000
13.21146 150.000
13.23141 151.000
13.25135 144.000
13.27130 146.000
13.29125 177.000
13.31120 174.000
13.33114 133.000
13.35109 157.000
13.37104 158.000
13.39098 153.000
13.41093 162.000
13.43088 168.000
13.45082 142.000
13.47077 146.000
13.49072 167.000
13.51067 150.000
13.53061 134.000
13.55056 166.000
13.57051 157.000
13.59045 168.000
13.61040 146.000
13.63035 164.000
13.65029 157.000
13.67024 200.000
13.69019 146.000
13.71013 154.000
13.73008 160.000
13.75003 161.000
13.76998 168.000
13.78992 147.000
13.80987 177.000
13.82982 146.000
13.84976 161.000
13.86971 185.000
13.88966 154.000
13.90960 148.000
13.92955 170.000
13.94950 144.000
13.96945 176.000
13.98939 174.000
14.00934 147.000
14.02929 162.000
14.04923 158.000
14.06918 154.000
14.08913 178.000
14.10907 157.000
14.12902 156.000
14.14897 169.000
14.16892 144.000
14.18886 155.000
14.20881 161.000
14.22876 147.000
14.24870 177.000
14.26865 156.000
14.28860 157.000
14.30854 173.000
14.32849 148.000
14.34844 180.000
14.36838 134.000
14.38833 163.000
14.40828 140.000
14.42823 161.000
14.44817 157.000
14.46812 179.000
14.48807 163.000
14.50801 165.000
14.52796 147.000
14.54791 159.000
14.56785 165.000
14.58780 174.000
14.60775 153.000
14.62770 158.000
14.64764 164.000
14.66759 140.000
14.68754 151.000
14.70748 154.000
14.72743 167.000
14.74738 147.000
14.76732 137.000
14.78727 154.000
14.80722 159.000
14.82716 166.000
14.84711 146.000
14.86706 186.000
14.88701 151.000
14.90695 158.000
14.92690 126.000
14.94685 158.000
14.96679 164.000
14.98674 175.000
15.00669 151.000
15.02663 145.000
15.04658 177.000
15.06653 140.000
15.08648 159.000
15.10642 184.000
15.12637 147.000
15.14632 156.000
15.16626 153.000
15.18621 203.000
15.20616 158.000
15.22610 171.000
15.24605 185.000
15.26600 172.000
15.28594 175.000
15.30589 168.000
15.32584 158.000
15.34579 177.000
15.36573 155.000
15.38568 161.000
15.40563 158.000
15.42557 166.000
15.44552 177.000
15.46547 170.000
15.48541 162.000
15.50536 173.000
15.52531 176.000
15.54526 177.000
15.56520 186.000
15.58515 168.000
15.60510 181.000
15.62504 181.000
15.64499 187.000
15.66494 177.000
15.68488 173.000
15.70483 204.000
15.72478 207.000
15.74472 258.000
15.76467 250.000
15.78462 217.000
15.80457 270.000
15.82451 314.000
15.84446 370.000
15.86441 434.000
15.88435 500.000
15.90430 524.000
15.92425 497.000
15.94419 393.000
15.96414 302.000
15.98409 267.000
16.00404 254.000
16.02398 251.000
16.04393 226.000
16.06388 242.000
16.08382 231.000
16.10377 266.000
16.12372 251.000
16.14366 282.000
16.16361 333.000
16.18356 329.000
16.20351 366.000
16.22345 380.000
16.24340 440.000
16.26335 432.000
16.28329 497.000
16.30324 502.000
16.32319 596.000
16.34313 650.000
16.36308 771.000
16.38303 874.000
16.40297 1019.000
16.42292 921.000
16.44287 868.000
16.46282 784.000
16.48276 624.000
16.50271 525.000
16.52266 410.000
16.54260 367.000
16.56255 308.000
16.58250 264.000
16.60244 296.000
16.62239 242.000
16.64234 230.000
16.66229 223.000
16.68223 229.000
16.70218 197.000
16.72213 196.000
16.74207 188.000
16.76202 167.000
16.78197 196.000
16.80191 192.000
16.82186 188.000
16.84181 238.000
16.86175 180.000
16.88170 187.000
16.90165 196.000
16.92160 184.000
16.94154 170.000
16.96149 204.000
16.98144 152.000
17.00138 205.000
17.02133 155.000
17.04128 172.000
17.06122 157.000
17.08117 166.000
17.10112 187.000
17.12107 169.000
17.14101 167.000
17.16096 171.000
17.18091 177.000
17.20085 177.000
17.22080 186.000
17.24075 202.000
17.26069 170.000
17.28064 178.000
17.30059 191.000
17.32053 175.000
17.34048 192.000
17.36043 152.000
17.38038 163.000
17.40032 151.000
17.42027 176.000
17.44022 177.000
17.46016 161.000
17.48011 160.000
17.50006 159.000
17.52000 149.000
17.53995 173.000
17.55990 145.000
17.57985 175.000
17.59979 169.000
17.61974 172.000
17.63969 178.000
17.65963 162.000
17.67958 178.000
17.69953 168.000
17.71947 162.000
17.73942 181.000
17.75937 153.000
17.77932 164.000
17.79926 178.000
17.81921 165.000
17.83916 160.000
17.85910 164.000
17.87905 175.000
17.89900 152.000
17.91894 167.000
17.93889 154.000
17.95884 164.000
17.97878 163.000
17.99873 151.000
18.01868 158.000
18.03863 152.000
18.05857 139.000
18.07852 159.000
18.09847 195.000
18.11841 180.000
18.13836 165.000
18.15831 186.000
18.17825 156.000
18.19820 169.000
18.21815 188.000
18.23810 153.000
18.25804 187.000
18.27799 181.000
18.29794 174.000
18.31788 211.000
18.33783 228.000
18.35778 272.000
18.37772 279.000
18.39767 452.000
18.41762 602.000
18.43756 717.000
18.45751 640.000
18.47746 574.000
18.49741 422.000
18.51735 331.000
18.53730 231.000
18.55725 204.000
18.57719 204.000
18.59714 179.000
18.61709 187.000
18.63703 174.000
18.65698 186.000
18.67693 164.000
18.69688 163.000
18.71682 176.000
18.73677 150.000
18.75672 196.000
18.77666 173.000
18.79661 154.000
18.81656 156.000
18.83650 170.000
18.85645 151.000
18.87640 170.000
18.89634 174.000
18.91629 159.000
18.93624 177.000
18.95619 155.000
18.97613 171.000
18.99608 162.000
19.01603 139.000
19.03597 155.000
19.05592 167.000
19.07587 133.000
19.09581 160.000
19.11576 154.000
19.13571 145.000
19.15566 156.000
19.17560 140.000
19.19555 171.000
19.21550 167.000
19.23544 156.000
19.25539 153.000
19.27534 155.000
19.29528 151.000
19.31523 147.000
19.33518 148.000
19.35513 148.000
19.37507 153.000
19.39502 150.000
19.41497 151.000
19.43491 150.000
19.45486 180.000
19.47481 142.000
19.49475 157.000
19.51470 161.000
19.53465 141.000
19.55459 152.000
19.57454 143.000
19.59449 156.000
19.61444 171.000
19.63438 151.000
19.65433 161.000
19.67428 151.000
19.69422 174.000
19.71417 173.000
19.73412 177.000
19.75406 167.000
19.77401 172.000
19.79396 149.000
19.81391 157.000
19.83385 143.000
19.85380 141.000
19.87375 136.000
19.89369 149.000
19.91364 175.000
19.93359 146.000
19.95353 170.000
19.97348 142.000
19.99343 156.000
20.01337 168.000
20.03332 167.000
20.05327 187.000
20.07322 172.000
20.09316 174.000
20.11311 157.000
20.13306 135.000
20.15300 157.000
20.17295 145.000
20.19290 137.000
20.21284 146.000
20.23279 161.000
20.25274 158.000
20.27269 155.000
20.29263 161.000
20.31258 159.000
20.33253 178.000
20.35247 162.000
20.37242 161.000
20.39237 152.000
20.41231 159.000
20.43226 159.000
20.45221 138.000
20.47215 152.000
20.49210 155.000
20.51205 148.000
20.53200 161.000
20.55194 164.000
20.57189 175.000
20.59184 155.000
20.61178 158.000
20.63173 135.000
20.65168 174.000
20.67162 166.000
20.69157 144.000
20.71152 136.000
20.73147 171.000
20.75141 156.000
20.77136 140.000
20.79131 152.000
20.81125 168.000
20.83120 140.000
20.85115 193.000
20.87109 185.000
20.89104 186.000
20.91099 180.000
20.93094 188.000
20.95088 192.000
20.97083 198.000
20.99078 216.000
21.01072 216.000
21.03067 244.000
21.05062 258.000
21.07056 254.000
21.09051 251.000
21.11046 239.000
21.13040 217.000
21.15035 202.000
21.17030 204.000
21.19025 178.000
21.21019 165.000
21.23014 157.000
21.25009 159.000
21.27003 152.000
21.28998 169.000
21.30993 158.000
21.32987 142.000
21.34982 172.000
21.36977 135.000
21.38972 171.000
21.40966 143.000
21.42961 161.000
21.44956 137.000
21.46950 172.000
21.48945 159.000
21.50940 163.000
21.52934 169.000
21.54929 133.000
21.56924 155.000
21.58918 156.000
21.60913 160.000
21.62908 147.000
21.64903 156.000
21.66897 158.000
21.68892 184.000
21.70887 139.000
21.72881 169.000
21.74876 158.000
21.76871 153.000
21.78865 148.000
21.80860 147.000
21.82855 155.000
21.84850 150.000
21.86844 185.000
21.88839 150.000
21.90834 153.000
21.92828 159.000
21.94823 175.000
21.96818 171.000
21.98812 163.000
22.00807 157.000
22.02802 146.000
22.04796 159.000
22.06791 132.000
22.08786 160.000
22.10781 149.000
22.12775 158.000
22.14770 147.000
22.16765 173.000
22.18759 143.000
22.20754 152.000
22.22749 168.000
22.24743 137.000
22.26738 149.000
22.28733 184.000
22.30728 154.000
22.32722 145.000
22.34717 152.000
22.36712 154.000
22.38706 168.000
22.40701 162.000
22.42696 159.000
22.44690 164.000
22.46685 153.000
22.48680 177.000
22.50675 164.000
22.52669 162.000
22.54664 166.000
22.56659 144.000
22.58653 127.000
22.60648 176.000
22.62643 170.000
22.64637 156.000
22.66632 166.000
22.68627 152.000
22.70621 137.000
22.72616 166.000
22.74611 144.000
22.76606 139.000
22.78600 165.000
22.80595 159.000
22.82590 148.000
22.84584 160.000
22.86579 126.000
22.88574 153.000
22.90568 146.000
22.92563 135.000
22.94558 146.000
22.96553 146.000
22.98547 139.000
23.00542 160.000
23.02537 149.000
23.04531 153.000
23.06526 154.000
23.08521 180.000
23.10515 162.000
23.12510 167.000
23.14505 141.000
23.16499 139.000
23.18494 157.000
23.20489 158.000
23.22484 138.000
23.24478 168.000
23.26473 159.000
23.28468 156.000
23.30462 149.000
23.32457 162.000
23.34452 161.000
23.36446 140.000
23.38441 142.000
23.40436 151.000
23.42431 133.000
23.44425 130.000
23.46420 132.000
23.48415 161.000
23.50409 149.000
23.52404 148.000
23.54399 158.000
23.56393 134.000
23.58388 157.000
23.60383 157.000
23.62377 194.000
23.64372 167.000
23.66367 138.000
23.68362 137.000
23.70356 147.000
23.72351 146.000
23.74346 159.000
23.76340 131.000
23.78335 166.000
23.80330 168.000
23.82324 128.000
23.84319 150.000
23.86314 168.000
23.88309 160.000
23.90303 146.000
23.92298 150.000
23.94293 133.000
23.96287 142.000
23.98282 147.000
24.00277 185.000
24.02271 155.000
24.04266 164.000
24.06261 171.000
24.08256 143.000
24.10250 163.000
24.12245 154.000
24.14240 155.000
24.16234 167.000
24.18229 156.000
24.20224 161.000
24.22218 162.000
24.24213 137.000
24.26208 165.000
24.28202 165.000
24.30197 156.000
24.32192 183.000
24.34187 146.000
24.36181 143.000
24.38176 156.000
24.40171 152.000
24.42165 177.000
24.44160 144.000
24.46155 147.000
24.48149 150.000
24.50144 124.000
24.52139 159.000
24.54134 150.000
24.56128 154.000
24.58123 177.000
24.60118 157.000
24.62112 129.000
24.64107 162.000
24.66102 143.000
24.68096 135.000
24.70091 158.000
24.72086 170.000
24.74080 137.000
24.76075 158.000
24.78070 165.000
24.80065 152.000
24.82059 183.000
24.84054 146.000
24.86049 147.000
24.88043 170.000
24.90038 174.000
24.92033 142.000
24.94027 167.000
24.96022 149.000
24.98017 160.000
25.00012 172.000
25.02006 176.000
25.04001 180.000
25.05996 155.000
25.07990 136.000
25.09985 154.000
25.11980 175.000
25.13974 157.000
25.15969 164.000
25.17964 168.000
25.19958 164.000
25.21953 170.000
25.23948 190.000
25.25943 147.000
25.27937 142.000
25.29932 165.000
25.31927 164.000
25.33921 160.000
25.35916 172.000
25.37911 163.000
25.39905 165.000
25.41900 184.000
25.43895 155.000
25.45890 160.000
25.47884 134.000
25.49879 142.000
25.51874 175.000
25.53868 158.000
25.55863 157.000
25.57858 150.000
25.59852 163.000
25.61847 173.000
25.63842 153.000
25.65837 149.000
25.67831 147.000
25.69826 174.000
25.71821 165.000
25.73815 167.000
25.75810 156.000
25.77805 149.000
25.79799 162.000
25.81794 155.000
25.83789 142.000
25.85783 158.000
25.87778 152.000
25.89773 166.000
25.91768 150.000
25.93762 172.000
25.95757 171.000
25.97752 161.000
25.99746 131.000
26.01741 154.000
26.03736 163.000
26.05730 173.000
26.07725 144.000
26.09720 141.000
26.11715 153.000
26.13709 144.000
26.15704 173.000
26.17699 164.000
26.19693 158.000
26.21688 146.000
26.23683 182.000
26.25677 154.000
26.27672 138.000
26.29667 189.000
26.31661 160.000
26.33656 160.000
26.35651 124.000
26.37646 153.000
26.39640 151.000
26.41635 173.000
26.43630 147.000
26.45624 155.000
26.47619 142.000
26.49614 176.000
26.51608 157.000
26.53603 172.000
26.55598 153.000
26.57593 161.000
26.59587 170.000
26.61582 150.000
26.63577 170.000
26.65571 171.000
26.67566 145.000
26.69561 163.000
26.71555 171.000
26.73550 160.000
26.75545 161.000
26.77539 170.000
26.79534 132.000
26.81529 166.000
26.83524 158.000
26.85518 137.000
26.87513 158.000
26.89508 154.000
26.91502 162.000
26.93497 153.000
26.95492 163.000
26.97486 153.000
26.99481 149.000
27.01476 158.000
27.03471 165.000
27.05465 155.000
27.07460 157.000
27.09455 165.000
27.11449 148.000
27.13444 158.000
27.15439 165.000
27.17433 172.000
27.19428 146.000
27.21423 131.000
27.23417 156.000
27.25412 171.000
27.27407 168.000
27.29402 154.000
27.31396 147.000
27.33391 192.000
27.35386 161.000
27.37380 146.000
27.39375 163.000
27.41370 159.000
27.43364 170.000
27.45359 138.000
27.47354 147.000
27.49349 161.000
27.51343 157.000
27.53338 162.000
27.55333 158.000
27.57327 155.000
27.59322 165.000
27.61317 160.000
27.63311 147.000
27.65306 179.000
27.67301 139.000
27.69296 145.000
27.71290 147.000
27.73285 176.000
27.75280 178.000
27.77274 156.000
27.79269 167.000
27.81264 179.000
27.83258 162.000
27.85253 164.000
27.87248 179.000
27.89242 170.000
27.91237 158.000
27.93232 185.000
27.95227 156.000
27.97221 154.000
27.99216 160.000
28.01211 158.000
28.03205 133.000
28.05200 159.000
28.07195 137.000
28.09189 146.000
28.11184 184.000
28.13179 165.000
28.15174 186.000
28.17168 162.000
28.19163 150.000
28.21158 164.000
28.23152 158.000
28.25147 169.000
28.27142 156.000
28.29136 143.000
28.31131 166.000
28.33126 157.000
28.35120 134.000
28.37115 158.000
28.39110 152.000
28.41105 175.000
28.43099 166.000
28.45094 155.000
28.47089 178.000
28.49083 169.000
28.51078 146.000
28.53073 169.000
28.55067 158.000
28.57062 147.000
28.59057 145.000
28.61052 164.000
28.63046 154.000
28.65041 177.000
28.67036 156.000
28.69030 172.000
28.71025 175.000
28.73020 150.000
28.75014 166.000
28.77009 165.000
28.79004 158.000
28.80998 167.000
28.82993 167.000
28.84988 160.000
28.86983 163.000
28.88977 150.000
28.90972 169.000
28.92967 161.000
28.94961 174.000
28.96956 181.000
28.98951 157.000
29.00945 165.000
29.02940 166.000
29.04935 182.000
29.06930 174.000
29.08924 170.000
29.10919 182.000
29.12914 168.000
29.14908 164.000
29.16903 163.000
29.18898 172.000
29.20892 181.000
29.22887 172.000
29.24882 167.000
29.26877 183.000
29.28871 191.000
29.30866 197.000
29.32861 201.000
29.34855 191.000
29.36850 202.000
29.38845 207.000
29.40839 246.000
29.42834 204.000
29.44829 204.000
29.46823 234.000
29.48818 215.000
29.50813 197.000
29.52808 192.000
29.54802 194.000
29.56797 184.000
29.58792 181.000
29.60786 166.000
29.62781 188.000
29.64776 200.000
29.66770 162.000
29.68765 197.000
29.70760 153.000
29.72755 166.000
29.74749 172.000
29.76744 217.000
29.78739 163.000
29.80733 175.000
29.82728 170.000
29.84723 187.000
29.86717 181.000
29.88712 190.000
29.90707 169.000
29.92701 218.000
29.94696 185.000
29.96691 191.000
29.98686 185.000
30.00680 189.000
30.02675 192.000
30.04670 197.000
30.06664 205.000
30.08659 188.000
30.10654 236.000
30.12648 235.000
30.14643 252.000
30.16638 324.000
30.18633 322.000
30.20627 358.000
30.22622 418.000
30.24617 593.000
30.26611 717.000
30.28606 1019.000
30.30601 1249.000
30.32595 1364.000
30.34590 1157.000
30.36585 1039.000
30.38579 956.000
30.40574 801.000
30.42569 651.000
30.44564 466.000
30.46558 357.000
30.48553 317.000
30.50548 295.000
30.52542 263.000
30.54537 213.000
30.56532 212.000
30.58526 211.000
30.60521 215.000
30.62516 171.000
30.64511 197.000
30.66505 176.000
30.68500 187.000
30.70495 178.000
30.72489 192.000
30.74484 183.000
30.76479 172.000
30.78473 197.000
30.80468 171.000
30.82463 159.000
30.84458 170.000
30.86452 181.000
30.88447 192.000
30.90442 185.000
30.92436 176.000
30.94431 184.000
30.96426 155.000
30.98420 148.000
31.00415 184.000
31.02410 171.000
31.04404 169.000
31.06399 172.000
31.08394 185.000
31.10389 160.000
31.12383 184.000
31.14378 173.000
31.16373 146.000
31.18367 177.000
31.20362 162.000
31.22357 164.000
31.24351 206.000
31.26346 153.000
31.28341 181.000
31.30336 178.000
31.32330 179.000
31.34325 166.000
31.36320 176.000
31.38314 191.000
31.40309 178.000
31.42304 158.000
31.44298 188.000
31.46293 178.000
31.48288 181.000
31.50282 174.000
31.52277 191.000
31.54272 154.000
31.56267 184.000
31.58261 168.000
31.60256 172.000
31.62251 168.000
31.64245 149.000
31.66240 174.000
31.68235 182.000
31.70229 160.000
31.72224 189.000
31.74219 174.000
31.76214 175.000
31.78208 155.000
31.80203 172.000
31.82198 175.000
31.84192 152.000
31.86187 171.000
31.88182 186.000
31.90176 174.000
31.92171 186.000
31.94166 187.000
31.96160 163.000
31.98155 156.000
32.00150 188.000
32.02145 186.000
32.04139 170.000
32.06134 190.000
32.08129 153.000
32.10123 192.000
32.12118 185.000
32.14113 179.000
32.16107 181.000
32.18102 212.000
32.20097 192.000
32.22092 172.000
32.24086 175.000
32.26081 176.000
32.28076 160.000
32.30070 166.000
32.32065 164.000
32.34060 177.000
32.36054 175.000
32.38049 164.000
32.40044 146.000
32.42039 171.000
32.44033 163.000
32.46028 148.000
32.48023 163.000
32.50017 161.000
32.52012 180.000
32.54007 187.000
32.56001 187.000
32.57996 176.000
32.59991 175.000
32.61985 171.000
32.63980 171.000
32.65975 196.000
32.67970 181.000
32.69964 187.000
32.71959 177.000
32.73954 192.000
32.75948 204.000
32.77943 187.000
32.79938 166.000
32.81932 179.000
32.83927 193.000
32.85922 188.000
32.87917 171.000
32.89911 176.000
32.91906 180.000
32.93901 184.000
32.95895 210.000
32.97890 172.000
32.99885 220.000
33.01879 209.000
33.03874 195.000
33.05869 221.000
33.07863 220.000
33.09858 214.000
33.11853 217.000
33.13848 254.000
33.15842 235.000
33.17837 265.000
33.19832 232.000
33.21826 229.000
33.23821 235.000
33.25816 238.000
33.27810 218.000
33.29805 217.000
33.31800 209.000
33.33795 200.000
33.35789 213.000
33.37784 188.000
33.39779 178.000
33.41773 191.000
33.43768 219.000
33.45763 157.000
33.47757 196.000
33.49752 191.000
33.51747 177.000
33.53741 155.000
33.55736 152.000
33.57731 199.000
33.59726 173.000
33.61720 190.000
33.63715 197.000
33.65710 193.000
33.67704 186.000
33.69699 174.000
33.71694 190.000
33.73688 175.000
33.75683 173.000
33.77678 172.000
33.79673 152.000
33.81667 176.000
33.83662 161.000
33.85657 193.000
33.87651 163.000
33.89646 188.000
33.91641 184.000
33.93635 198.000
33.95630 169.000
33.97625 174.000
33.99620 176.000
34.01614 177.000
34.03609 185.000
34.05604 177.000
34.07598 183.000
34.09593 173.000
34.11588 179.000
34.13582 197.000
34.15577 188.000
34.17572 204.000
34.19566 186.000
34.21561 168.000
34.23556 186.000
34.25551 184.000
34.27545 173.000
34.29540 192.000
34.31535 198.000
34.33529 196.000
34.35524 196.000
34.37519 215.000
34.39513 213.000
34.41508 219.000
34.43503 231.000
34.45498 237.000
34.47492 208.000
34.49487 244.000
34.51482 244.000
34.53476 236.000
34.55471 251.000
34.57466 212.000
34.59460 242.000
34.61455 241.000
34.63450 278.000
34.65444 255.000
34.67439 294.000
34.69434 245.000
34.71429 277.000
34.73423 255.000
34.75418 264.000
34.77413 238.000
34.79407 255.000
34.81402 275.000
34.83397 262.000
34.85391 244.000
34.87386 286.000
34.89381 268.000
34.91376 242.000
34.93370 242.000
34.95365 273.000
34.97360 247.000
34.99354 264.000
35.01349 270.000
35.03344 247.000
35.05338 248.000
35.07333 254.000
35.09328 286.000
35.11322 269.000
35.13317 293.000
35.15312 285.000
35.17307 304.000
35.19301 321.000
35.21296 313.000
35.23291 275.000
35.25285 344.000
35.27280 351.000
35.29275 370.000
35.31269 361.000
35.33264 352.000
35.35259 347.000
35.37254 381.000
35.39248 393.000
35.41243 387.000
35.43238 418.000
35.45232 417.000
35.47227 451.000
35.49222 473.000
35.51216 518.000
35.53211 592.000
35.55206 686.000
35.57201 735.000
35.59195 882.000
35.61190 1187.000
35.63185 1538.000
35.65179 2112.000
35.67174 2744.000
35.69169 3403.000
35.71163 3444.000
35.73158 3220.000
35.75153 2898.000
35.77147 2716.000
35.79142 2606.000
35.81137 2292.000
35.83132 1798.000
35.85126 1323.000
35.87121 1032.000
35.89116 786.000
35.91110 659.000
35.93105 537.000
35.95100 450.000
35.97094 415.000
35.99089 359.000
36.01084 345.000
36.03079 350.000
36.05073 341.000
36.07068 338.000
36.09063 299.000
36.11057 275.000
36.13052 284.000
36.15047 269.000
36.17041 265.000
36.19036 239.000
36.21031 243.000
36.23025 259.000
36.25020 252.000
36.27015 271.000
36.29010 269.000
36.31004 296.000
36.32999 267.000
36.34994 273.000
36.36988 319.000
36.38983 311.000
36.40978 346.000
36.42972 341.000
36.44967 391.000
36.46962 377.000
36.48957 387.000
36.50951 402.000
36.52946 427.000
36.54941 402.000
36.56935 406.000
36.58930 416.000
36.60925 476.000
36.62919 398.000
36.64914 393.000
36.66909 404.000
36.68903 404.000
36.70898 403.000
36.72893 444.000
36.74888 368.000
36.76882 416.000
36.78877 392.000
36.80872 413.000
36.82866 435.000
36.84861 463.000
36.86856 477.000
36.88850 538.000
36.90845 611.000
36.92840 629.000
36.94835 674.000
36.96829 675.000
36.98824 755.000
37.00819 757.000
37.02813 692.000
37.04808 709.000
37.06803 773.000
37.08797 792.000
37.10792 790.000
37.12787 785.000
37.14781 793.000
37.16776 792.000
37.18771 807.000
37.20766 679.000
37.22760 659.000
37.24755 621.000
37.26750 586.000
37.28744 530.000
37.30739 583.000
37.32734 612.000
37.34728 599.000
37.36723 547.000
37.38718 498.000
37.40713 429.000
37.42707 361.000
37.44702 427.000
37.46697 348.000
37.48691 306.000
37.50686 284.000
37.52681 241.000
37.54675 248.000
37.56670 216.000
37.58665 237.000
37.60660 218.000
37.62654 224.000
37.64649 194.000
37.66644 226.000
37.68638 205.000
37.70633 200.000
37.72628 180.000
37.74622 208.000
37.76617 188.000
37.78612 209.000
37.80606 208.000
37.82601 192.000
37.84596 199.000
37.86591 196.000
37.88585 192.000
37.90580 185.000
37.92575 181.000
37.94569 220.000
37.96564 195.000
37.98559 182.000
38.00553 187.000
38.02548 172.000
38.04543 211.000
38.06538 188.000
38.08532 192.000
38.10527 189.000
38.12522 183.000
38.14516 197.000
38.16511 176.000
38.18506 197.000
38.20500 185.000
38.22495 206.000
38.24490 164.000
38.26484 194.000
38.28479 207.000
38.30474 172.000
38.32469 195.000
38.34463 158.000
38.36458 161.000
38.38453 169.000
38.40447 188.000
38.42442 191.000
38.44437 200.000
38.46431 168.000
38.48426 188.000
38.50421 179.000
38.52416 193.000
38.54410 157.000
38.56405 171.000
38.58400 194.000
38.60394 166.000
38.62389 207.000
38.64384 182.000
38.66378 199.000
38.68373 188.000
38.70368 193.000
38.72362 198.000
38.74357 194.000
38.76352 173.000
38.78347 213.000
38.80341 202.000
38.82336 191.000
38.84331 200.000
38.86325 176.000
38.88320 179.000
38.90315 203.000
38.92309 196.000
38.94304 193.000
38.96299 210.000
38.98294 197.000
39.00288 217.000
39.02283 171.000
39.04278 204.000
39.06272 190.000
39.08267 199.000
39.10262 196.000
39.12256 208.000
39.14251 209.000
39.16246 190.000
39.18241 212.000
39.20235 214.000
39.22230 198.000
39.24225 221.000
39.26219 225.000
39.28214 219.000
39.30209 230.000
39.32203 217.000
39.34198 228.000
39.36193 205.000
39.38187 184.000
39.40182 214.000
39.42177 207.000
39.44172 205.000
39.46166 180.000
39.48161 187.000
39.50156 172.000
39.52150 195.000
39.54145 177.000
39.56140 197.000
39.58134 168.000
39.60129 169.000
39.62124 184.000
39.64119 190.000
39.66113 170.000
39.68108 200.000
39.70103 187.000
39.72097 184.000
39.74092 158.000
39.76087 190.000
39.78081 201.000
39.80076 168.000
39.82071 172.000
39.84065 194.000
39.86060 165.000
39.88055 199.000
39.90050 172.000
39.92044 170.000
39.94039 177.000
39.96034 182.000
39.98028 185.000
40.00023 172.000
40.02018 175.000
40.04012 170.000
40.06007 183.000
40.08002 185.000
40.09997 172.000
40.11991 201.000
40.13986 170.000
40.15981 165.000
40.17975 201.000
40.19970 164.000
40.21965 190.000
40.23959 169.000
40.25954 196.000
40.27949 181.000
40.29943 159.000
40.31938 175.000
40.33933 193.000
40.35928 158.000
40.37922 160.000
40.39917 198.000
40.41912 218.000
40.43906 177.000
40.45901 168.000
40.47896 181.000
40.49890 169.000
40.51885 161.000
40.53880 187.000
40.55875 198.000
40.57869 194.000
40.59864 185.000
40.61859 188.000
40.63853 176.000
40.65848 174.000
40.67843 142.000
40.69837 186.000
40.71832 181.000
40.73827 207.000
40.75822 185.000
40.77816 191.000
40.79811 166.000
40.81806 208.000
40.83800 195.000
40.85795 179.000
40.87790 197.000
40.89784 182.000
40.91779 174.000
40.93774 218.000
40.95768 199.000
40.97763 199.000
40.99758 187.000
41.01753 193.000
41.03747 192.000
41.05742 206.000
41.07737 184.000
41.09731 194.000
41.11726 208.000
41.13721 243.000
41.15715 225.000
41.17710 232.000
41.19705 212.000
41.21700 243.000
41.23694 254.000
41.25689 278.000
41.27684 241.000
41.29678 270.000
41.31673 291.000
41.33668 320.000
41.35662 330.000
41.37657 374.000
41.39652 421.000
41.41646 526.000
41.43641 597.000
41.45636 663.000
41.47631 667.000
41.49625 783.000
41.51620 787.000
41.53615 746.000
41.55609 810.000
41.57604 698.000
41.59599 691.000
41.61593 693.000
41.63588 665.000
41.65583 595.000
41.67578 542.000
41.69572 478.000
41.71567 527.000
41.73562 474.000
41.75556 439.000
41.77551 432.000
41.79546 452.000
41.81540 431.000
41.83535 394.000
41.85530 376.000
41.87524 395.000
41.89519 363.000
41.91514 363.000
41.93509 369.000
41.95503 322.000
41.97498 312.000
41.99493 355.000
42.01487 340.000
42.03482 298.000
42.05477 297.000
42.07471 268.000
42.09466 255.000
42.11461 214.000
42.13456 242.000
42.15450 231.000
42.17445 249.000
42.19440 238.000
42.21434 232.000
42.23429 245.000
42.25424 205.000
42.27418 232.000
42.29413 228.000
42.31408 232.000
42.33403 262.000
42.35397 248.000
42.37392 230.000
42.39387 232.000
42.41381 241.000
42.43376 224.000
42.45371 274.000
42.47365 264.000
42.49360 252.000
42.51355 263.000
42.53349 277.000
42.55344 291.000
42.57339 278.000
42.59334 296.000
42.61328 315.000
42.63323 292.000
42.65318 301.000
42.67312 319.000
42.69307 339.000
42.71302 353.000
42.73296 361.000
42.75291 342.000
42.77286 399.000
42.79281 434.000
42.81275 494.000
42.83270 488.000
42.85265 469.000
42.87259 579.000
42.89254 517.000
42.91249 570.000
42.93243 621.000
42.95238 648.000
42.97233 709.000
42.99227 711.000
43.01222 726.000
43.03217 753.000
43.05212 757.000
43.07206 822.000
43.09201 834.000
43.11196 817.000
43.13190 856.000
43.15185 895.000
43.17180 916.000
43.19174 959.000
43.21169 896.000
43.23164 957.000
43.25159 910.000
43.27153 880.000
43.29148 893.000
43.31143 970.000
43.33137 970.000
43.35132 1019.000
43.37127 1076.000
43.39121 1089.000
43.41116 968.000
43.43111 916.000
43.45105 850.000
43.47100 760.000
43.49095 793.000
43.51090 770.000
43.53084 660.000
43.55079 570.000
43.57074 497.000
43.59068 445.000
43.61063 385.000
43.63058 365.000
43.65052 322.000
43.67047 341.000
43.69042 313.000
43.71037 293.000
43.73031 270.000
43.75026 251.000
43.77021 264.000
43.79015 226.000
43.81010 201.000
43.83005 240.000
43.84999 227.000
43.86994 213.000
43.88989 221.000
43.90984 207.000
43.92978 217.000
43.94973 199.000
43.96968 196.000
43.98962 211.000
44.00957 161.000
44.02952 235.000
44.04946 185.000
44.06941 199.000
44.08936 204.000
44.10930 204.000
44.12925 184.000
44.14920 195.000
44.16915 186.000
44.18909 177.000
44.20904 182.000
44.22899 204.000
44.24893 180.000
44.26888 190.000
44.28883 190.000
44.30877 173.000
44.32872 175.000
44.34867 203.000
44.36862 175.000
44.38856 204.000
44.40851 194.000
44.42846 220.000
44.44840 191.000
44.46835 194.000
44.48830 178.000
44.50824 169.000
44.52819 163.000
44.54814 169.000
44.56808 166.000
44.58803 180.000
44.60798 169.000
44.62793 193.000
44.64787 172.000
44.66782 193.000
44.68777 154.000
44.70771 176.000
44.72766 183.000
44.74761 176.000
44.76755 201.000
44.78750 189.000
44.80745 183.000
44.82740 170.000
44.84734 190.000
44.86729 172.000
44.88724 194.000
44.90718 205.000
44.92713 200.000
44.94708 179.000
44.96702 185.000
44.98697 199.000
45.00692 208.000
45.02686 194.000
45.04681 183.000
45.06676 196.000
45.08671 180.000
45.10665 186.000
45.12660 178.000
45.14655 135.000
45.16649 181.000
45.18644 206.000
45.20639 166.000
45.22633 161.000
45.24628 155.000
45.26623 163.000
45.28618 170.000
45.30612 169.000
45.32607 192.000
45.34602 194.000
45.36596 181.000
45.38591 190.000
45.40586 176.000
45.42580 171.000
45.44575 194.000
45.46570 169.000
45.48565 178.000
45.50559 174.000
45.52554 166.000
45.54549 178.000
45.56543 166.000
45.58538 169.000
45.60533 185.000
45.62527 160.000
45.64522 204.000
45.66517 163.000
45.68511 181.000
45.70506 150.000
45.72501 158.000
45.74496 163.000
45.76490 139.000
45.78485 178.000
45.80480 163.000
45.82474 154.000
45.84469 150.000
45.86464 151.000
45.88458 171.000
45.90453 135.000
45.92448 158.000
45.94443 129.000
45.96437 158.000
45.98432 174.000
46.00427 166.000
46.02421 188.000
46.04416 151.000
46.06411 162.000
46.08405 151.000
46.10400 179.000
46.12395 140.000
46.14389 147.000
46.16384 153.000
46.18379 183.000
46.20374 178.000
46.22368 182.000
46.24363 147.000
46.26358 161.000
46.28352 160.000
46.30347 166.000
46.32342 148.000
46.34336 170.000
46.36331 178.000
46.38326 141.000
46.40321 182.000
46.42315 146.000
46.44310 163.000
46.46305 152.000
46.48299 167.000
46.50294 155.000
46.52289 156.000
46.54283 162.000
46.56278 162.000
46.58273 179.000
46.60267 184.000
46.62262 160.000
46.64257 171.000
46.66252 144.000
46.68246 171.000
46.70241 188.000
46.72236 175.000
46.74230 156.000
46.76225 163.000
46.78220 172.000
46.80214 148.000
46.82209 158.000
46.84204 164.000
46.86199 185.000
46.88193 140.000
46.90188 157.000
46.92183 144.000
46.94177 158.000
46.96172 160.000
46.98167 154.000
47.00161 151.000
47.02156 161.000
47.04151 148.000
47.06146 182.000
47.08140 172.000
47.10135 141.000
47.12130 166.000
47.14124 160.000
47.16119 172.000
47.18114 155.000
47.20108 178.000
47.22103 158.000
47.24098 161.000
47.26092 170.000
47.28087 172.000
47.30082 168.000
47.32077 126.000
47.34071 177.000
47.36066 154.000
47.38061 173.000
47.40055 185.000
47.42050 183.000
47.44045 186.000
47.46039 180.000
47.48034 189.000
47.50029 182.000
47.52024 166.000
47.54018 177.000
47.56013 157.000
47.58008 184.000
47.60002 185.000
47.61997 197.000
47.63992 181.000
47.65986 183.000
47.67981 160.000
47.69976 155.000
47.71970 162.000
47.73965 162.000
47.75960 166.000
47.77955 164.000
47.79949 178.000
47.81944 160.000
47.83939 184.000
47.85933 159.000
47.87928 179.000
47.89923 164.000
47.91917 161.000
47.93912 185.000
47.95907 196.000
47.97902 158.000
47.99896 167.000
48.01891 161.000
48.03886 170.000
48.05880 173.000
48.07875 154.000
48.09870 168.000
48.11864 157.000
48.13859 202.000
48.15854 194.000
48.17848 145.000
48.19843 176.000
48.21838 184.000
48.23833 167.000
48.25827 167.000
48.27822 156.000
48.29817 195.000
48.31811 154.000
48.33806 181.000
48.35801 157.000
48.37795 167.000
48.39790 154.000
48.41785 165.000
48.43780 151.000
48.45774 177.000
48.47769 177.000
48.49764 201.000
48.51758 172.000
48.53753 182.000
48.55748 161.000
48.57742 166.000
48.59737 154.000
48.61732 161.000
48.63726 184.000
48.65721 209.000
48.67716 199.000
48.69711 172.000
48.71705 184.000
48.73700 202.000
48.75695 172.000
48.77689 188.000
48.79684 182.000
48.81679 207.000
48.83673 203.000
48.85668 165.000
48.87663 206.000
48.89658 210.000
48.91652 197.000
48.93647 165.000
48.95642 179.000
48.97636 167.000
48.99631 167.000
49.01626 180.000
49.03620 150.000
49.05615 159.000
49.07610 154.000
49.09605 173.000
49.11599 165.000
49.13594 155.000
49.15589 185.000
49.17583 160.000
49.19578 162.000
49.21573 158.000
49.23567 143.000
49.25562 165.000
49.27557 160.000
49.29551 169.000
49.31546 180.000
49.33541 174.000
49.35536 167.000
49.37530 164.000
49.39525 161.000
49.41520 165.000
49.43514 166.000
49.45509 168.000
49.47504 164.000
49.49498 175.000
49.51493 179.000
49.53488 163.000
49.55483 144.000
49.57477 182.000
49.59472 139.000
49.61467 125.000
49.63461 165.000
49.65456 151.000
49.67451 144.000
49.69445 150.000
49.71440 170.000
49.73435 168.000
49.75429 155.000
49.77424 151.000
49.79419 162.000
49.81414 170.000
49.83408 163.000
49.85403 139.000
49.87398 157.000
49.89392 163.000
49.91387 154.000
49.93382 160.000
49.95376 153.000
49.97371 176.000
49.99366 131.000
50.01361 167.000
50.03355 163.000
50.05350 161.000
50.07345 179.000
50.09339 159.000
50.11334 150.000
50.13329 159.000
50.15323 179.000
50.17318 130.000
50.19313 190.000
50.21307 165.000
50.23302 166.000
50.25297 152.000
50.27292 186.000
50.29286 154.000
50.31281 159.000
50.33276 144.000
50.35270 151.000
50.37265 146.000
50.39260 170.000
50.41254 159.000
50.43249 172.000
50.45244 184.000
50.47239 178.000
50.49233 162.000
50.51228 157.000
50.53223 133.000
50.55217 163.000
50.57212 130.000
50.59207 181.000
50.61201 156.000
50.63196 133.000
50.65191 149.000
50.67186 150.000
50.69180 175.000
50.71175 161.000
50.73170 153.000
50.75164 142.000
50.77159 177.000
50.79154 165.000
50.81148 158.000
50.83143 139.000
50.85138 171.000
50.87132 172.000
50.89127 151.000
50.91122 166.000
50.93117 170.000
50.95111 155.000
50.97106 150.000
50.99101 160.000
51.01095 153.000
51.03090 159.000
51.05085 183.000
51.07079 147.000
51.09074 144.000
51.11069 156.000
51.13064 141.000
51.15058 160.000
51.17053 146.000
51.19048 147.000
51.21042 169.000
51.23037 167.000
51.25032 150.000
51.27026 165.000
51.29021 136.000
51.31016 159.000
51.33010 156.000
51.35005 147.000
51.37000 157.000
51.38995 167.000
51.40989 150.000
51.42984 158.000
51.44979 171.000
51.46973 153.000
51.48968 149.000
51.50963 168.000
51.52957 161.000
51.54952 168.000
51.56947 177.000
51.58942 155.000
51.60936 147.000
51.62931 178.000
51.64926 147.000
51.66920 157.000
51.68915 172.000
51.70910 156.000
51.72904 184.000
51.74899 158.000
51.76894 148.000
51.78888 159.000
51.80883 156.000
51.82878 146.000
51.84873 176.000
51.86867 145.000
51.88862 144.000
51.90857 160.000
51.92851 160.000
51.94846 156.000
51.96841 176.000
51.98835 181.000
52.00830 131.000
52.02825 170.000
52.04820 154.000
52.06814 168.000
52.08809 148.000
52.10804 157.000
52.12798 155.000
52.14793 162.000
52.16788 161.000
52.18782 180.000
52.20777 154.000
52.22772 162.000
52.24767 192.000
52.26761 168.000
52.28756 184.000
52.30751 173.000
52.32745 169.000
52.34740 144.000
52.36735 159.000
52.38729 156.000
52.40724 160.000
52.42719 156.000
52.44713 153.000
52.46708 138.000
52.48703 154.000
52.50698 146.000
52.52692 138.000
52.54687 175.000
52.56682 180.000
52.58676 172.000
52.60671 149.000
52.62666 166.000
52.64660 150.000
52.66655 178.000
52.68650 148.000
52.70645 154.000
52.72639 178.000
52.74634 159.000
52.76629 165.000
52.78623 153.000
52.80618 170.000
52.82613 159.000
52.84607 172.000
52.86602 174.000
52.88597 195.000
52.90591 172.000
52.92586 175.000
52.94581 158.000
52.96576 189.000
52.98570 175.000
53.00565 232.000
53.02560 205.000
53.04554 197.000
53.06549 186.000
53.08544 221.000
53.10538 222.000
53.12533 246.000
53.14528 236.000
53.16523 229.000
53.18517 233.000
53.20512 255.000
53.22507 217.000
53.24501 239.000
53.26496 233.000
53.28491 220.000
53.30485 235.000
53.32480 205.000
53.34475 208.000
53.36469 176.000
53.38464 182.000
53.40459 185.000
53.42454 211.000
53.44448 183.000
53.46443 177.000
53.48438 205.000
53.50432 191.000
53.52427 189.000
53.54422 180.000
53.56416 196.000
53.58411 169.000
53.60406 206.000
53.62401 193.000
53.64395 173.000
53.66390 201.000
53.68385 216.000
53.70379 213.000
53.72374 237.000
53.74369 266.000
53.76363 259.000
53.78358 329.000
53.80353 352.000
53.82348 387.000
53.84342 365.000
53.86337 347.000
53.88332 423.000
53.90326 351.000
53.92321 341.000
53.94316 315.000
53.96310 305.000
53.98305 305.000
54.00300 282.000
54.02294 289.000
54.04289 278.000
54.06284 239.000
54.08279 213.000
54.10273 199.000
54.12268 207.000
54.14263 186.000
54.16257 178.000
54.18252 169.000
54.20247 187.000
54.22241 144.000
54.24236 177.000
54.26231 196.000
54.28226 144.000
54.30220 169.000
54.32215 177.000
54.34210 166.000
54.36204 152.000
54.38199 160.000
54.40194 171.000
54.42188 184.000
54.44183 172.000
54.46178 153.000
54.48172 162.000
54.50167 180.000
54.52162 187.000
54.54157 169.000
54.56151 151.000
54.58146 155.000
54.60141 193.000
54.62135 181.000
54.64130 178.000
54.66125 165.000
54.68119 156.000
54.70114 188.000
54.72109 189.000
54.74104 180.000
54.76098 164.000
54.78093 168.000
54.80088 168.000
54.82082 177.000
54.84077 178.000
54.86072 184.000
54.88066 141.000
54.90061 168.000
54.92056 147.000
54.94050 173.000
54.96045 173.000
54.98040 171.000
55.00035 167.000
55.02029 164.000
55.04024 174.000
55.06019 154.000
55.08013 197.000
55.10008 169.000
55.12003 160.000
55.13997 168.000
55.15992 162.000
55.17987 174.000
55.19982 158.000
55.21976 155.000
55.23971 154.000
55.25966 159.000
55.27960 158.000
55.29955 159.000
55.31950 172.000
55.33944 149.000
55.35939 163.000
55.37934 146.000
55.39929 180.000
55.41923 162.000
55.43918 144.000
55.45913 138.000
55.47907 140.000
55.49902 150.000
55.51897 188.000
55.53891 173.000
55.55886 156.000
55.57881 153.000
55.59875 163.000
55.61870 157.000
55.63865 180.000
55.65860 159.000
55.67854 148.000
55.69849 163.000
55.71844 150.000
55.73838 165.000
55.75833 142.000
55.77828 152.000
55.79822 163.000
55.81817 163.000
55.83812 167.000
55.85807 177.000
55.87801 150.000
55.89796 169.000
55.91791 155.000
55.93785 151.000
55.95780 162.000
55.97775 177.000
55.99769 172.000
56.01764 166.000
56.03759 149.000
56.05753 148.000
56.07748 166.000
56.09743 176.000
56.11738 170.000
56.13732 159.000
56.15727 163.000
56.17722 209.000
56.19716 148.000
56.21711 142.000
56.23706 171.000
56.25700 161.000
56.27695 171.000
56.29690 148.000
56.31685 156.000
56.33679 165.000
56.35674 173.000
56.37669 176.000
56.39663 146.000
56.41658 154.000
56.43653 163.000
56.45647 191.000
56.47642 166.000
56.49637 157.000
56.51631 153.000
56.53626 173.000
56.55621 164.000
56.57616 177.000
56.59610 184.000
56.61605 185.000
56.63600 181.000
56.65594 186.000
56.67589 187.000
56.69584 188.000
56.71578 188.000
56.73573 170.000
56.75568 200.000
56.77563 185.000
56.79557 158.000
56.81552 180.000
56.83547 217.000
56.85541 205.000
56.87536 182.000
56.89531 216.000
56.91525 191.000
56.93520 187.000
56.95515 202.000
56.97510 192.000
56.99504 211.000
57.01499 214.000
57.03494 223.000
57.05488 200.000
57.07483 247.000
57.09478 213.000
57.11472 231.000
57.13467 216.000
57.15462 271.000
57.17456 245.000
57.19451 270.000
57.21446 282.000
57.23441 326.000
57.25435 362.000
57.27430 436.000
57.29425 452.000
57.31419 586.000
57.33414 636.000
57.35409 740.000
57.37403 846.000
57.39398 833.000
57.41393 824.000
57.43388 828.000
57.45382 734.000
57.47377 714.000
57.49372 690.000
57.51366 675.000
57.53361 639.000
57.55356 654.000
57.57350 580.000
57.59345 533.000
57.61340 423.000
57.63334 461.000
57.65329 373.000
57.67324 369.000
57.69319 331.000
57.71313 294.000
57.73308 341.000
57.75303 301.000
57.77297 291.000
57.79292 322.000
57.81287 350.000
57.83281 334.000
57.85276 338.000
57.87271 346.000
57.89266 342.000
57.91260 305.000
57.93255 299.000
57.95250 280.000
57.97244 270.000
57.99239 267.000
58.01234 256.000
58.03228 268.000
58.05223 255.000
58.07218 268.000
58.09212 215.000
58.11207 218.000
58.13202 209.000
58.15197 182.000
58.17191 195.000
58.19186 187.000
58.21181 211.000
58.23175 180.000
58.25170 187.000
58.27165 174.000
58.29159 190.000
58.31154 186.000
58.33149 202.000
58.35144 209.000
58.37138 170.000
58.39133 183.000
58.41128 180.000
58.43122 192.000
58.45117 192.000
58.47112 180.000
58.49106 193.000
58.51101 153.000
58.53096 186.000
58.55090 194.000
58.57085 172.000
58.59080 185.000
58.61075 169.000
58.63069 178.000
58.65064 168.000
58.67059 201.000
58.69053 154.000
58.71048 163.000
58.73043 161.000
58.75037 175.000
58.77032 173.000
58.79027 181.000
58.81022 177.000
58.83016 148.000
58.85011 185.000
58.87006 160.000
58.89000 147.000
58.90995 185.000
58.92990 190.000
58.94984 157.000
58.96979 191.000
58.98974 160.000
59.00969 151.000
59.02963 181.000
59.04958 178.000
59.06953 161.000
59.08947 179.000
59.10942 176.000
59.12937 167.000
59.14931 150.000
59.16926 176.000
59.18921 159.000
59.20915 172.000
59.22910 179.000
59.24905 158.000
59.26900 167.000
59.28894 154.000
59.30889 142.000
59.32884 193.000
59.34878 172.000
59.36873 153.000
59.38868 161.000
59.40862 170.000
59.42857 175.000
59.44852 178.000
59.46847 151.000
59.48841 169.000
59.50836 180.000
59.52831 163.000
59.54825 187.000
59.56820 162.000
59.58815 179.000
59.60809 176.000
59.62804 183.000
59.64799 173.000
59.66793 165.000
59.68788 167.000
59.70783 212.000
59.72778 195.000
59.74772 171.000
59.76767 196.000
59.78762 182.000
59.80756 173.000
59.82751 183.000
59.84746 202.000
59.86740 193.000
59.88735 189.000
59.90730 179.000
59.92725 194.000
59.94719 185.000
59.96714 190.000
59.98709 169.000
60.00703 174.000
60.02698 173.000
60.04693 190.000
60.06687 182.000
60.08682 186.000
60.10677 183.000
60.12671 186.000
60.14666 178.000
60.16661 191.000
60.18656 164.000
60.20650 174.000
60.22645 161.000
60.24640 190.000
60.26634 181.000
60.28629 187.000
60.30624 184.000
60.32618 191.000
60.34613 153.000
60.36608 187.000
60.38603 166.000
60.40597 160.000
60.42592 171.000
60.44587 178.000
60.46581 179.000
60.48576 190.000
60.50571 168.000
60.52565 171.000
60.54560 165.000
60.56555 181.000
60.58550 156.000
60.60544 180.000
60.62539 178.000
60.64534 167.000
60.66528 180.000
60.68523 185.000
60.70518 151.000
60.72512 179.000
60.74507 176.000
60.76502 175.000
60.78496 169.000
60.80491 171.000
60.82486 175.000
60.84481 166.000
60.86475 174.000
60.88470 186.000
60.90465 212.000
60.92459 172.000
60.94454 162.000
60.96449 160.000
60.98443 173.000
61.00438 190.000
61.02433 164.000
61.04428 185.000
61.06422 179.000
61.08417 180.000
61.10412 179.000
61.12406 152.000
61.14401 172.000
61.16396 220.000
61.18390 164.000
61.20385 192.000
61.22380 183.000
61.24374 179.000
61.26369 173.000
61.28364 211.000
61.30359 187.000
61.32353 191.000
61.34348 220.000
61.36343 184.000
61.38337 178.000
61.40332 199.000
61.42327 188.000
61.44321 176.000
61.46316 165.000
61.48311 206.000
61.50306 192.000
61.52300 198.000
61.54295 196.000
61.56290 203.000
61.58284 220.000
61.60279 215.000
61.62274 234.000
61.64268 217.000
61.66263 223.000
61.68258 230.000
61.70252 206.000
61.72247 254.000
61.74242 244.000
61.76237 246.000
61.78231 247.000
61.80226 236.000
61.82221 225.000
61.84215 261.000
61.86210 249.000
61.88205 247.000
61.90199 244.000
61.92194 254.000
61.94189 250.000
61.96184 290.000
61.98178 301.000
62.00173 283.000
62.02168 287.000
62.04162 280.000
62.06157 295.000
62.08152 319.000
62.10146 347.000
62.12141 315.000
62.14136 344.000
62.16131 329.000
62.18125 364.000
62.20120 367.000
62.22115 351.000
62.24109 395.000
62.26104 386.000
62.28099 379.000
62.30093 402.000
62.32088 445.000
62.34083 448.000
62.36077 433.000
62.38072 431.000
62.40067 474.000
62.42062 489.000
62.44056 479.000
62.46051 487.000
62.48046 475.000
62.50040 473.000
62.52035 518.000
62.54030 506.000
62.56024 503.000
62.58019 480.000
62.60014 573.000
62.62009 530.000
62.64003 546.000
62.65998 542.000
62.67993 573.000
62.69987 568.000
62.71982 552.000
62.73977 531.000
62.75971 524.000
62.77966 564.000
62.79961 510.000
62.81955 573.000
62.83950 589.000
62.85945 574.000
62.87940 603.000
62.89934 654.000
62.91929 695.000
62.93924 781.000
62.95918 870.000
62.97913 994.000
62.99908 1098.000
63.01902 1166.000
63.03897 1178.000
63.05892 1122.000
63.07887 1013.000
63.09881 942.000
63.11876 888.000
63.13871 884.000
63.15865 808.000
63.17860 811.000
63.19855 791.000
63.21849 779.000
63.23844 607.000
63.25839 673.000
63.27833 542.000
63.29828 504.000
63.31823 400.000
63.33818 404.000
63.35812 337.000
63.37807 355.000
63.39802 311.000
63.41796 344.000
63.43791 281.000
63.45786 267.000
63.47780 226.000
63.49775 274.000
63.51770 248.000
63.53765 265.000
63.55759 240.000
63.57754 228.000
63.59749 217.000
63.61743 206.000
63.63738 231.000
63.65733 201.000
63.67727 228.000
63.69722 223.000
63.71717 198.000
63.73712 199.000
63.75706 214.000
63.77701 196.000
63.79696 194.000
63.81690 177.000
63.83685 206.000
63.85680 179.000
63.87674 227.000
63.89669 201.000
63.91664 195.000
63.93658 181.000
63.95653 202.000
63.97648 181.000
63.99643 191.000
64.01637 155.000
64.03632 181.000
64.05627 188.000
64.07621 166.000
64.09616 206.000
64.11611 181.000
64.13605 199.000
64.15600 183.000
64.17595 178.000
64.19590 173.000
64.21584 175.000
64.23579 205.000
64.25574 199.000
64.27568 161.000
64.29563 198.000
64.31558 189.000
64.33552 211.000
64.35547 203.000
64.37542 181.000
64.39536 190.000
64.41531 197.000
64.43526 202.000
64.45521 193.000
64.47515 164.000
64.49510 168.000
64.51505 180.000
64.53499 154.000
64.55494 186.000
64.57489 189.000
64.59483 205.000
64.61478 174.000
64.63473 173.000
64.65468 206.000
64.67462 188.000
64.69457 185.000
64.71452 190.000
64.73446 218.000
64.75441 170.000
64.77436 190.000
64.79430 188.000
64.81425 187.000
64.83420 185.000
64.85414 192.000
64.87409 205.000
64.89404 202.000
64.91399 204.000
64.93393 189.000
64.95388 177.000
64.97383 217.000
64.99377 216.000
65.01372 192.000
65.03367 212.000
65.05361 169.000
65.07356 194.000
65.09351 183.000
65.11346 188.000
65.13340 185.000
65.15335 219.000
65.17330 177.000
65.19324 171.000
65.21319 217.000
65.23314 186.000
65.25308 173.000
65.27303 181.000
65.29298 193.000
65.31293 167.000
65.33287 175.000
65.35282 172.000
65.37277 152.000
65.39271 161.000
65.41266 170.000
65.43261 179.000
65.45255 197.000
65.47250 186.000
65.49245 183.000
65.51239 179.000
65.53234 169.000
65.55229 176.000
65.57224 158.000
65.59218 199.000
65.61213 198.000
65.63208 189.000
65.65202 171.000
65.67197 195.000
65.69192 173.000
65.71186 183.000
65.73181 195.000
65.75176 182.000
65.77171 161.000
65.79165 195.000
65.81160 181.000
65.83155 173.000
65.85149 190.000
65.87144 209.000
65.89139 200.000
65.91133 160.000
65.93128 169.000
65.95123 176.000
65.97117 182.000
65.99112 153.000
66.01107 187.000
66.03102 165.000
66.05096 191.000
66.07091 156.000
66.09086 150.000
66.11080 176.000
66.13075 184.000
66.15070 180.000
66.17064 177.000
66.19059 188.000
66.21054 189.000
66.23049 199.000
66.25043 190.000
66.27038 179.000
66.29033 214.000
66.31027 184.000
66.33022 186.000
66.35017 190.000
66.37011 202.000
66.39006 191.000
66.41001 202.000
66.42995 185.000
66.44990 178.000
66.46985 200.000
66.48980 196.000
66.50974 166.000
66.52969 197.000
66.54964 187.000
66.56958 182.000
66.58953 171.000
66.60948 178.000
66.62942 186.000
66.64937 180.000
66.66932 170.000
66.68927 191.000
66.70921 195.000
66.72916 153.000
66.74911 162.000
66.76905 167.000
66.78900 188.000
66.80895 173.000
66.82889 155.000
66.84884 152.000
66.86879 164.000
66.88874 174.000
66.90868 161.000
66.92863 161.000
66.94858 130.000
66.96852 160.000
66.98847 141.000
67.00842 178.000
67.02836 187.000
67.04831 157.000
67.06826 155.000
67.08820 133.000
67.10815 172.000
67.12810 166.000
67.14805 157.000
67.16799 157.000
67.18794 155.000
67.20789 174.000
67.22783 172.000
67.24778 158.000
67.26773 166.000
67.28767 160.000
67.30762 168.000
67.32757 145.000
67.34752 153.000
67.36746 171.000
67.38741 179.000
67.40736 154.000
67.42730 143.000
67.44725 151.000
67.46720 145.000
67.48714 181.000
67.50709 154.000
67.52704 143.000
67.54698 166.000
67.56693 144.000
67.58688 138.000
67.60683 168.000
67.62677 173.000
67.64672 146.000
67.66667 169.000
67.68661 155.000
67.70656 164.000
67.72651 177.000
67.74645 145.000
67.76640 171.000
67.78635 167.000
67.80630 156.000
67.82624 177.000
67.84619 168.000
67.86614 163.000
67.88608 155.000
67.90603 187.000
67.92598 160.000
67.94592 158.000
67.96587 157.000
67.98582 159.000
68.00576 164.000
68.02571 183.000
68.04566 122.000
68.06561 177.000
68.08555 148.000
68.10550 173.000
68.12545 172.000
68.14539 192.000
68.16534 187.000
68.18529 163.000
68.20523 177.000
68.22518 196.000
68.24513 146.000
68.26508 202.000
68.28502 196.000
68.30497 207.000
68.32492 192.000
68.34486 188.000
68.36481 179.000
68.38476 175.000
68.40470 186.000
68.42465 190.000
68.44460 219.000
68.46455 195.000
68.48449 185.000
68.50444 197.000
68.52439 196.000
68.54433 204.000
68.56428 201.000
68.58423 182.000
68.60417 169.000
68.62412 163.000
68.64407 177.000
68.66401 164.000
68.68396 146.000
68.70391 141.000
68.72386 186.000
68.74380 158.000
68.76375 169.000
68.78370 169.000
68.80364 186.000
68.82359 169.000
68.84354 189.000
68.86348 163.000
68.88343 193.000
68.90338 151.000
68.92333 171.000
68.94327 152.000
68.96322 174.000
68.98317 166.000
69.00311 151.000
69.02306 176.000
69.04301 152.000
69.06295 159.000
69.08290 151.000
69.10285 161.000
69.12279 156.000
69.14274 171.000
69.16269 185.000
69.18264 168.000
69.20258 150.000
69.22253 162.000
69.24248 164.000
69.26242 171.000
69.28237 185.000
69.30232 182.000
69.32226 160.000
69.34221 141.000
69.36216 140.000
69.38211 160.000
69.40205 172.000
69.42200 156.000
69.44195 189.000
69.46189 171.000
69.48184 157.000
69.50179 187.000
69.52173 189.000
69.54168 170.000
69.56163 184.000
69.58157 157.000
69.60152 169.000
69.62147 156.000
69.64142 185.000
69.66136 153.000
69.68131 165.000
69.70126 167.000
69.72120 157.000
69.74115 178.000
69.76110 162.000
69.78104 165.000
69.80099 149.000
69.82094 161.000
69.84089 166.000
69.86083 156.000
69.88078 160.000
69.90073 159.000
69.92067 148.000
69.94062 152.000
69.96057 169.000
69.98051 164.000
70.00046 171.000
70.02041 168.000
70.04035 165.000
70.06030 134.000
70.08025 157.000
70.10020 156.000
70.12014 168.000
70.14009 153.000
70.16004 149.000
70.17998 150.000
70.19993 169.000
70.21988 177.000
70.23982 179.000
70.25977 166.000
70.27972 160.000
70.29967 156.000
70.31961 172.000
70.33956 157.000
70.35951 195.000
70.37945 132.000
70.39940 170.000
70.41935 146.000
70.43929 133.000
70.45924 184.000
70.47919 182.000
70.49914 185.000
70.51908 168.000
70.53903 163.000
70.55898 149.000
70.57892 151.000
70.59887 165.000
70.61882 150.000
70.63876 157.000
70.65871 150.000
70.67866 137.000
70.69860 155.000
70.71855 165.000
70.73850 162.000
70.75845 147.000
70.77839 163.000
70.79834 162.000
70.81829 164.000
70.83823 156.000
70.85818 152.000
70.87813 154.000
70.89807 153.000
70.91802 166.000
70.93797 163.000
70.95792 183.000
70.97786 150.000
70.99781 157.000
71.01776 161.000
71.03770 162.000
71.05765 165.000
71.07760 152.000
71.09754 170.000
71.11749 159.000
71.13744 144.000
71.15738 169.000
71.17733 202.000
71.19728 156.000
71.21723 181.000
71.23717 174.000
71.25712 171.000
71.27707 165.000
71.29701 177.000
71.31696 172.000
71.33691 170.000
71.35685 192.000
71.37680 183.000
71.39675 179.000
71.41670 173.000
71.43664 190.000
71.45659 225.000
71.47654 231.000
71.49648 230.000
71.51643 218.000
71.53638 209.000
71.55632 227.000
71.57627 183.000
71.59622 227.000
71.61616 210.000
71.63611 214.000
71.65606 196.000
71.67601 225.000
71.69595 202.000
71.71590 181.000
71.73585 186.000
71.75579 205.000
71.77574 181.000
71.79569 186.000
71.81563 194.000
71.83558 189.000
71.85553 192.000
71.87548 167.000
71.89542 179.000
71.91537 198.000
71.93532 196.000
71.95526 160.000
71.97521 179.000
71.99516 164.000
72.01510 170.000
72.03505 187.000
72.05500 182.000
72.07495 182.000
72.09489 167.000
72.11484 170.000
72.13479 164.000
72.15473 170.000
72.17468 171.000
72.19463 147.000
72.21457 155.000
72.23452 172.000
72.25447 180.000
72.27441 184.000
72.29436 174.000
72.31431 199.000
72.33426 213.000
72.35420 179.000
72.37415 181.000
72.39410 186.000
72.41404 197.000
72.43399 201.000
72.45394 184.000
72.47388 184.000
72.49383 183.000
72.51378 168.000
72.53373 178.000
72.55367 221.000
72.57362 193.000
72.59357 176.000
72.61351 179.000
72.63346 179.000
72.65341 187.000
72.67335 179.000
72.69330 176.000
72.71325 185.000
72.73319 165.000
72.75314 209.000
72.77309 158.000
72.79304 174.000
72.81298 195.000
72.83293 192.000
72.85288 193.000
72.87282 177.000
72.89277 185.000
72.91272 198.000
72.93266 178.000
72.95261 187.000
72.97256 177.000
72.99251 159.000
73.01245 172.000
73.03240 169.000
73.05235 195.000
73.07229 179.000
73.09224 181.000
73.11219 184.000
73.13213 168.000
73.15208 163.000
73.17203 177.000
73.19197 193.000
73.21192 171.000
73.23187 160.000
73.25182 169.000
73.27176 178.000
73.29171 173.000
73.31166 176.000
73.33160 166.000
73.35155 165.000
73.37150 161.000
73.39144 169.000
73.41139 183.000
73.43134 162.000
73.45129 156.000
73.47123 163.000
73.49118 161.000
73.51113 184.000
73.53107 178.000
73.55102 181.000
73.57097 171.000
73.59091 200.000
73.61086 171.000
73.63081 170.000
73.65076 166.000
73.67070 185.000
73.69065 173.000
73.71060 183.000
73.73054 179.000
73.75049 202.000
73.77044 172.000
73.79038 210.000
73.81033 179.000
73.83028 169.000
73.85022 186.000
73.87017 215.000
73.89012 159.000
73.91007 186.000
73.93001 177.000
73.94996 205.000
73.96991 184.000
73.98985 170.000
74.00980 188.000
74.02975 189.000
74.04969 211.000
74.06964 188.000
74.08959 192.000
74.10954 212.000
74.12948 197.000
74.14943 213.000
74.16938 207.000
74.18932 204.000
74.20927 210.000
74.22922 193.000
74.24916 213.000
74.26911 196.000
74.28906 239.000
74.30900 201.000
74.32895 229.000
74.34890 196.000
74.36885 200.000
74.38879 233.000
74.40874 194.000
74.42869 243.000
74.44863 245.000
74.46858 256.000
74.48853 279.000
74.50847 263.000
74.52842 297.000
74.54837 358.000
74.56832 310.000
74.58826 353.000
74.60821 345.000
74.62816 351.000
74.64810 356.000
74.66805 313.000
74.68800 303.000
74.70794 305.000
74.72789 320.000
74.74784 323.000
74.76778 332.000
74.78773 332.000
74.80768 322.000
74.82763 330.000
74.84757 316.000
74.86752 292.000
74.88747 302.000
74.90741 265.000
74.92736 284.000
74.94731 307.000
74.96725 263.000
74.98720 274.000
75.00715 247.000
75.02710 254.000
75.04704 246.000
75.06699 289.000
75.08694 256.000
75.10688 259.000
75.12683 233.000
75.14678 266.000
75.16672 269.000
75.18667 246.000
75.20662 259.000
75.22657 266.000
75.24651 258.000
75.26646 249.000
75.28641 261.000
75.30635 255.000
75.32630 266.000
75.34625 271.000
75.36619 254.000
75.38614 256.000
75.40609 229.000
75.42603 243.000
75.44598 215.000
75.46593 249.000
75.48588 244.000
75.50582 254.000
75.52577 244.000
75.54572 217.000
75.56566 249.000
75.58561 234.000
75.60556 263.000
75.62550 251.000
75.64545 237.000
75.66540 223.000
75.68535 225.000
75.70529 260.000
75.72524 205.000
75.74519 193.000
75.76513 229.000
75.78508 236.000
75.80503 193.000
75.82497 223.000
75.84492 207.000
75.86487 206.000
75.88481 219.000
75.90476 206.000
75.92471 195.000
75.94466 205.000
75.96460 200.000
75.98455 184.000
76.00450 180.000
76.02444 201.000
76.04439 190.000
76.06434 189.000
76.08428 178.000
76.10423 172.000
76.12418 181.000
76.14413 176.000
76.16407 192.000
76.18402 200.000
76.20397 155.000
76.22391 158.000
76.24386 174.000
76.26381 179.000
76.28375 160.000
76.30370 165.000
76.32365 175.000
76.34359 156.000
76.36354 156.000
76.38349 169.000
76.40344 151.000
76.42338 157.000
76.44333 135.000
76.46328 177.000
76.48322 166.000
76.50317 144.000
76.52312 152.000
76.54306 167.000
76.56301 143.000
76.58296 158.000
76.60291 164.000
76.62285 175.000
76.64280 167.000
76.66275 182.000
76.68269 149.000
76.70264 157.000
76.72259 150.000
76.74253 164.000
76.76248 175.000
76.78243 149.000
76.80238 174.000
76.82232 153.000
76.84227 150.000
76.86222 165.000
76.88216 164.000
76.90211 182.000
76.92206 172.000
76.94200 153.000
76.96195 156.000
76.98190 188.000
77.00184 169.000
77.02179 167.000
77.04174 172.000
77.06169 167.000
77.08163 155.000
77.10158 185.000
77.12153 171.000
77.14147 164.000
77.16142 163.000
77.18137 172.000
77.20131 148.000
77.22126 156.000
77.24121 182.000
77.26116 187.000
77.28110 162.000
77.30105 194.000
77.32100 174.000
77.34094 209.000
77.36089 172.000
77.38084 184.000
77.40078 172.000
77.42073 179.000
77.44068 186.000
77.46062 186.000
77.48057 194.000
77.50052 193.000
77.52047 216.000
77.54041 185.000
77.56036 210.000
77.58031 198.000
77.60025 208.000
77.62020 171.000
77.64015 181.000
77.66009 203.000
77.68004 180.000
77.69999 190.000
77.71994 177.000
77.73988 206.000
77.75983 177.000
77.77978 188.000
77.79972 168.000
77.81967 179.000
77.83962 172.000
77.85956 176.000
77.87951 185.000
77.89946 198.000
77.91940 182.000
77.93935 163.000
77.95930 196.000
77.97925 182.000
77.99919 171.000
78.01914 173.000
78.03909 205.000
78.05903 202.000
78.07898 178.000
78.09893 178.000
78.11887 190.000
78.13882 164.000
78.15877 154.000
78.17872 193.000
78.19866 172.000
78.21861 179.000
78.23856 176.000
78.25850 196.000
78.27845 203.000
78.29840 177.000
78.31834 177.000
78.33829 169.000
78.35824 175.000
78.37819 163.000
78.39813 195.000
78.41808 162.000
78.43803 200.000
78.45797 191.000
78.47792 186.000
78.49787 182.000
78.51781 206.000
78.53776 167.000
78.55771 198.000
78.57765 206.000
78.59760 195.000
78.61755 181.000
78.63750 207.000
78.65744 226.000
78.67739 234.000
78.69734 220.000
78.71728 198.000
78.73723 194.000
78.75718 196.000
78.77712 211.000
78.79707 195.000
78.81702 203.000
78.83697 225.000
78.85691 188.000
78.87686 196.000
78.89681 210.000
78.91675 210.000
78.93670 232.000
78.95665 214.000
78.97659 221.000
78.99654 221.000
79.01649 250.000
79.03643 221.000
79.05638 212.000
79.07633 221.000
79.09628 181.000
79.11622 243.000
79.13617 209.000
79.15612 218.000
79.17606 207.000
79.19601 226.000
79.21596 232.000
79.23590 244.000
79.25585 209.000
79.27580 228.000
79.29575 210.000
79.31569 230.000
79.33564 206.000
79.35559 204.000
79.37553 217.000
79.39548 224.000
79.41543 215.000
79.43537 215.000
79.45532 197.000
79.47527 221.000
79.49521 189.000
79.51516 203.000
79.53511 238.000
79.55506 217.000
79.57500 248.000
79.59495 213.000
79.61490 216.000
79.63484 240.000
79.65479 222.000
79.67474 206.000
79.69468 205.000
79.71463 190.000
79.73458 210.000
79.75453 196.000
79.77447 203.000
79.79442 203.000
79.81437 189.000
79.83431 195.000
79.85426 201.000
79.87421 185.000
79.89415 169.000
79.91410 165.000
79.93405 185.000
79.95399 204.000
79.97394 172.000
79.99389 183.000
80.01384 172.000
80.03378 147.000
80.05373 163.000
80.07368 172.000
80.09362 161.000
80.11357 147.000
80.13352 164.000
80.15346 172.000
80.17341 171.000
80.19336 171.000
80.21331 175.000
80.23325 185.000
80.25320 160.000
80.27315 167.000
80.29309 172.000
80.31304 155.000
80.33299 162.000
80.35293 158.000
80.37288 145.000
80.39283 136.000
80.41278 175.000
80.43272 158.000
80.45267 145.000
80.47262 155.000
80.49256 174.000
80.51251 132.000
80.53246 135.000
80.55240 145.000
80.57235 165.000
80.59230 159.000
80.61224 163.000
80.63219 163.000
80.65214 150.000
80.67209 171.000
80.69203 136.000
80.71198 143.000
80.73193 145.000
80.75187 162.000
80.77182 162.000
80.79177 149.000
80.81171 155.000
80.83166 156.000
80.85161 156.000
80.87156 138.000
80.89150 155.000
80.91145 153.000
80.93140 157.000
80.95134 175.000
80.97129 164.000
80.99124 153.000
81.01118 147.000
81.03113 164.000
81.05108 150.000
81.07102 147.000
81.09097 169.000
81.11092 158.000
81.13087 146.000
81.15081 148.000
81.17076 160.000
81.19071 155.000
81.21065 125.000
81.23060 148.000
81.25055 135.000
81.27049 178.000
81.29044 140.000
81.31039 152.000
81.33034 172.000
81.35028 163.000
81.37023 143.000
81.39018 162.000
81.41012 158.000
81.43007 155.000
81.45002 146.000
81.46996 150.000
81.48991 155.000
81.50986 156.000
81.52980 157.000
81.54975 146.000
81.56970 174.000
81.58965 165.000
81.60959 154.000
81.62954 146.000
81.64949 145.000
81.66943 148.000
81.68938 173.000
81.70933 148.000
81.72927 168.000
81.74922 144.000
81.76917 132.000
81.78912 147.000
81.80906 167.000
81.82901 156.000
81.84896 155.000
81.86890 140.000
81.88885 155.000
81.90880 161.000
81.92874 159.000
81.94869 177.000
81.96864 153.000
81.98859 145.000
82.00853 159.000
82.02848 147.000
82.04843 147.000
82.06837 160.000
82.08832 153.000
82.10827 160.000
82.12821 166.000
82.14816 154.000
82.16811 134.000
82.18805 176.000
82.20800 146.000
82.22795 143.000
82.24790 158.000
82.26784 153.000
82.28779 174.000
82.30774 158.000
82.32768 168.000
82.34763 168.000
82.36758 159.000
82.38752 169.000
82.40747 149.000
82.42742 176.000
82.44737 175.000
82.46731 154.000
82.48726 171.000
82.50721 168.000
82.52715 162.000
82.54710 156.000
82.56705 151.000
82.58699 149.000
82.60694 172.000
82.62689 162.000
82.64683 182.000
82.66678 134.000
82.68673 157.000
82.70668 153.000
82.72662 161.000
82.74657 161.000
82.76652 164.000
82.78646 184.000
82.80641 158.000
82.82636 155.000
82.84630 141.000
82.86625 162.000
82.88620 172.000
82.90615 172.000
82.92609 174.000
82.94604 157.000
82.96599 177.000
82.98593 164.000
83.00588 141.000
83.02583 175.000
83.04577 147.000
83.06572 160.000
83.08567 165.000
83.10561 150.000
83.12556 154.000
83.14551 149.000
83.16546 176.000
83.18540 153.000
83.20535 150.000
83.22530 145.000
83.24524 175.000
83.26519 160.000
83.28514 153.000
83.30508 155.000
83.32503 142.000
83.34498 146.000
83.36493 165.000
83.38487 168.000
83.40482 153.000
83.42477 146.000
83.44471 149.000
83.46466 172.000
83.48461 152.000
83.50455 172.000
83.52450 151.000
83.54445 150.000
83.56440 167.000
83.58434 172.000
83.60429 156.000
83.62424 149.000
83.64418 161.000
83.66413 131.000
83.68408 137.000
83.70402 142.000
83.72397 150.000
83.74392 162.000
83.76386 163.000
83.78381 173.000
83.80376 168.000
83.82371 142.000
83.84365 177.000
83.86360 144.000
83.88355 165.000
83.90349 156.000
83.92344 168.000
83.94339 141.000
83.96333 149.000
83.98328 148.000
84.00323 148.000
84.02318 184.000
84.04312 183.000
84.06307 167.000
84.08302 151.000
84.10296 163.000
84.12291 165.000
84.14286 149.000
84.16280 166.000
84.18275 120.000
84.20270 157.000
84.22264 152.000
84.24259 154.000
84.26254 173.000
84.28249 178.000
84.30243 150.000
84.32238 158.000
84.34233 160.000
84.36227 158.000
84.38222 179.000
84.40217 139.000
84.42211 177.000
84.44206 167.000
84.46201 141.000
84.48196 154.000
84.50190 165.000
84.52185 162.000
84.54180 169.000
84.56174 167.000
84.58169 174.000
84.60164 172.000
84.62158 176.000
84.64153 168.000
84.66148 146.000
84.68142 158.000
84.70137 158.000
84.72132 161.000
84.74127 159.000
84.76121 163.000
84.78116 154.000
84.80111 168.000
84.82105 147.000
84.84100 167.000
84.86095 162.000
84.88089 169.000
84.90084 152.000
84.92079 152.000
84.94074 171.000
84.96068 145.000
84.98063 148.000
85.00058 140.000
85.02052 159.000
85.04047 160.000
85.06042 140.000
85.08036 163.000
85.10031 171.000
85.12026 149.000
85.14021 159.000
85.16015 154.000
85.18010 165.000
85.20005 147.000
85.21999 156.000
85.23994 159.000
85.25989 152.000
85.27983 133.000
85.29978 153.000
85.31973 152.000
85.33967 163.000
85.35962 146.000
85.37957 153.000
85.39952 123.000
85.41946 155.000
85.43941 152.000
85.45936 183.000
85.47930 158.000
85.49925 130.000
85.51920 167.000
85.53914 163.000
85.55909 159.000
85.57904 146.000
85.59899 152.000
85.61893 141.000
85.63888 167.000
85.65883 164.000
85.67877 172.000
85.69872 143.000
85.71867 150.000
85.73861 161.000
85.75856 178.000
85.77851 161.000
85.79845 171.000
85.81840 147.000
85.83835 150.000
85.85830 184.000
85.87824 162.000
85.89819 156.000
85.91814 157.000
85.93808 151.000
85.95803 158.000
85.97798 155.000
85.99792 143.000
86.01787 170.000
86.03782 144.000
86.05777 164.000
86.07771 138.000
86.09766 164.000
86.11761 160.000
86.13755 174.000
86.15750 172.000
86.17745 164.000
86.19739 155.000
86.21734 177.000
86.23729 149.000
86.25723 172.000
86.27718 150.000
86.29713 169.000
86.31708 141.000
86.33702 154.000
86.35697 135.000
86.37692 155.000
86.39686 187.000
86.41681 171.000
86.43676 155.000
86.45670 157.000
86.47665 176.000
86.49660 165.000
86.51655 162.000
86.53649 171.000
86.55644 162.000
86.57639 177.000
86.59633 174.000
86.61628 159.000
86.63623 156.000
86.65617 153.000
86.67612 155.000
86.69607 185.000
86.71602 181.000
86.73596 154.000
86.75591 148.000
86.77586 157.000
86.79580 166.000
86.81575 141.000
86.83570 147.000
86.85564 168.000
86.87559 139.000
86.89554 160.000
86.91548 162.000
86.93543 168.000
86.95538 176.000
86.97533 142.000
86.99527 165.000
87.01522 146.000
87.03517 158.000
87.05511 173.000
87.07506 179.000
87.09501 163.000
87.11495 167.000
87.13490 158.000
87.15485 155.000
87.17480 155.000
87.19474 162.000
87.21469 160.000
87.23464 167.000
87.25458 181.000
87.27453 173.000
87.29448 164.000
87.31442 179.000
87.33437 186.000
87.35432 200.000
87.37426 194.000
87.39421 194.000
87.41416 218.000
87.43411 184.000
87.45405 222.000
87.47400 210.000
87.49395 195.000
87.51389 196.000
87.53384 202.000
87.55379 185.000
87.57373 190.000
87.59368 187.000
87.61363 208.000
87.63358 202.000
87.65352 198.000
87.67347 194.000
87.69342 200.000
87.71336 211.000
87.73331 222.000
87.75326 202.000
87.77320 188.000
87.79315 191.000
87.81310 200.000
87.83304 185.000
87.85299 186.000
87.87294 200.000
87.89289 172.000
87.91283 170.000
87.93278 185.000
87.95273 165.000
87.97267 155.000
87.99262 172.000
88.01257 174.000
88.03251 153.000
88.05246 153.000
88.07241 182.000
88.09236 157.000
88.11230 159.000
88.13225 158.000
88.15220 166.000
88.17214 142.000
88.19209 140.000
88.21204 163.000
88.23198 178.000
88.25193 158.000
88.27188 158.000
88.29183 133.000
88.31177 161.000
88.33172 164.000
88.35167 177.000
88.37161 160.000
88.39156 158.000
88.41151 175.000
88.43145 159.000
88.45140 171.000
88.47135 170.000
88.49129 167.000
88.51124 136.000
88.53119 164.000
88.55114 140.000
88.57108 141.000
88.59103 176.000
88.61098 165.000
88.63092 169.000
88.65087 149.000
88.67082 169.000
88.69076 193.000
88.71071 172.000
88.73066 151.000
88.75061 162.000
88.77055 155.000
88.79050 159.000
88.81045 178.000
88.83039 148.000
88.85034 157.000
88.87029 172.000
88.89023 152.000
88.91018 171.000
88.93013 158.000
88.95007 148.000
88.97002 156.000
88.98997 151.000
89.00992 159.000
89.02986 140.000
89.04981 160.000
89.06976 135.000
89.08970 162.000
89.10965 152.000
89.12960 153.000
89.14954 151.000
89.16949 148.000
89.18944 163.000
89.20939 155.000
89.22933 143.000
89.24928 153.000
89.26923 135.000
89.28917 156.000
89.30912 147.000
89.32907 136.000
89.34901 164.000
89.36896 162.000
89.38891 148.000
89.40885 156.000
89.42880 181.000
89.44875 162.000
89.46870 146.000
89.48864 161.000
89.50859 149.000
89.52854 167.000
89.54848 179.000
89.56843 153.000
89.58838 160.000
89.60832 135.000
89.62827 155.000
89.64822 173.000
89.66817 179.000
89.68811 158.000
89.70806 173.000
89.72801 172.000
89.74795 167.000
89.76790 174.000
89.78785 178.000
89.80779 177.000
89.82774 163.000
89.84769 161.000
89.86764 194.000
89.88758 197.000
89.90753 151.000
89.92748 171.000
89.94742 174.000
89.96737 171.000
89.98732 158.000
90.00726 171.000
