10.00000 95.000
10.01995 83.000
10.03989 101.000
10.05984 106.000
10.07979 113.000
10.09973 98.000
10.11968 116.000
10.13963 122.000
10.15958 91.000
10.17952 104.000
10.19947 113.000
10.21942 87.000
10.23936 107.000
10.25931 120.000
10.27926 111.000
10.29920 105.000
10.31915 116.000
10.33910 91.000
10.35905 83.000
10.37899 108.000
10.39894 109.000
10.41889 106.000
10.43883 105.000
10.45878 99.000
10.47873 115.000
10.49867 103.000
10.51862 90.000
10.53857 96.000
10.55851 110.000
10.57846 109.000
10.59841 106.000
10.61836 89.000
10.63830 97.000
10.65825 116.000
10.67820 106.000
10.69814 104.000
10.71809 100.000
10.73804 122.000
10.75798 113.000
10.77793 96.000
10.79788 100.000
10.81783 103.000
10.83777 127.000
10.85772 87.000
10.87767 104.000
10.89761 110.000
10.91756 104.000
10.93751 92.000
10.95745 111.000
10.97740 105.000
10.99735 94.000
11.01730 118.000
11.03724 92.000
11.05719 107.000
11.07714 112.000
11.09708 97.000
11.11703 104.000
11.13698 95.000
11.15692 103.000
11.17687 107.000
11.19682 98.000
11.21676 95.000
11.23671 109.000
11.25666 120.000
11.27661 90.000
11.29655 97.000
11.31650 113.000
11.33645 108.000
11.35639 106.000
11.37634 102.000
11.39629 116.000
11.41623 109.000
11.43618 112.000
11.45613 100.000
11.47608 100.000
11.49602 107.000
11.51597 107.000
11.53592 96.000
11.55586 94.000
11.57581 115.000
11.59576 117.000
11.61570 107.000
11.63565 118.000
11.65560 116.000
11.67554 80.000
11.69549 96.000
11.71544 122.000
11.73539 110.000
11.75533 120.000
11.77528 90.000
11.79523 108.000
11.81517 112.000
11.83512 103.000
11.85507 108.000
11.87501 114.000
11.89496 104.000
11.91491 102.000
11.93486 109.000
11.95480 103.000
11.97475 95.000
11.99470 140.000
12.01464 112.000
12.03459 127.000
12.05454 98.000
12.07448 112.000
12.09443 118.000
12.11438 98.000
12.13432 123.000
12.15427 104.000
12.17422 115.000
12.19417 132.000
12.21411 119.000
12.23406 134.000
12.25401 118.000
12.27395 116.000
12.29390 131.000
12.31385 124.000
12.33379 129.000
12.35374 125.000
12.37369 118.000
12.39364 108.000
12.41358 155.000
12.43353 120.000
12.45348 140.000
12.47342 122.000
12.49337 137.000
12.51332 132.000
12.53326 156.000
12.55321 148.000
12.57316 131.000
12.59311 156.000
12.61305 147.000
12.63300 155.000
12.65295 149.000
12.67289 159.000
12.69284 157.000
12.71279 143.000
12.73273 152.000
12.75268 168.000
12.77263 147.000
12.79257 167.000
12.81252 142.000
12.83247 169.000
12.85242 169.000
12.87236 144.000
12.89231 125.000
12.91226 153.000
12.93220 142.000
12.95215 156.000
12.97210 172.000
12.99204 133.000
13.01199 177.000
13.03194 153.000
13.05189 160.000
13.07183 143.000
13.09178 154.000
13.11173 136.000
13.13167 139.000
13.15162 140.000
13.17157 178.000
13.19151 169.000
13.21146 161.000
13.23141 139.000
13.25135 145.000
13.27130 174.000
13.29125 156.000
13.31120 177.000
13.33114 151.000
13.35109 172.000
13.37104 155.000
13.39098 168.000
13.41093 171.000
13.43088 155.000
13.45082 163.000
13.47077 166.000
13.49072 163.000
13.51067 194.000
13.53061 166.000
13.55056 174.000
13.57051 161.000
13.59045 180.000
13.61040 169.000
13.63035 153.000
13.65029 171.000
13.67024 156.000
13.69019 170.000
13.71013 180.000
13.73008 163.000
13.75003 197.000
13.76998 190.000
13.78992 172.000
13.80987 181.000
13.82982 172.000
13.84976 182.000
13.86971 188.000
13.88966 194.000
13.90960 157.000
13.92955 211.000
13.94950 192.000
13.96945 182.000
13.98939 184.000
14.00934 198.000
14.02929 188.000
14.04923 178.000
14.06918 193.000
14.08913 214.000
14.10907 195.000
14.12902 216.000
14.14897 212.000
14.16892 196.000
14.18886 202.000
14.20881 199.000
14.22876 202.000
14.24870 214.000
14.26865 194.000
14.28860 206.000
14.30854 190.000
14.32849 218.000
14.34844 183.000
14.36838 216.000
14.38833 215.000
14.40828 219.000
14.42823 222.000
14.44817 222.000
14.46812 214.000
14.48807 195.000
14.50801 206.000
14.52796 215.000
14.54791 205.000
14.56785 217.000
14.58780 215.000
14.60775 222.000
14.62770 205.000
14.64764 229.000
14.66759 223.000
14.68754 229.000
14.70748 216.000
14.72743 259.000
14.74738 213.000
14.76732 238.000
14.78727 247.000
14.80722 235.000
14.82716 250.000
14.84711 233.000
14.86706 251.000
14.88701 227.000
14.90695 221.000
14.92690 256.000
14.94685 281.000
14.96679 293.000
14.98674 304.000
15.00669 342.000
15.02663 271.000
15.04658 290.000
15.06653 293.000
15.08648 292.000
15.10642 301.000
15.12637 300.000
15.14632 325.000
15.16626 334.000
15.18621 311.000
15.20616 332.000
15.22610 344.000
15.24605 356.000
15.26600 390.000
15.28594 381.000
15.30589 373.000
15.32584 414.000
15.34579 447.000
15.36573 484.000
15.38568 479.000
15.40563 506.000
15.42557 497.000
15.44552 642.000
15.46547 671.000
15.48541 788.000
15.50536 911.000
15.52531 1127.000
15.54526 1433.000
15.56520 1942.000
15.58515 2811.000
15.60510 4205.000
15.62504 6910.000
15.64499 11094.000
15.66494 14173.000
15.68488 12059.000
15.70483 8669.000
15.72478 5060.000
15.74472 2272.000
15.76467 1248.000
15.78462 769.000
15.80457 668.000
15.82451 566.000
15.84446 464.000
15.86441 408.000
15.88435 364.000
15.90430 359.000
15.92425 336.000
15.94419 291.000
15.96414 278.000
15.98409 263.000
16.00404 274.000
16.02398 257.000
16.04393 218.000
16.06388 235.000
16.08382 222.000
16.10377 223.000
16.12372 203.000
16.14366 213.000
16.16361 190.000
16.18356 183.000
16.20351 177.000
16.22345 166.000
16.24340 180.000
16.26335 181.000
16.28329 170.000
16.30324 170.000
16.32319 158.000
16.34313 145.000
16.36308 145.000
16.38303 145.000
16.40297 152.000
16.42292 118.000
16.44287 137.000
16.46282 167.000
16.48276 154.000
16.50271 145.000
16.52266 136.000
16.54260 146.000
16.56255 147.000
16.58250 125.000
16.60244 137.000
16.62239 148.000
16.64234 145.000
16.66229 134.000
16.68223 135.000
16.70218 147.000
16.72213 132.000
16.74207 133.000
16.76202 110.000
16.78197 131.000
16.80191 114.000
16.82186 109.000
16.84181 138.000
16.86175 118.000
16.88170 149.000
16.90165 139.000
16.92160 111.000
16.94154 123.000
16.96149 116.000
16.98144 129.000
17.00138 119.000
17.02133 124.000
17.04128 123.000
17.06122 121.000
17.08117 123.000
17.10112 112.000
17.12107 105.000
17.14101 124.000
17.16096 122.000
17.18091 133.000
17.20085 120.000
17.22080 119.000
17.24075 117.000
17.26069 131.000
17.28064 126.000
17.30059 120.000
17.32053 120.000
17.34048 82.000
17.36043 103.000
17.38038 135.000
17.40032 113.000
17.42027 117.000
17.44022 108.000
17.46016 96.000
17.48011 107.000
17.50006 110.000
17.52000 111.000
17.53995 121.000
17.55990 104.000
17.57985 104.000
17.59979 121.000
17.61974 131.000
17.63969 128.000
17.65963 118.000
17.67958 109.000
17.69953 99.000
17.71947 120.000
17.73942 107.000
17.75937 123.000
17.77932 113.000
17.79926 126.000
17.81921 129.000
17.83916 125.000
17.85910 136.000
17.87905 116.000
17.89900 126.000
17.91894 111.000
17.93889 142.000
17.95884 128.000
17.97878 120.000
17.99873 117.000
18.01868 127.000
18.03863 127.000
18.05857 131.000
18.07852 146.000
18.09847 140.000
18.11841 138.000
18.13836 175.000
18.15831 233.000
18.17825 228.000
18.19820 314.000
18.21815 391.000
18.23810 534.000
18.25804 654.000
18.27799 711.000
18.29794 679.000
18.31788 608.000
18.33783 547.000
18.35778 411.000
18.37772 267.000
18.39767 198.000
18.41762 154.000
18.43756 144.000
18.45751 138.000
18.47746 115.000
18.49741 115.000
18.51735 125.000
18.53730 118.000
18.55725 114.000
18.57719 98.000
18.59714 119.000
18.61709 124.000
18.63703 129.000
18.65698 125.000
18.67693 111.000
18.69688 130.000
18.71682 93.000
18.73677 100.000
18.75672 100.000
18.77666 122.000
18.79661 129.000
18.81656 103.000
18.83650 115.000
18.85645 114.000
18.87640 97.000
18.89634 104.000
18.91629 104.000
18.93624 96.000
18.95619 102.000
18.97613 109.000
18.99608 87.000
19.01603 108.000
19.03597 121.000
19.05592 111.000
19.07587 110.000
19.09581 118.000
19.11576 88.000
19.13571 107.000
19.15566 92.000
19.17560 92.000
19.19555 104.000
19.21550 95.000
19.23544 91.000
19.25539 100.000
19.27534 96.000
19.29528 86.000
19.31523 107.000
19.33518 97.000
19.35513 97.000
19.37507 105.000
19.39502 102.000
19.41497 83.000
19.43491 101.000
19.45486 100.000
19.47481 96.000
19.49475 96.000
19.51470 107.000
19.53465 86.000
19.55459 99.000
19.57454 106.000
19.59449 89.000
19.61444 105.000
19.63438 111.000
19.65433 106.000
19.67428 96.000
19.69422 119.000
19.71417 111.000
19.73412 89.000
19.75406 93.000
19.77401 107.000
19.79396 92.000
19.81391 103.000
19.83385 97.000
19.85380 116.000
19.87375 90.000
19.89369 101.000
19.91364 95.000
19.93359 94.000
19.95353 98.000
19.97348 96.000
19.99343 98.000
20.01337 90.000
20.03332 91.000
20.05327 87.000
20.07322 100.000
20.09316 105.000
20.11311 94.000
20.13306 95.000
20.15300 89.000
20.17295 108.000
20.19290 102.000
20.21284 102.000
20.23279 85.000
20.25274 99.000
20.27269 107.000
20.29263 96.000
20.31258 88.000
20.33253 101.000
20.35247 95.000
20.37242 100.000
20.39237 106.000
20.41231 113.000
20.43226 107.000
20.45221 98.000
20.47215 94.000
20.49210 120.000
20.51205 114.000
20.53200 78.000
20.55194 120.000
20.57189 92.000
20.59184 90.000
20.61178 96.000
20.63173 94.000
20.65168 110.000
20.67162 119.000
20.69157 100.000
20.71152 88.000
20.73147 103.000
20.75141 105.000
20.77136 82.000
20.79131 80.000
20.81125 90.000
20.83120 105.000
20.85115 110.000
20.87109 88.000
20.89104 89.000
20.91099 101.000
20.93094 96.000
20.95088 95.000
20.97083 84.000
20.99078 92.000
21.01072 85.000
21.03067 97.000
21.05062 123.000
21.07056 105.000
21.09051 100.000
21.11046 100.000
21.13040 100.000
21.15035 112.000
21.17030 107.000
21.19025 109.000
21.21019 96.000
21.23014 115.000
21.25009 101.000
21.27003 94.000
21.28998 107.000
21.30993 99.000
21.32987 89.000
21.34982 102.000
21.36977 92.000
21.38972 100.000
21.40966 106.000
21.42961 90.000
21.44956 98.000
21.46950 107.000
21.48945 77.000
21.50940 101.000
21.52934 107.000
21.54929 106.000
21.56924 123.000
21.58918 106.000
21.60913 110.000
21.62908 88.000
21.64903 93.000
21.66897 105.000
21.68892 85.000
21.70887 95.000
21.72881 94.000
21.74876 109.000
21.76871 96.000
21.78865 95.000
21.80860 96.000
21.82855 109.000
21.84850 115.000
21.86844 107.000
21.88839 106.000
21.90834 99.000
21.92828 108.000
21.94823 101.000
21.96818 101.000
21.98812 86.000
22.00807 90.000
22.02802 89.000
22.04796 113.000
22.06791 97.000
22.08786 86.000
22.10781 94.000
22.12775 100.000
22.14770 116.000
22.16765 84.000
22.18759 89.000
22.20754 102.000
22.22749 107.000
22.24743 103.000
22.26738 100.000
22.28733 103.000
22.30728 99.000
22.32722 100.000
22.34717 97.000
22.36712 93.000
22.38706 89.000
22.40701 76.000
22.42696 110.000
22.44690 105.000
22.46685 117.000
22.48680 100.000
22.50675 101.000
22.52669 97.000
22.54664 107.000
22.56659 110.000
22.58653 84.000
22.60648 94.000
22.62643 79.000
22.64637 69.000
22.66632 104.000
22.68627 103.000
22.70621 99.000
22.72616 94.000
22.74611 91.000
22.76606 96.000
22.78600 106.000
22.80595 96.000
22.82590 114.000
22.84584 97.000
22.86579 118.000
22.88574 91.000
22.90568 91.000
22.92563 113.000
22.94558 88.000
22.96553 89.000
22.98547 100.000
23.00542 99.000
23.02537 104.000
23.04531 99.000
23.06526 109.000
23.08521 94.000
23.10515 95.000
23.12510 96.000
23.14505 108.000
23.16499 84.000
23.18494 117.000
23.20489 93.000
23.22484 87.000
23.24478 108.000
23.26473 100.000
23.28468 120.000
23.30462 100.000
23.32457 108.000
23.34452 90.000
23.36446 86.000
23.38441 84.000
23.40436 110.000
23.42431 91.000
23.44425 81.000
23.46420 97.000
23.48415 100.000
23.50409 92.000
23.52404 101.000
23.54399 95.000
23.56393 98.000
23.58388 112.000
23.60383 101.000
23.62377 104.000
23.64372 117.000
23.66367 96.000
23.68362 106.000
23.70356 91.000
23.72351 89.000
23.74346 97.000
23.76340 89.000
23.78335 102.000
23.80330 105.000
23.82324 105.000
23.84319 105.000
23.86314 104.000
23.88309 113.000
23.90303 100.000
23.92298 93.000
23.94293 89.000
23.96287 99.000
23.98282 89.000
24.00277 99.000
24.02271 90.000
24.04266 87.000
24.06261 99.000
24.08256 86.000
24.10250 111.000
24.12245 89.000
24.14240 104.000
24.16234 101.000
24.18229 110.000
24.20224 109.000
24.22218 84.000
24.24213 81.000
24.26208 99.000
24.28202 102.000
24.30197 98.000
24.32192 81.000
24.34187 102.000
24.36181 102.000
24.38176 113.000
24.40171 99.000
24.42165 108.000
24.44160 94.000
24.46155 115.000
24.48149 105.000
24.50144 79.000
24.52139 96.000
24.54134 112.000
24.56128 107.000
24.58123 93.000
24.60118 93.000
24.62112 84.000
24.64107 90.000
24.66102 111.000
24.68096 127.000
24.70091 97.000
24.72086 86.000
24.74080 96.000
24.76075 110.000
24.78070 109.000
24.80065 97.000
24.82059 105.000
24.84054 92.000
24.86049 117.000
24.88043 105.000
24.90038 102.000
24.92033 99.000
24.94027 104.000
24.96022 109.000
24.98017 94.000
25.00012 109.000
25.02006 110.000
25.04001 115.000
25.05996 102.000
25.07990 114.000
25.09985 92.000
25.11980 135.000
25.13974 107.000
25.15969 85.000
25.17964 109.000
25.19958 121.000
25.21953 98.000
25.23948 96.000
25.25943 109.000
25.27937 111.000
25.29932 124.000
25.31927 100.000
25.33921 119.000
25.35916 104.000
25.37911 91.000
25.39905 116.000
25.41900 107.000
25.43895 102.000
25.45890 112.000
25.47884 103.000
25.49879 112.000
25.51874 102.000
25.53868 117.000
25.55863 104.000
25.57858 108.000
25.59852 99.000
25.61847 105.000
25.63842 93.000
25.65837 108.000
25.67831 104.000
25.69826 107.000
25.71821 104.000
25.73815 103.000
25.75810 103.000
25.77805 104.000
25.79799 97.000
25.81794 119.000
25.83789 95.000
25.85783 98.000
25.87778 80.000
25.89773 122.000
25.91768 95.000
25.93762 107.000
25.95757 120.000
25.97752 102.000
25.99746 102.000
26.01741 85.000
26.03736 104.000
26.05730 112.000
26.07725 121.000
26.09720 94.000
26.11715 103.000
26.13709 112.000
26.15704 92.000
26.17699 106.000
26.19693 104.000
26.21688 108.000
26.23683 104.000
26.25677 94.000
26.27672 85.000
26.29667 92.000
26.31661 110.000
26.33656 105.000
26.35651 112.000
26.37646 96.000
26.39640 98.000
26.41635 89.000
26.43630 102.000
26.45624 84.000
26.47619 102.000
26.49614 97.000
26.51608 112.000
26.53603 92.000
26.55598 103.000
26.57593 88.000
26.59587 96.000
26.61582 115.000
26.63577 92.000
26.65571 114.000
26.67566 105.000
26.69561 110.000
26.71555 91.000
26.73550 98.000
26.75545 103.000
26.77539 99.000
26.79534 107.000
26.81529 105.000
26.83524 99.000
26.85518 90.000
26.87513 96.000
26.89508 97.000
26.91502 114.000
26.93497 105.000
26.95492 92.000
26.97486 100.000
26.99481 102.000
27.01476 90.000
27.03471 83.000
27.05465 116.000
27.07460 100.000
27.09455 108.000
27.11449 98.000
27.13444 109.000
27.15439 116.000
27.17433 106.000
27.19428 84.000
27.21423 103.000
27.23417 100.000
27.25412 118.000
27.27407 110.000
27.29402 101.000
27.31396 106.000
27.33391 117.000
27.35386 109.000
27.37380 72.000
27.39375 97.000
27.41370 114.000
27.43364 125.000
27.45359 80.000
27.47354 107.000
27.49349 102.000
27.51343 109.000
27.53338 127.000
27.55333 87.000
27.57327 94.000
27.59322 111.000
27.61317 93.000
27.63311 102.000
27.65306 108.000
27.67301 88.000
27.69296 92.000
27.71290 92.000
27.73285 95.000
27.75280 112.000
27.77274 113.000
27.79269 106.000
27.81264 96.000
27.83258 116.000
27.85253 96.000
27.87248 107.000
27.89242 106.000
27.91237 105.000
27.93232 102.000
27.95227 112.000
27.97221 90.000
27.99216 133.000
28.01211 88.000
28.03205 98.000
28.05200 100.000
28.07195 118.000
28.09189 101.000
28.11184 103.000
28.13179 124.000
28.15174 99.000
28.17168 97.000
28.19163 122.000
28.21158 107.000
28.23152 93.000
28.25147 90.000
28.27142 114.000
28.29136 118.000
28.31131 103.000
28.33126 111.000
28.35120 102.000
28.37115 106.000
28.39110 94.000
28.41105 115.000
28.43099 84.000
28.45094 103.000
28.47089 103.000
28.49083 98.000
28.51078 122.000
28.53073 104.000
28.55067 101.000
28.57062 105.000
28.59057 119.000
28.61052 106.000
28.63046 85.000
28.65041 84.000
28.67036 110.000
28.69030 93.000
28.71025 131.000
28.73020 115.000
28.75014 112.000
28.77009 100.000
28.79004 104.000
28.80998 94.000
28.82993 122.000
28.84988 99.000
28.86983 96.000
28.88977 103.000
28.90972 106.000
28.92967 124.000
28.94961 103.000
28.96956 108.000
28.98951 97.000
29.00945 104.000
29.02940 106.000
29.04935 119.000
29.06930 107.000
29.08924 101.000
29.10919 82.000
29.12914 96.000
29.14908 107.000
29.16903 94.000
29.18898 102.000
29.20892 114.000
29.22887 102.000
29.24882 96.000
29.26877 117.000
29.28871 125.000
29.30866 127.000
29.32861 99.000
29.34855 120.000
29.36850 116.000
29.38845 124.000
29.40839 94.000
29.42834 127.000
29.44829 122.000
29.46823 128.000
29.48818 125.000
29.50813 119.000
29.52808 131.000
29.54802 119.000
29.56797 136.000
29.58792 112.000
29.60786 141.000
29.62781 130.000
29.64776 124.000
29.66770 137.000
29.68765 121.000
29.70760 141.000
29.72755 137.000
29.74749 125.000
29.76744 135.000
29.78739 142.000
29.80733 157.000
29.82728 155.000
29.84723 159.000
29.86717 174.000
29.88712 182.000
29.90707 219.000
29.92701 239.000
29.94696 261.000
29.96691 316.000
29.98686 351.000
30.00680 418.000
30.02675 468.000
30.04670 596.000
30.06664 615.000
30.08659 615.000
30.10654 659.000
30.12648 600.000
30.14643 574.000
30.16638 522.000
30.18633 407.000
30.20627 375.000
30.22622 288.000
30.24617 253.000
30.26611 219.000
30.28606 193.000
30.30601 174.000
30.32595 169.000
30.34590 150.000
30.36585 145.000
30.38579 158.000
30.40574 129.000
30.42569 150.000
30.44564 144.000
30.46558 149.000
30.48553 123.000
30.50548 138.000
30.52542 138.000
30.54537 122.000
30.56532 125.000
30.58526 120.000
30.60521 132.000
30.62516 134.000
30.64511 147.000
30.66505 116.000
30.68500 112.000
30.70495 124.000
30.72489 124.000
30.74484 107.000
30.76479 135.000
30.78473 117.000
30.80468 125.000
30.82463 95.000
30.84458 124.000
30.86452 123.000
30.88447 132.000
30.90442 128.000
30.92436 131.000
30.94431 110.000
30.96426 127.000
30.98420 121.000
31.00415 127.000
31.02410 108.000
31.04404 103.000
31.06399 103.000
31.08394 122.000
31.10389 123.000
31.12383 117.000
31.14378 134.000
31.16373 133.000
31.18367 133.000
31.20362 102.000
31.22357 141.000
31.24351 110.000
31.26346 137.000
31.28341 118.000
31.30336 137.000
31.32330 131.000
31.34325 125.000
31.36320 130.000
31.38314 142.000
31.40309 144.000
31.42304 144.000
31.44298 150.000
31.46293 167.000
31.48288 161.000
31.50282 194.000
31.52277 234.000
31.54272 259.000
31.56267 343.000
31.58261 489.000
31.60256 701.000
31.62251 817.000
31.64245 896.000
31.66240 757.000
31.68235 587.000
31.70229 622.000
31.72224 515.000
31.74219 386.000
31.76214 262.000
31.78208 223.000
31.80203 195.000
31.82198 166.000
31.84192 141.000
31.86187 137.000
31.88182 133.000
31.90176 136.000
31.92171 124.000
31.94166 128.000
31.96160 139.000
31.98155 133.000
32.00150 120.000
32.02145 108.000
32.04139 146.000
32.06134 110.000
32.08129 106.000
32.10123 116.000
32.12118 117.000
32.14113 116.000
32.16107 106.000
32.18102 99.000
32.20097 103.000
32.22092 124.000
32.24086 117.000
32.26081 120.000
32.28076 108.000
32.30070 112.000
32.32065 107.000
32.34060 112.000
32.36054 83.000
32.38049 88.000
32.40044 110.000
32.42039 99.000
32.44033 118.000
32.46028 117.000
32.48023 89.000
32.50017 120.000
32.52012 112.000
32.54007 115.000
32.56001 121.000
32.57996 96.000
32.59991 97.000
32.61985 111.000
32.63980 113.000
32.65975 115.000
32.67970 125.000
32.69964 100.000
32.71959 97.000
32.73954 104.000
32.75948 108.000
32.77943 102.000
32.79938 81.000
32.81932 89.000
32.83927 117.000
32.85922 114.000
32.87917 112.000
32.89911 97.000
32.91906 112.000
32.93901 111.000
32.95895 107.000
32.97890 102.000
32.99885 98.000
33.01879 104.000
33.03874 109.000
33.05869 117.000
33.07863 88.000
33.09858 108.000
33.11853 102.000
33.13848 88.000
33.15842 106.000
33.17837 88.000
33.19832 84.000
33.21826 100.000
33.23821 108.000
33.25816 101.000
33.27810 117.000
33.29805 99.000
33.31800 103.000
33.33795 86.000
33.35789 117.000
33.37784 86.000
33.39779 100.000
33.41773 106.000
33.43768 110.000
33.45763 105.000
33.47757 106.000
33.49752 105.000
33.51747 99.000
33.53741 108.000
33.55736 111.000
33.57731 93.000
33.59726 105.000
33.61720 103.000
33.63715 108.000
33.65710 109.000
33.67704 122.000
33.69699 112.000
33.71694 110.000
33.73688 113.000
33.75683 136.000
33.77678 87.000
33.79673 127.000
33.81667 107.000
33.83662 96.000
33.85657 107.000
33.87651 102.000
33.89646 104.000
33.91641 120.000
33.93635 110.000
33.95630 132.000
33.97625 109.000
33.99620 124.000
34.01614 136.000
34.03609 114.000
34.05604 113.000
34.07598 103.000
34.09593 117.000
34.11588 96.000
34.13582 136.000
34.15577 123.000
34.17572 137.000
34.19566 121.000
34.21561 119.000
34.23556 137.000
34.25551 103.000
34.27545 125.000
34.29540 118.000
34.31535 116.000
34.33529 123.000
34.35524 117.000
34.37519 120.000
34.39513 143.000
34.41508 119.000
34.43503 144.000
34.45498 130.000
34.47492 152.000
34.49487 126.000
34.51482 144.000
34.53476 138.000
34.55471 146.000
34.57466 147.000
34.59460 128.000
34.61455 134.000
34.63450 149.000
34.65444 148.000
34.67439 131.000
34.69434 129.000
34.71429 153.000
34.73423 159.000
34.75418 150.000
34.77413 146.000
34.79407 145.000
34.81402 148.000
34.83397 162.000
34.85391 176.000
34.87386 161.000
34.89381 165.000
34.91376 151.000
34.93370 174.000
34.95365 183.000
34.97360 193.000
34.99354 182.000
35.01349 211.000
35.03344 183.000
35.05338 218.000
35.07333 221.000
35.09328 210.000
35.11322 227.000
35.13317 241.000
35.15312 289.000
35.17307 313.000
35.19301 344.000
35.21296 374.000
35.23291 439.000
35.25285 520.000
35.27280 582.000
35.29275 694.000
35.31269 804.000
35.33264 944.000
35.35259 1071.000
35.37254 1269.000
35.39248 1386.000
35.41243 1475.000
35.43238 1542.000
35.45232 1658.000
35.47227 1518.000
35.49222 1438.000
35.51216 1354.000
35.53211 1266.000
35.55206 1150.000
35.57201 985.000
35.59195 826.000
35.61190 744.000
35.63185 615.000
35.65179 518.000
35.67174 425.000
35.69169 363.000
35.71163 346.000
35.73158 334.000
35.75153 310.000
35.77147 320.000
35.79142 334.000
35.81137 329.000
35.83132 366.000
35.85126 450.000
35.87121 564.000
35.89116 724.000
35.91110 761.000
35.93105 698.000
35.95100 640.000
35.97094 600.000
35.99089 570.000
36.01084 499.000
36.03079 446.000
36.05073 387.000
36.07068 312.000
36.09063 260.000
36.11057 240.000
36.13052 244.000
36.15047 235.000
36.17041 218.000
36.19036 197.000
36.21031 192.000
36.23025 195.000
36.25020 192.000
36.27015 171.000
36.29010 195.000
36.31004 168.000
36.32999 164.000
36.34994 161.000
36.36988 158.000
36.38983 168.000
36.40978 140.000
36.42972 178.000
36.44967 163.000
36.46962 149.000
36.48957 160.000
36.50951 142.000
36.52946 144.000
36.54941 152.000
36.56935 130.000
36.58930 166.000
36.60925 154.000
36.62919 178.000
36.64914 162.000
36.66909 153.000
36.68903 180.000
36.70898 151.000
36.72893 174.000
36.74888 171.000
36.76882 181.000
36.78877 211.000
36.80872 208.000
36.82866 202.000
36.84861 219.000
36.86856 203.000
36.88850 239.000
36.90845 225.000
36.92840 199.000
36.94835 201.000
36.96829 193.000
36.98824 231.000
37.00819 224.000
37.02813 225.000
37.04808 258.000
37.06803 239.000
37.08797 262.000
37.10792 244.000
37.12787 235.000
37.14781 221.000
37.16776 187.000
37.18771 201.000
37.20766 198.000
37.22760 168.000
37.24755 164.000
37.26750 156.000
37.28744 183.000
37.30739 118.000
37.32734 132.000
37.34728 139.000
37.36723 139.000
37.38718 153.000
37.40713 137.000
37.42707 125.000
37.44702 117.000
37.46697 123.000
37.48691 145.000
37.50686 136.000
37.52681 113.000
37.54675 142.000
37.56670 111.000
37.58665 141.000
37.60660 134.000
37.62654 141.000
37.64649 131.000
37.66644 138.000
37.68638 138.000
37.70633 115.000
37.72628 118.000
37.74622 119.000
37.76617 104.000
37.78612 120.000
37.80606 121.000
37.82601 112.000
37.84596 144.000
37.86591 127.000
37.88585 124.000
37.90580 117.000
37.92575 125.000
37.94569 121.000
37.96564 117.000
37.98559 106.000
38.00553 131.000
38.02548 104.000
38.04543 115.000
38.06538 119.000
38.08532 116.000
38.10527 145.000
38.12522 125.000
38.14516 115.000
38.16511 129.000
38.18506 135.000
38.20500 137.000
38.22495 144.000
38.24490 121.000
38.26484 140.000
38.28479 125.000
38.30474 142.000
38.32469 109.000
38.34463 135.000
38.36458 150.000
38.38453 133.000
38.40447 139.000
38.42442 128.000
38.44437 153.000
38.46431 154.000
38.48426 130.000
38.50421 120.000
38.52416 130.000
38.54410 131.000
38.56405 140.000
38.58400 138.000
38.60394 143.000
38.62389 128.000
38.64384 148.000
38.66378 137.000
38.68373 143.000
38.70368 139.000
38.72362 142.000
38.74357 153.000
38.76352 140.000
38.78347 142.000
38.80341 130.000
38.82336 147.000
38.84331 152.000
38.86325 140.000
38.88320 125.000
38.90315 136.000
38.92309 177.000
38.94304 152.000
38.96299 186.000
38.98294 151.000
39.00288 170.000
39.02283 153.000
39.04278 199.000
39.06272 199.000
39.08267 184.000
39.10262 206.000
39.12256 181.000
39.14251 244.000
39.16246 204.000
39.18241 230.000
39.20235 244.000
39.22230 274.000
39.24225 313.000
39.26219 343.000
39.28214 363.000
39.30209 457.000
39.32203 523.000
39.34198 698.000
39.36193 831.000
39.38187 938.000
39.40182 959.000
39.42177 867.000
39.44172 775.000
39.46166 746.000
39.48161 731.000
39.50156 704.000
39.52150 586.000
39.54145 446.000
39.56140 371.000
39.58134 332.000
39.60129 274.000
39.62124 242.000
39.64119 238.000
39.66113 231.000
39.68108 206.000
39.70103 166.000
39.72097 180.000
39.74092 142.000
39.76087 156.000
39.78081 160.000
39.80076 134.000
39.82071 151.000
39.84065 156.000
39.86060 163.000
39.88055 131.000
39.90050 141.000
39.92044 133.000
39.94039 127.000
39.96034 138.000
39.98028 123.000
40.00023 138.000
40.02018 129.000
40.04012 118.000
40.06007 118.000
40.08002 130.000
40.09997 108.000
40.11991 108.000
40.13986 109.000
40.15981 107.000
40.17975 128.000
40.19970 109.000
40.21965 116.000
40.23959 92.000
40.25954 95.000
40.27949 117.000
40.29943 128.000
40.31938 125.000
40.33933 108.000
40.35928 117.000
40.37922 129.000
40.39917 103.000
40.41912 92.000
40.43906 98.000
40.45901 117.000
40.47896 103.000
40.49890 133.000
40.51885 119.000
40.53880 104.000
40.55875 110.000
40.57869 111.000
40.59864 105.000
40.61859 107.000
40.63853 94.000
40.65848 102.000
40.67843 105.000
40.69837 127.000
40.71832 117.000
40.73827 106.000
40.75822 118.000
40.77816 123.000
40.79811 107.000
40.81806 103.000
40.83800 119.000
40.85795 107.000
40.87790 122.000
40.89784 127.000
40.91779 130.000
40.93774 115.000
40.95768 107.000
40.97763 100.000
40.99758 107.000
41.01753 101.000
41.03747 105.000
41.05742 94.000
41.07737 111.000
41.09731 109.000
41.11726 103.000
41.13721 120.000
41.15715 107.000
41.17710 110.000
41.19705 120.000
41.21700 108.000
41.23694 112.000
41.25689 110.000
41.27684 93.000
41.29678 93.000
41.31673 96.000
41.33668 108.000
41.35662 99.000
41.37657 116.000
41.39652 108.000
41.41646 129.000
41.43641 102.000
41.45636 101.000
41.47631 109.000
41.49625 114.000
41.51620 123.000
41.53615 113.000
41.55609 123.000
41.57604 112.000
41.59599 111.000
41.61593 111.000
41.63588 115.000
41.65583 97.000
41.67578 123.000
41.69572 101.000
41.71567 106.000
41.73562 113.000
41.75556 114.000
41.77551 133.000
41.79546 104.000
41.81540 119.000
41.83535 119.000
41.85530 104.000
41.87524 121.000
41.89519 123.000
41.91514 121.000
41.93509 121.000
41.95503 105.000
41.97498 106.000
41.99493 107.000
42.01487 124.000
42.03482 111.000
42.05477 119.000
42.07471 127.000
42.09466 118.000
42.11461 132.000
42.13456 129.000
42.15450 120.000
42.17445 122.000
42.19440 117.000
42.21434 117.000
42.23429 137.000
42.25424 135.000
42.27418 124.000
42.29413 130.000
42.31408 117.000
42.33403 119.000
42.35397 120.000
42.37392 122.000
42.39387 108.000
42.41381 127.000
42.43376 115.000
42.45371 115.000
42.47365 140.000
42.49360 140.000
42.51355 147.000
42.53349 110.000
42.55344 117.000
42.57339 132.000
42.59334 118.000
42.61328 141.000
42.63323 137.000
42.65318 133.000
42.67312 145.000
42.69307 159.000
42.71302 162.000
42.73296 178.000
42.75291 145.000
42.77286 168.000
42.79281 169.000
42.81275 183.000
42.83270 207.000
42.85265 204.000
42.87259 209.000
42.89254 243.000
42.91249 251.000
42.93243 278.000
42.95238 259.000
42.97233 291.000
42.99227 309.000
43.01222 322.000
43.03217 354.000
43.05212 346.000
43.07206 396.000
43.09201 401.000
43.11196 375.000
43.13190 385.000
43.15185 378.000
43.17180 375.000
43.19174 356.000
43.21169 317.000
43.23164 351.000
43.25159 355.000
43.27153 298.000
43.29148 317.000
43.31143 321.000
43.33137 334.000
43.35132 378.000
43.37127 389.000
43.39121 432.000
43.41116 427.000
43.43111 425.000
43.45105 394.000
43.47100 404.000
43.49095 391.000
43.51090 331.000
43.53084 312.000
43.55079 313.000
43.57074 285.000
43.59068 244.000
43.61063 195.000
43.63058 195.000
43.65052 188.000
43.67047 183.000
43.69042 210.000
43.71037 151.000
43.73031 165.000
43.75026 129.000
43.77021 135.000
43.79015 135.000
43.81010 149.000
43.83005 155.000
43.84999 146.000
43.86994 148.000
43.88989 136.000
43.90984 118.000
43.92978 120.000
43.94973 133.000
43.96968 144.000
43.98962 119.000
44.00957 137.000
44.02952 134.000
44.04946 134.000
44.06941 122.000
44.08936 135.000
44.10930 123.000
44.12925 121.000
44.14920 107.000
44.16915 110.000
44.18909 105.000
44.20904 101.000
44.22899 111.000
44.24893 140.000
44.26888 119.000
44.28883 127.000
44.30877 123.000
44.32872 116.000
44.34867 118.000
44.36862 111.000
44.38856 109.000
44.40851 114.000
44.42846 100.000
44.44840 136.000
44.46835 117.000
44.48830 115.000
44.50824 110.000
44.52819 105.000
44.54814 113.000
44.56808 127.000
44.58803 114.000
44.60798 141.000
44.62793 104.000
44.64787 108.000
44.66782 108.000
44.68777 98.000
44.70771 115.000
44.72766 116.000
44.74761 100.000
44.76755 91.000
44.78750 100.000
44.80745 99.000
44.82740 123.000
44.84734 110.000
44.86729 105.000
44.88724 91.000
44.90718 110.000
44.92713 110.000
44.94708 99.000
44.96702 125.000
44.98697 113.000
45.00692 97.000
45.02686 119.000
45.04681 108.000
45.06676 118.000
45.08671 93.000
45.10665 116.000
45.12660 113.000
45.14655 93.000
45.16649 104.000
45.18644 107.000
45.20639 122.000
45.22633 95.000
45.24628 113.000
45.26623 102.000
45.28618 100.000
45.30612 104.000
45.32607 117.000
45.34602 103.000
45.36596 144.000
45.38591 111.000
45.40586 113.000
45.42580 108.000
45.44575 95.000
45.46570 94.000
45.48565 96.000
45.50559 96.000
45.52554 106.000
45.54549 117.000
45.56543 90.000
45.58538 95.000
45.60533 114.000
45.62527 113.000
45.64522 107.000
45.66517 87.000
45.68511 100.000
45.70506 92.000
45.72501 105.000
45.74496 105.000
45.76490 95.000
45.78485 108.000
45.80480 98.000
45.82474 113.000
45.84469 112.000
45.86464 97.000
45.88458 99.000
45.90453 125.000
45.92448 97.000
45.94443 112.000
45.96437 120.000
45.98432 107.000
46.00427 107.000
46.02421 114.000
46.04416 115.000
46.06411 104.000
46.08405 103.000
46.10400 98.000
46.12395 116.000
46.14389 102.000
46.16384 107.000
46.18379 106.000
46.20374 101.000
46.22368 97.000
46.24363 107.000
46.26358 94.000
46.28352 100.000
46.30347 112.000
46.32342 97.000
46.34336 98.000
46.36331 101.000
46.38326 113.000
46.40321 110.000
46.42315 125.000
46.44310 91.000
46.46305 111.000
46.48299 117.000
46.50294 128.000
46.52289 109.000
46.54283 113.000
46.56278 89.000
46.58273 100.000
46.60267 124.000
46.62262 110.000
46.64257 112.000
46.66252 121.000
46.68246 124.000
46.70241 116.000
46.72236 109.000
46.74230 121.000
46.76225 117.000
46.78220 119.000
46.80214 88.000
46.82209 118.000
46.84204 132.000
46.86199 120.000
46.88193 115.000
46.90188 93.000
46.92183 108.000
46.94177 111.000
46.96172 102.000
46.98167 129.000
47.00161 120.000
47.02156 108.000
47.04151 112.000
47.06146 108.000
47.08140 126.000
47.10135 120.000
47.12130 112.000
47.14124 109.000
47.16119 106.000
47.18114 139.000
47.20108 122.000
47.22103 120.000
47.24098 104.000
47.26092 116.000
47.28087 124.000
47.30082 116.000
47.32077 114.000
47.34071 105.000
47.36066 111.000
47.38061 126.000
47.40055 124.000
47.42050 107.000
47.44045 108.000
47.46039 120.000
47.48034 111.000
47.50029 108.000
47.52024 122.000
47.54018 111.000
47.56013 127.000
47.58008 115.000
47.60002 124.000
47.61997 107.000
47.63992 125.000
47.65986 138.000
47.67981 122.000
47.69976 127.000
47.71970 135.000
47.73965 117.000
47.75960 120.000
47.77955 121.000
47.79949 122.000
47.81944 121.000
47.83939 117.000
47.85933 131.000
47.87928 121.000
47.89923 131.000
47.91917 120.000
47.93912 121.000
47.95907 145.000
47.97902 127.000
47.99896 114.000
48.01891 114.000
48.03886 133.000
48.05880 143.000
48.07875 144.000
48.09870 150.000
48.11864 128.000
48.13859 145.000
48.15854 137.000
48.17848 161.000
48.19843 185.000
48.21838 176.000
48.23833 170.000
48.25827 185.000
48.27822 202.000
48.29817 201.000
48.31811 202.000
48.33806 202.000
48.35801 238.000
48.37795 262.000
48.39790 270.000
48.41785 319.000
48.43780 264.000
48.45774 321.000
48.47769 378.000
48.49764 422.000
48.51758 489.000
48.53753 650.000
48.55748 737.000
48.57742 773.000
48.59737 794.000
48.61732 804.000
48.63726 705.000
48.65721 650.000
48.67716 613.000
48.69711 586.000
48.71705 597.000
48.73700 578.000
48.75695 457.000
48.77689 442.000
48.79684 387.000
48.81679 315.000
48.83673 283.000
48.85668 236.000
48.87663 230.000
48.89658 232.000
48.91652 197.000
48.93647 180.000
48.95642 174.000
48.97636 185.000
48.99631 139.000
49.01626 171.000
49.03620 167.000
49.05615 166.000
49.07610 154.000
49.09605 179.000
49.11599 139.000
49.13594 128.000
49.15589 168.000
49.17583 163.000
49.19578 138.000
49.21573 139.000
49.23567 137.000
49.25562 129.000
49.27557 132.000
49.29551 119.000
49.31546 93.000
49.33541 107.000
49.35536 135.000
49.37530 137.000
49.39525 139.000
49.41520 125.000
49.43514 130.000
49.45509 127.000
49.47504 112.000
49.49498 110.000
49.51493 121.000
49.53488 104.000
49.55483 121.000
49.57477 118.000
49.59472 120.000
49.61467 108.000
49.63461 98.000
49.65456 116.000
49.67451 111.000
49.69445 131.000
49.71440 123.000
49.73435 107.000
49.75429 102.000
49.77424 107.000
49.79419 114.000
49.81414 94.000
49.83408 95.000
49.85403 108.000
49.87398 124.000
49.89392 99.000
49.91387 138.000
49.93382 87.000
49.95376 102.000
49.97371 102.000
49.99366 116.000
50.01361 117.000
50.03355 104.000
50.05350 125.000
50.07345 123.000
50.09339 98.000
50.11334 88.000
50.13329 108.000
50.15323 109.000
50.17318 109.000
50.19313 91.000
50.21307 101.000
50.23302 114.000
50.25297 102.000
50.27292 110.000
50.29286 119.000
50.31281 96.000
50.33276 99.000
50.35270 98.000
50.37265 100.000
50.39260 107.000
50.41254 94.000
50.43249 101.000
50.45244 92.000
50.47239 111.000
50.49233 107.000
50.51228 102.000
50.53223 114.000
50.55217 111.000
50.57212 91.000
50.59207 99.000
50.61201 114.000
50.63196 116.000
50.65191 90.000
50.67186 104.000
50.69180 90.000
50.71175 98.000
50.73170 97.000
50.75164 89.000
50.77159 106.000
50.79154 92.000
50.81148 92.000
50.83143 101.000
50.85138 79.000
50.87132 94.000
50.89127 103.000
50.91122 101.000
50.93117 99.000
50.95111 100.000
50.97106 89.000
50.99101 110.000
51.01095 106.000
51.03090 103.000
51.05085 114.000
51.07079 90.000
51.09074 95.000
51.11069 89.000
51.13064 88.000
51.15058 97.000
51.17053 94.000
51.19048 106.000
51.21042 89.000
51.23037 81.000
51.25032 97.000
51.27026 96.000
51.29021 79.000
51.31016 90.000
51.33010 87.000
51.35005 101.000
51.37000 97.000
51.38995 110.000
51.40989 100.000
51.42984 112.000
51.44979 86.000
51.46973 110.000
51.48968 91.000
51.50963 114.000
51.52957 92.000
51.54952 95.000
51.56947 111.000
51.58942 105.000
51.60936 100.000
51.62931 128.000
51.64926 98.000
51.66920 97.000
51.68915 91.000
51.70910 83.000
51.72904 88.000
51.74899 90.000
51.76894 88.000
51.78888 102.000
51.80883 111.000
51.82878 107.000
51.84873 105.000
51.86867 108.000
51.88862 109.000
51.90857 98.000
51.92851 118.000
51.94846 110.000
51.96841 97.000
51.98835 103.000
52.00830 98.000
52.02825 84.000
52.04820 116.000
52.06814 102.000
52.08809 92.000
52.10804 94.000
52.12798 110.000
52.14793 97.000
52.16788 87.000
52.18782 119.000
52.20777 103.000
52.22772 93.000
52.24767 111.000
52.26761 104.000
52.28756 100.000
52.30751 120.000
52.32745 97.000
52.34740 92.000
52.36735 104.000
52.38729 97.000
52.40724 98.000
52.42719 120.000
52.44713 96.000
52.46708 106.000
52.48703 94.000
52.50698 103.000
52.52692 96.000
52.54687 90.000
52.56682 125.000
52.58676 98.000
52.60671 105.000
52.62666 95.000
52.64660 107.000
52.66655 103.000
52.68650 89.000
52.70645 109.000
52.72639 114.000
52.74634 104.000
52.76629 110.000
52.78623 105.000
52.80618 104.000
52.82613 109.000
52.84607 117.000
52.86602 114.000
52.88597 91.000
52.90591 108.000
52.92586 111.000
52.94581 94.000
52.96576 110.000
52.98570 118.000
53.00565 92.000
53.02560 108.000
53.04554 108.000
53.06549 101.000
53.08544 138.000
53.10538 121.000
53.12533 118.000
53.14528 115.000
53.16523 136.000
53.18517 113.000
53.20512 122.000
53.22507 145.000
53.24501 149.000
53.26496 152.000
53.28491 153.000
53.30485 148.000
53.32480 167.000
53.34475 167.000
53.36469 163.000
53.38464 141.000
53.40459 163.000
53.42454 186.000
53.44448 195.000
53.46443 164.000
53.48438 181.000
53.50432 144.000
53.52427 157.000
53.54422 150.000
53.56416 140.000
53.58411 176.000
53.60406 156.000
53.62401 137.000
53.64395 140.000
53.66390 140.000
53.68385 129.000
53.70379 129.000
53.72374 130.000
53.74369 136.000
53.76363 117.000
53.78358 116.000
53.80353 113.000
53.82348 131.000
53.84342 97.000
53.86337 107.000
53.88332 116.000
53.90326 104.000
53.92321 106.000
53.94316 117.000
53.96310 119.000
53.98305 120.000
54.00300 109.000
54.02294 119.000
54.04289 96.000
54.06284 100.000
54.08279 97.000
54.10273 116.000
54.12268 107.000
54.14263 115.000
54.16257 95.000
54.18252 94.000
54.20247 115.000
54.22241 108.000
54.24236 100.000
54.26231 107.000
54.28226 114.000
54.30220 95.000
54.32215 107.000
54.34210 92.000
54.36204 107.000
54.38199 92.000
54.40194 90.000
54.42188 99.000
54.44183 97.000
54.46178 116.000
54.48172 121.000
54.50167 111.000
54.52162 112.000
54.54157 93.000
54.56151 86.000
54.58146 83.000
54.60141 79.000
54.62135 95.000
54.64130 99.000
54.66125 97.000
54.68119 111.000
54.70114 110.000
54.72109 117.000
54.74104 97.000
54.76098 99.000
54.78093 99.000
54.80088 104.000
54.82082 93.000
54.84077 88.000
54.86072 91.000
54.88066 97.000
54.90061 92.000
54.92056 105.000
54.94050 93.000
54.96045 90.000
54.98040 98.000
55.00035 107.000
55.02029 110.000
55.04024 115.000
55.06019 117.000
55.08013 125.000
55.10008 92.000
55.12003 99.000
55.13997 101.000
55.15992 99.000
55.17987 121.000
55.19982 118.000
55.21976 127.000
55.23971 102.000
55.25966 103.000
55.27960 95.000
55.29955 106.000
55.31950 105.000
55.33944 110.000
55.35939 98.000
55.37934 113.000
55.39929 102.000
55.41923 101.000
55.43918 92.000
55.45913 103.000
55.47907 105.000
55.49902 100.000
55.51897 125.000
55.53891 129.000
55.55886 100.000
55.57881 129.000
55.59875 121.000
55.61870 121.000
55.63865 100.000
55.65860 98.000
55.67854 116.000
55.69849 97.000
55.71844 122.000
55.73838 114.000
55.75833 110.000
55.77828 116.000
55.79822 115.000
55.81817 109.000
55.83812 101.000
55.85807 99.000
55.87801 115.000
55.89796 117.000
55.91791 115.000
55.93785 102.000
55.95780 120.000
55.97775 96.000
55.99769 118.000
56.01764 112.000
56.03759 123.000
56.05753 116.000
56.07748 116.000
56.09743 123.000
56.11738 111.000
56.13732 134.000
56.15727 118.000
56.17722 134.000
56.19716 138.000
56.21711 112.000
56.23706 105.000
56.25700 132.000
56.27695 132.000
56.29690 151.000
56.31685 135.000
56.33679 132.000
56.35674 138.000
56.37669 122.000
56.39663 134.000
56.41658 133.000
56.43653 129.000
56.45647 142.000
56.47642 157.000
56.49637 156.000
56.51631 127.000
56.53626 156.000
56.55621 123.000
56.57616 150.000
56.59610 158.000
56.61605 165.000
56.63600 177.000
56.65594 180.000
56.67589 179.000
56.69584 203.000
56.71578 185.000
56.73573 224.000
56.75568 214.000
56.77563 248.000
56.79557 260.000
56.81552 278.000
56.83547 280.000
56.85541 278.000
56.87536 314.000
56.89531 346.000
56.91525 390.000
56.93520 324.000
56.95515 345.000
56.97510 356.000
56.99504 332.000
57.01499 338.000
57.03494 346.000
57.05488 302.000
57.07483 316.000
57.09478 295.000
57.11472 284.000
57.13467 292.000
57.15462 282.000
57.17456 246.000
57.19451 257.000
57.21446 224.000
57.23441 230.000
57.25435 228.000
57.27430 203.000
57.29425 213.000
57.31419 178.000
57.33414 160.000
57.35409 172.000
57.37403 162.000
57.39398 181.000
57.41393 155.000
57.43388 160.000
57.45382 154.000
57.47377 147.000
57.49372 134.000
57.51366 122.000
57.53361 135.000
57.55356 153.000
57.57350 135.000
57.59345 145.000
57.61340 135.000
57.63334 137.000
57.65329 128.000
57.67324 140.000
57.69319 127.000
57.71313 139.000
57.73308 117.000
57.75303 144.000
57.77297 136.000
57.79292 127.000
57.81287 125.000
57.83281 130.000
57.85276 135.000
57.87271 144.000
57.89266 111.000
57.91260 113.000
57.93255 121.000
57.95250 136.000
57.97244 145.000
57.99239 138.000
58.01234 121.000
58.03228 113.000
58.05223 128.000
58.07218 132.000
58.09212 110.000
58.11207 119.000
58.13202 107.000
58.15197 133.000
58.17191 115.000
58.19186 125.000
58.21181 112.000
58.23175 89.000
58.25170 115.000
58.27165 119.000
58.29159 118.000
58.31154 106.000
58.33149 114.000
58.35144 82.000
58.37138 93.000
58.39133 98.000
58.41128 107.000
58.43122 97.000
58.45117 112.000
58.47112 101.000
58.49106 112.000
58.51101 105.000
58.53096 123.000
58.55090 90.000
58.57085 112.000
58.59080 124.000
58.61075 101.000
58.63069 93.000
58.65064 116.000
58.67059 105.000
58.69053 96.000
58.71048 112.000
58.73043 83.000
58.75037 99.000
58.77032 100.000
58.79027 109.000
58.81022 94.000
58.83016 88.000
58.85011 99.000
58.87006 104.000
58.89000 116.000
58.90995 107.000
58.92990 109.000
58.94984 122.000
58.96979 111.000
58.98974 128.000
59.00969 99.000
59.02963 92.000
59.04958 112.000
59.06953 109.000
59.08947 124.000
59.10942 108.000
59.12937 113.000
59.14931 103.000
59.16926 90.000
59.18921 92.000
59.20915 107.000
59.22910 104.000
59.24905 102.000
59.26900 93.000
59.28894 97.000
59.30889 81.000
59.32884 99.000
59.34878 111.000
59.36873 100.000
59.38868 112.000
59.40862 111.000
59.42857 100.000
59.44852 113.000
59.46847 94.000
59.48841 98.000
59.50836 81.000
59.52831 85.000
59.54825 101.000
59.56820 114.000
59.58815 113.000
59.60809 97.000
59.62804 97.000
59.64799 106.000
59.66793 106.000
59.68788 112.000
59.70783 96.000
59.72778 101.000
59.74772 110.000
59.76767 104.000
59.78762 104.000
59.80756 92.000
59.82751 114.000
59.84746 109.000
59.86740 102.000
59.88735 91.000
59.90730 123.000
59.92725 89.000
59.94719 106.000
59.96714 103.000
59.98709 100.000
60.00703 124.000
60.02698 117.000
60.04693 115.000
60.06687 104.000
60.08682 99.000
60.10677 105.000
60.12671 90.000
60.14666 87.000
60.16661 107.000
60.18656 111.000
60.20650 113.000
60.22645 122.000
60.24640 120.000
60.26634 118.000
60.28629 92.000
60.30624 103.000
60.32618 106.000
60.34613 103.000
60.36608 92.000
60.38603 95.000
60.40597 105.000
60.42592 114.000
60.44587 102.000
60.46581 89.000
60.48576 108.000
60.50571 112.000
60.52565 121.000
60.54560 112.000
60.56555 111.000
60.58550 110.000
60.60544 107.000
60.62539 98.000
60.64534 117.000
60.66528 129.000
60.68523 111.000
60.70518 129.000
60.72512 111.000
60.74507 97.000
60.76502 104.000
60.78496 117.000
60.80491 93.000
60.82486 134.000
60.84481 120.000
60.86475 114.000
60.88470 114.000
60.90465 106.000
60.92459 115.000
60.94454 129.000
60.96449 117.000
60.98443 119.000
61.00438 119.000
61.02433 135.000
61.04428 143.000
61.06422 124.000
61.08417 136.000
61.10412 131.000
61.12406 131.000
61.14401 133.000
61.16396 133.000
61.18390 143.000
61.20385 145.000
61.22380 146.000
61.24374 152.000
61.26369 161.000
61.28364 170.000
61.30359 173.000
61.32353 160.000
61.34348 168.000
61.36343 190.000
61.38337 187.000
61.40332 232.000
61.42327 215.000
61.44321 219.000
61.46316 242.000
61.48311 290.000
61.50306 283.000
61.52300 355.000
61.54295 376.000
61.56290 370.000
61.58284 426.000
61.60279 417.000
61.62274 406.000
61.64268 379.000
61.66263 359.000
61.68258 375.000
61.70252 317.000
61.72247 321.000
61.74242 333.000
61.76237 332.000
61.78231 310.000
61.80226 313.000
61.82221 311.000
61.84215 282.000
61.86210 228.000
61.88205 242.000
61.90199 221.000
61.92194 227.000
61.94189 235.000
61.96184 223.000
61.98178 218.000
62.00173 224.000
62.02168 208.000
62.04162 213.000
62.06157 189.000
62.08152 224.000
62.10146 241.000
62.12141 215.000
62.14136 223.000
62.16131 214.000
62.18125 223.000
62.20120 246.000
62.22115 242.000
62.24109 263.000
62.26104 268.000
62.28099 258.000
62.30093 276.000
62.32088 265.000
62.34083 291.000
62.36077 299.000
62.38072 309.000
62.40067 307.000
62.42062 329.000
62.44056 377.000
62.46051 363.000
62.48046 367.000
62.50040 359.000
62.52035 374.000
62.54030 363.000
62.56024 376.000
62.58019 359.000
62.60014 348.000
62.62009 383.000
62.64003 381.000
62.65998 385.000
62.67993 378.000
62.69987 286.000
62.71982 344.000
62.73977 316.000
62.75971 276.000
62.77966 280.000
62.79961 267.000
62.81955 258.000
62.83950 258.000
62.85945 230.000
62.87940 211.000
62.89934 198.000
62.91929 214.000
62.93924 203.000
62.95918 190.000
62.97913 168.000
62.99908 185.000
63.01902 188.000
63.03897 164.000
63.05892 184.000
63.07887 151.000
63.09881 176.000
63.11876 157.000
63.13871 162.000
63.15865 161.000
63.17860 161.000
63.19855 171.000
63.21849 169.000
63.23844 160.000
63.25839 160.000
63.27833 162.000
63.29828 148.000
63.31823 132.000
63.33818 168.000
63.35812 152.000
63.37807 137.000
63.39802 154.000
63.41796 130.000
63.43791 128.000
63.45786 140.000
63.47780 134.000
63.49775 127.000
63.51770 155.000
63.53765 133.000
63.55759 121.000
63.57754 116.000
63.59749 140.000
63.61743 134.000
63.63738 125.000
63.65733 119.000
63.67727 125.000
63.69722 141.000
63.71717 132.000
63.73712 122.000
63.75706 126.000
63.77701 148.000
63.79696 103.000
63.81690 123.000
63.83685 136.000
63.85680 149.000
63.87674 129.000
63.89669 131.000
63.91664 129.000
63.93658 130.000
63.95653 117.000
63.97648 116.000
63.99643 115.000
64.01637 128.000
64.03632 118.000
64.05627 118.000
64.07621 147.000
64.09616 139.000
64.11611 121.000
64.13605 118.000
64.15600 120.000
64.17595 130.000
64.19590 135.000
64.21584 134.000
64.23579 136.000
64.25574 157.000
64.27568 140.000
64.29563 159.000
64.31558 147.000
64.33552 174.000
64.35547 174.000
64.37542 160.000
64.39536 194.000
64.41531 210.000
64.43526 192.000
64.45521 237.000
64.47515 213.000
64.49510 280.000
64.51505 347.000
64.53499 335.000
64.55494 375.000
64.57489 331.000
64.59483 324.000
64.61478 277.000
64.63473 281.000
64.65468 263.000
64.67462 278.000
64.69457 277.000
64.71452 264.000
64.73446 261.000
64.75441 232.000
64.77436 222.000
64.79430 195.000
64.81425 167.000
64.83420 160.000
64.85414 168.000
64.87409 152.000
64.89404 127.000
64.91399 148.000
64.93393 143.000
64.95388 124.000
64.97383 136.000
64.99377 103.000
65.01372 125.000
65.03367 124.000
65.05361 131.000
65.07356 121.000
65.09351 106.000
65.11346 107.000
65.13340 106.000
65.15335 115.000
65.17330 118.000
65.19324 131.000
65.21319 103.000
65.23314 140.000
65.25308 124.000
65.27303 114.000
65.29298 100.000
65.31293 104.000
65.33287 103.000
65.35282 133.000
65.37277 109.000
65.39271 85.000
65.41266 106.000
65.43261 122.000
65.45255 122.000
65.47250 108.000
65.49245 116.000
65.51239 123.000
65.53234 109.000
65.55229 123.000
65.57224 121.000
65.59218 125.000
65.61213 111.000
65.63208 126.000
65.65202 111.000
65.67197 100.000
65.69192 128.000
65.71186 122.000
65.73181 107.000
65.75176 102.000
65.77171 116.000
65.79165 128.000
65.81160 116.000
65.83155 114.000
65.85149 125.000
65.87144 130.000
65.89139 118.000
65.91133 143.000
65.93128 141.000
65.95123 131.000
65.97117 175.000
65.99112 158.000
66.01107 172.000
66.03102 173.000
66.05096 179.000
66.07091 160.000
66.09086 161.000
66.11080 157.000
66.13075 144.000
66.15070 148.000
66.17064 132.000
66.19059 147.000
66.21054 162.000
66.23049 140.000
66.25043 171.000
66.27038 147.000
66.29033 161.000
66.31027 144.000
66.33022 125.000
66.35017 136.000
66.37011 147.000
66.39006 138.000
66.41001 145.000
66.42995 135.000
66.44990 133.000
66.46985 132.000
66.48980 144.000
66.50974 138.000
66.52969 129.000
66.54964 141.000
66.56958 135.000
66.58953 152.000
66.60948 131.000
66.62942 129.000
66.64937 147.000
66.66932 149.000
66.68927 141.000
66.70921 145.000
66.72916 175.000
66.74911 163.000
66.76905 157.000
66.78900 174.000
66.80895 208.000
66.82889 239.000
66.84884 247.000
66.86879 249.000
66.88874 255.000
66.90868 228.000
66.92863 256.000
66.94858 230.000
66.96852 213.000
66.98847 210.000
67.00842 208.000
67.02836 253.000
67.04831 194.000
67.06826 195.000
67.08820 194.000
67.10815 180.000
67.12810 163.000
67.14805 156.000
67.16799 149.000
67.18794 138.000
67.20789 140.000
67.22783 141.000
67.24778 125.000
67.26773 128.000
67.28767 93.000
67.30762 99.000
67.32757 124.000
67.34752 129.000
67.36746 119.000
67.38741 102.000
67.40736 115.000
67.42730 89.000
67.44725 94.000
67.46720 114.000
67.48714 122.000
67.50709 87.000
67.52704 106.000
67.54698 91.000
67.56693 114.000
67.58688 102.000
67.60683 107.000
67.62677 107.000
67.64672 107.000
67.66667 103.000
67.68661 96.000
67.70656 96.000
67.72651 103.000
67.74645 93.000
67.76640 102.000
67.78635 103.000
67.80630 82.000
67.82624 82.000
67.84619 90.000
67.86614 90.000
67.88608 83.000
67.90603 109.000
67.92598 109.000
67.94592 90.000
67.96587 94.000
67.98582 104.000
68.00576 90.000
68.02571 96.000
68.04566 103.000
68.06561 80.000
68.08555 102.000
68.10550 103.000
68.12545 125.000
68.14539 92.000
68.16534 96.000
68.18529 91.000
68.20523 109.000
68.22518 89.000
68.24513 107.000
68.26508 106.000
68.28502 84.000
68.30497 114.000
68.32492 85.000
68.34486 109.000
68.36481 90.000
68.38476 103.000
68.40470 89.000
68.42465 90.000
68.44460 86.000
68.46455 111.000
68.48449 114.000
68.50444 95.000
68.52439 108.000
68.54433 86.000
68.56428 85.000
68.58423 108.000
68.60417 106.000
68.62412 104.000
68.64407 102.000
68.66401 79.000
68.68396 109.000
68.70391 90.000
68.72386 91.000
68.74380 82.000
68.76375 97.000
68.78370 98.000
68.80364 84.000
68.82359 114.000
68.84354 96.000
68.86348 99.000
68.88343 115.000
68.90338 105.000
68.92333 90.000
68.94327 91.000
68.96322 85.000
68.98317 115.000
69.00311 76.000
69.02306 92.000
69.04301 114.000
69.06295 71.000
69.08290 111.000
69.10285 77.000
69.12279 94.000
69.14274 93.000
69.16269 84.000
69.18264 102.000
69.20258 88.000
69.22253 99.000
69.24248 106.000
69.26242 99.000
69.28237 90.000
69.30232 109.000
69.32226 102.000
69.34221 106.000
69.36216 104.000
69.38211 84.000
69.40205 99.000
69.42200 127.000
69.44195 92.000
69.46189 83.000
69.48184 102.000
69.50179 104.000
69.52173 106.000
69.54168 93.000
69.56163 104.000
69.58157 99.000
69.60152 80.000
69.62147 88.000
69.64142 89.000
69.66136 76.000
69.68131 91.000
69.70126 99.000
69.72120 106.000
69.74115 80.000
69.76110 102.000
69.78104 105.000
69.80099 91.000
69.82094 85.000
69.84089 116.000
69.86083 76.000
69.88078 86.000
69.90073 96.000
69.92067 109.000
69.94062 91.000
69.96057 98.000
69.98051 78.000
70.00046 98.000
70.02041 97.000
70.04035 99.000
70.06030 109.000
70.08025 101.000
70.10020 87.000
70.12014 83.000
70.14009 75.000
70.16004 96.000
70.17998 112.000
70.19993 91.000
70.21988 112.000
70.23982 92.000
70.25977 103.000
70.27972 98.000
70.29967 116.000
70.31961 79.000
70.33956 114.000
70.35951 105.000
70.37945 101.000
70.39940 98.000
70.41935 109.000
70.43929 82.000
70.45924 105.000
70.47919 99.000
70.49914 96.000
70.51908 97.000
70.53903 111.000
70.55898 96.000
70.57892 81.000
70.59887 114.000
70.61882 105.000
70.63876 95.000
70.65871 104.000
70.67866 118.000
70.69860 101.000
70.71855 76.000
70.73850 94.000
70.75845 118.000
70.77839 94.000
70.79834 92.000
70.81829 88.000
70.83823 102.000
70.85818 115.000
70.87813 101.000
70.89807 94.000
70.91802 129.000
70.93797 132.000
70.95792 104.000
70.97786 118.000
70.99781 111.000
71.01776 105.000
71.03770 104.000
71.05765 115.000
71.07760 98.000
71.09754 93.000
71.11749 90.000
71.13744 123.000
71.15738 113.000
71.17733 111.000
71.19728 101.000
71.21723 93.000
71.23717 87.000
71.25712 94.000
71.27707 100.000
71.29701 104.000
71.31696 88.000
71.33691 104.000
71.35685 100.000
71.37680 86.000
71.39675 98.000
71.41670 79.000
71.43664 77.000
71.45659 90.000
71.47654 110.000
71.49648 79.000
71.51643 96.000
71.53638 113.000
71.55632 96.000
71.57627 84.000
71.59622 106.000
71.61616 89.000
71.63611 97.000
71.65606 90.000
71.67601 110.000
71.69595 96.000
71.71590 106.000
71.73585 99.000
71.75579 85.000
71.77574 96.000
71.79569 113.000
71.81563 87.000
71.83558 97.000
71.85553 98.000
71.87548 101.000
71.89542 129.000
71.91537 102.000
71.93532 101.000
71.95526 86.000
71.97521 95.000
71.99516 112.000
72.01510 89.000
72.03505 120.000
72.05500 104.000
72.07495 101.000
72.09489 101.000
72.11484 86.000
72.13479 88.000
72.15473 110.000
72.17468 93.000
72.19463 90.000
72.21457 99.000
72.23452 111.000
72.25447 100.000
72.27441 90.000
72.29436 94.000
72.31431 104.000
72.33426 106.000
72.35420 102.000
72.37415 107.000
72.39410 100.000
72.41404 109.000
72.43399 97.000
72.45394 94.000
72.47388 84.000
72.49383 108.000
72.51378 97.000
72.53373 99.000
72.55367 113.000
72.57362 108.000
72.59357 99.000
72.61351 106.000
72.63346 101.000
72.65341 82.000
72.67335 99.000
72.69330 98.000
72.71325 110.000
72.73319 100.000
72.75314 113.000
72.77309 111.000
72.79304 93.000
72.81298 121.000
72.83293 93.000
72.85288 83.000
72.87282 95.000
72.89277 94.000
72.91272 91.000
72.93266 104.000
72.95261 113.000
72.97256 113.000
72.99251 98.000
73.01245 94.000
73.03240 93.000
73.05235 91.000
73.07229 110.000
73.09224 114.000
73.11219 105.000
73.13213 105.000
73.15208 106.000
73.17203 122.000
73.19197 107.000
73.21192 108.000
73.23187 82.000
73.25182 132.000
73.27176 97.000
73.29171 116.000
73.31166 119.000
73.33160 130.000
73.35155 122.000
73.37150 137.000
73.39144 110.000
73.41139 121.000
73.43134 129.000
73.45129 126.000
73.47123 149.000
73.49118 138.000
73.51113 143.000
73.53107 145.000
73.55102 153.000
73.57097 171.000
73.59091 164.000
73.61086 170.000
73.63081 153.000
73.65076 178.000
73.67070 176.000
73.69065 162.000
73.71060 178.000
73.73054 166.000
73.75049 161.000
73.77044 169.000
73.79038 189.000
73.81033 191.000
73.83028 197.000
73.85022 156.000
73.87017 176.000
73.89012 174.000
73.91007 169.000
73.93001 144.000
73.94996 164.000
73.96991 142.000
73.98985 175.000
74.00980 157.000
74.02975 154.000
74.04969 166.000
74.06964 155.000
74.08959 141.000
74.10954 135.000
74.12948 142.000
74.14943 166.000
74.16938 155.000
74.18932 143.000
74.20927 154.000
74.22922 145.000
74.24916 129.000
74.26911 105.000
74.28906 111.000
74.30900 144.000
74.32895 116.000
74.34890 125.000
74.36885 114.000
74.38879 116.000
74.40874 118.000
74.42869 122.000
74.44863 117.000
74.46858 115.000
74.48853 105.000
74.50847 121.000
74.52842 118.000
74.54837 115.000
74.56832 126.000
74.58826 126.000
74.60821 138.000
74.62816 123.000
74.64810 127.000
74.66805 131.000
74.68800 112.000
74.70794 115.000
74.72789 123.000
74.74784 135.000
74.76778 116.000
74.78773 116.000
74.80768 102.000
74.82763 107.000
74.84757 120.000
74.86752 130.000
74.88747 126.000
74.90741 121.000
74.92736 115.000
74.94731 139.000
74.96725 129.000
74.98720 107.000
75.00715 129.000
75.02710 122.000
75.04704 110.000
75.06699 114.000
75.08694 137.000
75.10688 117.000
75.12683 123.000
75.14678 129.000
75.16672 115.000
75.18667 117.000
75.20662 109.000
75.22657 114.000
75.24651 125.000
75.26646 117.000
75.28641 132.000
75.30635 102.000
75.32630 113.000
75.34625 111.000
75.36619 114.000
75.38614 116.000
75.40609 114.000
75.42603 103.000
75.44598 103.000
75.46593 105.000
75.48588 90.000
75.50582 86.000
75.52577 109.000
75.54572 117.000
75.56566 95.000
75.58561 109.000
75.60556 109.000
75.62550 101.000
75.64545 97.000
75.66540 91.000
75.68535 102.000
75.70529 111.000
75.72524 99.000
75.74519 97.000
75.76513 108.000
75.78508 108.000
75.80503 115.000
75.82497 103.000
75.84492 88.000
75.86487 107.000
75.88481 98.000
75.90476 101.000
75.92471 101.000
75.94466 115.000
75.96460 108.000
75.98455 112.000
76.00450 108.000
76.02444 110.000
76.04439 117.000
76.06434 119.000
76.08428 119.000
76.10423 139.000
76.12418 156.000
76.14413 138.000
76.16407 108.000
76.18402 135.000
76.20397 107.000
76.22391 103.000
76.24386 121.000
76.26381 118.000
76.28375 102.000
76.30370 127.000
76.32365 105.000
76.34359 112.000
76.36354 121.000
76.38349 90.000
76.40344 117.000
76.42338 106.000
76.44333 100.000
76.46328 119.000
76.48322 105.000
76.50317 96.000
76.52312 110.000
76.54306 101.000
76.56301 87.000
76.58296 85.000
76.60291 88.000
76.62285 107.000
76.64280 120.000
76.66275 85.000
76.68269 97.000
76.70264 98.000
76.72259 103.000
76.74253 98.000
76.76248 96.000
76.78243 98.000
76.80238 98.000
76.82232 107.000
76.84227 110.000
76.86222 104.000
76.88216 112.000
76.90211 105.000
76.92206 103.000
76.94200 88.000
76.96195 109.000
76.98190 110.000
77.00184 107.000
77.02179 104.000
77.04174 86.000
77.06169 99.000
77.08163 117.000
77.10158 121.000
77.12153 104.000
77.14147 106.000
77.16142 111.000
77.18137 118.000
77.20131 122.000
77.22126 103.000
77.24121 117.000
77.26116 96.000
77.28110 132.000
77.30105 107.000
77.32100 135.000
77.34094 126.000
77.36089 119.000
77.38084 131.000
77.40078 132.000
77.42073 152.000
77.44068 160.000
77.46062 155.000
77.48057 162.000
77.50052 184.000
77.52047 167.000
77.54041 169.000
77.56036 160.000
77.58031 180.000
77.60025 166.000
77.62020 192.000
77.64015 171.000
77.66009 163.000
77.68004 161.000
77.69999 149.000
77.71994 160.000
77.73988 175.000
77.75983 180.000
77.77978 147.000
77.79972 153.000
77.81967 135.000
77.83962 154.000
77.85956 157.000
77.87951 130.000
77.89946 131.000
77.91940 112.000
77.93935 150.000
77.95930 161.000
77.97925 130.000
77.99919 129.000
78.01914 122.000
78.03909 152.000
78.05903 124.000
78.07898 119.000
78.09893 118.000
78.11887 106.000
78.13882 113.000
78.15877 123.000
78.17872 109.000
78.19866 133.000
78.21861 153.000
78.23856 150.000
78.25850 157.000
78.27845 150.000
78.29840 156.000
78.31834 190.000
78.33829 124.000
78.35824 138.000
78.37819 145.000
78.39813 148.000
78.41808 155.000
78.43803 145.000
78.45797 161.000
78.47792 144.000
78.49787 143.000
78.51781 145.000
78.53776 145.000
78.55771 144.000
78.57765 137.000
78.59760 125.000
78.61755 130.000
78.63750 107.000
78.65744 132.000
78.67739 114.000
78.69734 133.000
78.71728 111.000
78.73723 135.000
78.75718 137.000
78.77712 125.000
78.79707 97.000
78.81702 98.000
78.83697 110.000
78.85691 99.000
78.87686 116.000
78.89681 116.000
78.91675 112.000
78.93670 110.000
78.95665 103.000
78.97659 97.000
78.99654 96.000
79.01649 106.000
79.03643 110.000
79.05638 82.000
79.07633 90.000
79.09628 96.000
79.11622 94.000
79.13617 98.000
79.15612 96.000
79.17606 97.000
79.19601 107.000
79.21596 98.000
79.23590 103.000
79.25585 114.000
79.27580 100.000
79.29575 95.000
79.31569 118.000
79.33564 100.000
79.35559 109.000
79.37553 113.000
79.39548 108.000
79.41543 86.000
79.43537 126.000
79.45532 97.000
79.47527 93.000
79.49521 116.000
79.51516 89.000
79.53511 95.000
79.55506 104.000
79.57500 110.000
79.59495 95.000
79.61490 100.000
79.63484 92.000
79.65479 79.000
79.67474 87.000
79.69468 105.000
79.71463 103.000
79.73458 101.000
79.75453 101.000
79.77447 92.000
79.79442 102.000
79.81437 83.000
79.83431 95.000
79.85426 92.000
79.87421 86.000
79.89415 100.000
79.91410 81.000
79.93405 113.000
79.95399 98.000
79.97394 90.000
79.99389 92.000
80.01384 92.000
80.03378 91.000
80.05373 101.000
80.07368 87.000
80.09362 104.000
80.11357 116.000
80.13352 101.000
80.15346 103.000
80.17341 104.000
80.19336 105.000
80.21331 97.000
80.23325 90.000
80.25320 113.000
80.27315 102.000
80.29309 84.000
80.31304 86.000
80.33299 108.000
80.35293 99.000
80.37288 93.000
80.39283 92.000
80.41278 83.000
80.43272 80.000
80.45267 83.000
80.47262 88.000
80.49256 102.000
80.51251 83.000
80.53246 99.000
80.55240 85.000
80.57235 94.000
80.59230 84.000
80.61224 98.000
80.63219 85.000
80.65214 81.000
80.67209 100.000
80.69203 90.000
80.71198 86.000
80.73193 97.000
80.75187 89.000
80.77182 93.000
80.79177 94.000
80.81171 101.000
80.83166 114.000
80.85161 97.000
80.87156 110.000
80.89150 98.000
80.91145 98.000
80.93140 105.000
80.95134 99.000
80.97129 97.000
80.99124 108.000
81.01118 82.000
81.03113 84.000
81.05108 107.000
81.07102 94.000
81.09097 93.000
81.11092 104.000
81.13087 95.000
81.15081 109.000
81.17076 107.000
81.19071 108.000
81.21065 104.000
81.23060 103.000
81.25055 114.000
81.27049 98.000
81.29044 105.000
81.31039 110.000
81.33034 94.000
81.35028 108.000
81.37023 92.000
81.39018 100.000
81.41012 102.000
81.43007 111.000
81.45002 101.000
81.46996 96.000
81.48991 108.000
81.50986 100.000
81.52980 83.000
81.54975 100.000
81.56970 80.000
81.58965 89.000
81.60959 110.000
81.62954 106.000
81.64949 102.000
81.66943 109.000
81.68938 116.000
81.70933 106.000
81.72927 81.000
81.74922 107.000
81.76917 108.000
81.78912 88.000
81.80906 83.000
81.82901 82.000
81.84896 80.000
81.86890 99.000
81.88885 94.000
81.90880 86.000
81.92874 87.000
81.94869 81.000
81.96864 93.000
81.98859 85.000
82.00853 76.000
82.02848 111.000
82.04843 97.000
82.06837 96.000
82.08832 102.000
82.10827 103.000
82.12821 82.000
82.14816 97.000
82.16811 90.000
82.18805 99.000
82.20800 112.000
82.22795 88.000
82.24790 73.000
82.26784 90.000
82.28779 94.000
82.30774 95.000
82.32768 113.000
82.34763 96.000
82.36758 93.000
82.38752 103.000
82.40747 94.000
82.42742 74.000
82.44737 104.000
82.46731 88.000
82.48726 76.000
82.50721 96.000
82.52715 95.000
82.54710 97.000
82.56705 112.000
82.58699 93.000
82.60694 97.000
82.62689 100.000
82.64683 91.000
82.66678 98.000
82.68673 107.000
82.70668 85.000
82.72662 71.000
82.74657 97.000
82.76652 83.000
82.78646 86.000
82.80641 99.000
82.82636 77.000
82.84630 94.000
82.86625 96.000
82.88620 105.000
82.90615 109.000
82.92609 84.000
82.94604 86.000
82.96599 83.000
82.98593 101.000
83.00588 98.000
83.02583 96.000
83.04577 93.000
83.06572 86.000
83.08567 87.000
83.10561 93.000
83.12556 106.000
83.14551 100.000
83.16546 75.000
83.18540 103.000
83.20535 86.000
83.22530 93.000
83.24524 93.000
83.26519 94.000
83.28514 80.000
83.30508 101.000
83.32503 96.000
83.34498 89.000
83.36493 86.000
83.38487 89.000
83.40482 104.000
83.42477 97.000
83.44471 79.000
83.46466 87.000
83.48461 89.000
83.50455 80.000
83.52450 100.000
83.54445 107.000
83.56440 77.000
83.58434 87.000
83.60429 103.000
83.62424 103.000
83.64418 95.000
83.66413 93.000
83.68408 89.000
83.70402 81.000
83.72397 81.000
83.74392 109.000
83.76386 90.000
83.78381 98.000
83.80376 90.000
83.82371 101.000
83.84365 87.000
83.86360 102.000
83.88355 105.000
83.90349 89.000
83.92344 97.000
83.94339 87.000
83.96333 100.000
83.98328 85.000
84.00323 89.000
84.02318 80.000
84.04312 81.000
84.06307 77.000
84.08302 93.000
84.10296 102.000
84.12291 106.000
84.14286 96.000
84.16280 113.000
84.18275 97.000
84.20270 105.000
84.22264 103.000
84.24259 96.000
84.26254 132.000
84.28249 102.000
84.30243 108.000
84.32238 115.000
84.34233 102.000
84.36227 99.000
84.38222 93.000
84.40217 123.000
84.42211 87.000
84.44206 96.000
84.46201 99.000
84.48196 114.000
84.50190 126.000
84.52185 124.000
84.54180 118.000
84.56174 133.000
84.58169 123.000
84.60164 147.000
84.62158 137.000
84.64153 128.000
84.66148 124.000
84.68142 157.000
84.70137 147.000
84.72132 134.000
84.74127 146.000
84.76121 147.000
84.78116 146.000
84.80111 161.000
84.82105 168.000
84.84100 141.000
84.86095 129.000
84.88089 133.000
84.90084 128.000
84.92079 144.000
84.94074 151.000
84.96068 113.000
84.98063 137.000
85.00058 140.000
85.02052 154.000
85.04047 128.000
85.06042 125.000
85.08036 127.000
85.10031 123.000
85.12026 110.000
85.14021 113.000
85.16015 128.000
85.18010 98.000
85.20005 101.000
85.21999 124.000
85.23994 83.000
85.25989 106.000
85.27983 100.000
85.29978 114.000
85.31973 111.000
85.33967 93.000
85.35962 120.000
85.37957 110.000
85.39952 113.000
85.41946 108.000
85.43941 109.000
85.45936 99.000
85.47930 103.000
85.49925 107.000
85.51920 116.000
85.53914 86.000
85.55909 111.000
85.57904 100.000
85.59899 108.000
85.61893 116.000
85.63888 101.000
85.65883 88.000
85.67877 102.000
85.69872 102.000
85.71867 123.000
85.73861 106.000
85.75856 99.000
85.77851 110.000
85.79845 108.000
85.81840 102.000
85.83835 113.000
85.85830 82.000
85.87824 124.000
85.89819 99.000
85.91814 115.000
85.93808 126.000
85.95803 107.000
85.97798 121.000
85.99792 116.000
86.01787 115.000
86.03782 95.000
86.05777 118.000
86.07771 97.000
86.09766 104.000
86.11761 89.000
86.13755 104.000
86.15750 101.000
86.17745 115.000
86.19739 101.000
86.21734 115.000
86.23729 89.000
86.25723 104.000
86.27718 98.000
86.29713 103.000
86.31708 115.000
86.33702 111.000
86.35697 95.000
86.37692 102.000
86.39686 107.000
86.41681 108.000
86.43676 93.000
86.45670 115.000
86.47665 111.000
86.49660 110.000
86.51655 106.000
86.53649 95.000
86.55644 101.000
86.57639 111.000
86.59633 87.000
86.61628 130.000
86.63623 120.000
86.65617 88.000
86.67612 106.000
86.69607 120.000
86.71602 120.000
86.73596 111.000
86.75591 99.000
86.77586 111.000
86.79580 114.000
86.81575 110.000
86.83570 125.000
86.85564 102.000
86.87559 118.000
86.89554 125.000
86.91548 103.000
86.93543 116.000
86.95538 112.000
86.97533 121.000
86.99527 108.000
87.01522 99.000
87.03517 102.000
87.05511 127.000
87.07506 104.000
87.09501 95.000
87.11495 105.000
87.13490 102.000
87.15485 94.000
87.17480 96.000
87.19474 89.000
87.21469 120.000
87.23464 114.000
87.25458 92.000
87.27453 93.000
87.29448 100.000
87.31442 93.000
87.33437 101.000
87.35432 104.000
87.37426 89.000
87.39421 88.000
87.41416 100.000
87.43411 97.000
87.45405 92.000
87.47400 100.000
87.49395 102.000
87.51389 101.000
87.53384 98.000
87.55379 92.000
87.57373 106.000
87.59368 113.000
87.61363 94.000
87.63358 120.000
87.65352 87.000
87.67347 114.000
87.69342 108.000
87.71336 91.000
87.73331 102.000
87.75326 97.000
87.77320 91.000
87.79315 90.000
87.81310 85.000
87.83304 98.000
87.85299 103.000
87.87294 95.000
87.89289 103.000
87.91283 96.000
87.93278 81.000
87.95273 94.000
87.97267 91.000
87.99262 100.000
88.01257 101.000
88.03251 103.000
88.05246 104.000
88.07241 123.000
88.09236 83.000
88.11230 101.000
88.13225 105.000
88.15220 109.000
88.17214 100.000
88.19209 87.000
88.21204 92.000
88.23198 106.000
88.25193 99.000
88.27188 102.000
88.29183 107.000
88.31177 101.000
88.33172 73.000
88.35167 103.000
88.37161 119.000
88.39156 99.000
88.41151 100.000
88.43145 107.000
88.45140 96.000
88.47135 120.000
88.49129 106.000
88.51124 100.000
88.53119 114.000
88.55114 86.000
88.57108 107.000
88.59103 105.000
88.61098 108.000
88.63092 103.000
88.65087 104.000
88.67082 112.000
88.69076 90.000
88.71071 110.000
88.73066 101.000
88.75061 121.000
88.77055 99.000
88.79050 108.000
88.81045 117.000
88.83039 109.000
88.85034 100.000
88.87029 102.000
88.89023 114.000
88.91018 101.000
88.93013 109.000
88.95007 110.000
88.97002 97.000
88.98997 103.000
89.00992 107.000
89.02986 114.000
89.04981 93.000
89.06976 102.000
89.08970 132.000
89.10965 102.000
89.12960 115.000
89.14954 100.000
89.16949 122.000
89.18944 88.000
89.20939 119.000
89.22933 110.000
89.24928 98.000
89.26923 125.000
89.28917 108.000
89.30912 120.000
89.32907 118.000
89.34901 121.000
89.36896 109.000
89.38891 117.000
89.40885 141.000
89.42880 105.000
89.44875 113.000
89.46870 138.000
89.48864 146.000
89.50859 124.000
89.52854 133.000
89.54848 116.000
89.56843 138.000
89.58838 123.000
89.60832 125.000
89.62827 135.000
89.64822 118.000
89.66817 119.000
89.68811 133.000
89.70806 132.000
89.72801 116.000
89.74795 133.000
89.76790 123.000
89.78785 138.000
89.80779 131.000
89.82774 114.000
89.84769 126.000
89.86764 116.000
89.88758 125.000
89.90753 121.000
89.92748 129.000
89.94742 136.000
89.96737 133.000
89.98732 122.000
90.00726 99.000
