10.00000 84.000
10.01995 81.000
10.03989 68.000
10.05984 86.000
10.07979 81.000
10.09973 68.000
10.11968 73.000
10.13963 64.000
10.15958 64.000
10.17952 82.000
10.19947 83.000
10.21942 71.000
10.23936 76.000
10.25931 83.000
10.27926 79.000
10.29920 74.000
10.31915 71.000
10.33910 73.000
10.35905 67.000
10.37899 66.000
10.39894 66.000
10.41889 73.000
10.43883 74.000
10.45878 70.000
10.47873 63.000
10.49867 48.000
10.51862 75.000
10.53857 79.000
10.55851 68.000
10.57846 73.000
10.59841 80.000
10.61836 92.000
10.63830 77.000
10.65825 84.000
10.67820 63.000
10.69814 65.000
10.71809 83.000
10.73804 67.000
10.75798 60.000
10.77793 53.000
10.79788 79.000
10.81783 60.000
10.83777 87.000
10.85772 68.000
10.87767 74.000
10.89761 75.000
10.91756 69.000
10.93751 64.000
10.95745 67.000
10.97740 56.000
10.99735 87.000
11.01730 72.000
11.03724 79.000
11.05719 76.000
11.07714 62.000
11.09708 86.000
11.11703 62.000
11.13698 78.000
11.15692 82.000
11.17687 77.000
11.19682 71.000
11.21676 81.000
11.23671 79.000
11.25666 71.000
11.27661 74.000
11.29655 60.000
11.31650 64.000
11.33645 60.000
11.35639 58.000
11.37634 70.000
11.39629 71.000
11.41623 63.000
11.43618 52.000
11.45613 73.000
11.47608 75.000
11.49602 66.000
11.51597 92.000
11.53592 79.000
11.55586 73.000
11.57581 73.000
11.59576 56.000
11.61570 75.000
11.63565 75.000
11.65560 67.000
11.67554 58.000
11.69549 87.000
11.71544 72.000
11.73539 81.000
11.75533 61.000
11.77528 76.000
11.79523 67.000
11.81517 65.000
11.83512 60.000
11.85507 61.000
11.87501 79.000
11.89496 59.000
11.91491 71.000
11.93486 67.000
11.95480 85.000
11.97475 82.000
11.99470 77.000
12.01464 91.000
12.03459 74.000
12.05454 55.000
12.07448 67.000
12.09443 67.000
12.11438 77.000
12.13432 60.000
12.15427 70.000
12.17422 77.000
12.19417 67.000
12.21411 72.000
12.23406 66.000
12.25401 77.000
12.27395 91.000
12.29390 55.000
12.31385 65.000
12.33379 57.000
12.35374 79.000
12.37369 68.000
12.39364 78.000
12.41358 79.000
12.43353 84.000
12.45348 70.000
12.47342 55.000
12.49337 65.000
12.51332 63.000
12.53326 49.000
12.55321 54.000
12.57316 81.000
12.59311 74.000
12.61305 70.000
12.63300 72.000
12.65295 65.000
12.67289 61.000
12.69284 70.000
12.71279 77.000
12.73273 68.000
12.75268 83.000
12.77263 67.000
12.79257 57.000
12.81252 66.000
12.83247 69.000
12.85242 72.000
12.87236 72.000
12.89231 67.000
12.91226 75.000
12.93220 88.000
12.95215 67.000
12.97210 72.000
12.99204 66.000
13.01199 78.000
13.03194 65.000
13.05189 57.000
13.07183 73.000
13.09178 77.000
13.11173 69.000
13.13167 73.000
13.15162 63.000
13.17157 74.000
13.19151 81.000
13.21146 57.000
13.23141 83.000
13.25135 89.000
13.27130 73.000
13.29125 72.000
13.31120 77.000
13.33114 74.000
13.35109 73.000
13.37104 73.000
13.39098 82.000
13.41093 74.000
13.43088 62.000
13.45082 56.000
13.47077 69.000
13.49072 77.000
13.51067 70.000
13.53061 65.000
13.55056 85.000
13.57051 72.000
13.59045 61.000
13.61040 71.000
13.63035 75.000
13.65029 60.000
13.67024 71.000
13.69019 76.000
13.71013 70.000
13.73008 93.000
13.75003 83.000
13.76998 76.000
13.78992 77.000
13.80987 85.000
13.82982 69.000
13.84976 82.000
13.86971 79.000
13.88966 69.000
13.90960 68.000
13.92955 80.000
13.94950 82.000
13.96945 60.000
13.98939 81.000
14.00934 63.000
14.02929 69.000
14.04923 80.000
14.06918 66.000
14.08913 69.000
14.10907 79.000
14.12902 70.000
14.14897 85.000
14.16892 64.000
14.18886 73.000
14.20881 76.000
14.22876 83.000
14.24870 63.000
14.26865 79.000
14.28860 73.000
14.30854 96.000
14.32849 93.000
14.34844 67.000
14.36838 85.000
14.38833 87.000
14.40828 67.000
14.42823 70.000
14.44817 64.000
14.46812 80.000
14.48807 85.000
14.50801 79.000
14.52796 59.000
14.54791 85.000
14.56785 79.000
14.58780 77.000
14.60775 83.000
14.62770 59.000
14.64764 75.000
14.66759 72.000
14.68754 76.000
14.70748 81.000
14.72743 73.000
14.74738 81.000
14.76732 86.000
14.78727 69.000
14.80722 68.000
14.82716 84.000
14.84711 92.000
14.86706 79.000
14.88701 70.000
14.90695 65.000
14.92690 72.000
14.94685 82.000
14.96679 75.000
14.98674 73.000
15.00669 80.000
15.02663 88.000
15.04658 80.000
15.06653 86.000
15.08648 90.000
15.10642 93.000
15.12637 92.000
15.14632 79.000
15.16626 87.000
15.18621 76.000
15.20616 107.000
15.22610 105.000
15.24605 98.000
15.26600 109.000
15.28594 105.000
15.30589 112.000
15.32584 95.000
15.34579 112.000
15.36573 87.000
15.38568 121.000
15.40563 102.000
15.42557 120.000
15.44552 105.000
15.46547 106.000
15.48541 111.000
15.50536 107.000
15.52531 128.000
15.54526 133.000
15.56520 133.000
15.58515 157.000
15.60510 182.000
15.62504 202.000
15.64499 209.000
15.66494 282.000
15.68488 307.000
15.70483 478.000
15.72478 679.000
15.74472 933.000
15.76467 1348.000
15.78462 1896.000
15.80457 2384.000
15.82451 3099.000
15.84446 3621.000
15.86441 3876.000
15.88435 4053.000
15.90430 3915.000
15.92425 3435.000
15.94419 2612.000
15.96414 1713.000
15.98409 1085.000
16.00404 622.000
16.02398 459.000
16.04393 385.000
16.06388 409.000
16.08382 466.000
16.10377 567.000
16.12372 713.000
16.14366 871.000
16.16361 969.000
16.18356 1009.000
16.20351 1097.000
16.22345 1110.000
16.24340 1030.000
16.26335 975.000
16.28329 804.000
16.30324 656.000
16.32319 515.000
16.34313 426.000
16.36308 314.000
16.38303 263.000
16.40297 194.000
16.42292 153.000
16.44287 144.000
16.46282 124.000
16.48276 114.000
16.50271 123.000
16.52266 96.000
16.54260 89.000
16.56255 96.000
16.58250 89.000
16.60244 92.000
16.62239 77.000
16.64234 73.000
16.66229 81.000
16.68223 81.000
16.70218 85.000
16.72213 79.000
16.74207 88.000
16.76202 96.000
16.78197 84.000
16.80191 87.000
16.82186 92.000
16.84181 73.000
16.86175 94.000
16.88170 94.000
16.90165 79.000
16.92160 77.000
16.94154 78.000
16.96149 92.000
16.98144 86.000
17.00138 65.000
17.02133 78.000
17.04128 68.000
17.06122 90.000
17.08117 73.000
17.10112 80.000
17.12107 68.000
17.14101 78.000
17.16096 65.000
17.18091 71.000
17.20085 71.000
17.22080 77.000
17.24075 72.000
17.26069 63.000
17.28064 81.000
17.30059 69.000
17.32053 71.000
17.34048 67.000
17.36043 81.000
17.38038 72.000
17.40032 90.000
17.42027 79.000
17.44022 67.000
17.46016 76.000
17.48011 66.000
17.50006 66.000
17.52000 69.000
17.53995 84.000
17.55990 61.000
17.57985 73.000
17.59979 51.000
17.61974 83.000
17.63969 79.000
17.65963 59.000
17.67958 63.000
17.69953 64.000
17.71947 63.000
17.73942 74.000
17.75937 82.000
17.77932 72.000
17.79926 54.000
17.81921 76.000
17.83916 79.000
17.85910 72.000
17.87905 70.000
17.89900 58.000
17.91894 78.000
17.93889 70.000
17.95884 69.000
17.97878 66.000
17.99873 70.000
18.01868 72.000
18.03863 80.000
18.05857 86.000
18.07852 77.000
18.09847 67.000
18.11841 82.000
18.13836 67.000
18.15831 79.000
18.17825 81.000
18.19820 84.000
18.21815 59.000
18.23810 79.000
18.25804 88.000
18.27799 87.000
18.29794 103.000
18.31788 90.000
18.33783 98.000
18.35778 130.000
18.37772 150.000
18.39767 137.000
18.41762 139.000
18.43756 128.000
18.45751 132.000
18.47746 111.000
18.49741 101.000
18.51735 81.000
18.53730 77.000
18.55725 92.000
18.57719 68.000
18.59714 64.000
18.61709 82.000
18.63703 83.000
18.65698 69.000
18.67693 69.000
18.69688 79.000
18.71682 73.000
18.73677 70.000
18.75672 60.000
18.77666 68.000
18.79661 62.000
18.81656 70.000
18.83650 57.000
18.85645 60.000
18.87640 76.000
18.89634 103.000
18.91629 57.000
18.93624 63.000
18.95619 69.000
18.97613 57.000
18.99608 63.000
19.01603 75.000
19.03597 68.000
19.05592 66.000
19.07587 72.000
19.09581 77.000
19.11576 61.000
19.13571 86.000
19.15566 77.000
19.17560 73.000
19.19555 78.000
19.21550 68.000
19.23544 87.000
19.25539 75.000
19.27534 92.000
19.29528 75.000
19.31523 66.000
19.33518 58.000
19.35513 75.000
19.37507 60.000
19.39502 58.000
19.41497 58.000
19.43491 61.000
19.45486 81.000
19.47481 78.000
19.49475 78.000
19.51470 93.000
19.53465 79.000
19.55459 75.000
19.57454 95.000
19.59449 70.000
19.61444 72.000
19.63438 61.000
19.65433 72.000
19.67428 81.000
19.69422 76.000
19.71417 72.000
19.73412 64.000
19.75406 66.000
19.77401 73.000
19.79396 69.000
19.81391 86.000
19.83385 81.000
19.85380 82.000
19.87375 61.000
19.89369 68.000
19.91364 70.000
19.93359 66.000
19.95353 60.000
19.97348 79.000
19.99343 75.000
20.01337 78.000
20.03332 68.000
20.05327 73.000
20.07322 82.000
20.09316 65.000
20.11311 68.000
20.13306 73.000
20.15300 61.000
20.17295 51.000
20.19290 85.000
20.21284 79.000
20.23279 71.000
20.25274 60.000
20.27269 74.000
20.29263 68.000
20.31258 63.000
20.33253 68.000
20.35247 72.000
20.37242 64.000
20.39237 93.000
20.41231 63.000
20.43226 78.000
20.45221 92.000
20.47215 68.000
20.49210 73.000
20.51205 81.000
20.53200 80.000
20.55194 81.000
20.57189 93.000
20.59184 91.000
20.61178 63.000
20.63173 85.000
20.65168 75.000
20.67162 84.000
20.69157 85.000
20.71152 72.000
20.73147 97.000
20.75141 94.000
20.77136 76.000
20.79131 94.000
20.81125 72.000
20.83120 77.000
20.85115 90.000
20.87109 107.000
20.89104 113.000
20.91099 110.000
20.93094 116.000
20.95088 119.000
20.97083 127.000
20.99078 119.000
21.01072 131.000
21.03067 115.000
21.05062 107.000
21.07056 124.000
21.09051 111.000
21.11046 93.000
21.13040 100.000
21.15035 89.000
21.17030 94.000
21.19025 75.000
21.21019 75.000
21.23014 89.000
21.25009 61.000
21.27003 75.000
21.28998 105.000
21.30993 84.000
21.32987 57.000
21.34982 73.000
21.36977 69.000
21.38972 66.000
21.40966 91.000
21.42961 61.000
21.44956 67.000
21.46950 70.000
21.48945 78.000
21.50940 74.000
21.52934 69.000
21.54929 86.000
21.56924 82.000
21.58918 81.000
21.60913 45.000
21.62908 72.000
21.64903 64.000
21.66897 86.000
21.68892 72.000
21.70887 76.000
21.72881 60.000
21.74876 81.000
21.76871 81.000
21.78865 69.000
21.80860 72.000
21.82855 63.000
21.84850 66.000
21.86844 74.000
21.88839 63.000
21.90834 79.000
21.92828 93.000
21.94823 76.000
21.96818 71.000
21.98812 88.000
22.00807 72.000
22.02802 57.000
22.04796 66.000
22.06791 59.000
22.08786 75.000
22.10781 71.000
22.12775 89.000
22.14770 64.000
22.16765 74.000
22.18759 67.000
22.20754 69.000
22.22749 73.000
22.24743 62.000
22.26738 70.000
22.28733 59.000
22.30728 67.000
22.32722 56.000
22.34717 69.000
22.36712 66.000
22.38706 81.000
22.40701 65.000
22.42696 64.000
22.44690 85.000
22.46685 66.000
22.48680 60.000
22.50675 68.000
22.52669 67.000
22.54664 66.000
22.56659 78.000
22.58653 78.000
22.60648 72.000
22.62643 71.000
22.64637 94.000
22.66632 89.000
22.68627 67.000
22.70621 72.000
22.72616 77.000
22.74611 69.000
22.76606 72.000
22.78600 84.000
22.80595 88.000
22.82590 86.000
22.84584 77.000
22.86579 76.000
22.88574 72.000
22.90568 82.000
22.92563 71.000
22.94558 70.000
22.96553 93.000
22.98547 83.000
23.00542 72.000
23.02537 78.000
23.04531 87.000
23.06526 72.000
23.08521 61.000
23.10515 65.000
23.12510 84.000
23.14505 72.000
23.16499 73.000
23.18494 84.000
23.20489 74.000
23.22484 71.000
23.24478 84.000
23.26473 67.000
23.28468 72.000
23.30462 81.000
23.32457 67.000
23.34452 78.000
23.36446 74.000
23.38441 71.000
23.40436 79.000
23.42431 69.000
23.44425 72.000
23.46420 84.000
23.48415 67.000
23.50409 71.000
23.52404 68.000
23.54399 78.000
23.56393 75.000
23.58388 76.000
23.60383 86.000
23.62377 80.000
23.64372 87.000
23.66367 76.000
23.68362 64.000
23.70356 89.000
23.72351 72.000
23.74346 74.000
23.76340 87.000
23.78335 93.000
23.80330 89.000
23.82324 68.000
23.84319 61.000
23.86314 65.000
23.88309 72.000
23.90303 80.000
23.92298 73.000
23.94293 82.000
23.96287 81.000
23.98282 73.000
24.00277 81.000
24.02271 74.000
24.04266 84.000
24.06261 84.000
24.08256 68.000
24.10250 82.000
24.12245 76.000
24.14240 74.000
24.16234 77.000
24.18229 81.000
24.20224 92.000
24.22218 81.000
24.24213 79.000
24.26208 67.000
24.28202 80.000
24.30197 74.000
24.32192 63.000
24.34187 68.000
24.36181 79.000
24.38176 75.000
24.40171 67.000
24.42165 80.000
24.44160 52.000
24.46155 87.000
24.48149 69.000
24.50144 67.000
24.52139 69.000
24.54134 90.000
24.56128 71.000
24.58123 79.000
24.60118 75.000
24.62112 77.000
24.64107 69.000
24.66102 83.000
24.68096 72.000
24.70091 63.000
24.72086 65.000
24.74080 84.000
24.76075 70.000
24.78070 62.000
24.80065 104.000
24.82059 71.000
24.84054 75.000
24.86049 75.000
24.88043 60.000
24.90038 89.000
24.92033 78.000
24.94027 85.000
24.96022 74.000
24.98017 72.000
25.00012 74.000
25.02006 72.000
25.04001 100.000
25.05996 79.000
25.07990 66.000
25.09985 82.000
25.11980 80.000
25.13974 82.000
25.15969 78.000
25.17964 85.000
25.19958 79.000
25.21953 71.000
25.23948 74.000
25.25943 82.000
25.27937 73.000
25.29932 69.000
25.31927 80.000
25.33921 98.000
25.35916 74.000
25.37911 85.000
25.39905 90.000
25.41900 75.000
25.43895 75.000
25.45890 80.000
25.47884 79.000
25.49879 75.000
25.51874 61.000
25.53868 79.000
25.55863 63.000
25.57858 78.000
25.59852 78.000
25.61847 73.000
25.63842 60.000
25.65837 77.000
25.67831 69.000
25.69826 95.000
25.71821 80.000
25.73815 87.000
25.75810 82.000
25.77805 75.000
25.79799 76.000
25.81794 75.000
25.83789 78.000
25.85783 56.000
25.87778 69.000
25.89773 77.000
25.91768 81.000
25.93762 81.000
25.95757 80.000
25.97752 91.000
25.99746 86.000
26.01741 86.000
26.03736 88.000
26.05730 79.000
26.07725 84.000
26.09720 83.000
26.11715 73.000
26.13709 71.000
26.15704 71.000
26.17699 62.000
26.19693 73.000
26.21688 92.000
26.23683 80.000
26.25677 76.000
26.27672 72.000
26.29667 79.000
26.31661 73.000
26.33656 78.000
26.35651 68.000
26.37646 73.000
26.39640 69.000
26.41635 84.000
26.43630 75.000
26.45624 78.000
26.47619 90.000
26.49614 97.000
26.51608 84.000
26.53603 79.000
26.55598 59.000
26.57593 84.000
26.59587 73.000
26.61582 80.000
26.63577 74.000
26.65571 74.000
26.67566 83.000
26.69561 86.000
26.71555 86.000
26.73550 70.000
26.75545 75.000
26.77539 93.000
26.79534 75.000
26.81529 67.000
26.83524 78.000
26.85518 80.000
26.87513 69.000
26.89508 80.000
26.91502 73.000
26.93497 67.000
26.95492 63.000
26.97486 82.000
26.99481 67.000
27.01476 83.000
27.03471 79.000
27.05465 86.000
27.07460 72.000
27.09455 73.000
27.11449 106.000
27.13444 85.000
27.15439 73.000
27.17433 89.000
27.19428 79.000
27.21423 87.000
27.23417 80.000
27.25412 79.000
27.27407 77.000
27.29402 67.000
27.31396 52.000
27.33391 63.000
27.35386 80.000
27.37380 70.000
27.39375 84.000
27.41370 80.000
27.43364 79.000
27.45359 72.000
27.47354 72.000
27.49349 66.000
27.51343 60.000
27.53338 80.000
27.55333 63.000
27.57327 81.000
27.59322 86.000
27.61317 96.000
27.63311 75.000
27.65306 92.000
27.67301 73.000
27.69296 70.000
27.71290 91.000
27.73285 82.000
27.75280 76.000
27.77274 75.000
27.79269 89.000
27.81264 84.000
27.83258 75.000
27.85253 91.000
27.87248 75.000
27.89242 85.000
27.91237 75.000
27.93232 70.000
27.95227 66.000
27.97221 79.000
27.99216 86.000
28.01211 77.000
28.03205 83.000
28.05200 79.000
28.07195 90.000
28.09189 66.000
28.11184 80.000
28.13179 77.000
28.15174 71.000
28.17168 85.000
28.19163 93.000
28.21158 65.000
28.23152 94.000
28.25147 89.000
28.27142 83.000
28.29136 79.000
28.31131 85.000
28.33126 91.000
28.35120 78.000
28.37115 84.000
28.39110 84.000
28.41105 71.000
28.43099 71.000
28.45094 89.000
28.47089 97.000
28.49083 84.000
28.51078 81.000
28.53073 84.000
28.55067 66.000
28.57062 85.000
28.59057 89.000
28.61052 86.000
28.63046 89.000
28.65041 64.000
28.67036 84.000
28.69030 71.000
28.71025 72.000
28.73020 81.000
28.75014 91.000
28.77009 96.000
28.79004 103.000
28.80998 87.000
28.82993 73.000
28.84988 73.000
28.86983 66.000
28.88977 92.000
28.90972 77.000
28.92967 79.000
28.94961 71.000
28.96956 78.000
28.98951 73.000
29.00945 88.000
29.02940 94.000
29.04935 81.000
29.06930 75.000
29.08924 93.000
29.10919 79.000
29.12914 89.000
29.14908 76.000
29.16903 89.000
29.18898 91.000
29.20892 78.000
29.22887 110.000
29.24882 85.000
29.26877 66.000
29.28871 76.000
29.30866 72.000
29.32861 91.000
29.34855 82.000
29.36850 95.000
29.38845 82.000
29.40839 76.000
29.42834 94.000
29.44829 89.000
29.46823 93.000
29.48818 91.000
29.50813 81.000
29.52808 100.000
29.54802 97.000
29.56797 94.000
29.58792 80.000
29.60786 81.000
29.62781 92.000
29.64776 81.000
29.66770 101.000
29.68765 89.000
29.70760 78.000
29.72755 92.000
29.74749 76.000
29.76744 70.000
29.78739 100.000
29.80733 96.000
29.82728 77.000
29.84723 84.000
29.86717 82.000
29.88712 98.000
29.90707 73.000
29.92701 92.000
29.94696 84.000
29.96691 79.000
29.98686 107.000
30.00680 102.000
30.02675 113.000
30.04670 118.000
30.06664 110.000
30.08659 127.000
30.10654 140.000
30.12648 166.000
30.14643 168.000
30.16638 171.000
30.18633 202.000
30.20627 231.000
30.22622 249.000
30.24617 254.000
30.26611 277.000
30.28606 245.000
30.30601 250.000
30.32595 244.000
30.34590 184.000
30.36585 167.000
30.38579 159.000
30.40574 141.000
30.42569 115.000
30.44564 118.000
30.46558 100.000
30.48553 116.000
30.50548 101.000
30.52542 82.000
30.54537 80.000
30.56532 84.000
30.58526 90.000
30.60521 76.000
30.62516 98.000
30.64511 82.000
30.66505 76.000
30.68500 74.000
30.70495 78.000
30.72489 79.000
30.74484 102.000
30.76479 98.000
30.78473 97.000
30.80468 74.000
30.82463 77.000
30.84458 68.000
30.86452 86.000
30.88447 86.000
30.90442 81.000
30.92436 79.000
30.94431 69.000
30.96426 86.000
30.98420 86.000
31.00415 97.000
31.02410 78.000
31.04404 72.000
31.06399 68.000
31.08394 83.000
31.10389 82.000
31.12383 94.000
31.14378 90.000
31.16373 78.000
31.18367 65.000
31.20362 89.000
31.22357 106.000
31.24351 67.000
31.26346 90.000
31.28341 75.000
31.30336 91.000
31.32330 91.000
31.34325 89.000
31.36320 84.000
31.38314 107.000
31.40309 80.000
31.42304 98.000
31.44298 86.000
31.46293 85.000
31.48288 83.000
31.50282 91.000
31.52277 103.000
31.54272 91.000
31.56267 84.000
31.58261 82.000
31.60256 90.000
31.62251 106.000
31.64245 86.000
31.66240 97.000
31.68235 106.000
31.70229 103.000
31.72224 104.000
31.74219 115.000
31.76214 110.000
31.78208 108.000
31.80203 162.000
31.82198 146.000
31.84192 179.000
31.86187 187.000
31.88182 209.000
31.90176 250.000
31.92171 262.000
31.94166 273.000
31.96160 339.000
31.98155 321.000
32.00150 358.000
32.02145 388.000
32.04139 400.000
32.06134 408.000
32.08129 372.000
32.10123 355.000
32.12118 334.000
32.14113 303.000
32.16107 222.000
32.18102 235.000
32.20097 175.000
32.22092 132.000
32.24086 128.000
32.26081 119.000
32.28076 108.000
32.30070 93.000
32.32065 89.000
32.34060 71.000
32.36054 88.000
32.38049 100.000
32.40044 89.000
32.42039 101.000
32.44033 100.000
32.46028 100.000
32.48023 103.000
32.50017 133.000
32.52012 131.000
32.54007 141.000
32.56001 139.000
32.57996 148.000
32.59991 166.000
32.61985 165.000
32.63980 161.000
32.65975 185.000
32.67970 205.000
32.69964 164.000
32.71959 190.000
32.73954 169.000
32.75948 165.000
32.77943 161.000
32.79938 163.000
32.81932 151.000
32.83927 145.000
32.85922 133.000
32.87917 130.000
32.89911 137.000
32.91906 135.000
32.93901 114.000
32.95895 127.000
32.97890 108.000
32.99885 114.000
33.01879 102.000
33.03874 103.000
33.05869 76.000
33.07863 82.000
33.09858 100.000
33.11853 89.000
33.13848 80.000
33.15842 92.000
33.17837 80.000
33.19832 90.000
33.21826 76.000
33.23821 96.000
33.25816 81.000
33.27810 75.000
33.29805 72.000
33.31800 90.000
33.33795 80.000
33.35789 97.000
33.37784 84.000
33.39779 89.000
33.41773 82.000
33.43768 105.000
33.45763 96.000
33.47757 92.000
33.49752 85.000
33.51747 85.000
33.53741 79.000
33.55736 90.000
33.57731 87.000
33.59726 85.000
33.61720 69.000
33.63715 80.000
33.65710 79.000
33.67704 85.000
33.69699 86.000
33.71694 76.000
33.73688 75.000
33.75683 72.000
33.77678 87.000
33.79673 91.000
33.81667 92.000
33.83662 70.000
33.85657 79.000
33.87651 91.000
33.89646 91.000
33.91641 94.000
33.93635 93.000
33.95630 80.000
33.97625 85.000
33.99620 106.000
34.01614 99.000
34.03609 103.000
34.05604 104.000
34.07598 91.000
34.09593 101.000
34.11588 98.000
34.13582 104.000
34.15577 95.000
34.17572 111.000
34.19566 94.000
34.21561 113.000
34.23556 105.000
34.25551 90.000
34.27545 116.000
34.29540 115.000
34.31535 111.000
34.33529 111.000
34.35524 99.000
34.37519 145.000
34.39513 138.000
34.41508 149.000
34.43503 147.000
34.45498 137.000
34.47492 137.000
34.49487 149.000
34.51482 146.000
34.53476 156.000
34.55471 130.000
34.57466 136.000
34.59460 131.000
34.61455 135.000
34.63450 136.000
34.65444 114.000
34.67439 117.000
34.69434 99.000
34.71429 117.000
34.73423 124.000
34.75418 108.000
34.77413 131.000
34.79407 101.000
34.81402 101.000
34.83397 118.000
34.85391 115.000
34.87386 118.000
34.89381 113.000
34.91376 103.000
34.93370 98.000
34.95365 104.000
34.97360 107.000
34.99354 87.000
35.01349 104.000
35.03344 116.000
35.05338 112.000
35.07333 102.000
35.09328 119.000
35.11322 109.000
35.13317 116.000
35.15312 106.000
35.17307 123.000
35.19301 122.000
35.21296 133.000
35.23291 140.000
35.25285 140.000
35.27280 122.000
35.29275 167.000
35.31269 183.000
35.33264 216.000
35.35259 242.000
35.37254 274.000
35.39248 281.000
35.41243 346.000
35.43238 383.000
35.45232 494.000
35.47227 600.000
35.49222 622.000
35.51216 766.000
35.53211 979.000
35.55206 1024.000
35.57201 1161.000
35.59195 1144.000
35.61190 1153.000
35.63185 1230.000
35.65179 1223.000
35.67174 1132.000
35.69169 1051.000
35.71163 931.000
35.73158 762.000
35.75153 633.000
35.77147 557.000
35.79142 417.000
35.81137 356.000
35.83132 267.000
35.85126 232.000
35.87121 193.000
35.89116 167.000
35.91110 193.000
35.93105 132.000
35.95100 123.000
35.97094 135.000
35.99089 137.000
36.01084 120.000
36.03079 114.000
36.05073 115.000
36.07068 99.000
36.09063 111.000
36.11057 106.000
36.13052 99.000
36.15047 115.000
36.17041 84.000
36.19036 110.000
36.21031 98.000
36.23025 91.000
36.25020 96.000
36.27015 103.000
36.29010 125.000
36.31004 103.000
36.32999 82.000
36.34994 100.000
36.36988 128.000
36.38983 131.000
36.40978 102.000
36.42972 116.000
36.44967 104.000
36.46962 112.000
36.48957 116.000
36.50951 141.000
36.52946 124.000
36.54941 125.000
36.56935 114.000
36.58930 129.000
36.60925 131.000
36.62919 143.000
36.64914 116.000
36.66909 139.000
36.68903 126.000
36.70898 145.000
36.72893 152.000
36.74888 144.000
36.76882 159.000
36.78877 216.000
36.80872 218.000
36.82866 202.000
36.84861 254.000
36.86856 258.000
36.88850 300.000
36.90845 254.000
36.92840 210.000
36.94835 214.000
36.96829 222.000
36.98824 171.000
37.00819 168.000
37.02813 154.000
37.04808 167.000
37.06803 125.000
37.08797 141.000
37.10792 152.000
37.12787 129.000
37.14781 129.000
37.16776 118.000
37.18771 144.000
37.20766 129.000
37.22760 144.000
37.24755 140.000
37.26750 150.000
37.28744 144.000
37.30739 145.000
37.32734 149.000
37.34728 125.000
37.36723 140.000
37.38718 104.000
37.40713 102.000
37.42707 103.000
37.44702 102.000
37.46697 100.000
37.48691 83.000
37.50686 102.000
37.52681 95.000
37.54675 89.000
37.56670 98.000
37.58665 81.000
37.60660 82.000
37.62654 77.000
37.64649 98.000
37.66644 110.000
37.68638 85.000
37.70633 96.000
37.72628 93.000
37.74622 86.000
37.76617 101.000
37.78612 84.000
37.80606 78.000
37.82601 94.000
37.84596 94.000
37.86591 82.000
37.88585 107.000
37.90580 95.000
37.92575 87.000
37.94569 99.000
37.96564 97.000
37.98559 106.000
38.00553 108.000
38.02548 85.000
38.04543 104.000
38.06538 116.000
38.08532 91.000
38.10527 98.000
38.12522 119.000
38.14516 105.000
38.16511 77.000
38.18506 86.000
38.20500 88.000
38.22495 81.000
38.24490 73.000
38.26484 88.000
38.28479 104.000
38.30474 101.000
38.32469 101.000
38.34463 86.000
38.36458 103.000
38.38453 97.000
38.40447 90.000
38.42442 88.000
38.44437 98.000
38.46431 100.000
38.48426 95.000
38.50421 117.000
38.52416 115.000
38.54410 108.000
38.56405 118.000
38.58400 137.000
38.60394 145.000
38.62389 147.000
38.64384 140.000
38.66378 153.000
38.68373 182.000
38.70368 191.000
38.72362 218.000
38.74357 205.000
38.76352 226.000
38.78347 243.000
38.80341 232.000
38.82336 275.000
38.84331 237.000
38.86325 217.000
38.88320 231.000
38.90315 257.000
38.92309 227.000
38.94304 288.000
38.96299 232.000
38.98294 257.000
39.00288 311.000
39.02283 367.000
39.04278 484.000
39.06272 560.000
39.08267 734.000
39.10262 881.000
39.12256 987.000
39.14251 992.000
39.16246 954.000
39.18241 959.000
39.20235 912.000
39.22230 927.000
39.24225 805.000
39.26219 693.000
39.28214 636.000
39.30209 561.000
39.32203 486.000
39.34198 397.000
39.36193 310.000
39.38187 290.000
39.40182 272.000
39.42177 242.000
39.44172 176.000
39.46166 159.000
39.48161 129.000
39.50156 132.000
39.52150 124.000
39.54145 136.000
39.56140 127.000
39.58134 114.000
39.60129 112.000
39.62124 105.000
39.64119 102.000
39.66113 96.000
39.68108 106.000
39.70103 87.000
39.72097 92.000
39.74092 84.000
39.76087 90.000
39.78081 104.000
39.80076 94.000
39.82071 80.000
39.84065 100.000
39.86060 121.000
39.88055 99.000
39.90050 102.000
39.92044 109.000
39.94039 107.000
39.96034 99.000
39.98028 85.000
40.00023 103.000
40.02018 101.000
40.04012 92.000
40.06007 95.000
40.08002 79.000
40.09997 80.000
40.11991 81.000
40.13986 95.000
40.15981 97.000
40.17975 81.000
40.19970 98.000
40.21965 100.000
40.23959 82.000
40.25954 89.000
40.27949 74.000
40.29943 81.000
40.31938 94.000
40.33933 77.000
40.35928 90.000
40.37922 89.000
40.39917 108.000
40.41912 77.000
40.43906 78.000
40.45901 94.000
40.47896 85.000
40.49890 71.000
40.51885 87.000
40.53880 71.000
40.55875 98.000
40.57869 93.000
40.59864 86.000
40.61859 82.000
40.63853 85.000
40.65848 72.000
40.67843 97.000
40.69837 78.000
40.71832 89.000
40.73827 87.000
40.75822 77.000
40.77816 108.000
40.79811 103.000
40.81806 83.000
40.83800 99.000
40.85795 105.000
40.87790 88.000
40.89784 100.000
40.91779 94.000
40.93774 70.000
40.95768 92.000
40.97763 75.000
40.99758 76.000
41.01753 78.000
41.03747 97.000
41.05742 92.000
41.07737 89.000
41.09731 92.000
41.11726 89.000
41.13721 103.000
41.15715 106.000
41.17710 103.000
41.19705 88.000
41.21700 113.000
41.23694 115.000
41.25689 116.000
41.27684 102.000
41.29678 98.000
41.31673 113.000
41.33668 99.000
41.35662 122.000
41.37657 123.000
41.39652 138.000
41.41646 136.000
41.43641 151.000
41.45636 167.000
41.47631 224.000
41.49625 241.000
41.51620 294.000
41.53615 380.000
41.55609 431.000
41.57604 532.000
41.59599 762.000
41.61593 823.000
41.63588 873.000
41.65583 889.000
41.67578 851.000
41.69572 743.000
41.71567 720.000
41.73562 637.000
41.75556 572.000
41.77551 449.000
41.79546 351.000
41.81540 309.000
41.83535 232.000
41.85530 170.000
41.87524 148.000
41.89519 134.000
41.91514 131.000
41.93509 111.000
41.95503 108.000
41.97498 113.000
41.99493 116.000
42.01487 117.000
42.03482 101.000
42.05477 106.000
42.07471 104.000
42.09466 86.000
42.11461 86.000
42.13456 97.000
42.15450 102.000
42.17445 102.000
42.19440 91.000
42.21434 87.000
42.23429 88.000
42.25424 99.000
42.27418 91.000
42.29413 80.000
42.31408 90.000
42.33403 101.000
42.35397 81.000
42.37392 84.000
42.39387 108.000
42.41381 74.000
42.43376 94.000
42.45371 90.000
42.47365 91.000
42.49360 74.000
42.51355 87.000
42.53349 110.000
42.55344 69.000
42.57339 91.000
42.59334 77.000
42.61328 103.000
42.63323 78.000
42.65318 101.000
42.67312 88.000
42.69307 85.000
42.71302 87.000
42.73296 103.000
42.75291 83.000
42.77286 97.000
42.79281 90.000
42.81275 91.000
42.83270 105.000
42.85265 96.000
42.87259 111.000
42.89254 116.000
42.91249 106.000
42.93243 112.000
42.95238 137.000
42.97233 116.000
42.99227 134.000
43.01222 151.000
43.03217 129.000
43.05212 145.000
43.07206 148.000
43.09201 183.000
43.11196 197.000
43.13190 210.000
43.15185 203.000
43.17180 280.000
43.19174 348.000
43.21169 421.000
43.23164 451.000
43.25159 522.000
43.27153 603.000
43.29148 575.000
43.31143 592.000
43.33137 566.000
43.35132 563.000
43.37127 509.000
43.39121 476.000
43.41116 411.000
43.43111 372.000
43.45105 317.000
43.47100 287.000
43.49095 237.000
43.51090 199.000
43.53084 180.000
43.55079 155.000
43.57074 161.000
43.59068 121.000
43.61063 115.000
43.63058 104.000
43.65052 126.000
43.67047 118.000
43.69042 110.000
43.71037 101.000
43.73031 100.000
43.75026 91.000
43.77021 107.000
43.79015 95.000
43.81010 86.000
43.83005 109.000
43.84999 83.000
43.86994 105.000
43.88989 90.000
43.90984 85.000
43.92978 84.000
43.94973 81.000
43.96968 91.000
43.98962 89.000
44.00957 95.000
44.02952 93.000
44.04946 85.000
44.06941 99.000
44.08936 90.000
44.10930 66.000
44.12925 89.000
44.14920 80.000
44.16915 91.000
44.18909 83.000
44.20904 85.000
44.22899 100.000
44.24893 96.000
44.26888 71.000
44.28883 68.000
44.30877 95.000
44.32872 87.000
44.34867 97.000
44.36862 100.000
44.38856 74.000
44.40851 90.000
44.42846 84.000
44.44840 75.000
44.46835 96.000
44.48830 71.000
44.50824 90.000
44.52819 86.000
44.54814 74.000
44.56808 76.000
44.58803 79.000
44.60798 78.000
44.62793 103.000
44.64787 74.000
44.66782 93.000
44.68777 84.000
44.70771 76.000
44.72766 84.000
44.74761 90.000
44.76755 87.000
44.78750 90.000
44.80745 86.000
44.82740 123.000
44.84734 111.000
44.86729 120.000
44.88724 116.000
44.90718 116.000
44.92713 146.000
44.94708 117.000
44.96702 115.000
44.98697 115.000
45.00692 118.000
45.02686 102.000
45.04681 123.000
45.06676 108.000
45.08671 118.000
45.10665 95.000
45.12660 80.000
45.14655 86.000
45.16649 79.000
45.18644 74.000
45.20639 89.000
45.22633 64.000
45.24628 85.000
45.26623 70.000
45.28618 71.000
45.30612 93.000
45.32607 76.000
45.34602 63.000
45.36596 65.000
45.38591 61.000
45.40586 83.000
45.42580 92.000
45.44575 88.000
45.46570 81.000
45.48565 101.000
45.50559 81.000
45.52554 84.000
45.54549 77.000
45.56543 79.000
45.58538 95.000
45.60533 67.000
45.62527 75.000
45.64522 99.000
45.66517 74.000
45.68511 69.000
45.70506 82.000
45.72501 81.000
45.74496 78.000
45.76490 83.000
45.78485 85.000
45.80480 93.000
45.82474 83.000
45.84469 81.000
45.86464 85.000
45.88458 76.000
45.90453 74.000
45.92448 69.000
45.94443 88.000
45.96437 63.000
45.98432 87.000
46.00427 61.000
46.02421 87.000
46.04416 79.000
46.06411 77.000
46.08405 89.000
46.10400 69.000
46.12395 99.000
46.14389 79.000
46.16384 81.000
46.18379 72.000
46.20374 70.000
46.22368 90.000
46.24363 75.000
46.26358 81.000
46.28352 88.000
46.30347 82.000
46.32342 84.000
46.34336 68.000
46.36331 89.000
46.38326 102.000
46.40321 83.000
46.42315 95.000
46.44310 93.000
46.46305 87.000
46.48299 90.000
46.50294 79.000
46.52289 103.000
46.54283 76.000
46.56278 107.000
46.58273 83.000
46.60267 83.000
46.62262 80.000
46.64257 84.000
46.66252 69.000
46.68246 88.000
46.70241 72.000
46.72236 73.000
46.74230 90.000
46.76225 76.000
46.78220 69.000
46.80214 67.000
46.82209 83.000
46.84204 96.000
46.86199 88.000
46.88193 97.000
46.90188 104.000
46.92183 104.000
46.94177 79.000
46.96172 83.000
46.98167 79.000
47.00161 101.000
47.02156 94.000
47.04151 94.000
47.06146 68.000
47.08140 77.000
47.10135 65.000
47.12130 79.000
47.14124 76.000
47.16119 78.000
47.18114 74.000
47.20108 86.000
47.22103 77.000
47.24098 84.000
47.26092 81.000
47.28087 90.000
47.30082 75.000
47.32077 75.000
47.34071 90.000
47.36066 85.000
47.38061 80.000
47.40055 76.000
47.42050 76.000
47.44045 90.000
47.46039 88.000
47.48034 82.000
47.50029 86.000
47.52024 80.000
47.54018 87.000
47.56013 86.000
47.58008 77.000
47.60002 78.000
47.61997 92.000
47.63992 101.000
47.65986 81.000
47.67981 79.000
47.69976 93.000
47.71970 77.000
47.73965 84.000
47.75960 69.000
47.77955 94.000
47.79949 108.000
47.81944 96.000
47.83939 105.000
47.85933 69.000
47.87928 79.000
47.89923 101.000
47.91917 81.000
47.93912 100.000
47.95907 82.000
47.97902 92.000
47.99896 99.000
48.01891 111.000
48.03886 117.000
48.05880 82.000
48.07875 85.000
48.09870 93.000
48.11864 87.000
48.13859 105.000
48.15854 116.000
48.17848 113.000
48.19843 116.000
48.21838 113.000
48.23833 116.000
48.25827 123.000
48.27822 132.000
48.29817 141.000
48.31811 161.000
48.33806 157.000
48.35801 172.000
48.37795 190.000
48.39790 223.000
48.41785 258.000
48.43780 312.000
48.45774 381.000
48.47769 479.000
48.49764 538.000
48.51758 697.000
48.53753 771.000
48.55748 884.000
48.57742 952.000
48.59737 859.000
48.61732 827.000
48.63726 777.000
48.65721 737.000
48.67716 715.000
48.69711 652.000
48.71705 644.000
48.73700 563.000
48.75695 429.000
48.77689 375.000
48.79684 339.000
48.81679 318.000
48.83673 259.000
48.85668 224.000
48.87663 183.000
48.89658 179.000
48.91652 193.000
48.93647 133.000
48.95642 165.000
48.97636 144.000
48.99631 152.000
49.01626 124.000
49.03620 135.000
49.05615 118.000
49.07610 116.000
49.09605 107.000
49.11599 104.000
49.13594 116.000
49.15589 95.000
49.17583 84.000
49.19578 91.000
49.21573 98.000
49.23567 103.000
49.25562 114.000
49.27557 89.000
49.29551 96.000
49.31546 75.000
49.33541 81.000
49.35536 88.000
49.37530 101.000
49.39525 69.000
49.41520 75.000
49.43514 102.000
49.45509 96.000
49.47504 105.000
49.49498 85.000
49.51493 102.000
49.53488 88.000
49.55483 108.000
49.57477 81.000
49.59472 110.000
49.61467 89.000
49.63461 97.000
49.65456 109.000
49.67451 106.000
49.69445 102.000
49.71440 82.000
49.73435 95.000
49.75429 82.000
49.77424 84.000
49.79419 89.000
49.81414 76.000
49.83408 89.000
49.85403 79.000
49.87398 89.000
49.89392 91.000
49.91387 81.000
49.93382 86.000
49.95376 92.000
49.97371 77.000
49.99366 95.000
50.01361 76.000
50.03355 95.000
50.05350 72.000
50.07345 77.000
50.09339 96.000
50.11334 89.000
50.13329 80.000
50.15323 75.000
50.17318 83.000
50.19313 88.000
50.21307 90.000
50.23302 69.000
50.25297 79.000
50.27292 98.000
50.29286 76.000
50.31281 73.000
50.33276 77.000
50.35270 58.000
50.37265 63.000
50.39260 74.000
50.41254 91.000
50.43249 82.000
50.45244 72.000
50.47239 79.000
50.49233 98.000
50.51228 75.000
50.53223 79.000
50.55217 68.000
50.57212 82.000
50.59207 93.000
50.61201 79.000
50.63196 81.000
50.65191 86.000
50.67186 73.000
50.69180 88.000
50.71175 90.000
50.73170 89.000
50.75164 88.000
50.77159 86.000
50.79154 52.000
50.81148 72.000
50.83143 54.000
50.85138 88.000
50.87132 68.000
50.89127 82.000
50.91122 69.000
50.93117 101.000
50.95111 83.000
50.97106 75.000
50.99101 74.000
51.01095 84.000
51.03090 87.000
51.05085 85.000
51.07079 76.000
51.09074 68.000
51.11069 88.000
51.13064 92.000
51.15058 72.000
51.17053 76.000
51.19048 71.000
51.21042 88.000
51.23037 86.000
51.25032 69.000
51.27026 69.000
51.29021 71.000
51.31016 80.000
51.33010 82.000
51.35005 74.000
51.37000 74.000
51.38995 98.000
51.40989 84.000
51.42984 101.000
51.44979 80.000
51.46973 65.000
51.48968 73.000
51.50963 83.000
51.52957 86.000
51.54952 90.000
51.56947 85.000
51.58942 92.000
51.60936 71.000
51.62931 86.000
51.64926 85.000
51.66920 81.000
51.68915 70.000
51.70910 84.000
51.72904 70.000
51.74899 78.000
51.76894 77.000
51.78888 82.000
51.80883 82.000
51.82878 68.000
51.84873 87.000
51.86867 67.000
51.88862 73.000
51.90857 87.000
51.92851 87.000
51.94846 80.000
51.96841 76.000
51.98835 68.000
52.00830 93.000
52.02825 78.000
52.04820 72.000
52.06814 74.000
52.08809 84.000
52.10804 78.000
52.12798 72.000
52.14793 72.000
52.16788 76.000
52.18782 74.000
52.20777 74.000
52.22772 97.000
52.24767 77.000
52.26761 91.000
52.28756 75.000
52.30751 88.000
52.32745 89.000
52.34740 81.000
52.36735 68.000
52.38729 79.000
52.40724 71.000
52.42719 83.000
52.44713 87.000
52.46708 81.000
52.48703 79.000
52.50698 88.000
52.52692 77.000
52.54687 89.000
52.56682 67.000
52.58676 95.000
52.60671 91.000
52.62666 77.000
52.64660 99.000
52.66655 94.000
52.68650 82.000
52.70645 101.000
52.72639 99.000
52.74634 96.000
52.76629 95.000
52.78623 94.000
52.80618 108.000
52.82613 111.000
52.84607 125.000
52.86602 136.000
52.88597 135.000
52.90591 183.000
52.92586 157.000
52.94581 156.000
52.96576 188.000
52.98570 175.000
53.00565 160.000
53.02560 189.000
53.04554 162.000
53.06549 154.000
53.08544 167.000
53.10538 159.000
53.12533 132.000
53.14528 147.000
53.16523 129.000
53.18517 116.000
53.20512 133.000
53.22507 124.000
53.24501 101.000
53.26496 105.000
53.28491 104.000
53.30485 100.000
53.32480 102.000
53.34475 98.000
53.36469 94.000
53.38464 82.000
53.40459 95.000
53.42454 80.000
53.44448 103.000
53.46443 105.000
53.48438 107.000
53.50432 118.000
53.52427 117.000
53.54422 126.000
53.56416 107.000
53.58411 104.000
53.60406 125.000
53.62401 120.000
53.64395 117.000
53.66390 110.000
53.68385 125.000
53.70379 102.000
53.72374 124.000
53.74369 133.000
53.76363 126.000
53.78358 118.000
53.80353 118.000
53.82348 118.000
53.84342 104.000
53.86337 116.000
53.88332 117.000
53.90326 106.000
53.92321 95.000
53.94316 97.000
53.96310 94.000
53.98305 81.000
54.00300 69.000
54.02294 83.000
54.04289 78.000
54.06284 77.000
54.08279 77.000
54.10273 103.000
54.12268 85.000
54.14263 82.000
54.16257 68.000
54.18252 79.000
54.20247 78.000
54.22241 76.000
54.24236 72.000
54.26231 93.000
54.28226 96.000
54.30220 79.000
54.32215 78.000
54.34210 75.000
54.36204 86.000
54.38199 76.000
54.40194 64.000
54.42188 87.000
54.44183 67.000
54.46178 82.000
54.48172 80.000
54.50167 79.000
54.52162 72.000
54.54157 70.000
54.56151 92.000
54.58146 79.000
54.60141 74.000
54.62135 96.000
54.64130 65.000
54.66125 82.000
54.68119 71.000
54.70114 85.000
54.72109 97.000
54.74104 77.000
54.76098 70.000
54.78093 98.000
54.80088 74.000
54.82082 88.000
54.84077 83.000
54.86072 92.000
54.88066 94.000
54.90061 91.000
54.92056 64.000
54.94050 68.000
54.96045 70.000
54.98040 71.000
55.00035 82.000
55.02029 73.000
55.04024 81.000
55.06019 76.000
55.08013 87.000
55.10008 72.000
55.12003 74.000
55.13997 96.000
55.15992 75.000
55.17987 76.000
55.19982 75.000
55.21976 86.000
55.23971 75.000
55.25966 65.000
55.27960 82.000
55.29955 65.000
55.31950 87.000
55.33944 68.000
55.35939 75.000
55.37934 71.000
55.39929 81.000
55.41923 67.000
55.43918 84.000
55.45913 91.000
55.47907 81.000
55.49902 79.000
55.51897 83.000
55.53891 75.000
55.55886 72.000
55.57881 84.000
55.59875 81.000
55.61870 69.000
55.63865 91.000
55.65860 77.000
55.67854 100.000
55.69849 79.000
55.71844 74.000
55.73838 75.000
55.75833 78.000
55.77828 77.000
55.79822 70.000
55.81817 90.000
55.83812 78.000
55.85807 93.000
55.87801 77.000
55.89796 91.000
55.91791 97.000
55.93785 83.000
55.95780 86.000
55.97775 79.000
55.99769 70.000
56.01764 75.000
56.03759 74.000
56.05753 77.000
56.07748 68.000
56.09743 74.000
56.11738 91.000
56.13732 86.000
56.15727 86.000
56.17722 81.000
56.19716 73.000
56.21711 80.000
56.23706 81.000
56.25700 61.000
56.27695 83.000
56.29690 69.000
56.31685 76.000
56.33679 75.000
56.35674 75.000
56.37669 77.000
56.39663 80.000
56.41658 92.000
56.43653 90.000
56.45647 112.000
56.47642 82.000
56.49637 76.000
56.51631 81.000
56.53626 104.000
56.55621 82.000
56.57616 79.000
56.59610 98.000
56.61605 70.000
56.63600 93.000
56.65594 97.000
56.67589 96.000
56.69584 88.000
56.71578 91.000
56.73573 95.000
56.75568 99.000
56.77563 86.000
56.79557 93.000
56.81552 101.000
56.83547 93.000
56.85541 96.000
56.87536 106.000
56.89531 93.000
56.91525 104.000
56.93520 109.000
56.95515 115.000
56.97510 108.000
56.99504 120.000
57.01499 131.000
57.03494 125.000
57.05488 140.000
57.07483 141.000
57.09478 136.000
57.11472 146.000
57.13467 148.000
57.15462 165.000
57.17456 153.000
57.19451 170.000
57.21446 165.000
57.23441 199.000
57.25435 211.000
57.27430 177.000
57.29425 216.000
57.31419 219.000
57.33414 208.000
57.35409 223.000
57.37403 206.000
57.39398 203.000
57.41393 221.000
57.43388 233.000
57.45382 234.000
57.47377 212.000
57.49372 219.000
57.51366 238.000
57.53361 233.000
57.55356 206.000
57.57350 193.000
57.59345 189.000
57.61340 202.000
57.63334 218.000
57.65329 196.000
57.67324 201.000
57.69319 197.000
57.71313 153.000
57.73308 176.000
57.75303 160.000
57.77297 165.000
57.79292 146.000
57.81287 125.000
57.83281 121.000
57.85276 102.000
57.87271 111.000
57.89266 110.000
57.91260 110.000
57.93255 74.000
57.95250 98.000
57.97244 120.000
57.99239 112.000
58.01234 91.000
58.03228 95.000
58.05223 86.000
58.07218 91.000
58.09212 85.000
58.11207 96.000
58.13202 81.000
58.15197 97.000
58.17191 77.000
58.19186 101.000
58.21181 101.000
58.23175 80.000
58.25170 78.000
58.27165 85.000
58.29159 108.000
58.31154 116.000
58.33149 114.000
58.35144 109.000
58.37138 113.000
58.39133 109.000
58.41128 96.000
58.43122 98.000
58.45117 82.000
58.47112 111.000
58.49106 107.000
58.51101 94.000
58.53096 79.000
58.55090 74.000
58.57085 96.000
58.59080 99.000
58.61075 93.000
58.63069 78.000
58.65064 77.000
58.67059 90.000
58.69053 73.000
58.71048 75.000
58.73043 62.000
58.75037 76.000
58.77032 95.000
58.79027 61.000
58.81022 95.000
58.83016 88.000
58.85011 70.000
58.87006 85.000
58.89000 70.000
58.90995 85.000
58.92990 71.000
58.94984 104.000
58.96979 80.000
58.98974 81.000
59.00969 91.000
59.02963 86.000
59.04958 84.000
59.06953 92.000
59.08947 96.000
59.10942 96.000
59.12937 112.000
59.14931 81.000
59.16926 76.000
59.18921 65.000
59.20915 95.000
59.22910 62.000
59.24905 79.000
59.26900 77.000
59.28894 65.000
59.30889 78.000
59.32884 71.000
59.34878 83.000
59.36873 79.000
59.38868 78.000
59.40862 99.000
59.42857 80.000
59.44852 81.000
59.46847 85.000
59.48841 83.000
59.50836 95.000
59.52831 84.000
59.54825 78.000
59.56820 88.000
59.58815 72.000
59.60809 88.000
59.62804 98.000
59.64799 86.000
59.66793 71.000
59.68788 84.000
59.70783 83.000
59.72778 88.000
59.74772 72.000
59.76767 79.000
59.78762 64.000
59.80756 74.000
59.82751 85.000
59.84746 76.000
59.86740 76.000
59.88735 86.000
59.90730 74.000
59.92725 86.000
59.94719 77.000
59.96714 70.000
59.98709 87.000
60.00703 79.000
60.02698 75.000
60.04693 93.000
60.06687 78.000
60.08682 61.000
60.10677 98.000
60.12671 75.000
60.14666 76.000
60.16661 87.000
60.18656 76.000
60.20650 93.000
60.22645 93.000
60.24640 84.000
60.26634 76.000
60.28629 77.000
60.30624 89.000
60.32618 85.000
60.34613 81.000
60.36608 89.000
60.38603 79.000
60.40597 76.000
60.42592 73.000
60.44587 81.000
60.46581 85.000
60.48576 83.000
60.50571 82.000
60.52565 93.000
60.54560 70.000
60.56555 87.000
60.58550 90.000
60.60544 85.000
60.62539 82.000
60.64534 78.000
60.66528 100.000
60.68523 71.000
60.70518 78.000
60.72512 87.000
60.74507 82.000
60.76502 76.000
60.78496 81.000
60.80491 94.000
60.82486 99.000
60.84481 85.000
60.86475 92.000
60.88470 81.000
60.90465 70.000
60.92459 69.000
60.94454 76.000
60.96449 93.000
60.98443 97.000
61.00438 109.000
61.02433 71.000
61.04428 84.000
61.06422 84.000
61.08417 88.000
61.10412 117.000
61.12406 84.000
61.14401 84.000
61.16396 84.000
61.18390 90.000
61.20385 92.000
61.22380 89.000
61.24374 107.000
61.26369 101.000
61.28364 101.000
61.30359 116.000
61.32353 90.000
61.34348 106.000
61.36343 110.000
61.38337 110.000
61.40332 95.000
61.42327 117.000
61.44321 119.000
61.46316 92.000
61.48311 110.000
61.50306 148.000
61.52300 142.000
61.54295 149.000
61.56290 162.000
61.58284 146.000
61.60279 177.000
61.62274 192.000
61.64268 210.000
61.66263 220.000
61.68258 230.000
61.70252 265.000
61.72247 297.000
61.74242 297.000
61.76237 352.000
61.78231 369.000
61.80226 382.000
61.82221 430.000
61.84215 446.000
61.86210 455.000
61.88205 404.000
61.90199 403.000
61.92194 355.000
61.94189 343.000
61.96184 334.000
61.98178 319.000
62.00173 318.000
62.02168 303.000
62.04162 277.000
62.06157 274.000
62.08152 234.000
62.10146 194.000
62.12141 194.000
62.14136 176.000
62.16131 164.000
62.18125 164.000
62.20120 142.000
62.22115 144.000
62.24109 124.000
62.26104 130.000
62.28099 122.000
62.30093 135.000
62.32088 102.000
62.34083 131.000
62.36077 113.000
62.38072 119.000
62.40067 128.000
62.42062 117.000
62.44056 116.000
62.46051 134.000
62.48046 129.000
62.50040 126.000
62.52035 154.000
62.54030 137.000
62.56024 139.000
62.58019 133.000
62.60014 161.000
62.62009 161.000
62.64003 167.000
62.65998 172.000
62.67993 211.000
62.69987 182.000
62.71982 181.000
62.73977 200.000
62.75971 195.000
62.77966 228.000
62.79961 231.000
62.81955 227.000
62.83950 254.000
62.85945 268.000
62.87940 264.000
62.89934 333.000
62.91929 325.000
62.93924 299.000
62.95918 313.000
62.97913 259.000
62.99908 273.000
63.01902 288.000
63.03897 282.000
63.05892 256.000
63.07887 250.000
63.09881 250.000
63.11876 230.000
63.13871 230.000
63.15865 227.000
63.17860 195.000
63.19855 188.000
63.21849 175.000
63.23844 156.000
63.25839 169.000
63.27833 143.000
63.29828 135.000
63.31823 138.000
63.33818 136.000
63.35812 134.000
63.37807 99.000
63.39802 116.000
63.41796 120.000
63.43791 102.000
63.45786 105.000
63.47780 130.000
63.49775 116.000
63.51770 112.000
63.53765 138.000
63.55759 138.000
63.57754 126.000
63.59749 143.000
63.61743 163.000
63.63738 187.000
63.65733 188.000
63.67727 222.000
63.69722 218.000
63.71717 216.000
63.73712 267.000
63.75706 261.000
63.77701 263.000
63.79696 285.000
63.81690 288.000
63.83685 298.000
63.85680 297.000
63.87674 292.000
63.89669 250.000
63.91664 292.000
63.93658 261.000
63.95653 280.000
63.97648 272.000
63.99643 233.000
64.01637 207.000
64.03632 217.000
64.05627 200.000
64.07621 191.000
64.09616 199.000
64.11611 202.000
64.13605 176.000
64.15600 160.000
64.17595 162.000
64.19590 155.000
64.21584 113.000
64.23579 147.000
64.25574 130.000
64.27568 141.000
64.29563 114.000
64.31558 101.000
64.33552 128.000
64.35547 118.000
64.37542 115.000
64.39536 103.000
64.41531 105.000
64.43526 100.000
64.45521 98.000
64.47515 89.000
64.49510 95.000
64.51505 72.000
64.53499 99.000
64.55494 83.000
64.57489 108.000
64.59483 68.000
64.61478 89.000
64.63473 81.000
64.65468 91.000
64.67462 83.000
64.69457 94.000
64.71452 77.000
64.73446 88.000
64.75441 95.000
64.77436 74.000
64.79430 98.000
64.81425 87.000
64.83420 96.000
64.85414 70.000
64.87409 84.000
64.89404 99.000
64.91399 74.000
64.93393 89.000
64.95388 75.000
64.97383 93.000
64.99377 77.000
65.01372 89.000
65.03367 93.000
65.05361 98.000
65.07356 97.000
65.09351 84.000
65.11346 114.000
65.13340 83.000
65.15335 89.000
65.17330 86.000
65.19324 83.000
65.21319 101.000
65.23314 94.000
65.25308 99.000
65.27303 106.000
65.29298 114.000
65.31293 97.000
65.33287 113.000
65.35282 99.000
65.37277 107.000
65.39271 101.000
65.41266 138.000
65.43261 110.000
65.45255 159.000
65.47250 136.000
65.49245 124.000
65.51239 149.000
65.53234 135.000
65.55229 133.000
65.57224 140.000
65.59218 164.000
65.61213 127.000
65.63208 133.000
65.65202 136.000
65.67197 151.000
65.69192 136.000
65.71186 133.000
65.73181 134.000
65.75176 138.000
65.77171 136.000
65.79165 129.000
65.81160 138.000
65.83155 119.000
65.85149 133.000
65.87144 126.000
65.89139 123.000
65.91133 138.000
65.93128 116.000
65.95123 134.000
65.97117 123.000
65.99112 131.000
66.01107 124.000
66.03102 161.000
66.05096 140.000
66.07091 152.000
66.09086 166.000
66.11080 177.000
66.13075 191.000
66.15070 192.000
66.17064 222.000
66.19059 202.000
66.21054 218.000
66.23049 205.000
66.25043 222.000
66.27038 222.000
66.29033 205.000
66.31027 224.000
66.33022 184.000
66.35017 214.000
66.37011 214.000
66.39006 181.000
66.41001 196.000
66.42995 193.000
66.44990 207.000
66.46985 191.000
66.48980 187.000
66.50974 165.000
66.52969 137.000
66.54964 132.000
66.56958 140.000
66.58953 150.000
66.60948 137.000
66.62942 113.000
66.64937 136.000
66.66932 144.000
66.68927 144.000
66.70921 134.000
66.72916 123.000
66.74911 124.000
66.76905 116.000
66.78900 128.000
66.80895 130.000
66.82889 133.000
66.84884 114.000
66.86879 116.000
66.88874 134.000
66.90868 128.000
66.92863 128.000
66.94858 109.000
66.96852 121.000
66.98847 108.000
67.00842 96.000
67.02836 117.000
67.04831 134.000
67.06826 109.000
67.08820 84.000
67.10815 104.000
67.12810 110.000
67.14805 88.000
67.16799 102.000
67.18794 98.000
67.20789 89.000
67.22783 103.000
67.24778 87.000
67.26773 83.000
67.28767 84.000
67.30762 92.000
67.32757 95.000
67.34752 86.000
67.36746 88.000
67.38741 86.000
67.40736 89.000
67.42730 78.000
67.44725 93.000
67.46720 96.000
67.48714 105.000
67.50709 122.000
67.52704 109.000
67.54698 114.000
67.56693 105.000
67.58688 89.000
67.60683 94.000
67.62677 115.000
67.64672 92.000
67.66667 111.000
67.68661 105.000
67.70656 125.000
67.72651 106.000
67.74645 134.000
67.76640 108.000
67.78635 130.000
67.80630 109.000
67.82624 117.000
67.84619 112.000
67.86614 111.000
67.88608 107.000
67.90603 107.000
67.92598 117.000
67.94592 102.000
67.96587 128.000
67.98582 114.000
68.00576 132.000
68.02571 117.000
68.04566 125.000
68.06561 115.000
68.08555 108.000
68.10550 100.000
68.12545 108.000
68.14539 121.000
68.16534 121.000
68.18529 111.000
68.20523 103.000
68.22518 98.000
68.24513 111.000
68.26508 76.000
68.28502 82.000
68.30497 105.000
68.32492 114.000
68.34486 95.000
68.36481 113.000
68.38476 115.000
68.40470 88.000
68.42465 99.000
68.44460 90.000
68.46455 102.000
68.48449 82.000
68.50444 93.000
68.52439 82.000
68.54433 80.000
68.56428 88.000
68.58423 68.000
68.60417 98.000
68.62412 100.000
68.64407 96.000
68.66401 90.000
68.68396 72.000
68.70391 84.000
68.72386 105.000
68.74380 100.000
68.76375 81.000
68.78370 82.000
68.80364 79.000
68.82359 98.000
68.84354 78.000
68.86348 98.000
68.88343 67.000
68.90338 85.000
68.92333 92.000
68.94327 72.000
68.96322 79.000
68.98317 82.000
69.00311 79.000
69.02306 96.000
69.04301 92.000
69.06295 64.000
69.08290 65.000
69.10285 82.000
69.12279 80.000
69.14274 95.000
69.16269 83.000
69.18264 86.000
69.20258 87.000
69.22253 86.000
69.24248 84.000
69.26242 88.000
69.28237 89.000
69.30232 66.000
69.32226 86.000
69.34221 91.000
69.36216 84.000
69.38211 72.000
69.40205 91.000
69.42200 67.000
69.44195 81.000
69.46189 87.000
69.48184 75.000
69.50179 98.000
69.52173 75.000
69.54168 96.000
69.56163 67.000
69.58157 77.000
69.60152 81.000
69.62147 70.000
69.64142 75.000
69.66136 78.000
69.68131 80.000
69.70126 74.000
69.72120 84.000
69.74115 80.000
69.76110 87.000
69.78104 63.000
69.80099 94.000
69.82094 80.000
69.84089 94.000
69.86083 83.000
69.88078 91.000
69.90073 80.000
69.92067 77.000
69.94062 75.000
69.96057 94.000
69.98051 84.000
70.00046 69.000
70.02041 75.000
70.04035 81.000
70.06030 89.000
70.08025 94.000
70.10020 71.000
70.12014 74.000
70.14009 94.000
70.16004 68.000
70.17998 69.000
70.19993 82.000
70.21988 72.000
70.23982 80.000
70.25977 89.000
70.27972 74.000
70.29967 84.000
70.31961 88.000
70.33956 88.000
70.35951 66.000
70.37945 67.000
70.39940 78.000
70.41935 72.000
70.43929 88.000
70.45924 80.000
70.47919 76.000
70.49914 76.000
70.51908 78.000
70.53903 77.000
70.55898 91.000
70.57892 83.000
70.59887 80.000
70.61882 70.000
70.63876 67.000
70.65871 79.000
70.67866 69.000
70.69860 67.000
70.71855 83.000
70.73850 82.000
70.75845 70.000
70.77839 85.000
70.79834 80.000
70.81829 75.000
70.83823 91.000
70.85818 78.000
70.87813 68.000
70.89807 72.000
70.91802 91.000
70.93797 90.000
70.95792 83.000
70.97786 85.000
70.99781 87.000
71.01776 81.000
71.03770 73.000
71.05765 81.000
71.07760 85.000
71.09754 83.000
71.11749 85.000
71.13744 75.000
71.15738 90.000
71.17733 68.000
71.19728 82.000
71.21723 83.000
71.23717 83.000
71.25712 84.000
71.27707 97.000
71.29701 86.000
71.31696 83.000
71.33691 88.000
71.35685 83.000
71.37680 102.000
71.39675 85.000
71.41670 86.000
71.43664 90.000
71.45659 103.000
71.47654 98.000
71.49648 82.000
71.51643 103.000
71.53638 103.000
71.55632 89.000
71.57627 72.000
71.59622 68.000
71.61616 91.000
71.63611 67.000
71.65606 77.000
71.67601 63.000
71.69595 81.000
71.71590 84.000
71.73585 65.000
71.75579 83.000
71.77574 78.000
71.79569 79.000
71.81563 65.000
71.83558 85.000
71.85553 89.000
71.87548 79.000
71.89542 71.000
71.91537 84.000
71.93532 90.000
71.95526 68.000
71.97521 83.000
71.99516 78.000
72.01510 81.000
72.03505 86.000
72.05500 81.000
72.07495 76.000
72.09489 86.000
72.11484 71.000
72.13479 76.000
72.15473 81.000
72.17468 89.000
72.19463 81.000
72.21457 93.000
72.23452 90.000
72.25447 81.000
72.27441 80.000
72.29436 83.000
72.31431 84.000
72.33426 96.000
72.35420 88.000
72.37415 108.000
72.39410 87.000
72.41404 90.000
72.43399 111.000
72.45394 108.000
72.47388 88.000
72.49383 89.000
72.51378 111.000
72.53373 88.000
72.55367 96.000
72.57362 86.000
72.59357 109.000
72.61351 107.000
72.63346 93.000
72.65341 106.000
72.67335 108.000
72.69330 109.000
72.71325 98.000
72.73319 120.000
72.75314 138.000
72.77309 120.000
72.79304 116.000
72.81298 117.000
72.83293 120.000
72.85288 140.000
72.87282 119.000
72.89277 101.000
72.91272 113.000
72.93266 114.000
72.95261 128.000
72.97256 139.000
72.99251 134.000
73.01245 156.000
73.03240 136.000
73.05235 150.000
73.07229 135.000
73.09224 166.000
73.11219 158.000
73.13213 194.000
73.15208 163.000
73.17203 171.000
73.19197 147.000
73.21192 168.000
73.23187 153.000
73.25182 155.000
73.27176 140.000
73.29171 172.000
73.31166 134.000
73.33160 143.000
73.35155 171.000
73.37150 134.000
73.39144 141.000
73.41139 133.000
73.43134 142.000
73.45129 158.000
73.47123 132.000
73.49118 116.000
73.51113 121.000
73.53107 97.000
73.55102 109.000
73.57097 116.000
73.59091 116.000
73.61086 105.000
73.63081 113.000
73.65076 102.000
73.67070 97.000
73.69065 99.000
73.71060 109.000
73.73054 100.000
73.75049 88.000
73.77044 93.000
73.79038 81.000
73.81033 90.000
73.83028 106.000
73.85022 91.000
73.87017 92.000
73.89012 87.000
73.91007 96.000
73.93001 100.000
73.94996 80.000
73.96991 83.000
73.98985 74.000
74.00980 90.000
74.02975 96.000
74.04969 110.000
74.06964 79.000
74.08959 96.000
74.10954 102.000
74.12948 104.000
74.14943 108.000
74.16938 85.000
74.18932 93.000
74.20927 99.000
74.22922 98.000
74.24916 79.000
74.26911 106.000
74.28906 97.000
74.30900 111.000
74.32895 102.000
74.34890 94.000
74.36885 99.000
74.38879 116.000
74.40874 113.000
74.42869 119.000
74.44863 112.000
74.46858 127.000
74.48853 121.000
74.50847 104.000
74.52842 99.000
74.54837 117.000
74.56832 119.000
74.58826 97.000
74.60821 79.000
74.62816 93.000
74.64810 113.000
74.66805 118.000
74.68800 91.000
74.70794 106.000
74.72789 103.000
74.74784 99.000
74.76778 82.000
74.78773 111.000
74.80768 81.000
74.82763 82.000
74.84757 87.000
74.86752 92.000
74.88747 94.000
74.90741 82.000
74.92736 88.000
74.94731 81.000
74.96725 91.000
74.98720 115.000
75.00715 101.000
75.02710 106.000
75.04704 112.000
75.06699 128.000
75.08694 126.000
75.10688 112.000
75.12683 128.000
75.14678 115.000
75.16672 117.000
75.18667 123.000
75.20662 135.000
75.22657 145.000
75.24651 126.000
75.26646 123.000
75.28641 126.000
75.30635 146.000
75.32630 127.000
75.34625 120.000
75.36619 145.000
75.38614 119.000
75.40609 131.000
75.42603 130.000
75.44598 109.000
75.46593 116.000
75.48588 115.000
75.50582 117.000
75.52577 117.000
75.54572 98.000
75.56566 111.000
75.58561 112.000
75.60556 95.000
75.62550 94.000
75.64545 106.000
75.66540 113.000
75.68535 91.000
75.70529 105.000
75.72524 102.000
75.74519 81.000
75.76513 88.000
75.78508 99.000
75.80503 87.000
75.82497 97.000
75.84492 76.000
75.86487 95.000
75.88481 82.000
75.90476 80.000
75.92471 89.000
75.94466 76.000
75.96460 80.000
75.98455 71.000
76.00450 72.000
76.02444 89.000
76.04439 80.000
76.06434 78.000
76.08428 62.000
76.10423 70.000
76.12418 73.000
76.14413 95.000
76.16407 72.000
76.18402 81.000
76.20397 85.000
76.22391 75.000
76.24386 87.000
76.26381 83.000
76.28375 87.000
76.30370 86.000
76.32365 86.000
76.34359 102.000
76.36354 77.000
76.38349 76.000
76.40344 78.000
76.42338 68.000
76.44333 74.000
76.46328 80.000
76.48322 75.000
76.50317 78.000
76.52312 78.000
76.54306 87.000
76.56301 75.000
76.58296 93.000
76.60291 84.000
76.62285 69.000
76.64280 79.000
76.66275 78.000
76.68269 73.000
76.70264 76.000
76.72259 76.000
76.74253 83.000
76.76248 90.000
76.78243 79.000
76.80238 72.000
76.82232 85.000
76.84227 91.000
76.86222 82.000
76.88216 78.000
76.90211 79.000
76.92206 80.000
76.94200 92.000
76.96195 79.000
76.98190 81.000
77.00184 77.000
77.02179 72.000
77.04174 74.000
77.06169 93.000
77.08163 82.000
77.10158 76.000
77.12153 100.000
77.14147 102.000
77.16142 98.000
77.18137 98.000
77.20131 97.000
77.22126 102.000
77.24121 114.000
77.26116 108.000
77.28110 115.000
77.30105 105.000
77.32100 120.000
77.34094 108.000
77.36089 98.000
77.38084 115.000
77.40078 116.000
77.42073 90.000
77.44068 114.000
77.46062 134.000
77.48057 134.000
77.50052 134.000
77.52047 101.000
77.54041 116.000
77.56036 127.000
77.58031 110.000
77.60025 133.000
77.62020 127.000
77.64015 136.000
77.66009 113.000
77.68004 125.000
77.69999 127.000
77.71994 105.000
77.73988 106.000
77.75983 117.000
77.77978 122.000
77.79972 131.000
77.81967 119.000
77.83962 140.000
77.85956 144.000
77.87951 149.000
77.89946 150.000
77.91940 132.000
77.93935 143.000
77.95930 153.000
77.97925 146.000
77.99919 148.000
78.01914 142.000
78.03909 135.000
78.05903 139.000
78.07898 146.000
78.09893 174.000
78.11887 160.000
78.13882 152.000
78.15877 184.000
78.17872 170.000
78.19866 160.000
78.21861 171.000
78.23856 166.000
78.25850 152.000
78.27845 161.000
78.29840 160.000
78.31834 149.000
78.33829 142.000
78.35824 153.000
78.37819 128.000
78.39813 162.000
78.41808 138.000
78.43803 130.000
78.45797 156.000
78.47792 115.000
78.49787 135.000
78.51781 130.000
78.53776 131.000
78.55771 110.000
78.57765 92.000
78.59760 110.000
78.61755 76.000
78.63750 103.000
78.65744 110.000
78.67739 117.000
78.69734 97.000
78.71728 107.000
78.73723 82.000
78.75718 109.000
78.77712 86.000
78.79707 93.000
78.81702 81.000
78.83697 82.000
78.85691 97.000
78.87686 86.000
78.89681 86.000
78.91675 88.000
78.93670 96.000
78.95665 82.000
78.97659 92.000
78.99654 77.000
79.01649 92.000
79.03643 85.000
79.05638 95.000
79.07633 81.000
79.09628 84.000
79.11622 100.000
79.13617 89.000
79.15612 72.000
79.17606 74.000
79.19601 74.000
79.21596 88.000
79.23590 74.000
79.25585 73.000
79.27580 70.000
79.29575 89.000
79.31569 84.000
79.33564 78.000
79.35559 82.000
79.37553 81.000
79.39548 83.000
79.41543 103.000
79.43537 80.000
79.45532 89.000
79.47527 82.000
79.49521 80.000
79.51516 85.000
79.53511 76.000
79.55506 78.000
79.57500 95.000
79.59495 89.000
79.61490 93.000
79.63484 82.000
79.65479 64.000
79.67474 70.000
79.69468 97.000
79.71463 79.000
79.73458 83.000
79.75453 62.000
79.77447 91.000
79.79442 74.000
79.81437 77.000
79.83431 77.000
79.85426 72.000
79.87421 70.000
79.89415 87.000
79.91410 83.000
79.93405 80.000
79.95399 76.000
79.97394 85.000
79.99389 78.000
80.01384 64.000
80.03378 81.000
80.05373 72.000
80.07368 84.000
80.09362 95.000
80.11357 84.000
80.13352 86.000
80.15346 80.000
80.17341 97.000
80.19336 99.000
80.21331 84.000
80.23325 94.000
80.25320 109.000
80.27315 86.000
80.29309 105.000
80.31304 109.000
80.33299 88.000
80.35293 89.000
80.37288 92.000
80.39283 83.000
80.41278 69.000
80.43272 92.000
80.45267 89.000
80.47262 88.000
80.49256 78.000
80.51251 77.000
80.53246 81.000
80.55240 88.000
80.57235 93.000
80.59230 79.000
80.61224 85.000
80.63219 70.000
80.65214 79.000
80.67209 82.000
80.69203 75.000
80.71198 83.000
80.73193 65.000
80.75187 72.000
80.77182 67.000
80.79177 94.000
80.81171 88.000
80.83166 81.000
80.85161 84.000
80.87156 90.000
80.89150 87.000
80.91145 76.000
80.93140 88.000
80.95134 68.000
80.97129 74.000
80.99124 82.000
81.01118 85.000
81.03113 83.000
81.05108 65.000
81.07102 63.000
81.09097 86.000
81.11092 77.000
81.13087 78.000
81.15081 69.000
81.17076 77.000
81.19071 115.000
81.21065 75.000
81.23060 81.000
81.25055 78.000
81.27049 101.000
81.29044 69.000
81.31039 77.000
81.33034 80.000
81.35028 75.000
81.37023 78.000
81.39018 72.000
81.41012 80.000
81.43007 81.000
81.45002 73.000
81.46996 86.000
81.48991 76.000
81.50986 67.000
81.52980 98.000
81.54975 78.000
81.56970 81.000
81.58965 81.000
81.60959 87.000
81.62954 75.000
81.64949 86.000
81.66943 87.000
81.68938 68.000
81.70933 71.000
81.72927 68.000
81.74922 71.000
81.76917 83.000
81.78912 73.000
81.80906 78.000
81.82901 81.000
81.84896 89.000
81.86890 66.000
81.88885 82.000
81.90880 65.000
81.92874 66.000
81.94869 75.000
81.96864 80.000
81.98859 93.000
82.00853 62.000
82.02848 64.000
82.04843 73.000
82.06837 70.000
82.08832 87.000
82.10827 91.000
82.12821 64.000
82.14816 88.000
82.16811 78.000
82.18805 82.000
82.20800 87.000
82.22795 85.000
82.24790 69.000
82.26784 76.000
82.28779 79.000
82.30774 90.000
82.32768 85.000
82.34763 70.000
82.36758 82.000
82.38752 93.000
82.40747 85.000
82.42742 81.000
82.44737 99.000
82.46731 95.000
82.48726 92.000
82.50721 95.000
82.52715 78.000
82.54710 81.000
82.56705 87.000
82.58699 93.000
82.60694 81.000
82.62689 76.000
82.64683 89.000
82.66678 82.000
82.68673 88.000
82.70668 75.000
82.72662 95.000
82.74657 88.000
82.76652 81.000
82.78646 86.000
82.80641 93.000
82.82636 90.000
82.84630 83.000
82.86625 87.000
82.88620 68.000
82.90615 71.000
82.92609 87.000
82.94604 98.000
82.96599 71.000
82.98593 77.000
83.00588 85.000
83.02583 80.000
83.04577 79.000
83.06572 76.000
83.08567 85.000
83.10561 87.000
83.12556 80.000
83.14551 80.000
83.16546 82.000
83.18540 77.000
83.20535 94.000
83.22530 82.000
83.24524 88.000
83.26519 92.000
83.28514 91.000
83.30508 84.000
83.32503 97.000
83.34498 86.000
83.36493 82.000
83.38487 75.000
83.40482 76.000
83.42477 88.000
83.44471 72.000
83.46466 77.000
83.48461 81.000
83.50455 84.000
83.52450 88.000
83.54445 93.000
83.56440 91.000
83.58434 93.000
83.60429 85.000
83.62424 91.000
83.64418 78.000
83.66413 107.000
83.68408 89.000
83.70402 97.000
83.72397 94.000
83.74392 93.000
83.76386 113.000
83.78381 104.000
83.80376 107.000
83.82371 119.000
83.84365 93.000
83.86360 118.000
83.88355 106.000
83.90349 114.000
83.92344 156.000
83.94339 125.000
83.96333 143.000
83.98328 140.000
84.00323 124.000
84.02318 126.000
84.04312 135.000
84.06307 136.000
84.08302 139.000
84.10296 159.000
84.12291 131.000
84.14286 130.000
84.16280 144.000
84.18275 119.000
84.20270 159.000
84.22264 148.000
84.24259 156.000
84.26254 107.000
84.28249 140.000
84.30243 152.000
84.32238 147.000
84.34233 130.000
84.36227 121.000
84.38222 136.000
84.40217 137.000
84.42211 117.000
84.44206 94.000
84.46201 116.000
84.48196 109.000
84.50190 118.000
84.52185 98.000
84.54180 109.000
84.56174 109.000
84.58169 104.000
84.60164 107.000
84.62158 89.000
84.64153 100.000
84.66148 104.000
84.68142 74.000
84.70137 78.000
84.72132 87.000
84.74127 96.000
84.76121 83.000
84.78116 81.000
84.80111 95.000
84.82105 79.000
84.84100 74.000
84.86095 80.000
84.88089 80.000
84.90084 87.000
84.92079 83.000
84.94074 91.000
84.96068 82.000
84.98063 77.000
85.00058 81.000
85.02052 79.000
85.04047 87.000
85.06042 60.000
85.08036 75.000
85.10031 60.000
85.12026 83.000
85.14021 82.000
85.16015 75.000
85.18010 70.000
85.20005 68.000
85.21999 70.000
85.23994 84.000
85.25989 96.000
85.27983 70.000
85.29978 64.000
85.31973 60.000
85.33967 67.000
85.35962 71.000
85.37957 84.000
85.39952 78.000
85.41946 90.000
85.43941 80.000
85.45936 81.000
85.47930 94.000
85.49925 75.000
85.51920 76.000
85.53914 67.000
85.55909 87.000
85.57904 69.000
85.59899 67.000
85.61893 98.000
85.63888 86.000
85.65883 84.000
85.67877 88.000
85.69872 86.000
85.71867 77.000
85.73861 76.000
85.75856 85.000
85.77851 78.000
85.79845 83.000
85.81840 62.000
85.83835 81.000
85.85830 55.000
85.87824 91.000
85.89819 58.000
85.91814 75.000
85.93808 83.000
85.95803 68.000
85.97798 85.000
85.99792 77.000
86.01787 77.000
86.03782 72.000
86.05777 92.000
86.07771 66.000
86.09766 83.000
86.11761 70.000
86.13755 71.000
86.15750 79.000
86.17745 87.000
86.19739 83.000
86.21734 70.000
86.23729 84.000
86.25723 73.000
86.27718 77.000
86.29713 80.000
86.31708 71.000
86.33702 66.000
86.35697 89.000
86.37692 82.000
86.39686 88.000
86.41681 79.000
86.43676 83.000
86.45670 77.000
86.47665 80.000
86.49660 77.000
86.51655 68.000
86.53649 95.000
86.55644 81.000
86.57639 88.000
86.59633 79.000
86.61628 98.000
86.63623 97.000
86.65617 89.000
86.67612 95.000
86.69607 104.000
86.71602 109.000
86.73596 107.000
86.75591 108.000
86.77586 111.000
86.79580 94.000
86.81575 106.000
86.83570 108.000
86.85564 91.000
86.87559 111.000
86.89554 122.000
86.91548 96.000
86.93543 91.000
86.95538 105.000
86.97533 101.000
86.99527 95.000
87.01522 119.000
87.03517 89.000
87.05511 104.000
87.07506 104.000
87.09501 98.000
87.11495 93.000
87.13490 99.000
87.15485 107.000
87.17480 92.000
87.19474 98.000
87.21469 104.000
87.23464 95.000
87.25458 107.000
87.27453 105.000
87.29448 101.000
87.31442 95.000
87.33437 93.000
87.35432 113.000
87.37426 94.000
87.39421 109.000
87.41416 109.000
87.43411 107.000
87.45405 97.000
87.47400 93.000
87.49395 110.000
87.51389 103.000
87.53384 81.000
87.55379 105.000
87.57373 90.000
87.59368 82.000
87.61363 84.000
87.63358 100.000
87.65352 93.000
87.67347 82.000
87.69342 87.000
87.71336 90.000
87.73331 93.000
87.75326 81.000
87.77320 79.000
87.79315 83.000
87.81310 85.000
87.83304 68.000
87.85299 74.000
87.87294 80.000
87.89289 94.000
87.91283 63.000
87.93278 78.000
87.95273 71.000
87.97267 98.000
87.99262 85.000
88.01257 75.000
88.03251 72.000
88.05246 83.000
88.07241 73.000
88.09236 91.000
88.11230 90.000
88.13225 83.000
88.15220 75.000
88.17214 80.000
88.19209 79.000
88.21204 75.000
88.23198 102.000
88.25193 89.000
88.27188 77.000
88.29183 70.000
88.31177 72.000
88.33172 73.000
88.35167 81.000
88.37161 79.000
88.39156 99.000
88.41151 83.000
88.43145 68.000
88.45140 72.000
88.47135 62.000
88.49129 72.000
88.51124 87.000
88.53119 82.000
88.55114 59.000
88.57108 72.000
88.59103 84.000
88.61098 61.000
88.63092 72.000
88.65087 67.000
88.67082 81.000
88.69076 89.000
88.71071 87.000
88.73066 81.000
88.75061 80.000
88.77055 86.000
88.79050 79.000
88.81045 99.000
88.83039 77.000
88.85034 77.000
88.87029 67.000
88.89023 75.000
88.91018 83.000
88.93013 89.000
88.95007 91.000
88.97002 89.000
88.98997 73.000
89.00992 74.000
89.02986 72.000
89.04981 69.000
89.06976 67.000
89.08970 82.000
89.10965 90.000
89.12960 94.000
89.14954 97.000
89.16949 95.000
89.18944 65.000
89.20939 76.000
89.22933 77.000
89.24928 87.000
89.26923 94.000
89.28917 94.000
89.30912 88.000
89.32907 79.000
89.34901 68.000
89.36896 84.000
89.38891 76.000
89.40885 88.000
89.42880 80.000
89.44875 82.000
89.46870 88.000
89.48864 75.000
89.50859 94.000
89.52854 80.000
89.54848 81.000
89.56843 93.000
89.58838 87.000
89.60832 76.000
89.62827 83.000
89.64822 96.000
89.66817 81.000
89.68811 98.000
89.70806 84.000
89.72801 92.000
89.74795 103.000
89.76790 97.000
89.78785 86.000
89.80779 84.000
89.82774 92.000
89.84769 102.000
89.86764 89.000
89.88758 97.000
89.90753 86.000
89.92748 111.000
89.94742 104.000
89.96737 105.000
89.98732 89.000
90.00726 98.000
