10.00000 74.000
10.01995 80.000
10.03989 82.000
10.05984 65.000
10.07979 68.000
10.09973 78.000
10.11968 98.000
10.13963 88.000
10.15958 80.000
10.17952 87.000
10.19947 86.000
10.21942 74.000
10.23936 81.000
10.25931 78.000
10.27926 88.000
10.29920 83.000
10.31915 90.000
10.33910 80.000
10.35905 78.000
10.37899 78.000
10.39894 76.000
10.41889 79.000
10.43883 91.000
10.45878 89.000
10.47873 77.000
10.49867 66.000
10.51862 86.000
10.53857 100.000
10.55851 86.000
10.57846 85.000
10.59841 78.000
10.61836 99.000
10.63830 97.000
10.65825 74.000
10.67820 81.000
10.69814 74.000
10.71809 78.000
10.73804 68.000
10.75798 76.000
10.77793 74.000
10.79788 62.000
10.81783 77.000
10.83777 95.000
10.85772 89.000
10.87767 73.000
10.89761 80.000
10.91756 96.000
10.93751 93.000
10.95745 83.000
10.97740 73.000
10.99735 61.000
11.01730 82.000
11.03724 87.000
11.05719 85.000
11.07714 82.000
11.09708 79.000
11.11703 85.000
11.13698 68.000
11.15692 83.000
11.17687 74.000
11.19682 80.000
11.21676 81.000
11.23671 88.000
11.25666 78.000
11.27661 85.000
11.29655 78.000
11.31650 104.000
11.33645 86.000
11.35639 78.000
11.37634 70.000
11.39629 68.000
11.41623 84.000
11.43618 77.000
11.45613 81.000
11.47608 78.000
11.49602 80.000
11.51597 82.000
11.53592 87.000
11.55586 86.000
11.57581 74.000
11.59576 82.000
11.61570 84.000
11.63565 71.000
11.65560 91.000
11.67554 92.000
11.69549 86.000
11.71544 92.000
11.73539 59.000
11.75533 73.000
11.77528 92.000
11.79523 87.000
11.81517 81.000
11.83512 89.000
11.85507 85.000
11.87501 79.000
11.89496 83.000
11.91491 80.000
11.93486 93.000
11.95480 77.000
11.97475 75.000
11.99470 81.000
12.01464 80.000
12.03459 68.000
12.05454 84.000
12.07448 88.000
12.09443 80.000
12.11438 70.000
12.13432 92.000
12.15427 73.000
12.17422 78.000
12.19417 84.000
12.21411 88.000
12.23406 85.000
12.25401 85.000
12.27395 81.000
12.29390 79.000
12.31385 96.000
12.33379 83.000
12.35374 86.000
12.37369 73.000
12.39364 87.000
12.41358 79.000
12.43353 77.000
12.45348 89.000
12.47342 87.000
12.49337 83.000
12.51332 61.000
12.53326 92.000
12.55321 72.000
12.57316 63.000
12.59311 85.000
12.61305 85.000
12.63300 75.000
12.65295 84.000
12.67289 94.000
12.69284 83.000
12.71279 71.000
12.73273 76.000
12.75268 84.000
12.77263 73.000
12.79257 73.000
12.81252 82.000
12.83247 87.000
12.85242 76.000
12.87236 85.000
12.89231 89.000
12.91226 90.000
12.93220 78.000
12.95215 91.000
12.97210 67.000
12.99204 59.000
13.01199 82.000
13.03194 74.000
13.05189 87.000
13.07183 91.000
13.09178 59.000
13.11173 98.000
13.13167 60.000
13.15162 92.000
13.17157 77.000
13.19151 81.000
13.21146 81.000
13.23141 79.000
13.25135 79.000
13.27130 82.000
13.29125 93.000
13.31120 78.000
13.33114 99.000
13.35109 65.000
13.37104 71.000
13.39098 74.000
13.41093 77.000
13.43088 63.000
13.45082 84.000
13.47077 70.000
13.49072 62.000
13.51067 65.000
13.53061 77.000
13.55056 71.000
13.57051 81.000
13.59045 73.000
13.61040 62.000
13.63035 79.000
13.65029 87.000
13.67024 84.000
13.69019 75.000
13.71013 75.000
13.73008 73.000
13.75003 82.000
13.76998 90.000
13.78992 72.000
13.80987 73.000
13.82982 79.000
13.84976 81.000
13.86971 80.000
13.88966 84.000
13.90960 81.000
13.92955 74.000
13.94950 81.000
13.96945 64.000
13.98939 84.000
14.00934 73.000
14.02929 80.000
14.04923 78.000
14.06918 75.000
14.08913 73.000
14.10907 61.000
14.12902 74.000
14.14897 72.000
14.16892 88.000
14.18886 64.000
14.20881 80.000
14.22876 79.000
14.24870 76.000
14.26865 74.000
14.28860 83.000
14.30854 89.000
14.32849 71.000
14.34844 82.000
14.36838 71.000
14.38833 67.000
14.40828 75.000
14.42823 83.000
14.44817 67.000
14.46812 92.000
14.48807 84.000
14.50801 78.000
14.52796 85.000
14.54791 76.000
14.56785 58.000
14.58780 71.000
14.60775 88.000
14.62770 82.000
14.64764 79.000
14.66759 86.000
14.68754 85.000
14.70748 78.000
14.72743 63.000
14.74738 67.000
14.76732 91.000
14.78727 73.000
14.80722 82.000
14.82716 94.000
14.84711 77.000
14.86706 70.000
14.88701 90.000
14.90695 80.000
14.92690 68.000
14.94685 70.000
14.96679 80.000
14.98674 83.000
15.00669 66.000
15.02663 83.000
15.04658 75.000
15.06653 82.000
15.08648 77.000
15.10642 73.000
15.12637 81.000
15.14632 84.000
15.16626 74.000
15.18621 76.000
15.20616 67.000
15.22610 83.000
15.24605 75.000
15.26600 85.000
15.28594 77.000
15.30589 84.000
15.32584 68.000
15.34579 71.000
15.36573 90.000
15.38568 75.000
15.40563 79.000
15.42557 73.000
15.44552 83.000
15.46547 99.000
15.48541 82.000
15.50536 75.000
15.52531 92.000
15.54526 70.000
15.56520 90.000
15.58515 81.000
15.60510 102.000
15.62504 79.000
15.64499 87.000
15.66494 105.000
15.68488 95.000
15.70483 101.000
15.72478 90.000
15.74472 122.000
15.76467 154.000
15.78462 160.000
15.80457 137.000
15.82451 128.000
15.84446 115.000
15.86441 104.000
15.88435 104.000
15.90430 118.000
15.92425 110.000
15.94419 120.000
15.96414 167.000
15.98409 166.000
16.00404 195.000
16.02398 205.000
16.04393 219.000
16.06388 256.000
16.08382 302.000
16.10377 296.000
16.12372 310.000
16.14366 318.000
16.16361 407.000
16.18356 387.000
16.20351 462.000
16.22345 525.000
16.24340 616.000
16.26335 593.000
16.28329 735.000
16.30324 850.000
16.32319 899.000
16.34313 941.000
16.36308 918.000
16.38303 693.000
16.40297 600.000
16.42292 383.000
16.44287 275.000
16.46282 185.000
16.48276 141.000
16.50271 108.000
16.52266 113.000
16.54260 109.000
16.56255 128.000
16.58250 103.000
16.60244 105.000
16.62239 100.000
16.64234 97.000
16.66229 88.000
16.68223 90.000
16.70218 87.000
16.72213 96.000
16.74207 86.000
16.76202 101.000
16.78197 108.000
16.80191 116.000
16.82186 83.000
16.84181 96.000
16.86175 78.000
16.88170 83.000
16.90165 85.000
16.92160 77.000
16.94154 92.000
16.96149 95.000
16.98144 83.000
17.00138 88.000
17.02133 90.000
17.04128 83.000
17.06122 100.000
17.08117 89.000
17.10112 79.000
17.12107 76.000
17.14101 89.000
17.16096 111.000
17.18091 84.000
17.20085 77.000
17.22080 74.000
17.24075 96.000
17.26069 80.000
17.28064 71.000
17.30059 83.000
17.32053 75.000
17.34048 68.000
17.36043 73.000
17.38038 69.000
17.40032 75.000
17.42027 101.000
17.44022 76.000
17.46016 85.000
17.48011 86.000
17.50006 90.000
17.52000 73.000
17.53995 76.000
17.55990 85.000
17.57985 73.000
17.59979 89.000
17.61974 71.000
17.63969 70.000
17.65963 87.000
17.67958 81.000
17.69953 95.000
17.71947 70.000
17.73942 61.000
17.75937 70.000
17.77932 71.000
17.79926 90.000
17.81921 87.000
17.83916 75.000
17.85910 80.000
17.87905 88.000
17.89900 64.000
17.91894 79.000
17.93889 82.000
17.95884 83.000
17.97878 95.000
17.99873 81.000
18.01868 81.000
18.03863 79.000
18.05857 83.000
18.07852 80.000
18.09847 96.000
18.11841 82.000
18.13836 99.000
18.15831 104.000
18.17825 110.000
18.19820 147.000
18.21815 198.000
18.23810 215.000
18.25804 284.000
18.27799 369.000
18.29794 432.000
18.31788 462.000
18.33783 511.000
18.35778 450.000
18.37772 329.000
18.39767 250.000
18.41762 171.000
18.43756 113.000
18.45751 96.000
18.47746 106.000
18.49741 83.000
18.51735 80.000
18.53730 84.000
18.55725 85.000
18.57719 98.000
18.59714 81.000
18.61709 70.000
18.63703 104.000
18.65698 75.000
18.67693 80.000
18.69688 76.000
18.71682 92.000
18.73677 80.000
18.75672 68.000
18.77666 86.000
18.79661 88.000
18.81656 86.000
18.83650 87.000
18.85645 83.000
18.87640 80.000
18.89634 55.000
18.91629 75.000
18.93624 86.000
18.95619 75.000
18.97613 72.000
18.99608 79.000
19.01603 77.000
19.03597 86.000
19.05592 71.000
19.07587 81.000
19.09581 81.000
19.11576 59.000
19.13571 69.000
19.15566 83.000
19.17560 84.000
19.19555 78.000
19.21550 79.000
19.23544 74.000
19.25539 73.000
19.27534 86.000
19.29528 81.000
19.31523 78.000
19.33518 79.000
19.35513 78.000
19.37507 73.000
19.39502 67.000
19.41497 61.000
19.43491 80.000
19.45486 74.000
19.47481 74.000
19.49475 89.000
19.51470 78.000
19.53465 76.000
19.55459 81.000
19.57454 85.000
19.59449 84.000
19.61444 83.000
19.63438 88.000
19.65433 66.000
19.67428 83.000
19.69422 75.000
19.71417 77.000
19.73412 82.000
19.75406 79.000
19.77401 94.000
19.79396 70.000
19.81391 87.000
19.83385 85.000
19.85380 65.000
19.87375 84.000
19.89369 75.000
19.91364 73.000
19.93359 71.000
19.95353 80.000
19.97348 68.000
19.99343 78.000
20.01337 88.000
20.03332 91.000
20.05327 70.000
20.07322 94.000
20.09316 76.000
20.11311 66.000
20.13306 64.000
20.15300 97.000
20.17295 92.000
20.19290 94.000
20.21284 71.000
20.23279 94.000
20.25274 85.000
20.27269 89.000
20.29263 84.000
20.31258 77.000
20.33253 96.000
20.35247 69.000
20.37242 80.000
20.39237 90.000
20.41231 108.000
20.43226 105.000
20.45221 110.000
20.47215 95.000
20.49210 115.000
20.51205 126.000
20.53200 129.000
20.55194 173.000
20.57189 151.000
20.59184 145.000
20.61178 139.000
20.63173 149.000
20.65168 162.000
20.67162 128.000
20.69157 149.000
20.71152 138.000
20.73147 161.000
20.75141 170.000
20.77136 158.000
20.79131 168.000
20.81125 190.000
20.83120 172.000
20.85115 188.000
20.87109 156.000
20.89104 141.000
20.91099 136.000
20.93094 151.000
20.95088 131.000
20.97083 110.000
20.99078 137.000
21.01072 127.000
21.03067 91.000
21.05062 88.000
21.07056 87.000
21.09051 93.000
21.11046 79.000
21.13040 74.000
21.15035 73.000
21.17030 80.000
21.19025 78.000
21.21019 75.000
21.23014 75.000
21.25009 72.000
21.27003 72.000
21.28998 72.000
21.30993 90.000
21.32987 91.000
21.34982 83.000
21.36977 80.000
21.38972 68.000
21.40966 70.000
21.42961 80.000
21.44956 83.000
21.46950 95.000
21.48945 77.000
21.50940 81.000
21.52934 83.000
21.54929 69.000
21.56924 76.000
21.58918 83.000
21.60913 80.000
21.62908 84.000
21.64903 85.000
21.66897 78.000
21.68892 77.000
21.70887 77.000
21.72881 100.000
21.74876 76.000
21.76871 88.000
21.78865 78.000
21.80860 77.000
21.82855 68.000
21.84850 99.000
21.86844 87.000
21.88839 73.000
21.90834 94.000
21.92828 94.000
21.94823 88.000
21.96818 86.000
21.98812 74.000
22.00807 68.000
22.02802 88.000
22.04796 85.000
22.06791 95.000
22.08786 80.000
22.10781 90.000
22.12775 81.000
22.14770 81.000
22.16765 82.000
22.18759 86.000
22.20754 77.000
22.22749 67.000
22.24743 96.000
22.26738 105.000
22.28733 81.000
22.30728 73.000
22.32722 94.000
22.34717 85.000
22.36712 67.000
22.38706 75.000
22.40701 77.000
22.42696 86.000
22.44690 77.000
22.46685 85.000
22.48680 71.000
22.50675 83.000
22.52669 82.000
22.54664 77.000
22.56659 73.000
22.58653 80.000
22.60648 81.000
22.62643 84.000
22.64637 92.000
22.66632 85.000
22.68627 85.000
22.70621 74.000
22.72616 80.000
22.74611 79.000
22.76606 89.000
22.78600 92.000
22.80595 84.000
22.82590 75.000
22.84584 73.000
22.86579 90.000
22.88574 74.000
22.90568 78.000
22.92563 86.000
22.94558 94.000
22.96553 85.000
22.98547 76.000
23.00542 93.000
23.02537 86.000
23.04531 70.000
23.06526 73.000
23.08521 66.000
23.10515 100.000
23.12510 99.000
23.14505 91.000
23.16499 90.000
23.18494 82.000
23.20489 82.000
23.22484 70.000
23.24478 84.000
23.26473 66.000
23.28468 77.000
23.30462 94.000
23.32457 91.000
23.34452 93.000
23.36446 81.000
23.38441 77.000
23.40436 62.000
23.42431 80.000
23.44425 87.000
23.46420 94.000
23.48415 89.000
23.50409 78.000
23.52404 93.000
23.54399 67.000
23.56393 72.000
23.58388 98.000
23.60383 73.000
23.62377 97.000
23.64372 79.000
23.66367 70.000
23.68362 88.000
23.70356 78.000
23.72351 73.000
23.74346 81.000
23.76340 86.000
23.78335 88.000
23.80330 85.000
23.82324 83.000
23.84319 81.000
23.86314 76.000
23.88309 82.000
23.90303 86.000
23.92298 102.000
23.94293 71.000
23.96287 88.000
23.98282 71.000
24.00277 80.000
24.02271 81.000
24.04266 83.000
24.06261 98.000
24.08256 100.000
24.10250 80.000
24.12245 72.000
24.14240 86.000
24.16234 114.000
24.18229 93.000
24.20224 91.000
24.22218 86.000
24.24213 86.000
24.26208 85.000
24.28202 86.000
24.30197 78.000
24.32192 90.000
24.34187 82.000
24.36181 72.000
24.38176 69.000
24.40171 82.000
24.42165 77.000
24.44160 85.000
24.46155 96.000
24.48149 87.000
24.50144 90.000
24.52139 85.000
24.54134 83.000
24.56128 68.000
24.58123 79.000
24.60118 77.000
24.62112 91.000
24.64107 79.000
24.66102 77.000
24.68096 95.000
24.70091 76.000
24.72086 70.000
24.74080 92.000
24.76075 101.000
24.78070 85.000
24.80065 80.000
24.82059 87.000
24.84054 80.000
24.86049 81.000
24.88043 87.000
24.90038 90.000
24.92033 91.000
24.94027 107.000
24.96022 96.000
24.98017 73.000
25.00012 79.000
25.02006 97.000
25.04001 92.000
25.05996 81.000
25.07990 87.000
25.09985 73.000
25.11980 95.000
25.13974 86.000
25.15969 76.000
25.17964 104.000
25.19958 83.000
25.21953 83.000
25.23948 105.000
25.25943 84.000
25.27937 88.000
25.29932 101.000
25.31927 86.000
25.33921 99.000
25.35916 99.000
25.37911 78.000
25.39905 90.000
25.41900 85.000
25.43895 114.000
25.45890 105.000
25.47884 91.000
25.49879 111.000
25.51874 83.000
25.53868 90.000
25.55863 80.000
25.57858 98.000
25.59852 89.000
25.61847 105.000
25.63842 95.000
25.65837 94.000
25.67831 82.000
25.69826 98.000
25.71821 97.000
25.73815 93.000
25.75810 75.000
25.77805 85.000
25.79799 88.000
25.81794 96.000
25.83789 97.000
25.85783 88.000
25.87778 79.000
25.89773 99.000
25.91768 89.000
25.93762 92.000
25.95757 88.000
25.97752 94.000
25.99746 115.000
26.01741 94.000
26.03736 95.000
26.05730 77.000
26.07725 91.000
26.09720 103.000
26.11715 118.000
26.13709 113.000
26.15704 92.000
26.17699 83.000
26.19693 94.000
26.21688 89.000
26.23683 86.000
26.25677 99.000
26.27672 90.000
26.29667 96.000
26.31661 107.000
26.33656 91.000
26.35651 87.000
26.37646 100.000
26.39640 100.000
26.41635 108.000
26.43630 105.000
26.45624 99.000
26.47619 76.000
26.49614 98.000
26.51608 109.000
26.53603 87.000
26.55598 102.000
26.57593 92.000
26.59587 90.000
26.61582 107.000
26.63577 112.000
26.65571 103.000
26.67566 97.000
26.69561 104.000
26.71555 95.000
26.73550 102.000
26.75545 105.000
26.77539 106.000
26.79534 100.000
26.81529 107.000
26.83524 101.000
26.85518 107.000
26.87513 92.000
26.89508 88.000
26.91502 80.000
26.93497 104.000
26.95492 98.000
26.97486 127.000
26.99481 108.000
27.01476 80.000
27.03471 98.000
27.05465 84.000
27.07460 97.000
27.09455 104.000
27.11449 112.000
27.13444 92.000
27.15439 99.000
27.17433 109.000
27.19428 110.000
27.21423 97.000
27.23417 87.000
27.25412 95.000
27.27407 84.000
27.29402 93.000
27.31396 103.000
27.33391 103.000
27.35386 98.000
27.37380 115.000
27.39375 101.000
27.41370 91.000
27.43364 105.000
27.45359 102.000
27.47354 103.000
27.49349 126.000
27.51343 104.000
27.53338 109.000
27.55333 107.000
27.57327 87.000
27.59322 90.000
27.61317 95.000
27.63311 111.000
27.65306 119.000
27.67301 114.000
27.69296 97.000
27.71290 107.000
27.73285 124.000
27.75280 99.000
27.77274 104.000
27.79269 120.000
27.81264 102.000
27.83258 104.000
27.85253 95.000
27.87248 117.000
27.89242 98.000
27.91237 114.000
27.93232 85.000
27.95227 111.000
27.97221 111.000
27.99216 97.000
28.01211 109.000
28.03205 104.000
28.05200 113.000
28.07195 89.000
28.09189 120.000
28.11184 103.000
28.13179 106.000
28.15174 109.000
28.17168 89.000
28.19163 96.000
28.21158 122.000
28.23152 120.000
28.25147 114.000
28.27142 110.000
28.29136 120.000
28.31131 102.000
28.33126 105.000
28.35120 105.000
28.37115 115.000
28.39110 109.000
28.41105 104.000
28.43099 105.000
28.45094 109.000
28.47089 115.000
28.49083 106.000
28.51078 107.000
28.53073 109.000
28.55067 116.000
28.57062 125.000
28.59057 112.000
28.61052 102.000
28.63046 113.000
28.65041 100.000
28.67036 92.000
28.69030 117.000
28.71025 122.000
28.73020 115.000
28.75014 117.000
28.77009 106.000
28.79004 102.000
28.80998 118.000
28.82993 113.000
28.84988 128.000
28.86983 97.000
28.88977 106.000
28.90972 119.000
28.92967 136.000
28.94961 104.000
28.96956 96.000
28.98951 107.000
29.00945 104.000
29.02940 129.000
29.04935 112.000
29.06930 118.000
29.08924 133.000
29.10919 115.000
29.12914 97.000
29.14908 99.000
29.16903 142.000
29.18898 121.000
29.20892 128.000
29.22887 96.000
29.24882 114.000
29.26877 132.000
29.28871 119.000
29.30866 129.000
29.32861 109.000
29.34855 124.000
29.36850 99.000
29.38845 122.000
29.40839 143.000
29.42834 135.000
29.44829 113.000
29.46823 113.000
29.48818 119.000
29.50813 128.000
29.52808 105.000
29.54802 139.000
29.56797 134.000
29.58792 118.000
29.60786 128.000
29.62781 113.000
29.64776 114.000
29.66770 123.000
29.68765 140.000
29.70760 126.000
29.72755 122.000
29.74749 133.000
29.76744 121.000
29.78739 133.000
29.80733 121.000
29.82728 117.000
29.84723 145.000
29.86717 131.000
29.88712 143.000
29.90707 173.000
29.92701 163.000
29.94696 197.000
29.96691 220.000
29.98686 258.000
30.00680 305.000
30.02675 362.000
30.04670 394.000
30.06664 530.000
30.08659 652.000
30.10654 742.000
30.12648 817.000
30.14643 784.000
30.16638 813.000
30.18633 764.000
30.20627 701.000
30.22622 637.000
30.24617 518.000
30.26611 415.000
30.28606 344.000
30.30601 266.000
30.32595 245.000
30.34590 180.000
30.36585 186.000
30.38579 143.000
30.40574 162.000
30.42569 160.000
30.44564 133.000
30.46558 130.000
30.48553 126.000
30.50548 125.000
30.52542 123.000
30.54537 136.000
30.56532 112.000
30.58526 133.000
30.60521 125.000
30.62516 114.000
30.64511 117.000
30.66505 124.000
30.68500 129.000
30.70495 120.000
30.72489 98.000
30.74484 102.000
30.76479 121.000
30.78473 122.000
30.80468 120.000
30.82463 133.000
30.84458 109.000
30.86452 123.000
30.88447 117.000
30.90442 114.000
30.92436 124.000
30.94431 138.000
30.96426 113.000
30.98420 117.000
31.00415 129.000
31.02410 132.000
31.04404 113.000
31.06399 124.000
31.08394 126.000
31.10389 104.000
31.12383 114.000
31.14378 122.000
31.16373 139.000
31.18367 123.000
31.20362 110.000
31.22357 125.000
31.24351 114.000
31.26346 125.000
31.28341 132.000
31.30336 118.000
31.32330 138.000
31.34325 137.000
31.36320 110.000
31.38314 119.000
31.40309 126.000
31.42304 109.000
31.44298 101.000
31.46293 135.000
31.48288 124.000
31.50282 115.000
31.52277 127.000
31.54272 123.000
31.56267 125.000
31.58261 125.000
31.60256 135.000
31.62251 122.000
31.64245 115.000
31.66240 120.000
31.68235 127.000
31.70229 122.000
31.72224 130.000
31.74219 108.000
31.76214 104.000
31.78208 119.000
31.80203 120.000
31.82198 108.000
31.84192 130.000
31.86187 125.000
31.88182 131.000
31.90176 137.000
31.92171 128.000
31.94166 123.000
31.96160 126.000
31.98155 108.000
32.00150 117.000
32.02145 117.000
32.04139 102.000
32.06134 101.000
32.08129 94.000
32.10123 126.000
32.12118 106.000
32.14113 100.000
32.16107 109.000
32.18102 138.000
32.20097 121.000
32.22092 115.000
32.24086 104.000
32.26081 129.000
32.28076 122.000
32.30070 116.000
32.32065 122.000
32.34060 124.000
32.36054 117.000
32.38049 110.000
32.40044 124.000
32.42039 126.000
32.44033 131.000
32.46028 124.000
32.48023 146.000
32.50017 120.000
32.52012 122.000
32.54007 122.000
32.56001 143.000
32.57996 133.000
32.59991 140.000
32.61985 152.000
32.63980 122.000
32.65975 140.000
32.67970 145.000
32.69964 135.000
32.71959 132.000
32.73954 131.000
32.75948 136.000
32.77943 158.000
32.79938 160.000
32.81932 140.000
32.83927 160.000
32.85922 163.000
32.87917 153.000
32.89911 167.000
32.91906 167.000
32.93901 189.000
32.95895 189.000
32.97890 171.000
32.99885 176.000
33.01879 204.000
33.03874 203.000
33.05869 222.000
33.07863 178.000
33.09858 173.000
33.11853 186.000
33.13848 189.000
33.15842 174.000
33.17837 148.000
33.19832 156.000
33.21826 139.000
33.23821 134.000
33.25816 142.000
33.27810 155.000
33.29805 125.000
33.31800 124.000
33.33795 127.000
33.35789 101.000
33.37784 104.000
33.39779 113.000
33.41773 129.000
33.43768 126.000
33.45763 128.000
33.47757 118.000
33.49752 134.000
33.51747 129.000
33.53741 98.000
33.55736 115.000
33.57731 115.000
33.59726 123.000
33.61720 127.000
33.63715 126.000
33.65710 143.000
33.67704 131.000
33.69699 152.000
33.71694 156.000
33.73688 127.000
33.75683 145.000
33.77678 133.000
33.79673 172.000
33.81667 186.000
33.83662 183.000
33.85657 197.000
33.87651 207.000
33.89646 179.000
33.91641 210.000
33.93635 195.000
33.95630 185.000
33.97625 175.000
33.99620 198.000
34.01614 200.000
34.03609 196.000
34.05604 193.000
34.07598 167.000
34.09593 197.000
34.11588 193.000
34.13582 182.000
34.15577 199.000
34.17572 167.000
34.19566 168.000
34.21561 201.000
34.23556 186.000
34.25551 188.000
34.27545 215.000
34.29540 174.000
34.31535 187.000
34.33529 182.000
34.35524 190.000
34.37519 202.000
34.39513 176.000
34.41508 206.000
34.43503 187.000
34.45498 211.000
34.47492 197.000
34.49487 191.000
34.51482 196.000
34.53476 185.000
34.55471 173.000
34.57466 184.000
34.59460 144.000
34.61455 155.000
34.63450 152.000
34.65444 160.000
34.67439 128.000
34.69434 132.000
34.71429 142.000
34.73423 147.000
34.75418 142.000
34.77413 127.000
34.79407 153.000
34.81402 171.000
34.83397 143.000
34.85391 133.000
34.87386 143.000
34.89381 144.000
34.91376 158.000
34.93370 169.000
34.95365 173.000
34.97360 191.000
34.99354 226.000
35.01349 229.000
35.03344 237.000
35.05338 303.000
35.07333 248.000
35.09328 262.000
35.11322 287.000
35.13317 282.000
35.15312 284.000
35.17307 321.000
35.19301 298.000
35.21296 331.000
35.23291 350.000
35.25285 355.000
35.27280 423.000
35.29275 468.000
35.31269 570.000
35.33264 687.000
35.35259 786.000
35.37254 1006.000
35.39248 1266.000
35.41243 1424.000
35.43238 1629.000
35.45232 1917.000
35.47227 2034.000
35.49222 2115.000
35.51216 2239.000
35.53211 2277.000
35.55206 2202.000
35.57201 2099.000
35.59195 1829.000
35.61190 1613.000
35.63185 1418.000
35.65179 1184.000
35.67174 951.000
35.69169 753.000
35.71163 578.000
35.73158 437.000
35.75153 306.000
35.77147 269.000
35.79142 236.000
35.81137 206.000
35.83132 218.000
35.85126 172.000
35.87121 195.000
35.89116 168.000
35.91110 156.000
35.93105 158.000
35.95100 172.000
35.97094 152.000
35.99089 157.000
36.01084 163.000
36.03079 121.000
36.05073 168.000
36.07068 139.000
36.09063 116.000
36.11057 117.000
36.13052 143.000
36.15047 140.000
36.17041 124.000
36.19036 145.000
36.21031 150.000
36.23025 155.000
36.25020 175.000
36.27015 197.000
36.29010 198.000
36.31004 214.000
36.32999 244.000
36.34994 255.000
36.36988 310.000
36.38983 277.000
36.40978 304.000
36.42972 284.000
36.44967 269.000
36.46962 279.000
36.48957 235.000
36.50951 223.000
36.52946 203.000
36.54941 213.000
36.56935 203.000
36.58930 197.000
36.60925 188.000
36.62919 177.000
36.64914 151.000
36.66909 152.000
36.68903 146.000
36.70898 164.000
36.72893 152.000
36.74888 139.000
36.76882 123.000
36.78877 132.000
36.80872 155.000
36.82866 137.000
36.84861 122.000
36.86856 116.000
36.88850 141.000
36.90845 122.000
36.92840 122.000
36.94835 134.000
36.96829 141.000
36.98824 156.000
37.00819 164.000
37.02813 159.000
37.04808 204.000
37.06803 223.000
37.08797 204.000
37.10792 254.000
37.12787 255.000
37.14781 236.000
37.16776 269.000
37.18771 251.000
37.20766 270.000
37.22760 235.000
37.24755 244.000
37.26750 184.000
37.28744 142.000
37.30739 154.000
37.32734 160.000
37.34728 131.000
37.36723 127.000
37.38718 119.000
37.40713 120.000
37.42707 94.000
37.44702 92.000
37.46697 114.000
37.48691 91.000
37.50686 115.000
37.52681 118.000
37.54675 112.000
37.56670 120.000
37.58665 94.000
37.60660 107.000
37.62654 101.000
37.64649 100.000
37.66644 89.000
37.68638 117.000
37.70633 101.000
37.72628 117.000
37.74622 105.000
37.76617 101.000
37.78612 112.000
37.80606 116.000
37.82601 97.000
37.84596 119.000
37.86591 104.000
37.88585 105.000
37.90580 117.000
37.92575 82.000
37.94569 117.000
37.96564 94.000
37.98559 100.000
38.00553 98.000
38.02548 97.000
38.04543 114.000
38.06538 107.000
38.08532 115.000
38.10527 97.000
38.12522 100.000
38.14516 126.000
38.16511 129.000
38.18506 96.000
38.20500 100.000
38.22495 83.000
38.24490 108.000
38.26484 105.000
38.28479 126.000
38.30474 106.000
38.32469 101.000
38.34463 110.000
38.36458 95.000
38.38453 81.000
38.40447 98.000
38.42442 129.000
38.44437 105.000
38.46431 94.000
38.48426 114.000
38.50421 110.000
38.52416 105.000
38.54410 123.000
38.56405 112.000
38.58400 102.000
38.60394 104.000
38.62389 106.000
38.64384 102.000
38.66378 139.000
38.68373 117.000
38.70368 107.000
38.72362 134.000
38.74357 116.000
38.76352 121.000
38.78347 140.000
38.80341 123.000
38.82336 121.000
38.84331 138.000
38.86325 91.000
38.88320 114.000
38.90315 126.000
38.92309 115.000
38.94304 108.000
38.96299 115.000
38.98294 107.000
39.00288 99.000
39.02283 93.000
39.04278 122.000
39.06272 122.000
39.08267 101.000
39.10262 88.000
39.12256 93.000
39.14251 124.000
39.16246 108.000
39.18241 96.000
39.20235 114.000
39.22230 104.000
39.24225 112.000
39.26219 105.000
39.28214 92.000
39.30209 97.000
39.32203 91.000
39.34198 91.000
39.36193 96.000
39.38187 95.000
39.40182 119.000
39.42177 90.000
39.44172 109.000
39.46166 97.000
39.48161 108.000
39.50156 100.000
39.52150 101.000
39.54145 97.000
39.56140 93.000
39.58134 98.000
39.60129 105.000
39.62124 89.000
39.64119 107.000
39.66113 99.000
39.68108 98.000
39.70103 94.000
39.72097 91.000
39.74092 117.000
39.76087 104.000
39.78081 119.000
39.80076 103.000
39.82071 109.000
39.84065 111.000
39.86060 128.000
39.88055 100.000
39.90050 102.000
39.92044 120.000
39.94039 93.000
39.96034 95.000
39.98028 100.000
40.00023 106.000
40.02018 108.000
40.04012 91.000
40.06007 88.000
40.08002 98.000
40.09997 116.000
40.11991 91.000
40.13986 91.000
40.15981 121.000
40.17975 90.000
40.19970 105.000
40.21965 97.000
40.23959 100.000
40.25954 102.000
40.27949 106.000
40.29943 115.000
40.31938 95.000
40.33933 98.000
40.35928 118.000
40.37922 103.000
40.39917 120.000
40.41912 99.000
40.43906 114.000
40.45901 93.000
40.47896 103.000
40.49890 120.000
40.51885 112.000
40.53880 119.000
40.55875 101.000
40.57869 110.000
40.59864 122.000
40.61859 91.000
40.63853 135.000
40.65848 118.000
40.67843 120.000
40.69837 121.000
40.71832 104.000
40.73827 112.000
40.75822 135.000
40.77816 111.000
40.79811 113.000
40.81806 121.000
40.83800 94.000
40.85795 104.000
40.87790 122.000
40.89784 121.000
40.91779 112.000
40.93774 132.000
40.95768 116.000
40.97763 126.000
40.99758 132.000
41.01753 119.000
41.03747 145.000
41.05742 138.000
41.07737 166.000
41.09731 180.000
41.11726 189.000
41.13721 178.000
41.15715 218.000
41.17710 241.000
41.19705 302.000
41.21700 350.000
41.23694 464.000
41.25689 631.000
41.27684 807.000
41.29678 957.000
41.31673 1044.000
41.33668 1013.000
41.35662 941.000
41.37657 854.000
41.39652 862.000
41.41646 804.000
41.43641 695.000
41.45636 642.000
41.47631 533.000
41.49625 452.000
41.51620 365.000
41.53615 317.000
41.55609 261.000
41.57604 215.000
41.59599 218.000
41.61593 191.000
41.63588 168.000
41.65583 162.000
41.67578 164.000
41.69572 127.000
41.71567 152.000
41.73562 142.000
41.75556 116.000
41.77551 130.000
41.79546 138.000
41.81540 110.000
41.83535 124.000
41.85530 125.000
41.87524 131.000
41.89519 107.000
41.91514 118.000
41.93509 136.000
41.95503 117.000
41.97498 99.000
41.99493 107.000
42.01487 126.000
42.03482 86.000
42.05477 107.000
42.07471 98.000
42.09466 116.000
42.11461 105.000
42.13456 109.000
42.15450 121.000
42.17445 106.000
42.19440 126.000
42.21434 110.000
42.23429 119.000
42.25424 104.000
42.27418 113.000
42.29413 119.000
42.31408 108.000
42.33403 107.000
42.35397 92.000
42.37392 110.000
42.39387 103.000
42.41381 96.000
42.43376 113.000
42.45371 106.000
42.47365 107.000
42.49360 127.000
42.51355 116.000
42.53349 113.000
42.55344 107.000
42.57339 108.000
42.59334 103.000
42.61328 121.000
42.63323 116.000
42.65318 115.000
42.67312 114.000
42.69307 113.000
42.71302 123.000
42.73296 120.000
42.75291 109.000
42.77286 127.000
42.79281 138.000
42.81275 135.000
42.83270 127.000
42.85265 136.000
42.87259 167.000
42.89254 157.000
42.91249 169.000
42.93243 173.000
42.95238 208.000
42.97233 241.000
42.99227 262.000
43.01222 294.000
43.03217 364.000
43.05212 370.000
43.07206 406.000
43.09201 440.000
43.11196 446.000
43.13190 469.000
43.15185 481.000
43.17180 510.000
43.19174 481.000
43.21169 494.000
43.23164 456.000
43.25159 396.000
43.27153 385.000
43.29148 369.000
43.31143 341.000
43.33137 300.000
43.35132 263.000
43.37127 238.000
43.39121 216.000
43.41116 198.000
43.43111 165.000
43.45105 149.000
43.47100 143.000
43.49095 111.000
43.51090 104.000
43.53084 120.000
43.55079 119.000
43.57074 113.000
43.59068 116.000
43.61063 100.000
43.63058 96.000
43.65052 120.000
43.67047 104.000
43.69042 104.000
43.71037 108.000
43.73031 111.000
43.75026 105.000
43.77021 108.000
43.79015 86.000
43.81010 100.000
43.83005 89.000
43.84999 77.000
43.86994 86.000
43.88989 87.000
43.90984 92.000
43.92978 98.000
43.94973 93.000
43.96968 111.000
43.98962 100.000
44.00957 102.000
44.02952 95.000
44.04946 103.000
44.06941 126.000
44.08936 102.000
44.10930 97.000
44.12925 87.000
44.14920 93.000
44.16915 101.000
44.18909 109.000
44.20904 85.000
44.22899 111.000
44.24893 84.000
44.26888 99.000
44.28883 88.000
44.30877 108.000
44.32872 80.000
44.34867 90.000
44.36862 95.000
44.38856 93.000
44.40851 88.000
44.42846 89.000
44.44840 82.000
44.46835 100.000
44.48830 107.000
44.50824 101.000
44.52819 104.000
44.54814 112.000
44.56808 87.000
44.58803 107.000
44.60798 81.000
44.62793 120.000
44.64787 106.000
44.66782 117.000
44.68777 129.000
44.70771 116.000
44.72766 134.000
44.74761 111.000
44.76755 100.000
44.78750 106.000
44.80745 117.000
44.82740 124.000
44.84734 127.000
44.86729 102.000
44.88724 92.000
44.90718 98.000
44.92713 92.000
44.94708 98.000
44.96702 108.000
44.98697 97.000
45.00692 81.000
45.02686 82.000
45.04681 90.000
45.06676 87.000
45.08671 107.000
45.10665 82.000
45.12660 90.000
45.14655 103.000
45.16649 92.000
45.18644 73.000
45.20639 77.000
45.22633 95.000
45.24628 83.000
45.26623 77.000
45.28618 97.000
45.30612 89.000
45.32607 80.000
45.34602 82.000
45.36596 94.000
45.38591 83.000
45.40586 83.000
45.42580 90.000
45.44575 111.000
45.46570 92.000
45.48565 86.000
45.50559 80.000
45.52554 92.000
45.54549 90.000
45.56543 85.000
45.58538 75.000
45.60533 82.000
45.62527 98.000
45.64522 76.000
45.66517 75.000
45.68511 91.000
45.70506 69.000
45.72501 95.000
45.74496 83.000
45.76490 80.000
45.78485 85.000
45.80480 82.000
45.82474 97.000
45.84469 89.000
45.86464 94.000
45.88458 85.000
45.90453 80.000
45.92448 93.000
45.94443 86.000
45.96437 102.000
45.98432 82.000
46.00427 94.000
46.02421 87.000
46.04416 89.000
46.06411 82.000
46.08405 80.000
46.10400 79.000
46.12395 89.000
46.14389 91.000
46.16384 87.000
46.18379 89.000
46.20374 100.000
46.22368 87.000
46.24363 87.000
46.26358 82.000
46.28352 89.000
46.30347 99.000
46.32342 71.000
46.34336 94.000
46.36331 99.000
46.38326 100.000
46.40321 73.000
46.42315 82.000
46.44310 89.000
46.46305 95.000
46.48299 94.000
46.50294 84.000
46.52289 97.000
46.54283 89.000
46.56278 95.000
46.58273 79.000
46.60267 80.000
46.62262 81.000
46.64257 75.000
46.66252 99.000
46.68246 78.000
46.70241 79.000
46.72236 87.000
46.74230 81.000
46.76225 86.000
46.78220 96.000
46.80214 85.000
46.82209 89.000
46.84204 95.000
46.86199 87.000
46.88193 84.000
46.90188 97.000
46.92183 104.000
46.94177 79.000
46.96172 104.000
46.98167 88.000
47.00161 87.000
47.02156 92.000
47.04151 83.000
47.06146 104.000
47.08140 82.000
47.10135 88.000
47.12130 81.000
47.14124 102.000
47.16119 97.000
47.18114 97.000
47.20108 102.000
47.22103 104.000
47.24098 90.000
47.26092 82.000
47.28087 80.000
47.30082 102.000
47.32077 98.000
47.34071 88.000
47.36066 102.000
47.38061 97.000
47.40055 92.000
47.42050 80.000
47.44045 92.000
47.46039 65.000
47.48034 97.000
47.50029 87.000
47.52024 102.000
47.54018 87.000
47.56013 88.000
47.58008 85.000
47.60002 81.000
47.61997 90.000
47.63992 74.000
47.65986 91.000
47.67981 85.000
47.69976 95.000
47.71970 84.000
47.73965 84.000
47.75960 83.000
47.77955 90.000
47.79949 81.000
47.81944 80.000
47.83939 97.000
47.85933 82.000
47.87928 90.000
47.89923 74.000
47.91917 95.000
47.93912 91.000
47.95907 77.000
47.97902 88.000
47.99896 80.000
48.01891 74.000
48.03886 103.000
48.05880 86.000
48.07875 90.000
48.09870 90.000
48.11864 89.000
48.13859 94.000
48.15854 90.000
48.17848 101.000
48.19843 89.000
48.21838 90.000
48.23833 70.000
48.25827 87.000
48.27822 92.000
48.29817 94.000
48.31811 81.000
48.33806 67.000
48.35801 96.000
48.37795 110.000
48.39790 99.000
48.41785 94.000
48.43780 90.000
48.45774 81.000
48.47769 96.000
48.49764 96.000
48.51758 99.000
48.53753 89.000
48.55748 100.000
48.57742 97.000
48.59737 89.000
48.61732 89.000
48.63726 95.000
48.65721 78.000
48.67716 98.000
48.69711 115.000
48.71705 90.000
48.73700 96.000
48.75695 91.000
48.77689 113.000
48.79684 100.000
48.81679 100.000
48.83673 92.000
48.85668 101.000
48.87663 87.000
48.89658 88.000
48.91652 77.000
48.93647 112.000
48.95642 93.000
48.97636 83.000
48.99631 96.000
49.01626 96.000
49.03620 93.000
49.05615 82.000
49.07610 83.000
49.09605 94.000
49.11599 94.000
49.13594 86.000
49.15589 78.000
49.17583 97.000
49.19578 66.000
49.21573 93.000
49.23567 93.000
49.25562 87.000
49.27557 82.000
49.29551 93.000
49.31546 81.000
49.33541 99.000
49.35536 87.000
49.37530 79.000
49.39525 84.000
49.41520 95.000
49.43514 88.000
49.45509 81.000
49.47504 88.000
49.49498 89.000
49.51493 93.000
49.53488 98.000
49.55483 92.000
49.57477 97.000
49.59472 78.000
49.61467 89.000
49.63461 97.000
49.65456 94.000
49.67451 91.000
49.69445 103.000
49.71440 92.000
49.73435 80.000
49.75429 97.000
49.77424 80.000
49.79419 87.000
49.81414 90.000
49.83408 83.000
49.85403 88.000
49.87398 65.000
49.89392 88.000
49.91387 85.000
49.93382 87.000
49.95376 78.000
49.97371 91.000
49.99366 94.000
50.01361 79.000
50.03355 66.000
50.05350 80.000
50.07345 81.000
50.09339 67.000
50.11334 83.000
50.13329 77.000
50.15323 80.000
50.17318 84.000
50.19313 74.000
50.21307 83.000
50.23302 74.000
50.25297 93.000
50.27292 64.000
50.29286 77.000
50.31281 100.000
50.33276 78.000
50.35270 68.000
50.37265 72.000
50.39260 91.000
50.41254 87.000
50.43249 86.000
50.45244 91.000
50.47239 85.000
50.49233 76.000
50.51228 78.000
50.53223 86.000
50.55217 91.000
50.57212 76.000
50.59207 81.000
50.61201 92.000
50.63196 91.000
50.65191 72.000
50.67186 83.000
50.69180 70.000
50.71175 102.000
50.73170 91.000
50.75164 68.000
50.77159 100.000
50.79154 83.000
50.81148 79.000
50.83143 71.000
50.85138 95.000
50.87132 79.000
50.89127 95.000
50.91122 83.000
50.93117 85.000
50.95111 95.000
50.97106 88.000
50.99101 81.000
51.01095 74.000
51.03090 72.000
51.05085 91.000
51.07079 96.000
51.09074 100.000
51.11069 87.000
51.13064 59.000
51.15058 82.000
51.17053 85.000
51.19048 90.000
51.21042 64.000
51.23037 81.000
51.25032 75.000
51.27026 83.000
51.29021 82.000
51.31016 74.000
51.33010 75.000
51.35005 99.000
51.37000 65.000
51.38995 97.000
51.40989 94.000
51.42984 85.000
51.44979 69.000
51.46973 88.000
51.48968 82.000
51.50963 108.000
51.52957 81.000
51.54952 65.000
51.56947 84.000
51.58942 80.000
51.60936 86.000
51.62931 85.000
51.64926 94.000
51.66920 82.000
51.68915 97.000
51.70910 90.000
51.72904 84.000
51.74899 81.000
51.76894 87.000
51.78888 84.000
51.80883 82.000
51.82878 87.000
51.84873 80.000
51.86867 97.000
51.88862 85.000
51.90857 90.000
51.92851 106.000
51.94846 91.000
51.96841 78.000
51.98835 73.000
52.00830 70.000
52.02825 66.000
52.04820 74.000
52.06814 90.000
52.08809 87.000
52.10804 78.000
52.12798 76.000
52.14793 93.000
52.16788 102.000
52.18782 75.000
52.20777 91.000
52.22772 84.000
52.24767 97.000
52.26761 80.000
52.28756 80.000
52.30751 84.000
52.32745 90.000
52.34740 83.000
52.36735 89.000
52.38729 84.000
52.40724 76.000
52.42719 73.000
52.44713 79.000
52.46708 98.000
52.48703 83.000
52.50698 98.000
52.52692 91.000
52.54687 90.000
52.56682 85.000
52.58676 90.000
52.60671 114.000
52.62666 116.000
52.64660 79.000
52.66655 121.000
52.68650 124.000
52.70645 123.000
52.72639 124.000
52.74634 133.000
52.76629 137.000
52.78623 138.000
52.80618 146.000
52.82613 143.000
52.84607 144.000
52.86602 183.000
52.88597 187.000
52.90591 181.000
52.92586 185.000
52.94581 194.000
52.96576 158.000
52.98570 153.000
53.00565 142.000
53.02560 160.000
53.04554 131.000
53.06549 148.000
53.08544 132.000
53.10538 122.000
53.12533 121.000
53.14528 119.000
53.16523 112.000
53.18517 98.000
53.20512 105.000
53.22507 96.000
53.24501 123.000
53.26496 123.000
53.28491 131.000
53.30485 114.000
53.32480 129.000
53.34475 149.000
53.36469 142.000
53.38464 153.000
53.40459 162.000
53.42454 194.000
53.44448 209.000
53.46443 196.000
53.48438 186.000
53.50432 232.000
53.52427 208.000
53.54422 218.000
53.56416 198.000
53.58411 228.000
53.60406 241.000
53.62401 193.000
53.64395 227.000
53.66390 209.000
53.68385 190.000
53.70379 192.000
53.72374 176.000
53.74369 164.000
53.76363 146.000
53.78358 151.000
53.80353 142.000
53.82348 127.000
53.84342 108.000
53.86337 98.000
53.88332 106.000
53.90326 88.000
53.92321 104.000
53.94316 89.000
53.96310 91.000
53.98305 75.000
54.00300 87.000
54.02294 85.000
54.04289 79.000
54.06284 77.000
54.08279 96.000
54.10273 81.000
54.12268 78.000
54.14263 94.000
54.16257 85.000
54.18252 98.000
54.20247 72.000
54.22241 111.000
54.24236 99.000
54.26231 89.000
54.28226 96.000
54.30220 88.000
54.32215 92.000
54.34210 89.000
54.36204 84.000
54.38199 74.000
54.40194 80.000
54.42188 85.000
54.44183 70.000
54.46178 88.000
54.48172 83.000
54.50167 86.000
54.52162 78.000
54.54157 102.000
54.56151 83.000
54.58146 110.000
54.60141 105.000
54.62135 92.000
54.64130 98.000
54.66125 89.000
54.68119 67.000
54.70114 90.000
54.72109 88.000
54.74104 100.000
54.76098 98.000
54.78093 94.000
54.80088 84.000
54.82082 94.000
54.84077 98.000
54.86072 84.000
54.88066 87.000
54.90061 87.000
54.92056 83.000
54.94050 89.000
54.96045 89.000
54.98040 90.000
55.00035 76.000
55.02029 96.000
55.04024 82.000
55.06019 86.000
55.08013 95.000
55.10008 85.000
55.12003 87.000
55.13997 95.000
55.15992 81.000
55.17987 88.000
55.19982 87.000
55.21976 88.000
55.23971 94.000
55.25966 69.000
55.27960 97.000
55.29955 86.000
55.31950 81.000
55.33944 85.000
55.35939 85.000
55.37934 87.000
55.39929 86.000
55.41923 85.000
55.43918 85.000
55.45913 119.000
55.47907 96.000
55.49902 74.000
55.51897 89.000
55.53891 76.000
55.55886 88.000
55.57881 71.000
55.59875 92.000
55.61870 71.000
55.63865 85.000
55.65860 99.000
55.67854 73.000
55.69849 88.000
55.71844 87.000
55.73838 87.000
55.75833 85.000
55.77828 84.000
55.79822 77.000
55.81817 76.000
55.83812 93.000
55.85807 98.000
55.87801 89.000
55.89796 85.000
55.91791 81.000
55.93785 69.000
55.95780 84.000
55.97775 75.000
55.99769 91.000
56.01764 69.000
56.03759 83.000
56.05753 72.000
56.07748 84.000
56.09743 90.000
56.11738 83.000
56.13732 86.000
56.15727 89.000
56.17722 98.000
56.19716 76.000
56.21711 88.000
56.23706 99.000
56.25700 96.000
56.27695 97.000
56.29690 105.000
56.31685 106.000
56.33679 97.000
56.35674 89.000
56.37669 105.000
56.39663 90.000
56.41658 86.000
56.43653 114.000
56.45647 95.000
56.47642 102.000
56.49637 112.000
56.51631 96.000
56.53626 118.000
56.55621 111.000
56.57616 99.000
56.59610 116.000
56.61605 108.000
56.63600 136.000
56.65594 110.000
56.67589 116.000
56.69584 160.000
56.71578 160.000
56.73573 160.000
56.75568 184.000
56.77563 187.000
56.79557 224.000
56.81552 211.000
56.83547 215.000
56.85541 265.000
56.87536 238.000
56.89531 325.000
56.91525 335.000
56.93520 366.000
56.95515 369.000
56.97510 420.000
56.99504 449.000
57.01499 447.000
57.03494 492.000
57.05488 496.000
57.07483 480.000
57.09478 537.000
57.11472 538.000
57.13467 546.000
57.15462 516.000
57.17456 494.000
57.19451 455.000
57.21446 463.000
57.23441 447.000
57.25435 418.000
57.27430 354.000
57.29425 361.000
57.31419 385.000
57.33414 285.000
57.35409 300.000
57.37403 293.000
57.39398 290.000
57.41393 265.000
57.43388 236.000
57.45382 237.000
57.47377 216.000
57.49372 227.000
57.51366 231.000
57.53361 232.000
57.55356 213.000
57.57350 230.000
57.59345 250.000
57.61340 249.000
57.63334 222.000
57.65329 248.000
57.67324 249.000
57.69319 238.000
57.71313 213.000
57.73308 202.000
57.75303 190.000
57.77297 182.000
57.79292 170.000
57.81287 143.000
57.83281 146.000
57.85276 135.000
57.87271 123.000
57.89266 124.000
57.91260 116.000
57.93255 117.000
57.95250 103.000
57.97244 76.000
57.99239 97.000
58.01234 116.000
58.03228 103.000
58.05223 85.000
58.07218 103.000
58.09212 83.000
58.11207 97.000
58.13202 87.000
58.15197 105.000
58.17191 96.000
58.19186 91.000
58.21181 92.000
58.23175 75.000
58.25170 108.000
58.27165 82.000
58.29159 84.000
58.31154 96.000
58.33149 88.000
58.35144 104.000
58.37138 73.000
58.39133 84.000
58.41128 83.000
58.43122 82.000
58.45117 72.000
58.47112 100.000
58.49106 82.000
58.51101 53.000
58.53096 83.000
58.55090 77.000
58.57085 101.000
58.59080 101.000
58.61075 71.000
58.63069 79.000
58.65064 81.000
58.67059 68.000
58.69053 77.000
58.71048 90.000
58.73043 81.000
58.75037 83.000
58.77032 102.000
58.79027 100.000
58.81022 77.000
58.83016 94.000
58.85011 72.000
58.87006 83.000
58.89000 87.000
58.90995 79.000
58.92990 91.000
58.94984 83.000
58.96979 76.000
58.98974 77.000
59.00969 109.000
59.02963 83.000
59.04958 97.000
59.06953 97.000
59.08947 84.000
59.10942 83.000
59.12937 103.000
59.14931 81.000
59.16926 83.000
59.18921 85.000
59.20915 78.000
59.22910 85.000
59.24905 81.000
59.26900 82.000
59.28894 81.000
59.30889 95.000
59.32884 80.000
59.34878 90.000
59.36873 92.000
59.38868 88.000
59.40862 61.000
59.42857 101.000
59.44852 89.000
59.46847 80.000
59.48841 81.000
59.50836 65.000
59.52831 85.000
59.54825 69.000
59.56820 81.000
59.58815 103.000
59.60809 88.000
59.62804 80.000
59.64799 69.000
59.66793 77.000
59.68788 83.000
59.70783 77.000
59.72778 94.000
59.74772 85.000
59.76767 95.000
59.78762 80.000
59.80756 76.000
59.82751 94.000
59.84746 91.000
59.86740 93.000
59.88735 70.000
59.90730 87.000
59.92725 80.000
59.94719 76.000
59.96714 75.000
59.98709 83.000
60.00703 104.000
60.02698 95.000
60.04693 89.000
60.06687 101.000
60.08682 88.000
60.10677 94.000
60.12671 79.000
60.14666 63.000
60.16661 84.000
60.18656 95.000
60.20650 78.000
60.22645 100.000
60.24640 93.000
60.26634 79.000
60.28629 74.000
60.30624 86.000
60.32618 82.000
60.34613 91.000
60.36608 77.000
60.38603 98.000
60.40597 95.000
60.42592 67.000
60.44587 99.000
60.46581 84.000
60.48576 117.000
60.50571 86.000
60.52565 103.000
60.54560 84.000
60.56555 110.000
60.58550 91.000
60.60544 85.000
60.62539 109.000
60.64534 85.000
60.66528 76.000
60.68523 80.000
60.70518 94.000
60.72512 76.000
60.74507 102.000
60.76502 94.000
60.78496 89.000
60.80491 93.000
60.82486 94.000
60.84481 115.000
60.86475 84.000
60.88470 99.000
60.90465 105.000
60.92459 99.000
60.94454 96.000
60.96449 86.000
60.98443 96.000
61.00438 97.000
61.02433 118.000
61.04428 96.000
61.06422 95.000
61.08417 96.000
61.10412 100.000
61.12406 109.000
61.14401 108.000
61.16396 93.000
61.18390 93.000
61.20385 85.000
61.22380 103.000
61.24374 90.000
61.26369 77.000
61.28364 97.000
61.30359 112.000
61.32353 92.000
61.34348 93.000
61.36343 112.000
61.38337 110.000
61.40332 120.000
61.42327 98.000
61.44321 104.000
61.46316 101.000
61.48311 116.000
61.50306 122.000
61.52300 92.000
61.54295 98.000
61.56290 104.000
61.58284 107.000
61.60279 129.000
61.62274 105.000
61.64268 115.000
61.66263 95.000
61.68258 120.000
61.70252 99.000
61.72247 115.000
61.74242 117.000
61.76237 129.000
61.78231 138.000
61.80226 118.000
61.82221 116.000
61.84215 148.000
61.86210 143.000
61.88205 154.000
61.90199 150.000
61.92194 190.000
61.94189 192.000
61.96184 185.000
61.98178 174.000
62.00173 187.000
62.02168 224.000
62.04162 221.000
62.06157 187.000
62.08152 186.000
62.10146 197.000
62.12141 224.000
62.14136 185.000
62.16131 205.000
62.18125 176.000
62.20120 221.000
62.22115 201.000
62.24109 206.000
62.26104 251.000
62.28099 216.000
62.30093 231.000
62.32088 236.000
62.34083 244.000
62.36077 270.000
62.38072 267.000
62.40067 295.000
62.42062 290.000
62.44056 340.000
62.46051 328.000
62.48046 389.000
62.50040 423.000
62.52035 407.000
62.54030 464.000
62.56024 492.000
62.58019 493.000
62.60014 537.000
62.62009 530.000
62.64003 600.000
62.65998 569.000
62.67993 560.000
62.69987 607.000
62.71982 602.000
62.73977 668.000
62.75971 631.000
62.77966 627.000
62.79961 604.000
62.81955 548.000
62.83950 500.000
62.85945 498.000
62.87940 480.000
62.89934 402.000
62.91929 400.000
62.93924 356.000
62.95918 338.000
62.97913 292.000
62.99908 265.000
63.01902 258.000
63.03897 221.000
63.05892 193.000
63.07887 174.000
63.09881 153.000
63.11876 154.000
63.13871 147.000
63.15865 143.000
63.17860 106.000
63.19855 107.000
63.21849 94.000
63.23844 102.000
63.25839 95.000
63.27833 95.000
63.29828 95.000
63.31823 102.000
63.33818 98.000
63.35812 83.000
63.37807 95.000
63.39802 96.000
63.41796 85.000
63.43791 89.000
63.45786 76.000
63.47780 83.000
63.49775 82.000
63.51770 84.000
63.53765 93.000
63.55759 89.000
63.57754 77.000
63.59749 95.000
63.61743 83.000
63.63738 94.000
63.65733 92.000
63.67727 79.000
63.69722 84.000
63.71717 96.000
63.73712 97.000
63.75706 86.000
63.77701 84.000
63.79696 92.000
63.81690 90.000
63.83685 79.000
63.85680 82.000
63.87674 91.000
63.89669 94.000
63.91664 79.000
63.93658 79.000
63.95653 73.000
63.97648 87.000
63.99643 95.000
64.01637 90.000
64.03632 82.000
64.05627 99.000
64.07621 92.000
64.09616 93.000
64.11611 83.000
64.13605 88.000
64.15600 82.000
64.17595 91.000
64.19590 98.000
64.21584 91.000
64.23579 71.000
64.25574 84.000
64.27568 81.000
64.29563 84.000
64.31558 87.000
64.33552 87.000
64.35547 104.000
64.37542 98.000
64.39536 84.000
64.41531 107.000
64.43526 104.000
64.45521 66.000
64.47515 103.000
64.49510 93.000
64.51505 100.000
64.53499 101.000
64.55494 130.000
64.57489 133.000
64.59483 112.000
64.61478 100.000
64.63473 144.000
64.65468 122.000
64.67462 121.000
64.69457 129.000
64.71452 116.000
64.73446 106.000
64.75441 119.000
64.77436 135.000
64.79430 119.000
64.81425 114.000
64.83420 116.000
64.85414 107.000
64.87409 127.000
64.89404 106.000
64.91399 105.000
64.93393 106.000
64.95388 115.000
64.97383 119.000
64.99377 98.000
65.01372 107.000
65.03367 93.000
65.05361 108.000
65.07356 121.000
65.09351 83.000
65.11346 103.000
65.13340 86.000
65.15335 101.000
65.17330 93.000
65.19324 95.000
65.21319 86.000
65.23314 95.000
65.25308 110.000
65.27303 91.000
65.29298 86.000
65.31293 77.000
65.33287 93.000
65.35282 95.000
65.37277 81.000
65.39271 101.000
65.41266 86.000
65.43261 79.000
65.45255 80.000
65.47250 86.000
65.49245 109.000
65.51239 95.000
65.53234 95.000
65.55229 73.000
65.57224 100.000
65.59218 83.000
65.61213 86.000
65.63208 101.000
65.65202 73.000
65.67197 95.000
65.69192 120.000
65.71186 87.000
65.73181 95.000
65.75176 75.000
65.77171 104.000
65.79165 108.000
65.81160 96.000
65.83155 87.000
65.85149 86.000
65.87144 95.000
65.89139 95.000
65.91133 102.000
65.93128 104.000
65.95123 90.000
65.97117 95.000
65.99112 102.000
66.01107 106.000
66.03102 106.000
66.05096 100.000
66.07091 74.000
66.09086 114.000
66.11080 95.000
66.13075 112.000
66.15070 98.000
66.17064 102.000
66.19059 85.000
66.21054 92.000
66.23049 97.000
66.25043 106.000
66.27038 91.000
66.29033 98.000
66.31027 93.000
66.33022 82.000
66.35017 103.000
66.37011 98.000
66.39006 76.000
66.41001 81.000
66.42995 86.000
66.44990 108.000
66.46985 92.000
66.48980 86.000
66.50974 91.000
66.52969 82.000
66.54964 90.000
66.56958 70.000
66.58953 85.000
66.60948 73.000
66.62942 72.000
66.64937 84.000
66.66932 76.000
66.68927 82.000
66.70921 109.000
66.72916 75.000
66.74911 90.000
66.76905 75.000
66.78900 82.000
66.80895 86.000
66.82889 83.000
66.84884 93.000
66.86879 85.000
66.88874 84.000
66.90868 75.000
66.92863 95.000
66.94858 89.000
66.96852 88.000
66.98847 97.000
67.00842 65.000
67.02836 82.000
67.04831 71.000
67.06826 69.000
67.08820 91.000
67.10815 84.000
67.12810 75.000
67.14805 68.000
67.16799 79.000
67.18794 86.000
67.20789 98.000
67.22783 81.000
67.24778 76.000
67.26773 85.000
67.28767 101.000
67.30762 92.000
67.32757 71.000
67.34752 82.000
67.36746 75.000
67.38741 85.000
67.40736 94.000
67.42730 80.000
67.44725 68.000
67.46720 78.000
67.48714 108.000
67.50709 78.000
67.52704 92.000
67.54698 90.000
67.56693 94.000
67.58688 89.000
67.60683 89.000
67.62677 82.000
67.64672 78.000
67.66667 62.000
67.68661 84.000
67.70656 87.000
67.72651 89.000
67.74645 85.000
67.76640 83.000
67.78635 84.000
67.80630 91.000
67.82624 113.000
67.84619 85.000
67.86614 113.000
67.88608 93.000
67.90603 102.000
67.92598 93.000
67.94592 118.000
67.96587 125.000
67.98582 102.000
68.00576 109.000
68.02571 123.000
68.04566 114.000
68.06561 114.000
68.08555 113.000
68.10550 104.000
68.12545 107.000
68.14539 107.000
68.16534 104.000
68.18529 96.000
68.20523 110.000
68.22518 94.000
68.24513 91.000
68.26508 102.000
68.28502 113.000
68.30497 89.000
68.32492 79.000
68.34486 83.000
68.36481 90.000
68.38476 83.000
68.40470 99.000
68.42465 82.000
68.44460 98.000
68.46455 85.000
68.48449 78.000
68.50444 89.000
68.52439 89.000
68.54433 100.000
68.56428 95.000
68.58423 88.000
68.60417 77.000
68.62412 83.000
68.64407 69.000
68.66401 79.000
68.68396 74.000
68.70391 87.000
68.72386 60.000
68.74380 78.000
68.76375 79.000
68.78370 79.000
68.80364 75.000
68.82359 68.000
68.84354 94.000
68.86348 84.000
68.88343 82.000
68.90338 80.000
68.92333 89.000
68.94327 86.000
68.96322 105.000
68.98317 90.000
69.00311 87.000
69.02306 88.000
69.04301 79.000
69.06295 80.000
69.08290 80.000
69.10285 93.000
69.12279 80.000
69.14274 83.000
69.16269 68.000
69.18264 84.000
69.20258 93.000
69.22253 77.000
69.24248 94.000
69.26242 91.000
69.28237 84.000
69.30232 89.000
69.32226 90.000
69.34221 75.000
69.36216 80.000
69.38211 80.000
69.40205 95.000
69.42200 86.000
69.44195 77.000
69.46189 95.000
69.48184 78.000
69.50179 76.000
69.52173 72.000
69.54168 84.000
69.56163 92.000
69.58157 79.000
69.60152 71.000
69.62147 101.000
69.64142 75.000
69.66136 75.000
69.68131 72.000
69.70126 84.000
69.72120 70.000
69.74115 86.000
69.76110 68.000
69.78104 74.000
69.80099 82.000
69.82094 80.000
69.84089 72.000
69.86083 82.000
69.88078 73.000
69.90073 77.000
69.92067 82.000
69.94062 74.000
69.96057 88.000
69.98051 79.000
70.00046 89.000
70.02041 77.000
70.04035 89.000
70.06030 47.000
70.08025 63.000
70.10020 74.000
70.12014 77.000
70.14009 70.000
70.16004 62.000
70.17998 90.000
70.19993 66.000
70.21988 69.000
70.23982 79.000
70.25977 76.000
70.27972 73.000
70.29967 71.000
70.31961 72.000
70.33956 81.000
70.35951 80.000
70.37945 79.000
70.39940 71.000
70.41935 72.000
70.43929 75.000
70.45924 69.000
70.47919 77.000
70.49914 77.000
70.51908 87.000
70.53903 80.000
70.55898 71.000
70.57892 88.000
70.59887 55.000
70.61882 66.000
70.63876 83.000
70.65871 76.000
70.67866 69.000
70.69860 92.000
70.71855 89.000
70.73850 60.000
70.75845 80.000
70.77839 63.000
70.79834 73.000
70.81829 83.000
70.83823 92.000
70.85818 97.000
70.87813 95.000
70.89807 91.000
70.91802 89.000
70.93797 110.000
70.95792 100.000
70.97786 91.000
70.99781 110.000
71.01776 96.000
71.03770 106.000
71.05765 107.000
71.07760 93.000
71.09754 119.000
71.11749 114.000
71.13744 114.000
71.15738 112.000
71.17733 126.000
71.19728 125.000
71.21723 119.000
71.23717 119.000
71.25712 107.000
71.27707 113.000
71.29701 99.000
71.31696 116.000
71.33691 94.000
71.35685 110.000
71.37680 86.000
71.39675 74.000
71.41670 98.000
71.43664 101.000
71.45659 106.000
71.47654 101.000
71.49648 90.000
71.51643 100.000
71.53638 100.000
71.55632 105.000
71.57627 87.000
71.59622 76.000
71.61616 80.000
71.63611 86.000
71.65606 80.000
71.67601 77.000
71.69595 91.000
71.71590 71.000
71.73585 87.000
71.75579 84.000
71.77574 98.000
71.79569 90.000
71.81563 67.000
71.83558 107.000
71.85553 87.000
71.87548 88.000
71.89542 83.000
71.91537 86.000
71.93532 89.000
71.95526 105.000
71.97521 85.000
71.99516 114.000
72.01510 108.000
72.03505 109.000
72.05500 135.000
72.07495 125.000
72.09489 137.000
72.11484 109.000
72.13479 128.000
72.15473 106.000
72.17468 118.000
72.19463 113.000
72.21457 121.000
72.23452 114.000
72.25447 99.000
72.27441 133.000
72.29436 101.000
72.31431 105.000
72.33426 111.000
72.35420 104.000
72.37415 93.000
72.39410 93.000
72.41404 106.000
72.43399 107.000
72.45394 104.000
72.47388 85.000
72.49383 79.000
72.51378 92.000
72.53373 98.000
72.55367 78.000
72.57362 99.000
72.59357 89.000
72.61351 83.000
72.63346 82.000
72.65341 71.000
72.67335 99.000
72.69330 98.000
72.71325 70.000
72.73319 87.000
72.75314 91.000
72.77309 69.000
72.79304 80.000
72.81298 105.000
72.83293 84.000
72.85288 93.000
72.87282 85.000
72.89277 71.000
72.91272 96.000
72.93266 81.000
72.95261 81.000
72.97256 88.000
72.99251 73.000
73.01245 84.000
73.03240 69.000
73.05235 88.000
73.07229 79.000
73.09224 67.000
73.11219 86.000
73.13213 93.000
73.15208 77.000
73.17203 80.000
73.19197 79.000
73.21192 79.000
73.23187 89.000
73.25182 87.000
73.27176 101.000
73.29171 82.000
73.31166 91.000
73.33160 93.000
73.35155 95.000
73.37150 94.000
73.39144 88.000
73.41139 82.000
73.43134 93.000
73.45129 87.000
73.47123 76.000
73.49118 99.000
73.51113 101.000
73.53107 96.000
73.55102 105.000
73.57097 99.000
73.59091 108.000
73.61086 87.000
73.63081 93.000
73.65076 88.000
73.67070 112.000
73.69065 111.000
73.71060 94.000
73.73054 113.000
73.75049 124.000
73.77044 115.000
73.79038 118.000
73.81033 127.000
73.83028 121.000
73.85022 129.000
73.87017 111.000
73.89012 133.000
73.91007 141.000
73.93001 149.000
73.94996 148.000
73.96991 155.000
73.98985 145.000
74.00980 157.000
74.02975 156.000
74.04969 159.000
74.06964 160.000
74.08959 172.000
74.10954 181.000
74.12948 176.000
74.14943 145.000
74.16938 192.000
74.18932 198.000
74.20927 167.000
74.22922 194.000
74.24916 177.000
74.26911 192.000
74.28906 197.000
74.30900 161.000
74.32895 179.000
74.34890 154.000
74.36885 183.000
74.38879 184.000
74.40874 166.000
74.42869 164.000
74.44863 141.000
74.46858 128.000
74.48853 125.000
74.50847 119.000
74.52842 120.000
74.54837 123.000
74.56832 120.000
74.58826 106.000
74.60821 121.000
74.62816 97.000
74.64810 109.000
74.66805 94.000
74.68800 91.000
74.70794 113.000
74.72789 89.000
74.74784 108.000
74.76778 97.000
74.78773 103.000
74.80768 82.000
74.82763 99.000
74.84757 108.000
74.86752 109.000
74.88747 114.000
74.90741 110.000
74.92736 102.000
74.94731 92.000
74.96725 107.000
74.98720 86.000
75.00715 127.000
75.02710 101.000
75.04704 111.000
75.06699 101.000
75.08694 127.000
75.10688 139.000
75.12683 101.000
75.14678 102.000
75.16672 117.000
75.18667 122.000
75.20662 108.000
75.22657 107.000
75.24651 108.000
75.26646 113.000
75.28641 111.000
75.30635 113.000
75.32630 121.000
75.34625 98.000
75.36619 107.000
75.38614 125.000
75.40609 109.000
75.42603 86.000
75.44598 116.000
75.46593 91.000
75.48588 110.000
75.50582 110.000
75.52577 87.000
75.54572 90.000
75.56566 88.000
75.58561 99.000
75.60556 88.000
75.62550 102.000
75.64545 79.000
75.66540 83.000
75.68535 86.000
75.70529 74.000
75.72524 69.000
75.74519 83.000
75.76513 70.000
75.78508 74.000
75.80503 72.000
75.82497 94.000
75.84492 74.000
75.86487 71.000
75.88481 85.000
75.90476 75.000
75.92471 84.000
75.94466 85.000
75.96460 71.000
75.98455 82.000
76.00450 73.000
76.02444 81.000
76.04439 73.000
76.06434 80.000
76.08428 68.000
76.10423 83.000
76.12418 66.000
76.14413 85.000
76.16407 86.000
76.18402 75.000
76.20397 83.000
76.22391 76.000
76.24386 80.000
76.26381 69.000
76.28375 85.000
76.30370 77.000
76.32365 81.000
76.34359 82.000
76.36354 63.000
76.38349 72.000
76.40344 60.000
76.42338 72.000
76.44333 73.000
76.46328 86.000
76.48322 99.000
76.50317 58.000
76.52312 69.000
76.54306 61.000
76.56301 80.000
76.58296 75.000
76.60291 70.000
76.62285 63.000
76.64280 94.000
76.66275 70.000
76.68269 89.000
76.70264 70.000
76.72259 78.000
76.74253 77.000
76.76248 77.000
76.78243 85.000
76.80238 93.000
76.82232 84.000
76.84227 76.000
76.86222 82.000
76.88216 77.000
76.90211 67.000
76.92206 77.000
76.94200 66.000
76.96195 77.000
76.98190 73.000
77.00184 79.000
77.02179 85.000
77.04174 90.000
77.06169 86.000
77.08163 88.000
77.10158 84.000
77.12153 86.000
77.14147 89.000
77.16142 82.000
77.18137 94.000
77.20131 83.000
77.22126 96.000
77.24121 115.000
77.26116 93.000
77.28110 100.000
77.30105 111.000
77.32100 101.000
77.34094 92.000
77.36089 118.000
77.38084 113.000
77.40078 124.000
77.42073 103.000
77.44068 108.000
77.46062 111.000
77.48057 138.000
77.50052 120.000
77.52047 102.000
77.54041 91.000
77.56036 94.000
77.58031 100.000
77.60025 101.000
77.62020 95.000
77.64015 87.000
77.66009 103.000
77.68004 89.000
77.69999 78.000
77.71994 83.000
77.73988 75.000
77.75983 87.000
77.77978 94.000
77.79972 87.000
77.81967 92.000
77.83962 76.000
77.85956 107.000
77.87951 85.000
77.89946 101.000
77.91940 87.000
77.93935 84.000
77.95930 87.000
77.97925 77.000
77.99919 96.000
78.01914 78.000
78.03909 76.000
78.05903 68.000
78.07898 76.000
78.09893 92.000
78.11887 94.000
78.13882 97.000
78.15877 81.000
78.17872 85.000
78.19866 76.000
78.21861 94.000
78.23856 74.000
78.25850 84.000
78.27845 77.000
78.29840 86.000
78.31834 81.000
78.33829 83.000
78.35824 78.000
78.37819 79.000
78.39813 66.000
78.41808 70.000
78.43803 84.000
78.45797 69.000
78.47792 82.000
78.49787 68.000
78.51781 83.000
78.53776 71.000
78.55771 79.000
78.57765 69.000
78.59760 79.000
78.61755 63.000
78.63750 67.000
78.65744 75.000
78.67739 68.000
78.69734 73.000
78.71728 61.000
78.73723 94.000
78.75718 91.000
78.77712 90.000
78.79707 86.000
78.81702 80.000
78.83697 94.000
78.85691 79.000
78.87686 93.000
78.89681 94.000
78.91675 102.000
78.93670 88.000
78.95665 93.000
78.97659 93.000
78.99654 73.000
79.01649 109.000
79.03643 106.000
79.05638 96.000
79.07633 99.000
79.09628 104.000
79.11622 103.000
79.13617 96.000
79.15612 93.000
79.17606 90.000
79.19601 107.000
79.21596 104.000
79.23590 86.000
79.25585 105.000
79.27580 118.000
79.29575 136.000
79.31569 123.000
79.33564 101.000
79.35559 93.000
79.37553 97.000
79.39548 99.000
79.41543 86.000
79.43537 91.000
79.45532 94.000
79.47527 70.000
79.49521 89.000
79.51516 91.000
79.53511 90.000
79.55506 92.000
79.57500 95.000
79.59495 86.000
79.61490 82.000
79.63484 78.000
79.65479 77.000
79.67474 77.000
79.69468 70.000
79.71463 91.000
79.73458 83.000
79.75453 84.000
79.77447 74.000
79.79442 76.000
79.81437 62.000
79.83431 88.000
79.85426 81.000
79.87421 83.000
79.89415 72.000
79.91410 71.000
79.93405 83.000
79.95399 75.000
79.97394 66.000
79.99389 73.000
80.01384 73.000
80.03378 71.000
80.05373 59.000
80.07368 44.000
80.09362 94.000
80.11357 60.000
80.13352 73.000
80.15346 73.000
80.17341 61.000
80.19336 69.000
80.21331 72.000
80.23325 87.000
80.25320 62.000
80.27315 86.000
80.29309 81.000
80.31304 82.000
80.33299 71.000
80.35293 68.000
80.37288 77.000
80.39283 77.000
80.41278 84.000
80.43272 70.000
80.45267 82.000
80.47262 65.000
80.49256 78.000
80.51251 76.000
80.53246 92.000
80.55240 67.000
80.57235 68.000
80.59230 52.000
80.61224 93.000
80.63219 66.000
80.65214 87.000
80.67209 74.000
80.69203 63.000
80.71198 65.000
80.73193 89.000
80.75187 73.000
80.77182 79.000
80.79177 80.000
80.81171 77.000
80.83166 84.000
80.85161 78.000
80.87156 87.000
80.89150 68.000
80.91145 87.000
80.93140 77.000
80.95134 72.000
80.97129 58.000
80.99124 79.000
81.01118 71.000
81.03113 77.000
81.05108 76.000
81.07102 84.000
81.09097 75.000
81.11092 86.000
81.13087 83.000
81.15081 83.000
81.17076 69.000
81.19071 84.000
81.21065 77.000
81.23060 70.000
81.25055 72.000
81.27049 66.000
81.29044 95.000
81.31039 90.000
81.33034 63.000
81.35028 76.000
81.37023 89.000
81.39018 81.000
81.41012 64.000
81.43007 68.000
81.45002 75.000
81.46996 71.000
81.48991 67.000
81.50986 86.000
81.52980 66.000
81.54975 59.000
81.56970 71.000
81.58965 77.000
81.60959 61.000
81.62954 78.000
81.64949 81.000
81.66943 76.000
81.68938 64.000
81.70933 82.000
81.72927 95.000
81.74922 79.000
81.76917 73.000
81.78912 89.000
81.80906 89.000
81.82901 75.000
81.84896 88.000
81.86890 88.000
81.88885 77.000
81.90880 77.000
81.92874 74.000
81.94869 84.000
81.96864 92.000
81.98859 72.000
82.00853 93.000
82.02848 75.000
82.04843 85.000
82.06837 75.000
82.08832 90.000
82.10827 74.000
82.12821 86.000
82.14816 79.000
82.16811 92.000
82.18805 77.000
82.20800 73.000
82.22795 76.000
82.24790 78.000
82.26784 81.000
82.28779 58.000
82.30774 97.000
82.32768 80.000
82.34763 83.000
82.36758 88.000
82.38752 79.000
82.40747 67.000
82.42742 75.000
82.44737 86.000
82.46731 77.000
82.48726 77.000
82.50721 82.000
82.52715 78.000
82.54710 71.000
82.56705 92.000
82.58699 63.000
82.60694 75.000
82.62689 59.000
82.64683 69.000
82.66678 69.000
82.68673 80.000
82.70668 83.000
82.72662 77.000
82.74657 82.000
82.76652 57.000
82.78646 77.000
82.80641 71.000
82.82636 92.000
82.84630 72.000
82.86625 80.000
82.88620 85.000
82.90615 95.000
82.92609 75.000
82.94604 63.000
82.96599 69.000
82.98593 86.000
83.00588 72.000
83.02583 69.000
83.04577 80.000
83.06572 70.000
83.08567 68.000
83.10561 90.000
83.12556 80.000
83.14551 76.000
83.16546 87.000
83.18540 71.000
83.20535 72.000
83.22530 67.000
83.24524 74.000
83.26519 73.000
83.28514 88.000
83.30508 79.000
83.32503 77.000
83.34498 84.000
83.36493 75.000
83.38487 82.000
83.40482 74.000
83.42477 86.000
83.44471 76.000
83.46466 71.000
83.48461 72.000
83.50455 94.000
83.52450 66.000
83.54445 82.000
83.56440 65.000
83.58434 59.000
83.60429 73.000
83.62424 75.000
83.64418 72.000
83.66413 72.000
83.68408 88.000
83.70402 74.000
83.72397 75.000
83.74392 66.000
83.76386 84.000
83.78381 67.000
83.80376 63.000
83.82371 75.000
83.84365 85.000
83.86360 83.000
83.88355 82.000
83.90349 72.000
83.92344 81.000
83.94339 79.000
83.96333 73.000
83.98328 58.000
84.00323 68.000
84.02318 78.000
84.04312 93.000
84.06307 69.000
84.08302 81.000
84.10296 76.000
84.12291 69.000
84.14286 69.000
84.16280 52.000
84.18275 76.000
84.20270 65.000
84.22264 83.000
84.24259 75.000
84.26254 81.000
84.28249 89.000
84.30243 70.000
84.32238 72.000
84.34233 70.000
84.36227 87.000
84.38222 89.000
84.40217 77.000
84.42211 73.000
84.44206 86.000
84.46201 73.000
84.48196 70.000
84.50190 66.000
84.52185 74.000
84.54180 83.000
84.56174 81.000
84.58169 76.000
84.60164 68.000
84.62158 84.000
84.64153 77.000
84.66148 80.000
84.68142 95.000
84.70137 80.000
84.72132 72.000
84.74127 62.000
84.76121 73.000
84.78116 74.000
84.80111 88.000
84.82105 74.000
84.84100 75.000
84.86095 68.000
84.88089 57.000
84.90084 78.000
84.92079 67.000
84.94074 78.000
84.96068 79.000
84.98063 65.000
85.00058 63.000
85.02052 65.000
85.04047 98.000
85.06042 72.000
85.08036 71.000
85.10031 89.000
85.12026 53.000
85.14021 76.000
85.16015 67.000
85.18010 73.000
85.20005 78.000
85.21999 71.000
85.23994 67.000
85.25989 86.000
85.27983 62.000
85.29978 86.000
85.31973 90.000
85.33967 77.000
85.35962 69.000
85.37957 69.000
85.39952 84.000
85.41946 65.000
85.43941 76.000
85.45936 61.000
85.47930 60.000
85.49925 85.000
85.51920 77.000
85.53914 76.000
85.55909 72.000
85.57904 65.000
85.59899 76.000
85.61893 82.000
85.63888 83.000
85.65883 77.000
85.67877 90.000
85.69872 82.000
85.71867 70.000
85.73861 63.000
85.75856 80.000
85.77851 87.000
85.79845 84.000
85.81840 79.000
85.83835 91.000
85.85830 88.000
85.87824 71.000
85.89819 78.000
85.91814 84.000
85.93808 96.000
85.95803 90.000
85.97798 84.000
85.99792 86.000
86.01787 64.000
86.03782 86.000
86.05777 75.000
86.07771 75.000
86.09766 93.000
86.11761 81.000
86.13755 88.000
86.15750 73.000
86.17745 76.000
86.19739 86.000
86.21734 87.000
86.23729 69.000
86.25723 72.000
86.27718 75.000
86.29713 77.000
86.31708 97.000
86.33702 75.000
86.35697 82.000
86.37692 81.000
86.39686 66.000
86.41681 89.000
86.43676 81.000
86.45670 70.000
86.47665 80.000
86.49660 90.000
86.51655 69.000
86.53649 82.000
86.55644 92.000
86.57639 95.000
86.59633 92.000
86.61628 107.000
86.63623 74.000
86.65617 95.000
86.67612 106.000
86.69607 99.000
86.71602 84.000
86.73596 95.000
86.75591 103.000
86.77586 96.000
86.79580 79.000
86.81575 111.000
86.83570 97.000
86.85564 102.000
86.87559 96.000
86.89554 107.000
86.91548 94.000
86.93543 104.000
86.95538 99.000
86.97533 92.000
86.99527 86.000
87.01522 105.000
87.03517 125.000
87.05511 94.000
87.07506 144.000
87.09501 110.000
87.11495 115.000
87.13490 112.000
87.15485 80.000
87.17480 108.000
87.19474 101.000
87.21469 102.000
87.23464 101.000
87.25458 95.000
87.27453 80.000
87.29448 81.000
87.31442 103.000
87.33437 101.000
87.35432 87.000
87.37426 95.000
87.39421 98.000
87.41416 83.000
87.43411 85.000
87.45405 96.000
87.47400 95.000
87.49395 80.000
87.51389 100.000
87.53384 76.000
87.55379 81.000
87.57373 87.000
87.59368 76.000
87.61363 68.000
87.63358 70.000
87.65352 76.000
87.67347 81.000
87.69342 79.000
87.71336 73.000
87.73331 60.000
87.75326 80.000
87.77320 79.000
87.79315 61.000
87.81310 85.000
87.83304 84.000
87.85299 77.000
87.87294 81.000
87.89289 103.000
87.91283 74.000
87.93278 78.000
87.95273 79.000
87.97267 79.000
87.99262 85.000
88.01257 83.000
88.03251 69.000
88.05246 72.000
88.07241 69.000
88.09236 56.000
88.11230 77.000
88.13225 64.000
88.15220 89.000
88.17214 84.000
88.19209 73.000
88.21204 67.000
88.23198 73.000
88.25193 87.000
88.27188 77.000
88.29183 79.000
88.31177 88.000
88.33172 79.000
88.35167 63.000
88.37161 68.000
88.39156 79.000
88.41151 76.000
88.43145 67.000
88.45140 83.000
88.47135 78.000
88.49129 75.000
88.51124 66.000
88.53119 72.000
88.55114 101.000
88.57108 65.000
88.59103 66.000
88.61098 72.000
88.63092 82.000
88.65087 73.000
88.67082 80.000
88.69076 83.000
88.71071 70.000
88.73066 59.000
88.75061 89.000
88.77055 79.000
88.79050 70.000
88.81045 97.000
88.83039 77.000
88.85034 69.000
88.87029 70.000
88.89023 68.000
88.91018 64.000
88.93013 80.000
88.95007 64.000
88.97002 69.000
88.98997 70.000
89.00992 69.000
89.02986 73.000
89.04981 88.000
89.06976 87.000
89.08970 87.000
89.10965 93.000
89.12960 76.000
89.14954 88.000
89.16949 94.000
89.18944 90.000
89.20939 77.000
89.22933 94.000
89.24928 102.000
89.26923 101.000
89.28917 95.000
89.30912 98.000
89.32907 92.000
89.34901 99.000
89.36896 104.000
89.38891 108.000
89.40885 118.000
89.42880 134.000
89.44875 110.000
89.46870 114.000
89.48864 120.000
89.50859 119.000
89.52854 115.000
89.54848 135.000
89.56843 148.000
89.58838 144.000
89.60832 143.000
89.62827 158.000
89.64822 157.000
89.66817 188.000
89.68811 150.000
89.70806 174.000
89.72801 211.000
89.74795 186.000
89.76790 193.000
89.78785 212.000
89.80779 203.000
89.82774 195.000
89.84769 211.000
89.86764 184.000
89.88758 211.000
89.90753 215.000
89.92748 212.000
89.94742 191.000
89.96737 219.000
89.98732 203.000
90.00726 225.000
