10.00000 309.000
10.01995 309.000
10.03989 298.000
10.05984 290.000
10.07979 285.000
10.09973 288.000
10.11968 274.000
10.13963 289.000
10.15958 314.000
10.17952 285.000
10.19947 264.000
10.21942 294.000
10.23936 268.000
10.25931 285.000
10.27926 298.000
10.29920 291.000
10.31915 264.000
10.33910 306.000
10.35905 267.000
10.37899 299.000
10.39894 290.000
10.41889 265.000
10.43883 301.000
10.45878 312.000
10.47873 299.000
10.49867 324.000
10.51862 295.000
10.53857 304.000
10.55851 304.000
10.57846 276.000
10.59841 274.000
10.61836 301.000
10.63830 263.000
10.65825 299.000
10.67820 317.000
10.69814 293.000
10.71809 324.000
10.73804 316.000
10.75798 272.000
10.77793 305.000
10.79788 324.000
10.81783 300.000
10.83777 302.000
10.85772 315.000
10.87767 308.000
10.89761 284.000
10.91756 318.000
10.93751 290.000
10.95745 288.000
10.97740 302.000
10.99735 301.000
11.01730 324.000
11.03724 305.000
11.05719 286.000
11.07714 271.000
11.09708 300.000
11.11703 284.000
11.13698 304.000
11.15692 318.000
11.17687 311.000
11.19682 332.000
11.21676 300.000
11.23671 308.000
11.25666 296.000
11.27661 298.000
11.29655 287.000
11.31650 285.000
11.33645 306.000
11.35639 269.000
11.37634 310.000
11.39629 306.000
11.41623 304.000
11.43618 317.000
11.45613 307.000
11.47608 295.000
11.49602 317.000
11.51597 324.000
11.53592 302.000
11.55586 303.000
11.57581 279.000
11.59576 273.000
11.61570 315.000
11.63565 298.000
11.65560 307.000
11.67554 305.000
11.69549 308.000
11.71544 303.000
11.73539 280.000
11.75533 299.000
11.77528 280.000
11.79523 295.000
11.81517 325.000
11.83512 291.000
11.85507 268.000
11.87501 303.000
11.89496 316.000
11.91491 327.000
11.93486 318.000
11.95480 303.000
11.97475 279.000
11.99470 319.000
12.01464 342.000
12.03459 304.000
12.05454 304.000
12.07448 291.000
12.09443 300.000
12.11438 325.000
12.13432 326.000
12.15427 292.000
12.17422 329.000
12.19417 306.000
12.21411 308.000
12.23406 331.000
12.25401 307.000
12.27395 323.000
12.29390 277.000
12.31385 304.000
12.33379 297.000
12.35374 282.000
12.37369 327.000
12.39364 297.000
12.41358 334.000
12.43353 320.000
12.45348 311.000
12.47342 306.000
12.49337 329.000
12.51332 298.000
12.53326 316.000
12.55321 325.000
12.57316 319.000
12.59311 305.000
12.61305 323.000
12.63300 344.000
12.65295 300.000
12.67289 321.000
12.69284 317.000
12.71279 328.000
12.73273 285.000
12.75268 317.000
12.77263 294.000
12.79257 319.000
12.81252 328.000
12.83247 299.000
12.85242 298.000
12.87236 281.000
12.89231 298.000
12.91226 294.000
12.93220 282.000
12.95215 300.000
12.97210 295.000
12.99204 297.000
13.01199 300.000
13.03194 323.000
13.05189 334.000
13.07183 303.000
13.09178 320.000
13.11173 318.000
13.13167 323.000
13.15162 289.000
13.17157 334.000
13.19151 301.000
13.21146 326.000
13.23141 296.000
13.25135 323.000
13.27130 313.000
13.29125 289.000
13.31120 329.000
13.33114 331.000
13.35109 292.000
13.37104 287.000
13.39098 320.000
13.41093 309.000
13.43088 306.000
13.45082 319.000
13.47077 295.000
13.49072 309.000
13.51067 339.000
13.53061 292.000
13.55056 324.000
13.57051 317.000
13.59045 342.000
13.61040 289.000
13.63035 303.000
13.65029 294.000
13.67024 299.000
13.69019 345.000
13.71013 286.000
13.73008 334.000
13.75003 322.000
13.76998 338.000
13.78992 334.000
13.80987 342.000
13.82982 318.000
13.84976 313.000
13.86971 351.000
13.88966 318.000
13.90960 305.000
13.92955 317.000
13.94950 307.000
13.96945 322.000
13.98939 295.000
14.00934 307.000
14.02929 322.000
14.04923 323.000
14.06918 344.000
14.08913 344.000
14.10907 324.000
14.12902 333.000
14.14897 343.000
14.16892 355.000
14.18886 290.000
14.20881 323.000
14.22876 322.000
14.24870 310.000
14.26865 309.000
14.28860 321.000
14.30854 317.000
14.32849 302.000
14.34844 336.000
14.36838 324.000
14.38833 336.000
14.40828 309.000
14.42823 324.000
14.44817 319.000
14.46812 352.000
14.48807 312.000
14.50801 300.000
14.52796 338.000
14.54791 278.000
14.56785 347.000
14.58780 324.000
14.60775 326.000
14.62770 325.000
14.64764 329.000
14.66759 336.000
14.68754 324.000
14.70748 336.000
14.72743 367.000
14.74738 336.000
14.76732 310.000
14.78727 323.000
14.80722 340.000
14.82716 330.000
14.84711 316.000
14.86706 331.000
14.88701 309.000
14.90695 336.000
14.92690 340.000
14.94685 349.000
14.96679 325.000
14.98674 320.000
15.00669 351.000
15.02663 361.000
15.04658 332.000
15.06653 351.000
15.08648 329.000
15.10642 385.000
15.12637 307.000
15.14632 327.000
15.16626 386.000
15.18621 364.000
15.20616 349.000
15.22610 338.000
15.24605 319.000
15.26600 350.000
15.28594 370.000
15.30589 360.000
15.32584 333.000
15.34579 353.000
15.36573 352.000
15.38568 353.000
15.40563 351.000
15.42557 386.000
15.44552 412.000
15.46547 455.000
15.48541 429.000
15.50536 479.000
15.52531 486.000
15.54526 508.000
15.56520 482.000
15.58515 464.000
15.60510 512.000
15.62504 536.000
15.64499 573.000
15.66494 645.000
15.68488 675.000
15.70483 905.000
15.72478 1033.000
15.74472 1406.000
15.76467 1678.000
15.78462 2064.000
15.80457 2052.000
15.82451 1809.000
15.84446 1411.000
15.86441 1090.000
15.88435 746.000
15.90430 527.000
15.92425 473.000
15.94419 408.000
15.96414 388.000
15.98409 391.000
16.00404 350.000
16.02398 324.000
16.04393 379.000
16.06388 343.000
16.08382 356.000
16.10377 363.000
16.12372 350.000
16.14366 362.000
16.16361 345.000
16.18356 378.000
16.20351 332.000
16.22345 350.000
16.24340 354.000
16.26335 328.000
16.28329 336.000
16.30324 316.000
16.32319 350.000
16.34313 341.000
16.36308 335.000
16.38303 366.000
16.40297 326.000
16.42292 388.000
16.44287 368.000
16.46282 370.000
16.48276 337.000
16.50271 325.000
16.52266 363.000
16.54260 353.000
16.56255 369.000
16.58250 331.000
16.60244 363.000
16.62239 324.000
16.64234 355.000
16.66229 361.000
16.68223 360.000
16.70218 330.000
16.72213 344.000
16.74207 365.000
16.76202 381.000
16.78197 412.000
16.80191 354.000
16.82186 404.000
16.84181 371.000
16.86175 323.000
16.88170 378.000
16.90165 357.000
16.92160 355.000
16.94154 342.000
16.96149 363.000
16.98144 319.000
17.00138 352.000
17.02133 308.000
17.04128 358.000
17.06122 323.000
17.08117 353.000
17.10112 330.000
17.12107 332.000
17.14101 336.000
17.16096 367.000
17.18091 375.000
17.20085 363.000
17.22080 381.000
17.24075 307.000
17.26069 360.000
17.28064 366.000
17.30059 350.000
17.32053 354.000
17.34048 360.000
17.36043 362.000
17.38038 334.000
17.40032 348.000
17.42027 302.000
17.44022 322.000
17.46016 344.000
17.48011 368.000
17.50006 338.000
17.52000 285.000
17.53995 348.000
17.55990 339.000
17.57985 350.000
17.59979 359.000
17.61974 322.000
17.63969 360.000
17.65963 370.000
17.67958 323.000
17.69953 347.000
17.71947 352.000
17.73942 332.000
17.75937 386.000
17.77932 342.000
17.79926 336.000
17.81921 383.000
17.83916 360.000
17.85910 345.000
17.87905 290.000
17.89900 331.000
17.91894 376.000
17.93889 387.000
17.95884 361.000
17.97878 344.000
17.99873 334.000
18.01868 305.000
18.03863 361.000
18.05857 328.000
18.07852 361.000
18.09847 340.000
18.11841 373.000
18.13836 391.000
18.15831 317.000
18.17825 339.000
18.19820 363.000
18.21815 385.000
18.23810 380.000
18.25804 411.000
18.27799 386.000
18.29794 380.000
18.31788 413.000
18.33783 422.000
18.35778 413.000
18.37772 401.000
18.39767 383.000
18.41762 338.000
18.43756 354.000
18.45751 362.000
18.47746 349.000
18.49741 372.000
18.51735 355.000
18.53730 371.000
18.55725 342.000
18.57719 343.000
18.59714 365.000
18.61709 358.000
18.63703 323.000
18.65698 354.000
18.67693 369.000
18.69688 345.000
18.71682 365.000
18.73677 339.000
18.75672 369.000
18.77666 330.000
18.79661 360.000
18.81656 344.000
18.83650 369.000
18.85645 327.000
18.87640 354.000
18.89634 328.000
18.91629 332.000
18.93624 338.000
18.95619 355.000
18.97613 346.000
18.99608 360.000
19.01603 326.000
19.03597 368.000
19.05592 357.000
19.07587 368.000
19.09581 361.000
19.11576 355.000
19.13571 346.000
19.15566 327.000
19.17560 332.000
19.19555 350.000
19.21550 340.000
19.23544 333.000
19.25539 357.000
19.27534 343.000
19.29528 347.000
19.31523 350.000
19.33518 350.000
19.35513 356.000
19.37507 370.000
19.39502 351.000
19.41497 357.000
19.43491 333.000
19.45486 344.000
19.47481 348.000
19.49475 354.000
19.51470 352.000
19.53465 346.000
19.55459 332.000
19.57454 326.000
19.59449 323.000
19.61444 331.000
19.63438 340.000
19.65433 348.000
19.67428 324.000
19.69422 357.000
19.71417 400.000
19.73412 331.000
19.75406 357.000
19.77401 355.000
19.79396 367.000
19.81391 340.000
19.83385 370.000
19.85380 377.000
19.87375 389.000
19.89369 335.000
19.91364 332.000
19.93359 358.000
19.95353 329.000
19.97348 345.000
19.99343 355.000
20.01337 327.000
20.03332 351.000
20.05327 383.000
20.07322 362.000
20.09316 383.000
20.11311 357.000
20.13306 354.000
20.15300 392.000
20.17295 383.000
20.19290 361.000
20.21284 358.000
20.23279 331.000
20.25274 350.000
20.27269 372.000
20.29263 388.000
20.31258 407.000
20.33253 358.000
20.35247 371.000
20.37242 362.000
20.39237 341.000
20.41231 343.000
20.43226 368.000
20.45221 397.000
20.47215 371.000
20.49210 381.000
20.51205 359.000
20.53200 396.000
20.55194 356.000
20.57189 384.000
20.59184 369.000
20.61178 417.000
20.63173 402.000
20.65168 386.000
20.67162 407.000
20.69157 428.000
20.71152 422.000
20.73147 407.000
20.75141 475.000
20.77136 422.000
20.79131 416.000
20.81125 443.000
20.83120 464.000
20.85115 481.000
20.87109 542.000
20.89104 612.000
20.91099 628.000
20.93094 685.000
20.95088 742.000
20.97083 808.000
20.99078 792.000
21.01072 747.000
21.03067 679.000
21.05062 693.000
21.07056 611.000
21.09051 579.000
21.11046 536.000
21.13040 491.000
21.15035 414.000
21.17030 427.000
21.19025 389.000
21.21019 388.000
21.23014 364.000
21.25009 374.000
21.27003 373.000
21.28998 397.000
21.30993 368.000
21.32987 381.000
21.34982 395.000
21.36977 393.000
21.38972 377.000
21.40966 381.000
21.42961 360.000
21.44956 393.000
21.46950 378.000
21.48945 386.000
21.50940 378.000
21.52934 335.000
21.54929 348.000
21.56924 377.000
21.58918 354.000
21.60913 383.000
21.62908 350.000
21.64903 338.000
21.66897 377.000
21.68892 373.000
21.70887 378.000
21.72881 380.000
21.74876 352.000
21.76871 364.000
21.78865 375.000
21.80860 366.000
21.82855 377.000
21.84850 368.000
21.86844 361.000
21.88839 352.000
21.90834 409.000
21.92828 393.000
21.94823 342.000
21.96818 380.000
21.98812 363.000
22.00807 344.000
22.02802 385.000
22.04796 354.000
22.06791 378.000
22.08786 364.000
22.10781 342.000
22.12775 378.000
22.14770 394.000
22.16765 381.000
22.18759 393.000
22.20754 376.000
22.22749 362.000
22.24743 400.000
22.26738 379.000
22.28733 351.000
22.30728 396.000
22.32722 381.000
22.34717 394.000
22.36712 360.000
22.38706 376.000
22.40701 386.000
22.42696 361.000
22.44690 372.000
22.46685 358.000
22.48680 377.000
22.50675 375.000
22.52669 380.000
22.54664 392.000
22.56659 386.000
22.58653 391.000
22.60648 362.000
22.62643 364.000
22.64637 374.000
22.66632 354.000
22.68627 361.000
22.70621 393.000
22.72616 369.000
22.74611 375.000
22.76606 361.000
22.78600 399.000
22.80595 373.000
22.82590 344.000
22.84584 381.000
22.86579 375.000
22.88574 412.000
22.90568 385.000
22.92563 388.000
22.94558 394.000
22.96553 405.000
22.98547 361.000
23.00542 367.000
23.02537 374.000
23.04531 380.000
23.06526 344.000
23.08521 380.000
23.10515 345.000
23.12510 355.000
23.14505 368.000
23.16499 401.000
23.18494 340.000
23.20489 375.000
23.22484 387.000
23.24478 366.000
23.26473 324.000
23.28468 388.000
23.30462 361.000
23.32457 395.000
23.34452 415.000
23.36446 382.000
23.38441 380.000
23.40436 376.000
23.42431 406.000
23.44425 385.000
23.46420 371.000
23.48415 386.000
23.50409 374.000
23.52404 388.000
23.54399 380.000
23.56393 375.000
23.58388 380.000
23.60383 381.000
23.62377 407.000
23.64372 374.000
23.66367 379.000
23.68362 390.000
23.70356 391.000
23.72351 354.000
23.74346 389.000
23.76340 368.000
23.78335 357.000
23.80330 412.000
23.82324 387.000
23.84319 400.000
23.86314 403.000
23.88309 383.000
23.90303 386.000
23.92298 385.000
23.94293 358.000
23.96287 383.000
23.98282 402.000
24.00277 393.000
24.02271 352.000
24.04266 381.000
24.06261 402.000
24.08256 403.000
24.10250 395.000
24.12245 427.000
24.14240 422.000
24.16234 389.000
24.18229 362.000
24.20224 380.000
24.22218 407.000
24.24213 379.000
24.26208 395.000
24.28202 393.000
24.30197 411.000
24.32192 415.000
24.34187 381.000
24.36181 371.000
24.38176 409.000
24.40171 444.000
24.42165 375.000
24.44160 386.000
24.46155 436.000
24.48149 381.000
24.50144 367.000
24.52139 409.000
24.54134 400.000
24.56128 402.000
24.58123 374.000
24.60118 411.000
24.62112 386.000
24.64107 387.000
24.66102 388.000
24.68096 396.000
24.70091 383.000
24.72086 374.000
24.74080 415.000
24.76075 355.000
24.78070 396.000
24.80065 409.000
24.82059 399.000
24.84054 403.000
24.86049 435.000
24.88043 384.000
24.90038 428.000
24.92033 433.000
24.94027 391.000
24.96022 423.000
24.98017 457.000
25.00012 398.000
25.02006 404.000
25.04001 397.000
25.05996 390.000
25.07990 376.000
25.09985 414.000
25.11980 409.000
25.13974 374.000
25.15969 383.000
25.17964 415.000
25.19958 400.000
25.21953 395.000
25.23948 411.000
25.25943 439.000
25.27937 415.000
25.29932 372.000
25.31927 370.000
25.33921 382.000
25.35916 427.000
25.37911 374.000
25.39905 411.000
25.41900 366.000
25.43895 415.000
25.45890 385.000
25.47884 378.000
25.49879 400.000
25.51874 406.000
25.53868 407.000
25.55863 387.000
25.57858 380.000
25.59852 408.000
25.61847 392.000
25.63842 397.000
25.65837 404.000
25.67831 389.000
25.69826 420.000
25.71821 414.000
25.73815 391.000
25.75810 425.000
25.77805 431.000
25.79799 392.000
25.81794 384.000
25.83789 438.000
25.85783 426.000
25.87778 393.000
25.89773 426.000
25.91768 391.000
25.93762 427.000
25.95757 408.000
25.97752 428.000
25.99746 425.000
26.01741 393.000
26.03736 412.000
26.05730 380.000
26.07725 380.000
26.09720 380.000
26.11715 377.000
26.13709 402.000
26.15704 396.000
26.17699 381.000
26.19693 432.000
26.21688 448.000
26.23683 400.000
26.25677 421.000
26.27672 394.000
26.29667 421.000
26.31661 394.000
26.33656 424.000
26.35651 389.000
26.37646 446.000
26.39640 448.000
26.41635 398.000
26.43630 403.000
26.45624 400.000
26.47619 384.000
26.49614 426.000
26.51608 411.000
26.53603 413.000
26.55598 419.000
26.57593 432.000
26.59587 381.000
26.61582 454.000
26.63577 405.000
26.65571 420.000
26.67566 443.000
26.69561 405.000
26.71555 407.000
26.73550 378.000
26.75545 386.000
26.77539 451.000
26.79534 423.000
26.81529 396.000
26.83524 428.000
26.85518 432.000
26.87513 435.000
26.89508 432.000
26.91502 403.000
26.93497 410.000
26.95492 422.000
26.97486 420.000
26.99481 371.000
27.01476 430.000
27.03471 399.000
27.05465 402.000
27.07460 413.000
27.09455 396.000
27.11449 469.000
27.13444 395.000
27.15439 448.000
27.17433 431.000
27.19428 438.000
27.21423 394.000
27.23417 436.000
27.25412 449.000
27.27407 431.000
27.29402 385.000
27.31396 420.000
27.33391 458.000
27.35386 400.000
27.37380 446.000
27.39375 411.000
27.41370 400.000
27.43364 385.000
27.45359 454.000
27.47354 405.000
27.49349 406.000
27.51343 412.000
27.53338 428.000
27.55333 383.000
27.57327 430.000
27.59322 438.000
27.61317 370.000
27.63311 430.000
27.65306 413.000
27.67301 410.000
27.69296 413.000
27.71290 393.000
27.73285 390.000
27.75280 443.000
27.77274 439.000
27.79269 404.000
27.81264 399.000
27.83258 425.000
27.85253 406.000
27.87248 417.000
27.89242 446.000
27.91237 385.000
27.93232 372.000
27.95227 463.000
27.97221 396.000
27.99216 421.000
28.01211 423.000
28.03205 431.000
28.05200 396.000
28.07195 386.000
28.09189 423.000
28.11184 426.000
28.13179 430.000
28.15174 412.000
28.17168 427.000
28.19163 424.000
28.21158 437.000
28.23152 437.000
28.25147 442.000
28.27142 416.000
28.29136 415.000
28.31131 402.000
28.33126 454.000
28.35120 447.000
28.37115 426.000
28.39110 429.000
28.41105 488.000
28.43099 473.000
28.45094 418.000
28.47089 444.000
28.49083 454.000
28.51078 447.000
28.53073 441.000
28.55067 450.000
28.57062 444.000
28.59057 444.000
28.61052 377.000
28.63046 412.000
28.65041 422.000
28.67036 459.000
28.69030 458.000
28.71025 429.000
28.73020 411.000
28.75014 445.000
28.77009 427.000
28.79004 425.000
28.80998 453.000
28.82993 408.000
28.84988 433.000
28.86983 439.000
28.88977 423.000
28.90972 451.000
28.92967 418.000
28.94961 418.000
28.96956 455.000
28.98951 456.000
29.00945 440.000
29.02940 417.000
29.04935 468.000
29.06930 438.000
29.08924 445.000
29.10919 479.000
29.12914 493.000
29.14908 455.000
29.16903 493.000
29.18898 500.000
29.20892 453.000
29.22887 482.000
29.24882 521.000
29.26877 505.000
29.28871 533.000
29.30866 537.000
29.32861 520.000
29.34855 508.000
29.36850 545.000
29.38845 535.000
29.40839 538.000
29.42834 511.000
29.44829 509.000
29.46823 438.000
29.48818 513.000
29.50813 474.000
29.52808 457.000
29.54802 450.000
29.56797 440.000
29.58792 449.000
29.60786 430.000
29.62781 440.000
29.64776 454.000
29.66770 458.000
29.68765 464.000
29.70760 470.000
29.72755 442.000
29.74749 451.000
29.76744 431.000
29.78739 430.000
29.80733 479.000
29.82728 466.000
29.84723 444.000
29.86717 443.000
29.88712 429.000
29.90707 470.000
29.92701 480.000
29.94696 456.000
29.96691 423.000
29.98686 471.000
30.00680 438.000
30.02675 465.000
30.04670 480.000
30.06664 487.000
30.08659 492.000
30.10654 519.000
30.12648 547.000
30.14643 574.000
30.16638 591.000
30.18633 574.000
30.20627 604.000
30.22622 632.000
30.24617 535.000
30.26611 539.000
30.28606 554.000
30.30601 495.000
30.32595 477.000
30.34590 465.000
30.36585 477.000
30.38579 425.000
30.40574 458.000
30.42569 478.000
30.44564 461.000
30.46558 456.000
30.48553 502.000
30.50548 425.000
30.52542 458.000
30.54537 482.000
30.56532 489.000
30.58526 475.000
30.60521 465.000
30.62516 445.000
30.64511 422.000
30.66505 491.000
30.68500 459.000
30.70495 448.000
30.72489 461.000
30.74484 491.000
30.76479 497.000
30.78473 423.000
30.80468 457.000
30.82463 438.000
30.84458 414.000
30.86452 456.000
30.88447 454.000
30.90442 447.000
30.92436 469.000
30.94431 453.000
30.96426 413.000
30.98420 441.000
31.00415 477.000
31.02410 469.000
31.04404 422.000
31.06399 462.000
31.08394 441.000
31.10389 487.000
31.12383 436.000
31.14378 429.000
31.16373 450.000
31.18367 487.000
31.20362 499.000
31.22357 509.000
31.24351 451.000
31.26346 416.000
31.28341 427.000
31.30336 453.000
31.32330 457.000
31.34325 473.000
31.36320 492.000
31.38314 487.000
31.40309 472.000
31.42304 459.000
31.44298 435.000
31.46293 437.000
31.48288 472.000
31.50282 465.000
31.52277 478.000
31.54272 508.000
31.56267 412.000
31.58261 451.000
31.60256 475.000
31.62251 516.000
31.64245 519.000
31.66240 465.000
31.68235 488.000
31.70229 509.000
31.72224 511.000
31.74219 500.000
31.76214 519.000
31.78208 535.000
31.80203 529.000
31.82198 531.000
31.84192 546.000
31.86187 573.000
31.88182 605.000
31.90176 604.000
31.92171 618.000
31.94166 605.000
31.96160 656.000
31.98155 619.000
32.00150 600.000
32.02145 675.000
32.04139 573.000
32.06134 555.000
32.08129 560.000
32.10123 499.000
32.12118 559.000
32.14113 537.000
32.16107 499.000
32.18102 503.000
32.20097 548.000
32.22092 516.000
32.24086 558.000
32.26081 596.000
32.28076 573.000
32.30070 646.000
32.32065 642.000
32.34060 649.000
32.36054 639.000
32.38049 683.000
32.40044 792.000
32.42039 703.000
32.44033 731.000
32.46028 722.000
32.48023 659.000
32.50017 623.000
32.52012 603.000
32.54007 616.000
32.56001 515.000
32.57996 533.000
32.59991 527.000
32.61985 459.000
32.63980 510.000
32.65975 479.000
32.67970 432.000
32.69964 450.000
32.71959 494.000
32.73954 484.000
32.75948 468.000
32.77943 454.000
32.79938 425.000
32.81932 467.000
32.83927 457.000
32.85922 460.000
32.87917 454.000
32.89911 453.000
32.91906 489.000
32.93901 495.000
32.95895 468.000
32.97890 451.000
32.99885 471.000
33.01879 442.000
33.03874 466.000
33.05869 434.000
33.07863 475.000
33.09858 501.000
33.11853 476.000
33.13848 490.000
33.15842 480.000
33.17837 468.000
33.19832 459.000
33.21826 498.000
33.23821 511.000
33.25816 472.000
33.27810 493.000
33.29805 465.000
33.31800 452.000
33.33795 492.000
33.35789 479.000
33.37784 476.000
33.39779 489.000
33.41773 480.000
33.43768 471.000
33.45763 475.000
33.47757 456.000
33.49752 470.000
33.51747 482.000
33.53741 509.000
33.55736 460.000
33.57731 496.000
33.59726 451.000
33.61720 481.000
33.63715 509.000
33.65710 470.000
33.67704 491.000
33.69699 494.000
33.71694 498.000
33.73688 484.000
33.75683 483.000
33.77678 438.000
33.79673 474.000
33.81667 469.000
33.83662 497.000
33.85657 521.000
33.87651 517.000
33.89646 488.000
33.91641 508.000
33.93635 555.000
33.95630 426.000
33.97625 535.000
33.99620 484.000
34.01614 506.000
34.03609 526.000
34.05604 516.000
34.07598 491.000
34.09593 495.000
34.11588 566.000
34.13582 501.000
34.15577 544.000
34.17572 596.000
34.19566 585.000
34.21561 557.000
34.23556 569.000
34.25551 580.000
34.27545 581.000
34.29540 569.000
34.31535 594.000
34.33529 633.000
34.35524 638.000
34.37519 648.000
34.39513 679.000
34.41508 683.000
34.43503 713.000
34.45498 726.000
34.47492 783.000
34.49487 759.000
34.51482 850.000
34.53476 822.000
34.55471 901.000
34.57466 910.000
34.59460 876.000
34.61455 892.000
34.63450 921.000
34.65444 912.000
34.67439 914.000
34.69434 890.000
34.71429 853.000
34.73423 881.000
34.75418 812.000
34.77413 765.000
34.79407 759.000
34.81402 773.000
34.83397 705.000
34.85391 706.000
34.87386 717.000
34.89381 688.000
34.91376 663.000
34.93370 670.000
34.95365 679.000
34.97360 781.000
34.99354 760.000
35.01349 806.000
35.03344 865.000
35.05338 897.000
35.07333 976.000
35.09328 1033.000
35.11322 1107.000
35.13317 1083.000
35.15312 1196.000
35.17307 1321.000
35.19301 1402.000
35.21296 1414.000
35.23291 1621.000
35.25285 1783.000
35.27280 1852.000
35.29275 2031.000
35.31269 2300.000
35.33264 2503.000
35.35259 2862.000
35.37254 3068.000
35.39248 3190.000
35.41243 3324.000
35.43238 3416.000
35.45232 3553.000
35.47227 3728.000
35.49222 3745.000
35.51216 3565.000
35.53211 3226.000
35.55206 3074.000
35.57201 2750.000
35.59195 2519.000
35.61190 2186.000
35.63185 1805.000
35.65179 1575.000
35.67174 1384.000
35.69169 1212.000
35.71163 1074.000
35.73158 995.000
35.75153 947.000
35.77147 840.000
35.79142 838.000
35.81137 773.000
35.83132 778.000
35.85126 667.000
35.87121 690.000
35.89116 655.000
35.91110 628.000
35.93105 591.000
35.95100 592.000
35.97094 574.000
35.99089 642.000
36.01084 604.000
36.03079 548.000
36.05073 563.000
36.07068 621.000
36.09063 578.000
36.11057 556.000
36.13052 603.000
36.15047 523.000
36.17041 556.000
36.19036 550.000
36.21031 564.000
36.23025 573.000
36.25020 558.000
36.27015 539.000
36.29010 583.000
36.31004 575.000
36.32999 567.000
36.34994 551.000
36.36988 551.000
36.38983 555.000
36.40978 555.000
36.42972 582.000
36.44967 545.000
36.46962 532.000
36.48957 541.000
36.50951 526.000
36.52946 544.000
36.54941 595.000
36.56935 561.000
36.58930 555.000
36.60925 541.000
36.62919 553.000
36.64914 568.000
36.66909 522.000
36.68903 554.000
36.70898 546.000
36.72893 520.000
36.74888 585.000
36.76882 579.000
36.78877 569.000
36.80872 528.000
36.82866 582.000
36.84861 562.000
36.86856 623.000
36.88850 615.000
36.90845 602.000
36.92840 640.000
36.94835 590.000
36.96829 653.000
36.98824 678.000
37.00819 697.000
37.02813 739.000
37.04808 795.000
37.06803 825.000
37.08797 812.000
37.10792 764.000
37.12787 813.000
37.14781 761.000
37.16776 759.000
37.18771 721.000
37.20766 737.000
37.22760 700.000
37.24755 652.000
37.26750 594.000
37.28744 619.000
37.30739 579.000
37.32734 562.000
37.34728 550.000
37.36723 543.000
37.38718 586.000
37.40713 575.000
37.42707 552.000
37.44702 545.000
37.46697 542.000
37.48691 544.000
37.50686 624.000
37.52681 513.000
37.54675 546.000
37.56670 555.000
37.58665 515.000
37.60660 532.000
37.62654 575.000
37.64649 544.000
37.66644 556.000
37.68638 599.000
37.70633 537.000
37.72628 535.000
37.74622 559.000
37.76617 581.000
37.78612 577.000
37.80606 534.000
37.82601 593.000
37.84596 598.000
37.86591 625.000
37.88585 593.000
37.90580 653.000
37.92575 593.000
37.94569 677.000
37.96564 595.000
37.98559 617.000
38.00553 649.000
38.02548 629.000
38.04543 633.000
38.06538 698.000
38.08532 710.000
38.10527 698.000
38.12522 746.000
38.14516 810.000
38.16511 825.000
38.18506 857.000
38.20500 1004.000
38.22495 990.000
38.24490 1053.000
38.26484 1057.000
38.28479 1138.000
38.30474 1187.000
38.32469 1244.000
38.34463 1355.000
38.36458 1489.000
38.38453 1563.000
38.40447 1586.000
38.42442 1605.000
38.44437 1859.000
38.46431 1986.000
38.48426 2145.000
38.50421 2437.000
38.52416 2571.000
38.54410 2761.000
38.56405 2971.000
38.58400 3128.000
38.60394 3239.000
38.62389 3239.000
38.64384 3144.000
38.66378 2961.000
38.68373 2672.000
38.70368 2427.000
38.72362 2358.000
38.74357 1996.000
38.76352 1782.000
38.78347 1554.000
38.80341 1478.000
38.82336 1383.000
38.84331 1303.000
38.86325 1360.000
38.88320 1342.000
38.90315 1311.000
38.92309 1268.000
38.94304 1306.000
38.96299 1361.000
38.98294 1353.000
39.00288 1311.000
39.02283 1222.000
39.04278 1130.000
39.06272 1062.000
39.08267 1025.000
39.10262 966.000
39.12256 937.000
39.14251 947.000
39.16246 882.000
39.18241 856.000
39.20235 919.000
39.22230 941.000
39.24225 916.000
39.26219 916.000
39.28214 912.000
39.30209 876.000
39.32203 866.000
39.34198 850.000
39.36193 787.000
39.38187 728.000
39.40182 780.000
39.42177 715.000
39.44172 691.000
39.46166 642.000
39.48161 618.000
39.50156 564.000
39.52150 558.000
39.54145 546.000
39.56140 558.000
39.58134 633.000
39.60129 511.000
39.62124 532.000
39.64119 532.000
39.66113 569.000
39.68108 501.000
39.70103 525.000
39.72097 530.000
39.74092 488.000
39.76087 516.000
39.78081 505.000
39.80076 614.000
39.82071 486.000
39.84065 502.000
39.86060 477.000
39.88055 527.000
39.90050 455.000
39.92044 526.000
39.94039 504.000
39.96034 470.000
39.98028 540.000
40.00023 491.000
40.02018 535.000
40.04012 529.000
40.06007 527.000
40.08002 500.000
40.09997 474.000
40.11991 525.000
40.13986 478.000
40.15981 498.000
40.17975 479.000
40.19970 480.000
40.21965 509.000
40.23959 495.000
40.25954 520.000
40.27949 500.000
40.29943 485.000
40.31938 508.000
40.33933 485.000
40.35928 545.000
40.37922 495.000
40.39917 491.000
40.41912 520.000
40.43906 472.000
40.45901 491.000
40.47896 501.000
40.49890 510.000
40.51885 497.000
40.53880 478.000
40.55875 536.000
40.57869 485.000
40.59864 489.000
40.61859 462.000
40.63853 506.000
40.65848 472.000
40.67843 465.000
40.69837 487.000
40.71832 497.000
40.73827 472.000
40.75822 520.000
40.77816 510.000
40.79811 478.000
40.81806 496.000
40.83800 504.000
40.85795 518.000
40.87790 528.000
40.89784 483.000
40.91779 497.000
40.93774 456.000
40.95768 469.000
40.97763 487.000
40.99758 545.000
41.01753 526.000
41.03747 518.000
41.05742 454.000
41.07737 504.000
41.09731 459.000
41.11726 487.000
41.13721 487.000
41.15715 458.000
41.17710 473.000
41.19705 454.000
41.21700 460.000
41.23694 473.000
41.25689 468.000
41.27684 500.000
41.29678 512.000
41.31673 462.000
41.33668 465.000
41.35662 508.000
41.37657 461.000
41.39652 442.000
41.41646 494.000
41.43641 491.000
41.45636 463.000
41.47631 483.000
41.49625 536.000
41.51620 497.000
41.53615 454.000
41.55609 465.000
41.57604 499.000
41.59599 508.000
41.61593 486.000
41.63588 489.000
41.65583 472.000
41.67578 501.000
41.69572 454.000
41.71567 492.000
41.73562 479.000
41.75556 498.000
41.77551 458.000
41.79546 514.000
41.81540 499.000
41.83535 477.000
41.85530 461.000
41.87524 449.000
41.89519 485.000
41.91514 462.000
41.93509 469.000
41.95503 457.000
41.97498 478.000
41.99493 445.000
42.01487 475.000
42.03482 476.000
42.05477 498.000
42.07471 489.000
42.09466 447.000
42.11461 475.000
42.13456 488.000
42.15450 454.000
42.17445 494.000
42.19440 486.000
42.21434 529.000
42.23429 519.000
42.25424 458.000
42.27418 483.000
42.29413 499.000
42.31408 482.000
42.33403 456.000
42.35397 477.000
42.37392 476.000
42.39387 481.000
42.41381 476.000
42.43376 487.000
42.45371 490.000
42.47365 526.000
42.49360 485.000
42.51355 468.000
42.53349 470.000
42.55344 539.000
42.57339 498.000
42.59334 488.000
42.61328 549.000
42.63323 478.000
42.65318 530.000
42.67312 528.000
42.69307 534.000
42.71302 580.000
42.73296 547.000
42.75291 559.000
42.77286 602.000
42.79281 569.000
42.81275 609.000
42.83270 586.000
42.85265 648.000
42.87259 634.000
42.89254 614.000
42.91249 659.000
42.93243 698.000
42.95238 746.000
42.97233 729.000
42.99227 762.000
43.01222 734.000
43.03217 798.000
43.05212 798.000
43.07206 867.000
43.09201 911.000
43.11196 879.000
43.13190 890.000
43.15185 872.000
43.17180 903.000
43.19174 845.000
43.21169 868.000
43.23164 852.000
43.25159 788.000
43.27153 843.000
43.29148 821.000
43.31143 743.000
43.33137 741.000
43.35132 737.000
43.37127 724.000
43.39121 758.000
43.41116 709.000
43.43111 694.000
43.45105 688.000
43.47100 643.000
43.49095 601.000
43.51090 570.000
43.53084 587.000
43.55079 577.000
43.57074 566.000
43.59068 536.000
43.61063 464.000
43.63058 517.000
43.65052 540.000
43.67047 529.000
43.69042 542.000
43.71037 481.000
43.73031 474.000
43.75026 495.000
43.77021 506.000
43.79015 513.000
43.81010 484.000
43.83005 474.000
43.84999 511.000
43.86994 484.000
43.88989 469.000
43.90984 481.000
43.92978 494.000
43.94973 501.000
43.96968 456.000
43.98962 456.000
44.00957 520.000
44.02952 470.000
44.04946 475.000
44.06941 479.000
44.08936 483.000
44.10930 500.000
44.12925 464.000
44.14920 486.000
44.16915 487.000
44.18909 524.000
44.20904 493.000
44.22899 498.000
44.24893 498.000
44.26888 448.000
44.28883 479.000
44.30877 465.000
44.32872 497.000
44.34867 506.000
44.36862 530.000
44.38856 501.000
44.40851 487.000
44.42846 515.000
44.44840 471.000
44.46835 512.000
44.48830 510.000
44.50824 490.000
44.52819 514.000
44.54814 495.000
44.56808 466.000
44.58803 506.000
44.60798 484.000
44.62793 515.000
44.64787 490.000
44.66782 491.000
44.68777 473.000
44.70771 507.000
44.72766 527.000
44.74761 462.000
44.76755 476.000
44.78750 476.000
44.80745 497.000
44.82740 469.000
44.84734 531.000
44.86729 493.000
44.88724 518.000
44.90718 486.000
44.92713 468.000
44.94708 497.000
44.96702 497.000
44.98697 503.000
45.00692 502.000
45.02686 501.000
45.04681 493.000
45.06676 456.000
45.08671 517.000
45.10665 531.000
45.12660 492.000
45.14655 478.000
45.16649 517.000
45.18644 488.000
45.20639 514.000
45.22633 525.000
45.24628 526.000
45.26623 524.000
45.28618 484.000
45.30612 542.000
45.32607 501.000
45.34602 512.000
45.36596 493.000
45.38591 505.000
45.40586 490.000
45.42580 529.000
45.44575 523.000
45.46570 489.000
45.48565 544.000
45.50559 487.000
45.52554 491.000
45.54549 511.000
45.56543 526.000
45.58538 481.000
45.60533 497.000
45.62527 552.000
45.64522 495.000
45.66517 508.000
45.68511 496.000
45.70506 453.000
45.72501 487.000
45.74496 469.000
45.76490 486.000
45.78485 523.000
45.80480 518.000
45.82474 462.000
45.84469 507.000
45.86464 462.000
45.88458 514.000
45.90453 520.000
45.92448 491.000
45.94443 497.000
45.96437 483.000
45.98432 509.000
46.00427 525.000
46.02421 517.000
46.04416 540.000
46.06411 496.000
46.08405 534.000
46.10400 549.000
46.12395 497.000
46.14389 485.000
46.16384 600.000
46.18379 571.000
46.20374 572.000
46.22368 592.000
46.24363 521.000
46.26358 564.000
46.28352 574.000
46.30347 556.000
46.32342 516.000
46.34336 553.000
46.36331 528.000
46.38326 539.000
46.40321 487.000
46.42315 522.000
46.44310 513.000
46.46305 503.000
46.48299 471.000
46.50294 503.000
46.52289 496.000
46.54283 466.000
46.56278 514.000
46.58273 477.000
46.60267 463.000
46.62262 477.000
46.64257 484.000
46.66252 464.000
46.68246 516.000
46.70241 482.000
46.72236 488.000
46.74230 472.000
46.76225 468.000
46.78220 492.000
46.80214 494.000
46.82209 483.000
46.84204 487.000
46.86199 495.000
46.88193 450.000
46.90188 484.000
46.92183 485.000
46.94177 526.000
46.96172 466.000
46.98167 515.000
47.00161 480.000
47.02156 479.000
47.04151 490.000
47.06146 514.000
47.08140 473.000
47.10135 480.000
47.12130 495.000
47.14124 492.000
47.16119 512.000
47.18114 519.000
47.20108 481.000
47.22103 448.000
47.24098 444.000
47.26092 504.000
47.28087 512.000
47.30082 453.000
47.32077 503.000
47.34071 547.000
47.36066 506.000
47.38061 484.000
47.40055 498.000
47.42050 500.000
47.44045 489.000
47.46039 467.000
47.48034 508.000
47.50029 492.000
47.52024 464.000
47.54018 522.000
47.56013 512.000
47.58008 453.000
47.60002 487.000
47.61997 494.000
47.63992 494.000
47.65986 527.000
47.67981 512.000
47.69976 492.000
47.71970 484.000
47.73965 536.000
47.75960 526.000
47.77955 513.000
47.79949 485.000
47.81944 518.000
47.83939 520.000
47.85933 537.000
47.87928 531.000
47.89923 533.000
47.91917 494.000
47.93912 538.000
47.95907 510.000
47.97902 559.000
47.99896 539.000
48.01891 538.000
48.03886 533.000
48.05880 551.000
48.07875 547.000
48.09870 529.000
48.11864 570.000
48.13859 573.000
48.15854 561.000
48.17848 541.000
48.19843 552.000
48.21838 542.000
48.23833 550.000
48.25827 590.000
48.27822 626.000
48.29817 582.000
48.31811 620.000
48.33806 603.000
48.35801 623.000
48.37795 619.000
48.39790 678.000
48.41785 701.000
48.43780 751.000
48.45774 743.000
48.47769 763.000
48.49764 806.000
48.51758 853.000
48.53753 952.000
48.55748 1005.000
48.57742 997.000
48.59737 1026.000
48.61732 1138.000
48.63726 1221.000
48.65721 1208.000
48.67716 1317.000
48.69711 1282.000
48.71705 1394.000
48.73700 1394.000
48.75695 1453.000
48.77689 1449.000
48.79684 1442.000
48.81679 1393.000
48.83673 1346.000
48.85668 1319.000
48.87663 1300.000
48.89658 1151.000
48.91652 1127.000
48.93647 1031.000
48.95642 924.000
48.97636 924.000
48.99631 866.000
49.01626 787.000
49.03620 732.000
49.05615 685.000
49.07610 651.000
49.09605 617.000
49.11599 620.000
49.13594 639.000
49.15589 594.000
49.17583 560.000
49.19578 554.000
49.21573 628.000
49.23567 599.000
49.25562 558.000
49.27557 589.000
49.29551 570.000
49.31546 562.000
49.33541 543.000
49.35536 550.000
49.37530 550.000
49.39525 550.000
49.41520 575.000
49.43514 599.000
49.45509 522.000
49.47504 554.000
49.49498 576.000
49.51493 521.000
49.53488 535.000
49.55483 558.000
49.57477 542.000
49.59472 521.000
49.61467 580.000
49.63461 552.000
49.65456 541.000
49.67451 538.000
49.69445 525.000
49.71440 555.000
49.73435 530.000
49.75429 543.000
49.77424 555.000
49.79419 543.000
49.81414 500.000
49.83408 540.000
49.85403 530.000
49.87398 554.000
49.89392 534.000
49.91387 533.000
49.93382 461.000
49.95376 541.000
49.97371 518.000
49.99366 514.000
50.01361 525.000
50.03355 522.000
50.05350 517.000
50.07345 494.000
50.09339 526.000
50.11334 531.000
50.13329 553.000
50.15323 527.000
50.17318 479.000
50.19313 507.000
50.21307 557.000
50.23302 504.000
50.25297 524.000
50.27292 497.000
50.29286 536.000
50.31281 556.000
50.33276 488.000
50.35270 445.000
50.37265 512.000
50.39260 488.000
50.41254 488.000
50.43249 538.000
50.45244 506.000
50.47239 484.000
50.49233 465.000
50.51228 542.000
50.53223 490.000
50.55217 511.000
50.57212 518.000
50.59207 502.000
50.61201 508.000
50.63196 478.000
50.65191 492.000
50.67186 490.000
50.69180 505.000
50.71175 470.000
50.73170 512.000
50.75164 510.000
50.77159 519.000
50.79154 474.000
50.81148 486.000
50.83143 497.000
50.85138 513.000
50.87132 513.000
50.89127 472.000
50.91122 487.000
50.93117 471.000
50.95111 550.000
50.97106 515.000
50.99101 494.000
51.01095 485.000
51.03090 497.000
51.05085 517.000
51.07079 484.000
51.09074 549.000
51.11069 536.000
51.13064 536.000
51.15058 498.000
51.17053 518.000
51.19048 529.000
51.21042 515.000
51.23037 566.000
51.25032 504.000
51.27026 551.000
51.29021 540.000
51.31016 489.000
51.33010 515.000
51.35005 515.000
51.37000 525.000
51.38995 501.000
51.40989 458.000
51.42984 510.000
51.44979 496.000
51.46973 518.000
51.48968 525.000
51.50963 556.000
51.52957 506.000
51.54952 562.000
51.56947 479.000
51.58942 472.000
51.60936 548.000
51.62931 508.000
51.64926 504.000
51.66920 519.000
51.68915 503.000
51.70910 529.000
51.72904 495.000
51.74899 482.000
51.76894 514.000
51.78888 509.000
51.80883 500.000
51.82878 565.000
51.84873 510.000
51.86867 520.000
51.88862 507.000
51.90857 558.000
51.92851 496.000
51.94846 518.000
51.96841 565.000
51.98835 529.000
52.00830 508.000
52.02825 533.000
52.04820 506.000
52.06814 508.000
52.08809 526.000
52.10804 519.000
52.12798 536.000
52.14793 522.000
52.16788 490.000
52.18782 539.000
52.20777 517.000
52.22772 508.000
52.24767 468.000
52.26761 510.000
52.28756 521.000
52.30751 474.000
52.32745 517.000
52.34740 491.000
52.36735 484.000
52.38729 505.000
52.40724 499.000
52.42719 517.000
52.44713 484.000
52.46708 538.000
52.48703 514.000
52.50698 501.000
52.52692 532.000
52.54687 492.000
52.56682 542.000
52.58676 492.000
52.60671 518.000
52.62666 541.000
52.64660 527.000
52.66655 527.000
52.68650 539.000
52.70645 508.000
52.72639 538.000
52.74634 516.000
52.76629 498.000
52.78623 539.000
52.80618 559.000
52.82613 541.000
52.84607 570.000
52.86602 553.000
52.88597 538.000
52.90591 513.000
52.92586 559.000
52.94581 522.000
52.96576 588.000
52.98570 585.000
53.00565 629.000
53.02560 586.000
53.04554 552.000
53.06549 592.000
53.08544 633.000
53.10538 671.000
53.12533 659.000
53.14528 641.000
53.16523 625.000
53.18517 698.000
53.20512 646.000
53.22507 703.000
53.24501 679.000
53.26496 719.000
53.28491 677.000
53.30485 665.000
53.32480 659.000
53.34475 638.000
53.36469 598.000
53.38464 642.000
53.40459 626.000
53.42454 622.000
53.44448 634.000
53.46443 614.000
53.48438 587.000
53.50432 567.000
53.52427 571.000
53.54422 582.000
53.56416 581.000
53.58411 538.000
53.60406 553.000
53.62401 577.000
53.64395 619.000
53.66390 532.000
53.68385 583.000
53.70379 555.000
53.72374 552.000
53.74369 508.000
53.76363 526.000
53.78358 563.000
53.80353 525.000
53.82348 522.000
53.84342 522.000
53.86337 487.000
53.88332 492.000
53.90326 524.000
53.92321 541.000
53.94316 554.000
53.96310 536.000
53.98305 517.000
54.00300 484.000
54.02294 484.000
54.04289 454.000
54.06284 505.000
54.08279 535.000
54.10273 511.000
54.12268 520.000
54.14263 498.000
54.16257 556.000
54.18252 503.000
54.20247 486.000
54.22241 543.000
54.24236 516.000
54.26231 517.000
54.28226 516.000
54.30220 503.000
54.32215 529.000
54.34210 544.000
54.36204 492.000
54.38199 466.000
54.40194 487.000
54.42188 510.000
54.44183 500.000
54.46178 489.000
54.48172 533.000
54.50167 538.000
54.52162 504.000
54.54157 526.000
54.56151 519.000
54.58146 494.000
54.60141 493.000
54.62135 499.000
54.64130 553.000
54.66125 485.000
54.68119 501.000
54.70114 524.000
54.72109 490.000
54.74104 528.000
54.76098 504.000
54.78093 528.000
54.80088 528.000
54.82082 496.000
54.84077 553.000
54.86072 510.000
54.88066 546.000
54.90061 450.000
54.92056 517.000
54.94050 474.000
54.96045 474.000
54.98040 505.000
55.00035 486.000
55.02029 476.000
55.04024 497.000
55.06019 463.000
55.08013 496.000
55.10008 491.000
55.12003 507.000
55.13997 495.000
55.15992 482.000
55.17987 498.000
55.19982 519.000
55.21976 464.000
55.23971 527.000
55.25966 486.000
55.27960 470.000
55.29955 519.000
55.31950 487.000
55.33944 494.000
55.35939 493.000
55.37934 489.000
55.39929 475.000
55.41923 498.000
55.43918 463.000
55.45913 504.000
55.47907 487.000
55.49902 509.000
55.51897 489.000
55.53891 527.000
55.55886 496.000
55.57881 497.000
55.59875 503.000
55.61870 514.000
55.63865 487.000
55.65860 523.000
55.67854 494.000
55.69849 488.000
55.71844 483.000
55.73838 515.000
55.75833 485.000
55.77828 517.000
55.79822 527.000
55.81817 473.000
55.83812 509.000
55.85807 506.000
55.87801 485.000
55.89796 532.000
55.91791 490.000
55.93785 452.000
55.95780 503.000
55.97775 503.000
55.99769 523.000
56.01764 496.000
56.03759 538.000
56.05753 503.000
56.07748 478.000
56.09743 488.000
56.11738 493.000
56.13732 509.000
56.15727 490.000
56.17722 517.000
56.19716 521.000
56.21711 509.000
56.23706 506.000
56.25700 515.000
56.27695 525.000
56.29690 558.000
56.31685 504.000
56.33679 524.000
56.35674 521.000
56.37669 504.000
56.39663 515.000
56.41658 516.000
56.43653 493.000
56.45647 505.000
56.47642 494.000
56.49637 518.000
56.51631 481.000
56.53626 555.000
56.55621 492.000
56.57616 539.000
56.59610 527.000
56.61605 478.000
56.63600 504.000
56.65594 515.000
56.67589 501.000
56.69584 565.000
56.71578 534.000
56.73573 499.000
56.75568 525.000
56.77563 548.000
56.79557 493.000
56.81552 516.000
56.83547 510.000
56.85541 530.000
56.87536 540.000
56.89531 548.000
56.91525 520.000
56.93520 571.000
56.95515 523.000
56.97510 551.000
56.99504 545.000
57.01499 517.000
57.03494 568.000
57.05488 558.000
57.07483 522.000
57.09478 553.000
57.11472 598.000
57.13467 585.000
57.15462 612.000
57.17456 637.000
57.19451 631.000
57.21446 620.000
57.23441 686.000
57.25435 663.000
57.27430 656.000
57.29425 647.000
57.31419 597.000
57.33414 631.000
57.35409 568.000
57.37403 619.000
57.39398 544.000
57.41393 582.000
57.43388 581.000
57.45382 541.000
57.47377 549.000
57.49372 557.000
57.51366 529.000
57.53361 515.000
57.55356 529.000
57.57350 578.000
57.59345 534.000
57.61340 488.000
57.63334 551.000
57.65329 541.000
57.67324 527.000
57.69319 525.000
57.71313 559.000
57.73308 610.000
57.75303 564.000
57.77297 593.000
57.79292 558.000
57.81287 582.000
57.83281 583.000
57.85276 622.000
57.87271 620.000
57.89266 569.000
57.91260 572.000
57.93255 613.000
57.95250 691.000
57.97244 684.000
57.99239 701.000
58.01234 673.000
58.03228 765.000
58.05223 731.000
58.07218 729.000
58.09212 735.000
58.11207 802.000
58.13202 848.000
58.15197 853.000
58.17191 860.000
58.19186 872.000
58.21181 878.000
58.23175 818.000
58.25170 829.000
58.27165 794.000
58.29159 766.000
58.31154 748.000
58.33149 723.000
58.35144 715.000
58.37138 715.000
58.39133 634.000
58.41128 637.000
58.43122 633.000
58.45117 560.000
58.47112 605.000
58.49106 598.000
58.51101 577.000
58.53096 590.000
58.55090 548.000
58.57085 529.000
58.59080 476.000
58.61075 555.000
58.63069 562.000
58.65064 506.000
58.67059 519.000
58.69053 529.000
58.71048 518.000
58.73043 520.000
58.75037 518.000
58.77032 497.000
58.79027 528.000
58.81022 495.000
58.83016 527.000
58.85011 492.000
58.87006 520.000
58.89000 542.000
58.90995 485.000
58.92990 553.000
58.94984 523.000
58.96979 506.000
58.98974 453.000
59.00969 484.000
59.02963 504.000
59.04958 522.000
59.06953 506.000
59.08947 520.000
59.10942 528.000
59.12937 535.000
59.14931 477.000
59.16926 539.000
59.18921 509.000
59.20915 503.000
59.22910 494.000
59.24905 500.000
59.26900 494.000
59.28894 527.000
59.30889 477.000
59.32884 462.000
59.34878 537.000
59.36873 540.000
59.38868 494.000
59.40862 482.000
59.42857 517.000
59.44852 528.000
59.46847 503.000
59.48841 512.000
59.50836 506.000
59.52831 464.000
59.54825 489.000
59.56820 515.000
59.58815 482.000
59.60809 506.000
59.62804 486.000
59.64799 532.000
59.66793 535.000
59.68788 518.000
59.70783 554.000
59.72778 539.000
59.74772 545.000
59.76767 522.000
59.78762 484.000
59.80756 516.000
59.82751 560.000
59.84746 530.000
59.86740 511.000
59.88735 502.000
59.90730 505.000
59.92725 490.000
59.94719 519.000
59.96714 507.000
59.98709 501.000
60.00703 500.000
60.02698 510.000
60.04693 552.000
60.06687 526.000
60.08682 523.000
60.10677 553.000
60.12671 516.000
60.14666 520.000
60.16661 535.000
60.18656 489.000
60.20650 497.000
60.22645 509.000
60.24640 535.000
60.26634 520.000
60.28629 487.000
60.30624 540.000
60.32618 531.000
60.34613 523.000
60.36608 518.000
60.38603 543.000
60.40597 524.000
60.42592 542.000
60.44587 494.000
60.46581 541.000
60.48576 514.000
60.50571 545.000
60.52565 509.000
60.54560 515.000
60.56555 509.000
60.58550 537.000
60.60544 521.000
60.62539 487.000
60.64534 512.000
60.66528 485.000
60.68523 504.000
60.70518 541.000
60.72512 482.000
60.74507 520.000
60.76502 495.000
60.78496 540.000
60.80491 548.000
60.82486 540.000
60.84481 510.000
60.86475 583.000
60.88470 553.000
60.90465 524.000
60.92459 541.000
60.94454 551.000
60.96449 539.000
60.98443 603.000
61.00438 547.000
61.02433 563.000
61.04428 578.000
61.06422 561.000
61.08417 621.000
61.10412 590.000
61.12406 598.000
61.14401 676.000
61.16396 677.000
61.18390 645.000
61.20385 657.000
61.22380 671.000
61.24374 688.000
61.26369 682.000
61.28364 749.000
61.30359 786.000
61.32353 786.000
61.34348 801.000
61.36343 877.000
61.38337 901.000
61.40332 880.000
61.42327 966.000
61.44321 973.000
61.46316 945.000
61.48311 1120.000
61.50306 1065.000
61.52300 1043.000
61.54295 1000.000
61.56290 967.000
61.58284 925.000
61.60279 907.000
61.62274 908.000
61.64268 864.000
61.66263 819.000
61.68258 861.000
61.70252 803.000
61.72247 804.000
61.74242 704.000
61.76237 752.000
61.78231 717.000
61.80226 709.000
61.82221 734.000
61.84215 725.000
61.86210 724.000
61.88205 762.000
61.90199 711.000
61.92194 744.000
61.94189 736.000
61.96184 734.000
61.98178 693.000
62.00173 734.000
62.02168 726.000
62.04162 698.000
62.06157 684.000
62.08152 676.000
62.10146 676.000
62.12141 636.000
62.14136 658.000
62.16131 632.000
62.18125 680.000
62.20120 648.000
62.22115 605.000
62.24109 598.000
62.26104 615.000
62.28099 604.000
62.30093 621.000
62.32088 603.000
62.34083 624.000
62.36077 613.000
62.38072 640.000
62.40067 647.000
62.42062 689.000
62.44056 639.000
62.46051 665.000
62.48046 661.000
62.50040 703.000
62.52035 703.000
62.54030 698.000
62.56024 715.000
62.58019 707.000
62.60014 702.000
62.62009 715.000
62.64003 701.000
62.65998 774.000
62.67993 771.000
62.69987 707.000
62.71982 711.000
62.73977 750.000
62.75971 748.000
62.77966 732.000
62.79961 740.000
62.81955 743.000
62.83950 735.000
62.85945 755.000
62.87940 758.000
62.89934 695.000
62.91929 680.000
62.93924 657.000
62.95918 677.000
62.97913 688.000
62.99908 635.000
63.01902 609.000
63.03897 652.000
63.05892 627.000
63.07887 601.000
63.09881 624.000
63.11876 559.000
63.13871 557.000
63.15865 589.000
63.17860 553.000
63.19855 519.000
63.21849 579.000
63.23844 542.000
63.25839 494.000
63.27833 537.000
63.29828 523.000
63.31823 493.000
63.33818 539.000
63.35812 489.000
63.37807 497.000
63.39802 494.000
63.41796 528.000
63.43791 540.000
63.45786 522.000
63.47780 475.000
63.49775 514.000
63.51770 522.000
63.53765 472.000
63.55759 495.000
63.57754 533.000
63.59749 498.000
63.61743 501.000
63.63738 523.000
63.65733 544.000
63.67727 550.000
63.69722 535.000
63.71717 518.000
63.73712 530.000
63.75706 498.000
63.77701 526.000
63.79696 533.000
63.81690 554.000
63.83685 519.000
63.85680 540.000
63.87674 561.000
63.89669 546.000
63.91664 552.000
63.93658 533.000
63.95653 550.000
63.97648 563.000
63.99643 602.000
64.01637 590.000
64.03632 572.000
64.05627 587.000
64.07621 598.000
64.09616 583.000
64.11611 635.000
64.13605 575.000
64.15600 601.000
64.17595 607.000
64.19590 572.000
64.21584 615.000
64.23579 606.000
64.25574 602.000
64.27568 600.000
64.29563 624.000
64.31558 574.000
64.33552 570.000
64.35547 626.000
64.37542 596.000
64.39536 639.000
64.41531 563.000
64.43526 626.000
64.45521 590.000
64.47515 548.000
64.49510 568.000
64.51505 573.000
64.53499 531.000
64.55494 537.000
64.57489 544.000
64.59483 550.000
64.61478 540.000
64.63473 547.000
64.65468 551.000
64.67462 506.000
64.69457 551.000
64.71452 534.000
64.73446 570.000
64.75441 542.000
64.77436 549.000
64.79430 531.000
64.81425 546.000
64.83420 575.000
64.85414 543.000
64.87409 529.000
64.89404 590.000
64.91399 547.000
64.93393 565.000
64.95388 527.000
64.97383 606.000
64.99377 539.000
65.01372 541.000
65.03367 538.000
65.05361 558.000
65.07356 536.000
65.09351 577.000
65.11346 579.000
65.13340 585.000
65.15335 561.000
65.17330 579.000
65.19324 592.000
65.21319 561.000
65.23314 588.000
65.25308 642.000
65.27303 653.000
65.29298 625.000
65.31293 660.000
65.33287 649.000
65.35282 656.000
65.37277 646.000
65.39271 646.000
65.41266 723.000
65.43261 701.000
65.45255 705.000
65.47250 740.000
65.49245 752.000
65.51239 783.000
65.53234 746.000
65.55229 814.000
65.57224 777.000
65.59218 825.000
65.61213 845.000
65.63208 807.000
65.65202 853.000
65.67197 833.000
65.69192 757.000
65.71186 814.000
65.73181 817.000
65.75176 803.000
65.77171 733.000
65.79165 754.000
65.81160 719.000
65.83155 689.000
65.85149 723.000
65.87144 695.000
65.89139 710.000
65.91133 690.000
65.93128 671.000
65.95123 709.000
65.97117 653.000
65.99112 659.000
66.01107 712.000
66.03102 706.000
66.05096 728.000
66.07091 694.000
66.09086 729.000
66.11080 733.000
66.13075 759.000
66.15070 742.000
66.17064 841.000
66.19059 873.000
66.21054 832.000
66.23049 889.000
66.25043 877.000
66.27038 978.000
66.29033 907.000
66.31027 918.000
66.33022 929.000
66.35017 901.000
66.37011 877.000
66.39006 892.000
66.41001 930.000
66.42995 871.000
66.44990 806.000
66.46985 820.000
66.48980 784.000
66.50974 837.000
66.52969 809.000
66.54964 792.000
66.56958 771.000
66.58953 691.000
66.60948 722.000
66.62942 675.000
66.64937 625.000
66.66932 686.000
66.68927 647.000
66.70921 664.000
66.72916 653.000
66.74911 593.000
66.76905 660.000
66.78900 630.000
66.80895 601.000
66.82889 623.000
66.84884 575.000
66.86879 617.000
66.88874 630.000
66.90868 588.000
66.92863 610.000
66.94858 586.000
66.96852 597.000
66.98847 541.000
67.00842 594.000
67.02836 537.000
67.04831 554.000
67.06826 539.000
67.08820 606.000
67.10815 538.000
67.12810 563.000
67.14805 571.000
67.16799 574.000
67.18794 569.000
67.20789 558.000
67.22783 553.000
67.24778 549.000
67.26773 573.000
67.28767 556.000
67.30762 607.000
67.32757 590.000
67.34752 577.000
67.36746 608.000
67.38741 578.000
67.40736 630.000
67.42730 606.000
67.44725 634.000
67.46720 637.000
67.48714 628.000
67.50709 617.000
67.52704 687.000
67.54698 650.000
67.56693 627.000
67.58688 715.000
67.60683 748.000
67.62677 732.000
67.64672 806.000
67.66667 798.000
67.68661 861.000
67.70656 869.000
67.72651 851.000
67.74645 908.000
67.76640 888.000
67.78635 887.000
67.80630 935.000
67.82624 900.000
67.84619 920.000
67.86614 968.000
67.88608 967.000
67.90603 1002.000
67.92598 989.000
67.94592 955.000
67.96587 952.000
67.98582 926.000
68.00576 943.000
68.02571 865.000
68.04566 877.000
68.06561 847.000
68.08555 819.000
68.10550 789.000
68.12545 788.000
68.14539 762.000
68.16534 705.000
68.18529 696.000
68.20523 650.000
68.22518 664.000
68.24513 672.000
68.26508 654.000
68.28502 594.000
68.30497 597.000
68.32492 554.000
68.34486 601.000
68.36481 564.000
68.38476 554.000
68.40470 507.000
68.42465 546.000
68.44460 523.000
68.46455 550.000
68.48449 550.000
68.50444 506.000
68.52439 557.000
68.54433 521.000
68.56428 540.000
68.58423 513.000
68.60417 526.000
68.62412 551.000
68.64407 536.000
68.66401 541.000
68.68396 573.000
68.70391 477.000
68.72386 536.000
68.74380 553.000
68.76375 543.000
68.78370 483.000
68.80364 502.000
68.82359 519.000
68.84354 529.000
68.86348 500.000
68.88343 523.000
68.90338 557.000
68.92333 513.000
68.94327 529.000
68.96322 500.000
68.98317 525.000
69.00311 494.000
69.02306 539.000
69.04301 479.000
69.06295 507.000
69.08290 489.000
69.10285 519.000
69.12279 542.000
69.14274 489.000
69.16269 479.000
69.18264 506.000
69.20258 484.000
69.22253 470.000
69.24248 525.000
69.26242 492.000
69.28237 521.000
69.30232 545.000
69.32226 510.000
69.34221 555.000
69.36216 535.000
69.38211 492.000
69.40205 531.000
69.42200 521.000
69.44195 485.000
69.46189 475.000
69.48184 481.000
69.50179 508.000
69.52173 504.000
69.54168 479.000
69.56163 501.000
69.58157 515.000
69.60152 462.000
69.62147 491.000
69.64142 526.000
69.66136 487.000
69.68131 491.000
69.70126 503.000
69.72120 526.000
69.74115 511.000
69.76110 527.000
69.78104 470.000
69.80099 503.000
69.82094 512.000
69.84089 524.000
69.86083 463.000
69.88078 492.000
69.90073 531.000
69.92067 465.000
69.94062 497.000
69.96057 524.000
69.98051 449.000
70.00046 524.000
70.02041 508.000
70.04035 467.000
70.06030 527.000
70.08025 518.000
70.10020 474.000
70.12014 514.000
70.14009 473.000
70.16004 493.000
70.17998 494.000
70.19993 507.000
70.21988 500.000
70.23982 483.000
70.25977 492.000
70.27972 525.000
70.29967 494.000
70.31961 512.000
70.33956 485.000
70.35951 475.000
70.37945 498.000
70.39940 502.000
70.41935 516.000
70.43929 502.000
70.45924 497.000
70.47919 515.000
70.49914 489.000
70.51908 482.000
70.53903 475.000
70.55898 519.000
70.57892 497.000
70.59887 464.000
70.61882 511.000
70.63876 478.000
70.65871 526.000
70.67866 488.000
70.69860 451.000
70.71855 490.000
70.73850 511.000
70.75845 517.000
70.77839 487.000
70.79834 507.000
70.81829 524.000
70.83823 485.000
70.85818 474.000
70.87813 509.000
70.89807 510.000
70.91802 530.000
70.93797 508.000
70.95792 506.000
70.97786 546.000
70.99781 516.000
71.01776 495.000
71.03770 518.000
71.05765 471.000
71.07760 533.000
71.09754 515.000
71.11749 490.000
71.13744 528.000
71.15738 531.000
71.17733 489.000
71.19728 482.000
71.21723 539.000
71.23717 502.000
71.25712 493.000
71.27707 495.000
71.29701 507.000
71.31696 527.000
71.33691 505.000
71.35685 521.000
71.37680 496.000
71.39675 488.000
71.41670 510.000
71.43664 494.000
71.45659 496.000
71.47654 503.000
71.49648 475.000
71.51643 477.000
71.53638 543.000
71.55632 506.000
71.57627 550.000
71.59622 530.000
71.61616 522.000
71.63611 536.000
71.65606 485.000
71.67601 490.000
71.69595 529.000
71.71590 514.000
71.73585 511.000
71.75579 522.000
71.77574 541.000
71.79569 471.000
71.81563 517.000
71.83558 553.000
71.85553 525.000
71.87548 547.000
71.89542 580.000
71.91537 508.000
71.93532 542.000
71.95526 541.000
71.97521 552.000
71.99516 490.000
72.01510 567.000
72.03505 545.000
72.05500 582.000
72.07495 592.000
72.09489 586.000
72.11484 561.000
72.13479 587.000
72.15473 578.000
72.17468 542.000
72.19463 620.000
72.21457 646.000
72.23452 666.000
72.25447 617.000
72.27441 661.000
72.29436 665.000
72.31431 651.000
72.33426 724.000
72.35420 673.000
72.37415 659.000
72.39410 683.000
72.41404 658.000
72.43399 626.000
72.45394 661.000
72.47388 603.000
72.49383 600.000
72.51378 664.000
72.53373 591.000
72.55367 572.000
72.57362 622.000
72.59357 646.000
72.61351 569.000
72.63346 587.000
72.65341 566.000
72.67335 544.000
72.69330 566.000
72.71325 533.000
72.73319 533.000
72.75314 530.000
72.77309 526.000
72.79304 566.000
72.81298 515.000
72.83293 502.000
72.85288 546.000
72.87282 530.000
72.89277 500.000
72.91272 544.000
72.93266 561.000
72.95261 534.000
72.97256 513.000
72.99251 536.000
73.01245 555.000
73.03240 546.000
73.05235 547.000
73.07229 536.000
73.09224 478.000
73.11219 519.000
73.13213 531.000
73.15208 507.000
73.17203 492.000
73.19197 533.000
73.21192 536.000
73.23187 518.000
73.25182 508.000
73.27176 532.000
73.29171 559.000
73.31166 585.000
73.33160 516.000
73.35155 587.000
73.37150 517.000
73.39144 546.000
73.41139 526.000
73.43134 543.000
73.45129 557.000
73.47123 502.000
73.49118 553.000
73.51113 543.000
73.53107 578.000
73.55102 567.000
73.57097 509.000
73.59091 505.000
73.61086 527.000
73.63081 551.000
73.65076 524.000
73.67070 506.000
73.69065 551.000
73.71060 532.000
73.73054 473.000
73.75049 498.000
73.77044 514.000
73.79038 489.000
73.81033 496.000
73.83028 517.000
73.85022 541.000
73.87017 498.000
73.89012 517.000
73.91007 515.000
73.93001 517.000
73.94996 507.000
73.96991 508.000
73.98985 529.000
74.00980 512.000
74.02975 540.000
74.04969 508.000
74.06964 531.000
74.08959 510.000
74.10954 511.000
74.12948 550.000
74.14943 541.000
74.16938 498.000
74.18932 522.000
74.20927 513.000
74.22922 503.000
74.24916 556.000
74.26911 552.000
74.28906 499.000
74.30900 565.000
74.32895 538.000
74.34890 565.000
74.36885 530.000
74.38879 534.000
74.40874 573.000
74.42869 547.000
74.44863 559.000
74.46858 578.000
74.48853 579.000
74.50847 544.000
74.52842 538.000
74.54837 572.000
74.56832 570.000
74.58826 569.000
74.60821 613.000
74.62816 553.000
74.64810 558.000
74.66805 558.000
74.68800 620.000
74.70794 604.000
74.72789 622.000
74.74784 647.000
74.76778 681.000
74.78773 665.000
74.80768 648.000
74.82763 627.000
74.84757 722.000
74.86752 685.000
74.88747 727.000
74.90741 706.000
74.92736 746.000
74.94731 760.000
74.96725 782.000
74.98720 685.000
75.00715 734.000
75.02710 748.000
75.04704 687.000
75.06699 740.000
75.08694 789.000
75.10688 762.000
75.12683 764.000
75.14678 763.000
75.16672 777.000
75.18667 777.000
75.20662 807.000
75.22657 696.000
75.24651 667.000
75.26646 693.000
75.28641 700.000
75.30635 641.000
75.32630 670.000
75.34625 641.000
75.36619 632.000
75.38614 635.000
75.40609 606.000
75.42603 576.000
75.44598 600.000
75.46593 584.000
75.48588 615.000
75.50582 580.000
75.52577 563.000
75.54572 556.000
75.56566 514.000
75.58561 570.000
75.60556 537.000
75.62550 580.000
75.64545 530.000
75.66540 541.000
75.68535 546.000
75.70529 576.000
75.72524 551.000
75.74519 490.000
75.76513 537.000
75.78508 506.000
75.80503 548.000
75.82497 513.000
75.84492 552.000
75.86487 550.000
75.88481 499.000
75.90476 516.000
75.92471 499.000
75.94466 524.000
75.96460 501.000
75.98455 506.000
76.00450 477.000
76.02444 545.000
76.04439 537.000
76.06434 511.000
76.08428 503.000
76.10423 515.000
76.12418 489.000
76.14413 488.000
76.16407 428.000
76.18402 505.000
76.20397 528.000
76.22391 524.000
76.24386 481.000
76.26381 540.000
76.28375 485.000
76.30370 497.000
76.32365 500.000
76.34359 525.000
76.36354 510.000
76.38349 461.000
76.40344 502.000
76.42338 476.000
76.44333 477.000
76.46328 498.000
76.48322 502.000
76.50317 508.000
76.52312 542.000
76.54306 475.000
76.56301 540.000
76.58296 470.000
76.60291 502.000
76.62285 481.000
76.64280 495.000
76.66275 492.000
76.68269 471.000
76.70264 494.000
76.72259 503.000
76.74253 506.000
76.76248 507.000
76.78243 537.000
76.80238 471.000
76.82232 505.000
76.84227 479.000
76.86222 506.000
76.88216 512.000
76.90211 513.000
76.92206 483.000
76.94200 505.000
76.96195 500.000
76.98190 509.000
77.00184 473.000
77.02179 509.000
77.04174 488.000
77.06169 511.000
77.08163 482.000
77.10158 496.000
77.12153 496.000
77.14147 504.000
77.16142 491.000
77.18137 507.000
77.20131 507.000
77.22126 477.000
77.24121 500.000
77.26116 493.000
77.28110 513.000
77.30105 510.000
77.32100 461.000
77.34094 515.000
77.36089 550.000
77.38084 496.000
77.40078 482.000
77.42073 468.000
77.44068 524.000
77.46062 493.000
77.48057 466.000
77.50052 499.000
77.52047 489.000
77.54041 479.000
77.56036 535.000
77.58031 501.000
77.60025 491.000
77.62020 505.000
77.64015 524.000
77.66009 482.000
77.68004 500.000
77.69999 499.000
77.71994 519.000
77.73988 537.000
77.75983 568.000
77.77978 527.000
77.79972 500.000
77.81967 560.000
77.83962 551.000
77.85956 523.000
77.87951 528.000
77.89946 504.000
77.91940 586.000
77.93935 517.000
77.95930 521.000
77.97925 531.000
77.99919 525.000
78.01914 545.000
78.03909 532.000
78.05903 547.000
78.07898 528.000
78.09893 549.000
78.11887 546.000
78.13882 570.000
78.15877 501.000
78.17872 522.000
78.19866 540.000
78.21861 539.000
78.23856 607.000
78.25850 543.000
78.27845 573.000
78.29840 541.000
78.31834 526.000
78.33829 518.000
78.35824 511.000
78.37819 533.000
78.39813 530.000
78.41808 520.000
78.43803 525.000
78.45797 563.000
78.47792 547.000
78.49787 511.000
78.51781 480.000
78.53776 528.000
78.55771 490.000
78.57765 507.000
78.59760 497.000
78.61755 539.000
78.63750 482.000
78.65744 533.000
78.67739 483.000
78.69734 479.000
78.71728 517.000
78.73723 533.000
78.75718 523.000
78.77712 500.000
78.79707 542.000
78.81702 532.000
78.83697 537.000
78.85691 515.000
78.87686 500.000
78.89681 582.000
78.91675 554.000
78.93670 543.000
78.95665 475.000
78.97659 518.000
78.99654 548.000
79.01649 577.000
79.03643 519.000
79.05638 531.000
79.07633 557.000
79.09628 550.000
79.11622 502.000
79.13617 493.000
79.15612 531.000
79.17606 566.000
79.19601 522.000
79.21596 529.000
79.23590 543.000
79.25585 565.000
79.27580 513.000
79.29575 560.000
79.31569 514.000
79.33564 546.000
79.35559 537.000
79.37553 567.000
79.39548 506.000
79.41543 502.000
79.43537 528.000
79.45532 536.000
79.47527 493.000
79.49521 514.000
79.51516 520.000
79.53511 510.000
79.55506 513.000
79.57500 529.000
79.59495 499.000
79.61490 526.000
79.63484 484.000
79.65479 526.000
79.67474 494.000
79.69468 507.000
79.71463 477.000
79.73458 496.000
79.75453 513.000
79.77447 472.000
79.79442 520.000
79.81437 489.000
79.83431 475.000
79.85426 520.000
79.87421 525.000
79.89415 497.000
79.91410 488.000
79.93405 504.000
79.95399 482.000
79.97394 524.000
79.99389 497.000
80.01384 525.000
80.03378 504.000
80.05373 501.000
80.07368 541.000
80.09362 508.000
80.11357 554.000
80.13352 554.000
80.15346 514.000
80.17341 551.000
80.19336 508.000
80.21331 529.000
80.23325 566.000
80.25320 500.000
80.27315 582.000
80.29309 542.000
80.31304 529.000
80.33299 497.000
80.35293 558.000
80.37288 539.000
80.39283 514.000
80.41278 557.000
80.43272 520.000
80.45267 531.000
80.47262 555.000
80.49256 542.000
80.51251 534.000
80.53246 459.000
80.55240 485.000
80.57235 535.000
80.59230 522.000
80.61224 523.000
80.63219 524.000
80.65214 515.000
80.67209 558.000
80.69203 531.000
80.71198 542.000
80.73193 504.000
80.75187 519.000
80.77182 513.000
80.79177 484.000
80.81171 527.000
80.83166 482.000
80.85161 537.000
80.87156 482.000
80.89150 504.000
80.91145 505.000
80.93140 486.000
80.95134 512.000
80.97129 500.000
80.99124 513.000
81.01118 530.000
81.03113 493.000
81.05108 499.000
81.07102 470.000
81.09097 491.000
81.11092 502.000
81.13087 531.000
81.15081 509.000
81.17076 491.000
81.19071 495.000
81.21065 500.000
81.23060 471.000
81.25055 534.000
81.27049 508.000
81.29044 504.000
81.31039 519.000
81.33034 512.000
81.35028 512.000
81.37023 477.000
81.39018 489.000
81.41012 495.000
81.43007 504.000
81.45002 505.000
81.46996 492.000
81.48991 478.000
81.50986 507.000
81.52980 508.000
81.54975 521.000
81.56970 492.000
81.58965 502.000
81.60959 524.000
81.62954 504.000
81.64949 526.000
81.66943 509.000
81.68938 494.000
81.70933 499.000
81.72927 533.000
81.74922 478.000
81.76917 492.000
81.78912 505.000
81.80906 484.000
81.82901 490.000
81.84896 528.000
81.86890 467.000
81.88885 502.000
81.90880 561.000
81.92874 513.000
81.94869 493.000
81.96864 496.000
81.98859 526.000
82.00853 554.000
82.02848 511.000
82.04843 531.000
82.06837 496.000
82.08832 501.000
82.10827 511.000
82.12821 459.000
82.14816 523.000
82.16811 548.000
82.18805 566.000
82.20800 553.000
82.22795 562.000
82.24790 570.000
82.26784 553.000
82.28779 540.000
82.30774 597.000
82.32768 605.000
82.34763 603.000
82.36758 552.000
82.38752 596.000
82.40747 592.000
82.42742 587.000
82.44737 613.000
82.46731 616.000
82.48726 631.000
82.50721 600.000
82.52715 600.000
82.54710 596.000
82.56705 632.000
82.58699 609.000
82.60694 618.000
82.62689 609.000
82.64683 643.000
82.66678 636.000
82.68673 616.000
82.70668 576.000
82.72662 638.000
82.74657 635.000
82.76652 621.000
82.78646 627.000
82.80641 633.000
82.82636 605.000
82.84630 586.000
82.86625 633.000
82.88620 623.000
82.90615 580.000
82.92609 606.000
82.94604 586.000
82.96599 580.000
82.98593 601.000
83.00588 601.000
83.02583 601.000
83.04577 557.000
83.06572 583.000
83.08567 579.000
83.10561 565.000
83.12556 576.000
83.14551 553.000
83.16546 598.000
83.18540 554.000
83.20535 565.000
83.22530 576.000
83.24524 558.000
83.26519 546.000
83.28514 512.000
83.30508 533.000
83.32503 578.000
83.34498 525.000
83.36493 541.000
83.38487 552.000
83.40482 598.000
83.42477 518.000
83.44471 614.000
83.46466 533.000
83.48461 562.000
83.50455 595.000
83.52450 546.000
83.54445 606.000
83.56440 599.000
83.58434 592.000
83.60429 569.000
83.62424 570.000
83.64418 568.000
83.66413 582.000
83.68408 580.000
83.70402 622.000
83.72397 570.000
83.74392 557.000
83.76386 550.000
83.78381 593.000
83.80376 529.000
83.82371 561.000
83.84365 595.000
83.86360 562.000
83.88355 543.000
83.90349 557.000
83.92344 531.000
83.94339 589.000
83.96333 551.000
83.98328 529.000
84.00323 517.000
84.02318 553.000
84.04312 538.000
84.06307 553.000
84.08302 544.000
84.10296 528.000
84.12291 569.000
84.14286 533.000
84.16280 543.000
84.18275 563.000
84.20270 570.000
84.22264 580.000
84.24259 543.000
84.26254 504.000
84.28249 539.000
84.30243 521.000
84.32238 558.000
84.34233 538.000
84.36227 532.000
84.38222 555.000
84.40217 504.000
84.42211 509.000
84.44206 535.000
84.46201 551.000
84.48196 520.000
84.50190 531.000
84.52185 577.000
84.54180 538.000
84.56174 515.000
84.58169 531.000
84.60164 516.000
84.62158 537.000
84.64153 490.000
84.66148 526.000
84.68142 543.000
84.70137 500.000
84.72132 502.000
84.74127 492.000
84.76121 517.000
84.78116 511.000
84.80111 544.000
84.82105 545.000
84.84100 539.000
84.86095 506.000
84.88089 513.000
84.90084 532.000
84.92079 490.000
84.94074 518.000
84.96068 502.000
84.98063 507.000
85.00058 482.000
85.02052 555.000
85.04047 528.000
85.06042 482.000
85.08036 508.000
85.10031 516.000
85.12026 527.000
85.14021 521.000
85.16015 522.000
85.18010 517.000
85.20005 520.000
85.21999 513.000
85.23994 520.000
85.25989 507.000
85.27983 515.000
85.29978 492.000
85.31973 503.000
85.33967 477.000
85.35962 532.000
85.37957 502.000
85.39952 503.000
85.41946 530.000
85.43941 531.000
85.45936 506.000
85.47930 509.000
85.49925 475.000
85.51920 498.000
85.53914 484.000
85.55909 504.000
85.57904 470.000
85.59899 516.000
85.61893 486.000
85.63888 487.000
85.65883 500.000
85.67877 464.000
85.69872 514.000
85.71867 506.000
85.73861 544.000
85.75856 482.000
85.77851 496.000
85.79845 467.000
85.81840 474.000
85.83835 489.000
85.85830 457.000
85.87824 476.000
85.89819 470.000
85.91814 512.000
85.93808 542.000
85.95803 479.000
85.97798 529.000
85.99792 495.000
86.01787 505.000
86.03782 511.000
86.05777 509.000
86.07771 487.000
86.09766 492.000
86.11761 483.000
86.13755 497.000
86.15750 503.000
86.17745 486.000
86.19739 522.000
86.21734 500.000
86.23729 539.000
86.25723 456.000
86.27718 529.000
86.29713 516.000
86.31708 520.000
86.33702 510.000
86.35697 487.000
86.37692 486.000
86.39686 549.000
86.41681 540.000
86.43676 493.000
86.45670 510.000
86.47665 518.000
86.49660 517.000
86.51655 517.000
86.53649 512.000
86.55644 534.000
86.57639 469.000
86.59633 499.000
86.61628 517.000
86.63623 524.000
86.65617 524.000
86.67612 534.000
86.69607 519.000
86.71602 524.000
86.73596 507.000
86.75591 539.000
86.77586 463.000
86.79580 539.000
86.81575 514.000
86.83570 512.000
86.85564 525.000
86.87559 545.000
86.89554 519.000
86.91548 515.000
86.93543 561.000
86.95538 587.000
86.97533 559.000
86.99527 510.000
87.01522 497.000
87.03517 526.000
87.05511 495.000
87.07506 523.000
87.09501 528.000
87.11495 554.000
87.13490 528.000
87.15485 526.000
87.17480 527.000
87.19474 527.000
87.21469 543.000
87.23464 547.000
87.25458 501.000
87.27453 585.000
87.29448 509.000
87.31442 558.000
87.33437 535.000
87.35432 501.000
87.37426 553.000
87.39421 516.000
87.41416 562.000
87.43411 515.000
87.45405 574.000
87.47400 542.000
87.49395 542.000
87.51389 526.000
87.53384 529.000
87.55379 531.000
87.57373 553.000
87.59368 528.000
87.61363 491.000
87.63358 524.000
87.65352 491.000
87.67347 508.000
87.69342 518.000
87.71336 516.000
87.73331 521.000
87.75326 494.000
87.77320 489.000
87.79315 480.000
87.81310 521.000
87.83304 483.000
87.85299 496.000
87.87294 507.000
87.89289 465.000
87.91283 511.000
87.93278 476.000
87.95273 483.000
87.97267 472.000
87.99262 502.000
88.01257 509.000
88.03251 502.000
88.05246 479.000
88.07241 482.000
88.09236 557.000
88.11230 491.000
88.13225 517.000
88.15220 526.000
88.17214 534.000
88.19209 480.000
88.21204 493.000
88.23198 474.000
88.25193 500.000
88.27188 485.000
88.29183 458.000
88.31177 489.000
88.33172 498.000
88.35167 533.000
88.37161 502.000
88.39156 498.000
88.41151 535.000
88.43145 564.000
88.45140 504.000
88.47135 531.000
88.49129 512.000
88.51124 552.000
88.53119 504.000
88.55114 523.000
88.57108 507.000
88.59103 546.000
88.61098 495.000
88.63092 525.000
88.65087 495.000
88.67082 523.000
88.69076 520.000
88.71071 555.000
88.73066 550.000
88.75061 521.000
88.77055 521.000
88.79050 526.000
88.81045 536.000
88.83039 564.000
88.85034 525.000
88.87029 500.000
88.89023 469.000
88.91018 529.000
88.93013 528.000
88.95007 509.000
88.97002 480.000
88.98997 519.000
89.00992 515.000
89.02986 526.000
89.04981 480.000
89.06976 525.000
89.08970 520.000
89.10965 540.000
89.12960 528.000
89.14954 552.000
89.16949 549.000
89.18944 554.000
89.20939 566.000
89.22933 562.000
89.24928 537.000
89.26923 551.000
89.28917 564.000
89.30912 574.000
89.32907 577.000
89.34901 618.000
89.36896 553.000
89.38891 581.000
89.40885 554.000
89.42880 605.000
89.44875 539.000
89.46870 545.000
89.48864 559.000
89.50859 534.000
89.52854 600.000
89.54848 569.000
89.56843 536.000
89.58838 586.000
89.60832 533.000
89.62827 568.000
89.64822 533.000
89.66817 588.000
89.68811 581.000
89.70806 615.000
89.72801 613.000
89.74795 590.000
89.76790 596.000
89.78785 588.000
89.80779 578.000
89.82774 532.000
89.84769 557.000
89.86764 655.000
89.88758 532.000
89.90753 585.000
89.92748 549.000
89.94742 521.000
89.96737 587.000
89.98732 575.000
90.00726 506.000
