10.00000 215.000
10.01995 229.000
10.03989 214.000
10.05984 215.000
10.07979 218.000
10.09973 203.000
10.11968 203.000
10.13963 207.000
10.15958 194.000
10.17952 203.000
10.19947 221.000
10.21942 218.000
10.23936 191.000
10.25931 223.000
10.27926 199.000
10.29920 224.000
10.31915 210.000
10.33910 234.000
10.35905 197.000
10.37899 208.000
10.39894 228.000
10.41889 193.000
10.43883 237.000
10.45878 206.000
10.47873 186.000
10.49867 245.000
10.51862 205.000
10.53857 229.000
10.55851 220.000
10.57846 196.000
10.59841 231.000
10.61836 209.000
10.63830 228.000
10.65825 196.000
10.67820 229.000
10.69814 257.000
10.71809 175.000
10.73804 204.000
10.75798 228.000
10.77793 206.000
10.79788 223.000
10.81783 251.000
10.83777 203.000
10.85772 211.000
10.87767 201.000
10.89761 232.000
10.91756 234.000
10.93751 216.000
10.95745 233.000
10.97740 208.000
10.99735 214.000
11.01730 210.000
11.03724 228.000
11.05719 177.000
11.07714 228.000
11.09708 210.000
11.11703 211.000
11.13698 222.000
11.15692 205.000
11.17687 198.000
11.19682 216.000
11.21676 213.000
11.23671 216.000
11.25666 206.000
11.27661 209.000
11.29655 217.000
11.31650 213.000
11.33645 213.000
11.35639 193.000
11.37634 231.000
11.39629 207.000
11.41623 214.000
11.43618 233.000
11.45613 251.000
11.47608 233.000
11.49602 214.000
11.51597 220.000
11.53592 222.000
11.55586 232.000
11.57581 241.000
11.59576 243.000
11.61570 238.000
11.63565 207.000
11.65560 239.000
11.67554 206.000
11.69549 216.000
11.71544 256.000
11.73539 230.000
11.75533 253.000
11.77528 235.000
11.79523 223.000
11.81517 220.000
11.83512 217.000
11.85507 201.000
11.87501 248.000
11.89496 242.000
11.91491 193.000
11.93486 228.000
11.95480 230.000
11.97475 224.000
11.99470 210.000
12.01464 227.000
12.03459 226.000
12.05454 227.000
12.07448 223.000
12.09443 208.000
12.11438 208.000
12.13432 246.000
12.15427 217.000
12.17422 244.000
12.19417 196.000
12.21411 243.000
12.23406 238.000
12.25401 234.000
12.27395 220.000
12.29390 232.000
12.31385 228.000
12.33379 241.000
12.35374 250.000
12.37369 247.000
12.39364 219.000
12.41358 226.000
12.43353 221.000
12.45348 223.000
12.47342 248.000
12.49337 231.000
12.51332 247.000
12.53326 234.000
12.55321 206.000
12.57316 236.000
12.59311 258.000
12.61305 225.000
12.63300 260.000
12.65295 227.000
12.67289 250.000
12.69284 226.000
12.71279 237.000
12.73273 232.000
12.75268 235.000
12.77263 238.000
12.79257 242.000
12.81252 253.000
12.83247 228.000
12.85242 244.000
12.87236 233.000
12.89231 249.000
12.91226 229.000
12.93220 224.000
12.95215 227.000
12.97210 239.000
12.99204 210.000
13.01199 241.000
13.03194 249.000
13.05189 254.000
13.07183 233.000
13.09178 234.000
13.11173 252.000
13.13167 240.000
13.15162 224.000
13.17157 248.000
13.19151 253.000
13.21146 207.000
13.23141 219.000
13.25135 225.000
13.27130 244.000
13.29125 235.000
13.31120 217.000
13.33114 231.000
13.35109 237.000
13.37104 229.000
13.39098 229.000
13.41093 212.000
13.43088 251.000
13.45082 262.000
13.47077 247.000
13.49072 235.000
13.51067 249.000
13.53061 248.000
13.55056 228.000
13.57051 230.000
13.59045 219.000
13.61040 245.000
13.63035 255.000
13.65029 227.000
13.67024 232.000
13.69019 230.000
13.71013 237.000
13.73008 245.000
13.75003 228.000
13.76998 232.000
13.78992 233.000
13.80987 232.000
13.82982 224.000
13.84976 237.000
13.86971 231.000
13.88966 212.000
13.90960 235.000
13.92955 254.000
13.94950 235.000
13.96945 259.000
13.98939 254.000
14.00934 244.000
14.02929 240.000
14.04923 224.000
14.06918 223.000
14.08913 255.000
14.10907 236.000
14.12902 211.000
14.14897 221.000
14.16892 244.000
14.18886 208.000
14.20881 233.000
14.22876 230.000
14.24870 217.000
14.26865 246.000
14.28860 250.000
14.30854 216.000
14.32849 247.000
14.34844 260.000
14.36838 252.000
14.38833 237.000
14.40828 268.000
14.42823 236.000
14.44817 233.000
14.46812 247.000
14.48807 267.000
14.50801 276.000
14.52796 240.000
14.54791 260.000
14.56785 272.000
14.58780 267.000
14.60775 280.000
14.62770 235.000
14.64764 265.000
14.66759 237.000
14.68754 238.000
14.70748 224.000
14.72743 262.000
14.74738 272.000
14.76732 255.000
14.78727 260.000
14.80722 258.000
14.82716 257.000
14.84711 229.000
14.86706 226.000
14.88701 246.000
14.90695 234.000
14.92690 224.000
14.94685 251.000
14.96679 254.000
14.98674 255.000
15.00669 247.000
15.02663 230.000
15.04658 244.000
15.06653 230.000
15.08648 248.000
15.10642 235.000
15.12637 222.000
15.14632 266.000
15.16626 240.000
15.18621 256.000
15.20616 255.000
15.22610 242.000
15.24605 233.000
15.26600 244.000
15.28594 225.000
15.30589 236.000
15.32584 232.000
15.34579 257.000
15.36573 239.000
15.38568 238.000
15.40563 243.000
15.42557 249.000
15.44552 235.000
15.46547 249.000
15.48541 255.000
15.50536 250.000
15.52531 243.000
15.54526 257.000
15.56520 273.000
15.58515 280.000
15.60510 291.000
15.62504 298.000
15.64499 350.000
15.66494 291.000
15.68488 268.000
15.70483 248.000
15.72478 238.000
15.74472 283.000
15.76467 225.000
15.78462 251.000
15.80457 263.000
15.82451 280.000
15.84446 223.000
15.86441 270.000
15.88435 258.000
15.90430 257.000
15.92425 239.000
15.94419 243.000
15.96414 269.000
15.98409 246.000
16.00404 229.000
16.02398 244.000
16.04393 246.000
16.06388 234.000
16.08382 255.000
16.10377 225.000
16.12372 271.000
16.14366 246.000
16.16361 217.000
16.18356 226.000
16.20351 272.000
16.22345 248.000
16.24340 216.000
16.26335 235.000
16.28329 252.000
16.30324 224.000
16.32319 255.000
16.34313 250.000
16.36308 260.000
16.38303 216.000
16.40297 262.000
16.42292 228.000
16.44287 240.000
16.46282 242.000
16.48276 264.000
16.50271 251.000
16.52266 243.000
16.54260 236.000
16.56255 238.000
16.58250 242.000
16.60244 243.000
16.62239 257.000
16.64234 247.000
16.66229 259.000
16.68223 244.000
16.70218 231.000
16.72213 248.000
16.74207 258.000
16.76202 269.000
16.78197 241.000
16.80191 265.000
16.82186 234.000
16.84181 230.000
16.86175 260.000
16.88170 262.000
16.90165 239.000
16.92160 253.000
16.94154 268.000
16.96149 223.000
16.98144 241.000
17.00138 234.000
17.02133 248.000
17.04128 262.000
17.06122 243.000
17.08117 259.000
17.10112 276.000
17.12107 249.000
17.14101 265.000
17.16096 270.000
17.18091 260.000
17.20085 280.000
17.22080 292.000
17.24075 330.000
17.26069 360.000
17.28064 413.000
17.30059 372.000
17.32053 392.000
17.34048 357.000
17.36043 310.000
17.38038 284.000
17.40032 299.000
17.42027 291.000
17.44022 252.000
17.46016 257.000
17.48011 240.000
17.50006 247.000
17.52000 230.000
17.53995 245.000
17.55990 214.000
17.57985 228.000
17.59979 235.000
17.61974 223.000
17.63969 233.000
17.65963 243.000
17.67958 245.000
17.69953 239.000
17.71947 237.000
17.73942 228.000
17.75937 246.000
17.77932 226.000
17.79926 266.000
17.81921 237.000
17.83916 207.000
17.85910 239.000
17.87905 255.000
17.89900 238.000
17.91894 243.000
17.93889 223.000
17.95884 226.000
17.97878 274.000
17.99873 246.000
18.01868 254.000
18.03863 230.000
18.05857 250.000
18.07852 219.000
18.09847 239.000
18.11841 255.000
18.13836 248.000
18.15831 249.000
18.17825 248.000
18.19820 255.000
18.21815 233.000
18.23810 281.000
18.25804 260.000
18.27799 234.000
18.29794 260.000
18.31788 267.000
18.33783 253.000
18.35778 251.000
18.37772 288.000
18.39767 281.000
18.41762 285.000
18.43756 264.000
18.45751 227.000
18.47746 258.000
18.49741 238.000
18.51735 249.000
18.53730 241.000
18.55725 234.000
18.57719 246.000
18.59714 234.000
18.61709 236.000
18.63703 251.000
18.65698 244.000
18.67693 231.000
18.69688 238.000
18.71682 290.000
18.73677 248.000
18.75672 261.000
18.77666 257.000
18.79661 262.000
18.81656 219.000
18.83650 205.000
18.85645 224.000
18.87640 239.000
18.89634 229.000
18.91629 224.000
18.93624 236.000
18.95619 247.000
18.97613 252.000
18.99608 248.000
19.01603 225.000
19.03597 264.000
19.05592 248.000
19.07587 230.000
19.09581 254.000
19.11576 224.000
19.13571 227.000
19.15566 246.000
19.17560 254.000
19.19555 236.000
19.21550 250.000
19.23544 248.000
19.25539 244.000
19.27534 255.000
19.29528 235.000
19.31523 247.000
19.33518 263.000
19.35513 222.000
19.37507 261.000
19.39502 247.000
19.41497 249.000
19.43491 236.000
19.45486 245.000
19.47481 274.000
19.49475 253.000
19.51470 238.000
19.53465 268.000
19.55459 243.000
19.57454 245.000
19.59449 253.000
19.61444 253.000
19.63438 253.000
19.65433 254.000
19.67428 240.000
19.69422 236.000
19.71417 252.000
19.73412 208.000
19.75406 229.000
19.77401 264.000
19.79396 228.000
19.81391 250.000
19.83385 234.000
19.85380 258.000
19.87375 232.000
19.89369 240.000
19.91364 229.000
19.93359 263.000
19.95353 242.000
19.97348 245.000
19.99343 284.000
20.01337 227.000
20.03332 259.000
20.05327 226.000
20.07322 245.000
20.09316 239.000
20.11311 225.000
20.13306 247.000
20.15300 233.000
20.17295 265.000
20.19290 235.000
20.21284 236.000
20.23279 247.000
20.25274 269.000
20.27269 196.000
20.29263 240.000
20.31258 235.000
20.33253 253.000
20.35247 258.000
20.37242 245.000
20.39237 226.000
20.41231 267.000
20.43226 244.000
20.45221 271.000
20.47215 250.000
20.49210 260.000
20.51205 244.000
20.53200 239.000
20.55194 265.000
20.57189 252.000
20.59184 242.000
20.61178 249.000
20.63173 260.000
20.65168 290.000
20.67162 286.000
20.69157 284.000
20.71152 275.000
20.73147 259.000
20.75141 285.000
20.77136 274.000
20.79131 280.000
20.81125 295.000
20.83120 318.000
20.85115 339.000
20.87109 367.000
20.89104 419.000
20.91099 514.000
20.93094 493.000
20.95088 540.000
20.97083 573.000
20.99078 539.000
21.01072 532.000
21.03067 439.000
21.05062 442.000
21.07056 383.000
21.09051 369.000
21.11046 375.000
21.13040 350.000
21.15035 296.000
21.17030 272.000
21.19025 300.000
21.21019 293.000
21.23014 252.000
21.25009 256.000
21.27003 262.000
21.28998 268.000
21.30993 238.000
21.32987 254.000
21.34982 260.000
21.36977 274.000
21.38972 256.000
21.40966 250.000
21.42961 273.000
21.44956 262.000
21.46950 214.000
21.48945 254.000
21.50940 262.000
21.52934 253.000
21.54929 252.000
21.56924 272.000
21.58918 244.000
21.60913 246.000
21.62908 252.000
21.64903 268.000
21.66897 245.000
21.68892 255.000
21.70887 251.000
21.72881 267.000
21.74876 249.000
21.76871 254.000
21.78865 255.000
21.80860 275.000
21.82855 249.000
21.84850 266.000
21.86844 259.000
21.88839 282.000
21.90834 262.000
21.92828 289.000
21.94823 257.000
21.96818 257.000
21.98812 278.000
22.00807 258.000
22.02802 261.000
22.04796 237.000
22.06791 242.000
22.08786 240.000
22.10781 282.000
22.12775 227.000
22.14770 271.000
22.16765 267.000
22.18759 254.000
22.20754 243.000
22.22749 259.000
22.24743 261.000
22.26738 243.000
22.28733 249.000
22.30728 236.000
22.32722 251.000
22.34717 278.000
22.36712 280.000
22.38706 246.000
22.40701 270.000
22.42696 251.000
22.44690 268.000
22.46685 265.000
22.48680 263.000
22.50675 244.000
22.52669 212.000
22.54664 251.000
22.56659 251.000
22.58653 250.000
22.60648 243.000
22.62643 256.000
22.64637 257.000
22.66632 248.000
22.68627 288.000
22.70621 266.000
22.72616 239.000
22.74611 277.000
22.76606 252.000
22.78600 282.000
22.80595 262.000
22.82590 259.000
22.84584 270.000
22.86579 247.000
22.88574 272.000
22.90568 253.000
22.92563 302.000
22.94558 236.000
22.96553 273.000
22.98547 272.000
23.00542 272.000
23.02537 276.000
23.04531 242.000
23.06526 285.000
23.08521 283.000
23.10515 265.000
23.12510 257.000
23.14505 253.000
23.16499 254.000
23.18494 247.000
23.20489 228.000
23.22484 231.000
23.24478 238.000
23.26473 250.000
23.28468 279.000
23.30462 254.000
23.32457 248.000
23.34452 247.000
23.36446 243.000
23.38441 258.000
23.40436 258.000
23.42431 264.000
23.44425 243.000
23.46420 299.000
23.48415 247.000
23.50409 284.000
23.52404 271.000
23.54399 269.000
23.56393 260.000
23.58388 279.000
23.60383 277.000
23.62377 250.000
23.64372 277.000
23.66367 251.000
23.68362 273.000
23.70356 304.000
23.72351 278.000
23.74346 251.000
23.76340 254.000
23.78335 251.000
23.80330 275.000
23.82324 268.000
23.84319 267.000
23.86314 248.000
23.88309 258.000
23.90303 264.000
23.92298 271.000
23.94293 268.000
23.96287 268.000
23.98282 240.000
24.00277 267.000
24.02271 265.000
24.04266 274.000
24.06261 269.000
24.08256 215.000
24.10250 275.000
24.12245 271.000
24.14240 268.000
24.16234 278.000
24.18229 309.000
24.20224 261.000
24.22218 235.000
24.24213 266.000
24.26208 256.000
24.28202 268.000
24.30197 255.000
24.32192 289.000
24.34187 291.000
24.36181 290.000
24.38176 276.000
24.40171 288.000
24.42165 295.000
24.44160 225.000
24.46155 256.000
24.48149 285.000
24.50144 282.000
24.52139 285.000
24.54134 270.000
24.56128 299.000
24.58123 270.000
24.60118 248.000
24.62112 248.000
24.64107 268.000
24.66102 283.000
24.68096 324.000
24.70091 258.000
24.72086 284.000
24.74080 281.000
24.76075 288.000
24.78070 282.000
24.80065 273.000
24.82059 258.000
24.84054 269.000
24.86049 283.000
24.88043 293.000
24.90038 261.000
24.92033 317.000
24.94027 283.000
24.96022 275.000
24.98017 280.000
25.00012 288.000
25.02006 297.000
25.04001 268.000
25.05996 294.000
25.07990 263.000
25.09985 296.000
25.11980 273.000
25.13974 292.000
25.15969 299.000
25.17964 290.000
25.19958 277.000
25.21953 261.000
25.23948 273.000
25.25943 267.000
25.27937 272.000
25.29932 299.000
25.31927 273.000
25.33921 276.000
25.35916 285.000
25.37911 271.000
25.39905 263.000
25.41900 259.000
25.43895 270.000
25.45890 286.000
25.47884 273.000
25.49879 276.000
25.51874 259.000
25.53868 294.000
25.55863 266.000
25.57858 291.000
25.59852 303.000
25.61847 255.000
25.63842 319.000
25.65837 251.000
25.67831 250.000
25.69826 273.000
25.71821 263.000
25.73815 304.000
25.75810 278.000
25.77805 256.000
25.79799 266.000
25.81794 282.000
25.83789 279.000
25.85783 286.000
25.87778 281.000
25.89773 298.000
25.91768 294.000
25.93762 299.000
25.95757 278.000
25.97752 286.000
25.99746 301.000
26.01741 274.000
26.03736 300.000
26.05730 284.000
26.07725 281.000
26.09720 285.000
26.11715 267.000
26.13709 296.000
26.15704 290.000
26.17699 325.000
26.19693 324.000
26.21688 279.000
26.23683 294.000
26.25677 291.000
26.27672 274.000
26.29667 278.000
26.31661 296.000
26.33656 283.000
26.35651 300.000
26.37646 295.000
26.39640 252.000
26.41635 285.000
26.43630 309.000
26.45624 255.000
26.47619 307.000
26.49614 267.000
26.51608 284.000
26.53603 290.000
26.55598 299.000
26.57593 288.000
26.59587 268.000
26.61582 275.000
26.63577 268.000
26.65571 296.000
26.67566 270.000
26.69561 308.000
26.71555 292.000
26.73550 292.000
26.75545 297.000
26.77539 305.000
26.79534 270.000
26.81529 265.000
26.83524 261.000
26.85518 297.000
26.87513 284.000
26.89508 311.000
26.91502 305.000
26.93497 330.000
26.95492 306.000
26.97486 281.000
26.99481 305.000
27.01476 302.000
27.03471 301.000
27.05465 314.000
27.07460 317.000
27.09455 315.000
27.11449 270.000
27.13444 295.000
27.15439 277.000
27.17433 302.000
27.19428 306.000
27.21423 279.000
27.23417 289.000
27.25412 277.000
27.27407 298.000
27.29402 297.000
27.31396 269.000
27.33391 348.000
27.35386 298.000
27.37380 306.000
27.39375 299.000
27.41370 282.000
27.43364 300.000
27.45359 318.000
27.47354 312.000
27.49349 284.000
27.51343 316.000
27.53338 298.000
27.55333 274.000
27.57327 293.000
27.59322 313.000
27.61317 315.000
27.63311 303.000
27.65306 263.000
27.67301 308.000
27.69296 304.000
27.71290 315.000
27.73285 290.000
27.75280 290.000
27.77274 331.000
27.79269 325.000
27.81264 299.000
27.83258 311.000
27.85253 271.000
27.87248 324.000
27.89242 324.000
27.91237 290.000
27.93232 296.000
27.95227 283.000
27.97221 305.000
27.99216 328.000
28.01211 314.000
28.03205 298.000
28.05200 331.000
28.07195 286.000
28.09189 308.000
28.11184 288.000
28.13179 299.000
28.15174 305.000
28.17168 305.000
28.19163 319.000
28.21158 334.000
28.23152 319.000
28.25147 330.000
28.27142 285.000
28.29136 309.000
28.31131 303.000
28.33126 308.000
28.35120 265.000
28.37115 348.000
28.39110 283.000
28.41105 295.000
28.43099 308.000
28.45094 311.000
28.47089 327.000
28.49083 299.000
28.51078 338.000
28.53073 299.000
28.55067 326.000
28.57062 324.000
28.59057 297.000
28.61052 281.000
28.63046 296.000
28.65041 326.000
28.67036 352.000
28.69030 292.000
28.71025 327.000
28.73020 290.000
28.75014 320.000
28.77009 289.000
28.79004 349.000
28.80998 319.000
28.82993 298.000
28.84988 294.000
28.86983 333.000
28.88977 330.000
28.90972 335.000
28.92967 349.000
28.94961 321.000
28.96956 332.000
28.98951 315.000
29.00945 312.000
29.02940 328.000
29.04935 290.000
29.06930 362.000
29.08924 297.000
29.10919 321.000
29.12914 296.000
29.14908 360.000
29.16903 324.000
29.18898 333.000
29.20892 325.000
29.22887 319.000
29.24882 344.000
29.26877 398.000
29.28871 365.000
29.30866 336.000
29.32861 403.000
29.34855 365.000
29.36850 368.000
29.38845 360.000
29.40839 365.000
29.42834 371.000
29.44829 356.000
29.46823 381.000
29.48818 352.000
29.50813 363.000
29.52808 354.000
29.54802 334.000
29.56797 330.000
29.58792 377.000
29.60786 366.000
29.62781 320.000
29.64776 338.000
29.66770 307.000
29.68765 376.000
29.70760 344.000
29.72755 301.000
29.74749 325.000
29.76744 303.000
29.78739 342.000
29.80733 312.000
29.82728 334.000
29.84723 347.000
29.86717 371.000
29.88712 380.000
29.90707 325.000
29.92701 296.000
29.94696 343.000
29.96691 358.000
29.98686 341.000
30.00680 320.000
30.02675 339.000
30.04670 334.000
30.06664 374.000
30.08659 325.000
30.10654 345.000
30.12648 341.000
30.14643 345.000
30.16638 357.000
30.18633 361.000
30.20627 392.000
30.22622 425.000
30.24617 395.000
30.26611 409.000
30.28606 386.000
30.30601 427.000
30.32595 388.000
30.34590 380.000
30.36585 379.000
30.38579 377.000
30.40574 333.000
30.42569 330.000
30.44564 320.000
30.46558 354.000
30.48553 316.000
30.50548 301.000
30.52542 325.000
30.54537 340.000
30.56532 338.000
30.58526 334.000
30.60521 331.000
30.62516 351.000
30.64511 300.000
30.66505 313.000
30.68500 334.000
30.70495 329.000
30.72489 353.000
30.74484 301.000
30.76479 337.000
30.78473 367.000
30.80468 314.000
30.82463 352.000
30.84458 302.000
30.86452 314.000
30.88447 324.000
30.90442 330.000
30.92436 335.000
30.94431 328.000
30.96426 304.000
30.98420 302.000
31.00415 300.000
31.02410 303.000
31.04404 335.000
31.06399 309.000
31.08394 336.000
31.10389 310.000
31.12383 293.000
31.14378 369.000
31.16373 307.000
31.18367 345.000
31.20362 327.000
31.22357 328.000
31.24351 354.000
31.26346 303.000
31.28341 345.000
31.30336 293.000
31.32330 350.000
31.34325 347.000
31.36320 343.000
31.38314 324.000
31.40309 336.000
31.42304 314.000
31.44298 317.000
31.46293 326.000
31.48288 339.000
31.50282 318.000
31.52277 299.000
31.54272 316.000
31.56267 342.000
31.58261 309.000
31.60256 326.000
31.62251 327.000
31.64245 316.000
31.66240 330.000
31.68235 314.000
31.70229 333.000
31.72224 317.000
31.74219 308.000
31.76214 327.000
31.78208 343.000
31.80203 330.000
31.82198 318.000
31.84192 343.000
31.86187 319.000
31.88182 348.000
31.90176 321.000
31.92171 320.000
31.94166 321.000
31.96160 295.000
31.98155 316.000
32.00150 327.000
32.02145 331.000
32.04139 346.000
32.06134 312.000
32.08129 295.000
32.10123 307.000
32.12118 304.000
32.14113 292.000
32.16107 315.000
32.18102 322.000
32.20097 328.000
32.22092 329.000
32.24086 334.000
32.26081 319.000
32.28076 324.000
32.30070 322.000
32.32065 328.000
32.34060 324.000
32.36054 309.000
32.38049 307.000
32.40044 329.000
32.42039 311.000
32.44033 301.000
32.46028 312.000
32.48023 299.000
32.50017 368.000
32.52012 310.000
32.54007 321.000
32.56001 324.000
32.57996 323.000
32.59991 319.000
32.61985 349.000
32.63980 326.000
32.65975 327.000
32.67970 335.000
32.69964 300.000
32.71959 307.000
32.73954 334.000
32.75948 337.000
32.77943 305.000
32.79938 303.000
32.81932 347.000
32.83927 311.000
32.85922 327.000
32.87917 315.000
32.89911 303.000
32.91906 334.000
32.93901 304.000
32.95895 346.000
32.97890 345.000
32.99885 333.000
33.01879 321.000
33.03874 326.000
33.05869 331.000
33.07863 300.000
33.09858 335.000
33.11853 329.000
33.13848 351.000
33.15842 338.000
33.17837 330.000
33.19832 297.000
33.21826 320.000
33.23821 302.000
33.25816 300.000
33.27810 321.000
33.29805 315.000
33.31800 287.000
33.33795 332.000
33.35789 319.000
33.37784 317.000
33.39779 313.000
33.41773 298.000
33.43768 295.000
33.45763 301.000
33.47757 302.000
33.49752 305.000
33.51747 307.000
33.53741 322.000
33.55736 329.000
33.57731 348.000
33.59726 333.000
33.61720 303.000
33.63715 326.000
33.65710 337.000
33.67704 303.000
33.69699 315.000
33.71694 327.000
33.73688 325.000
33.75683 288.000
33.77678 325.000
33.79673 336.000
33.81667 341.000
33.83662 333.000
33.85657 326.000
33.87651 333.000
33.89646 301.000
33.91641 320.000
33.93635 341.000
33.95630 314.000
33.97625 308.000
33.99620 347.000
34.01614 334.000
34.03609 369.000
34.05604 359.000
34.07598 357.000
34.09593 349.000
34.11588 332.000
34.13582 362.000
34.15577 351.000
34.17572 359.000
34.19566 359.000
34.21561 378.000
34.23556 352.000
34.25551 346.000
34.27545 342.000
34.29540 391.000
34.31535 373.000
34.33529 403.000
34.35524 427.000
34.37519 385.000
34.39513 463.000
34.41508 423.000
34.43503 467.000
34.45498 493.000
34.47492 499.000
34.49487 556.000
34.51482 604.000
34.53476 569.000
34.55471 612.000
34.57466 633.000
34.59460 624.000
34.61455 586.000
34.63450 615.000
34.65444 560.000
34.67439 517.000
34.69434 514.000
34.71429 491.000
34.73423 496.000
34.75418 494.000
34.77413 461.000
34.79407 445.000
34.81402 447.000
34.83397 459.000
34.85391 506.000
34.87386 480.000
34.89381 444.000
34.91376 477.000
34.93370 421.000
34.95365 454.000
34.97360 481.000
34.99354 509.000
35.01349 534.000
35.03344 528.000
35.05338 547.000
35.07333 544.000
35.09328 516.000
35.11322 496.000
35.13317 546.000
35.15312 517.000
35.17307 430.000
35.19301 415.000
35.21296 423.000
35.23291 407.000
35.25285 402.000
35.27280 417.000
35.29275 392.000
35.31269 411.000
35.33264 406.000
35.35259 362.000
35.37254 388.000
35.39248 380.000
35.41243 391.000
35.43238 384.000
35.45232 412.000
35.47227 416.000
35.49222 400.000
35.51216 409.000
35.53211 463.000
35.55206 405.000
35.57201 483.000
35.59195 529.000
35.61190 544.000
35.63185 635.000
35.65179 707.000
35.67174 627.000
35.69169 626.000
35.71163 591.000
35.73158 616.000
35.75153 528.000
35.77147 487.000
35.79142 445.000
35.81137 417.000
35.83132 398.000
35.85126 413.000
35.87121 384.000
35.89116 408.000
35.91110 375.000
35.93105 359.000
35.95100 363.000
35.97094 357.000
35.99089 424.000
36.01084 407.000
36.03079 375.000
36.05073 414.000
36.07068 419.000
36.09063 434.000
36.11057 390.000
36.13052 431.000
36.15047 436.000
36.17041 485.000
36.19036 429.000
36.21031 501.000
36.23025 456.000
36.25020 499.000
36.27015 627.000
36.29010 656.000
36.31004 765.000
36.32999 782.000
36.34994 847.000
36.36988 766.000
36.38983 776.000
36.40978 756.000
36.42972 771.000
36.44967 749.000
36.46962 683.000
36.48957 721.000
36.50951 635.000
36.52946 625.000
36.54941 671.000
36.56935 674.000
36.58930 727.000
36.60925 766.000
36.62919 800.000
36.64914 942.000
36.66909 981.000
36.68903 1099.000
36.70898 1230.000
36.72893 1454.000
36.74888 1678.000
36.76882 1851.000
36.78877 2094.000
36.80872 2382.000
36.82866 2444.000
36.84861 2349.000
36.86856 2266.000
36.88850 2272.000
36.90845 2087.000
36.92840 1981.000
36.94835 1722.000
36.96829 1542.000
36.98824 1471.000
37.00819 1388.000
37.02813 1376.000
37.04808 1340.000
37.06803 1501.000
37.08797 1607.000
37.10792 1842.000
37.12787 1974.000
37.14781 2070.000
37.16776 1922.000
37.18771 1794.000
37.20766 1670.000
37.22760 1481.000
37.24755 1327.000
37.26750 1155.000
37.28744 902.000
37.30739 752.000
37.32734 638.000
37.34728 583.000
37.36723 485.000
37.38718 465.000
37.40713 482.000
37.42707 433.000
37.44702 419.000
37.46697 417.000
37.48691 415.000
37.50686 385.000
37.52681 366.000
37.54675 381.000
37.56670 356.000
37.58665 393.000
37.60660 413.000
37.62654 381.000
37.64649 368.000
37.66644 328.000
37.68638 357.000
37.70633 360.000
37.72628 326.000
37.74622 359.000
37.76617 376.000
37.78612 362.000
37.80606 344.000
37.82601 328.000
37.84596 341.000
37.86591 320.000
37.88585 332.000
37.90580 372.000
37.92575 341.000
37.94569 333.000
37.96564 347.000
37.98559 341.000
38.00553 340.000
38.02548 355.000
38.04543 368.000
38.06538 342.000
38.08532 331.000
38.10527 322.000
38.12522 345.000
38.14516 350.000
38.16511 344.000
38.18506 323.000
38.20500 311.000
38.22495 349.000
38.24490 311.000
38.26484 315.000
38.28479 349.000
38.30474 326.000
38.32469 317.000
38.34463 323.000
38.36458 336.000
38.38453 342.000
38.40447 321.000
38.42442 316.000
38.44437 309.000
38.46431 332.000
38.48426 299.000
38.50421 317.000
38.52416 301.000
38.54410 332.000
38.56405 300.000
38.58400 337.000
38.60394 336.000
38.62389 327.000
38.64384 310.000
38.66378 308.000
38.68373 324.000
38.70368 338.000
38.72362 341.000
38.74357 307.000
38.76352 301.000
38.78347 283.000
38.80341 300.000
38.82336 302.000
38.84331 325.000
38.86325 314.000
38.88320 309.000
38.90315 294.000
38.92309 330.000
38.94304 327.000
38.96299 362.000
38.98294 309.000
39.00288 306.000
39.02283 318.000
39.04278 351.000
39.06272 312.000
39.08267 324.000
39.10262 342.000
39.12256 323.000
39.14251 316.000
39.16246 309.000
39.18241 312.000
39.20235 349.000
39.22230 335.000
39.24225 297.000
39.26219 329.000
39.28214 320.000
39.30209 304.000
39.32203 301.000
39.34198 332.000
39.36193 317.000
39.38187 335.000
39.40182 320.000
39.42177 314.000
39.44172 306.000
39.46166 308.000
39.48161 357.000
39.50156 315.000
39.52150 331.000
39.54145 308.000
39.56140 310.000
39.58134 316.000
39.60129 330.000
39.62124 313.000
39.64119 331.000
39.66113 305.000
39.68108 304.000
39.70103 323.000
39.72097 314.000
39.74092 294.000
39.76087 276.000
39.78081 325.000
39.80076 311.000
39.82071 283.000
39.84065 311.000
39.86060 305.000
39.88055 307.000
39.90050 287.000
39.92044 293.000
39.94039 331.000
39.96034 316.000
39.98028 308.000
40.00023 338.000
40.02018 290.000
40.04012 319.000
40.06007 324.000
40.08002 315.000
40.09997 289.000
40.11991 295.000
40.13986 296.000
40.15981 318.000
40.17975 309.000
40.19970 322.000
40.21965 300.000
40.23959 311.000
40.25954 312.000
40.27949 346.000
40.29943 349.000
40.31938 314.000
40.33933 329.000
40.35928 330.000
40.37922 309.000
40.39917 309.000
40.41912 332.000
40.43906 331.000
40.45901 318.000
40.47896 353.000
40.49890 334.000
40.51885 353.000
40.53880 319.000
40.55875 289.000
40.57869 337.000
40.59864 347.000
40.61859 321.000
40.63853 325.000
40.65848 365.000
40.67843 325.000
40.69837 334.000
40.71832 326.000
40.73827 301.000
40.75822 310.000
40.77816 321.000
40.79811 338.000
40.81806 355.000
40.83800 313.000
40.85795 366.000
40.87790 349.000
40.89784 389.000
40.91779 339.000
40.93774 351.000
40.95768 364.000
40.97763 369.000
40.99758 344.000
41.01753 354.000
41.03747 371.000
41.05742 380.000
41.07737 381.000
41.09731 357.000
41.11726 398.000
41.13721 380.000
41.15715 378.000
41.17710 389.000
41.19705 369.000
41.21700 394.000
41.23694 390.000
41.25689 397.000
41.27684 408.000
41.29678 419.000
41.31673 384.000
41.33668 434.000
41.35662 426.000
41.37657 427.000
41.39652 399.000
41.41646 395.000
41.43641 444.000
41.45636 420.000
41.47631 438.000
41.49625 424.000
41.51620 466.000
41.53615 467.000
41.55609 451.000
41.57604 465.000
41.59599 497.000
41.61593 536.000
41.63588 464.000
41.65583 508.000
41.67578 552.000
41.69572 589.000
41.71567 570.000
41.73562 671.000
41.75556 703.000
41.77551 788.000
41.79546 955.000
41.81540 1031.000
41.83535 1238.000
41.85530 1264.000
41.87524 1149.000
41.89519 1103.000
41.91514 1093.000
41.93509 1027.000
41.95503 957.000
41.97498 867.000
41.99493 803.000
42.01487 720.000
42.03482 690.000
42.05477 621.000
42.07471 554.000
42.09466 559.000
42.11461 536.000
42.13456 574.000
42.15450 544.000
42.17445 557.000
42.19440 594.000
42.21434 582.000
42.23429 540.000
42.25424 537.000
42.27418 602.000
42.29413 586.000
42.31408 626.000
42.33403 605.000
42.35397 647.000
42.37392 683.000
42.39387 736.000
42.41381 718.000
42.43376 795.000
42.45371 797.000
42.47365 831.000
42.49360 879.000
42.51355 958.000
42.53349 990.000
42.55344 1066.000
42.57339 1154.000
42.59334 1339.000
42.61328 1454.000
42.63323 1554.000
42.65318 1737.000
42.67312 1952.000
42.69307 2233.000
42.71302 2495.000
42.73296 2694.000
42.75291 2871.000
42.77286 3096.000
42.79281 3167.000
42.81275 3095.000
42.83270 2993.000
42.85265 2976.000
42.87259 2809.000
42.89254 2677.000
42.91249 2521.000
42.93243 2267.000
42.95238 2128.000
42.97233 1922.000
42.99227 1926.000
43.01222 1842.000
43.03217 1829.000
43.05212 1784.000
43.07206 1937.000
43.09201 2009.000
43.11196 2295.000
43.13190 2353.000
43.15185 2607.000
43.17180 2547.000
43.19174 2636.000
43.21169 2483.000
43.23164 2183.000
43.25159 1975.000
43.27153 1715.000
43.29148 1625.000
43.31143 1447.000
43.33137 1256.000
43.35132 1070.000
43.37127 874.000
43.39121 755.000
43.41116 666.000
43.43111 609.000
43.45105 509.000
43.47100 521.000
43.49095 437.000
43.51090 469.000
43.53084 448.000
43.55079 442.000
43.57074 439.000
43.59068 435.000
43.61063 383.000
43.63058 385.000
43.65052 372.000
43.67047 376.000
43.69042 383.000
43.71037 338.000
43.73031 395.000
43.75026 383.000
43.77021 366.000
43.79015 375.000
43.81010 379.000
43.83005 367.000
43.84999 362.000
43.86994 357.000
43.88989 388.000
43.90984 372.000
43.92978 345.000
43.94973 365.000
43.96968 318.000
43.98962 316.000
44.00957 297.000
44.02952 312.000
44.04946 322.000
44.06941 334.000
44.08936 323.000
44.10930 353.000
44.12925 328.000
44.14920 342.000
44.16915 326.000
44.18909 347.000
44.20904 335.000
44.22899 335.000
44.24893 333.000
44.26888 337.000
44.28883 322.000
44.30877 317.000
44.32872 305.000
44.34867 316.000
44.36862 313.000
44.38856 319.000
44.40851 363.000
44.42846 314.000
44.44840 349.000
44.46835 337.000
44.48830 346.000
44.50824 315.000
44.52819 317.000
44.54814 310.000
44.56808 287.000
44.58803 321.000
44.60798 328.000
44.62793 319.000
44.64787 318.000
44.66782 338.000
44.68777 310.000
44.70771 321.000
44.72766 319.000
44.74761 314.000
44.76755 293.000
44.78750 307.000
44.80745 326.000
44.82740 309.000
44.84734 323.000
44.86729 293.000
44.88724 325.000
44.90718 301.000
44.92713 343.000
44.94708 307.000
44.96702 337.000
44.98697 309.000
45.00692 313.000
45.02686 297.000
45.04681 288.000
45.06676 322.000
45.08671 288.000
45.10665 309.000
45.12660 330.000
45.14655 333.000
45.16649 294.000
45.18644 330.000
45.20639 283.000
45.22633 315.000
45.24628 317.000
45.26623 285.000
45.28618 294.000
45.30612 291.000
45.32607 302.000
45.34602 312.000
45.36596 321.000
45.38591 310.000
45.40586 317.000
45.42580 327.000
45.44575 321.000
45.46570 322.000
45.48565 314.000
45.50559 307.000
45.52554 296.000
45.54549 317.000
45.56543 313.000
45.58538 315.000
45.60533 331.000
45.62527 294.000
45.64522 308.000
45.66517 303.000
45.68511 311.000
45.70506 329.000
45.72501 298.000
45.74496 300.000
45.76490 289.000
45.78485 323.000
45.80480 295.000
45.82474 310.000
45.84469 321.000
45.86464 302.000
45.88458 332.000
45.90453 322.000
45.92448 306.000
45.94443 291.000
45.96437 348.000
45.98432 316.000
46.00427 297.000
46.02421 271.000
46.04416 340.000
46.06411 272.000
46.08405 292.000
46.10400 260.000
46.12395 305.000
46.14389 319.000
46.16384 291.000
46.18379 311.000
46.20374 273.000
46.22368 327.000
46.24363 322.000
46.26358 318.000
46.28352 313.000
46.30347 282.000
46.32342 293.000
46.34336 306.000
46.36331 292.000
46.38326 317.000
46.40321 320.000
46.42315 303.000
46.44310 319.000
46.46305 306.000
46.48299 310.000
46.50294 260.000
46.52289 285.000
46.54283 285.000
46.56278 290.000
46.58273 282.000
46.60267 273.000
46.62262 285.000
46.64257 285.000
46.66252 296.000
46.68246 282.000
46.70241 302.000
46.72236 310.000
46.74230 274.000
46.76225 271.000
46.78220 258.000
46.80214 277.000
46.82209 287.000
46.84204 294.000
46.86199 268.000
46.88193 280.000
46.90188 271.000
46.92183 290.000
46.94177 296.000
46.96172 302.000
46.98167 316.000
47.00161 263.000
47.02156 295.000
47.04151 298.000
47.06146 307.000
47.08140 308.000
47.10135 300.000
47.12130 299.000
47.14124 304.000
47.16119 282.000
47.18114 295.000
47.20108 295.000
47.22103 292.000
47.24098 285.000
47.26092 293.000
47.28087 302.000
47.30082 314.000
47.32077 282.000
47.34071 284.000
47.36066 276.000
47.38061 265.000
47.40055 313.000
47.42050 295.000
47.44045 287.000
47.46039 315.000
47.48034 271.000
47.50029 291.000
47.52024 302.000
47.54018 287.000
47.56013 290.000
47.58008 276.000
47.60002 294.000
47.61997 292.000
47.63992 330.000
47.65986 298.000
47.67981 333.000
47.69976 303.000
47.71970 322.000
47.73965 317.000
47.75960 311.000
47.77955 318.000
47.79949 305.000
47.81944 292.000
47.83939 333.000
47.85933 300.000
47.87928 302.000
47.89923 284.000
47.91917 284.000
47.93912 283.000
47.95907 275.000
47.97902 290.000
47.99896 320.000
48.01891 288.000
48.03886 265.000
48.05880 274.000
48.07875 327.000
48.09870 252.000
48.11864 278.000
48.13859 312.000
48.15854 312.000
48.17848 287.000
48.19843 271.000
48.21838 292.000
48.23833 289.000
48.25827 326.000
48.27822 287.000
48.29817 286.000
48.31811 288.000
48.33806 294.000
48.35801 269.000
48.37795 285.000
48.39790 287.000
48.41785 277.000
48.43780 326.000
48.45774 283.000
48.47769 286.000
48.49764 292.000
48.51758 279.000
48.53753 306.000
48.55748 270.000
48.57742 260.000
48.59737 299.000
48.61732 298.000
48.63726 290.000
48.65721 280.000
48.67716 278.000
48.69711 278.000
48.71705 279.000
48.73700 314.000
48.75695 267.000
48.77689 284.000
48.79684 290.000
48.81679 271.000
48.83673 291.000
48.85668 282.000
48.87663 275.000
48.89658 303.000
48.91652 272.000
48.93647 288.000
48.95642 281.000
48.97636 267.000
48.99631 308.000
49.01626 311.000
49.03620 292.000
49.05615 303.000
49.07610 300.000
49.09605 276.000
49.11599 286.000
49.13594 313.000
49.15589 268.000
49.17583 284.000
49.19578 281.000
49.21573 259.000
49.23567 299.000
49.25562 288.000
49.27557 277.000
49.29551 295.000
49.31546 271.000
49.33541 288.000
49.35536 284.000
49.37530 285.000
49.39525 296.000
49.41520 308.000
49.43514 287.000
49.45509 268.000
49.47504 265.000
49.49498 284.000
49.51493 300.000
49.53488 252.000
49.55483 294.000
49.57477 291.000
49.59472 292.000
49.61467 271.000
49.63461 281.000
49.65456 290.000
49.67451 273.000
49.69445 311.000
49.71440 312.000
49.73435 292.000
49.75429 335.000
49.77424 300.000
49.79419 301.000
49.81414 288.000
49.83408 274.000
49.85403 289.000
49.87398 305.000
49.89392 295.000
49.91387 321.000
49.93382 319.000
49.95376 272.000
49.97371 291.000
49.99366 273.000
50.01361 325.000
50.03355 276.000
50.05350 312.000
50.07345 271.000
50.09339 279.000
50.11334 280.000
50.13329 287.000
50.15323 289.000
50.17318 287.000
50.19313 298.000
50.21307 258.000
50.23302 277.000
50.25297 281.000
50.27292 245.000
50.29286 270.000
50.31281 292.000
50.33276 306.000
50.35270 281.000
50.37265 275.000
50.39260 259.000
50.41254 257.000
50.43249 296.000
50.45244 294.000
50.47239 273.000
50.49233 296.000
50.51228 291.000
50.53223 251.000
50.55217 300.000
50.57212 250.000
50.59207 278.000
50.61201 298.000
50.63196 273.000
50.65191 292.000
50.67186 275.000
50.69180 294.000
50.71175 293.000
50.73170 259.000
50.75164 260.000
50.77159 292.000
50.79154 265.000
50.81148 266.000
50.83143 250.000
50.85138 264.000
50.87132 285.000
50.89127 277.000
50.91122 260.000
50.93117 291.000
50.95111 257.000
50.97106 278.000
50.99101 256.000
51.01095 299.000
51.03090 269.000
51.05085 281.000
51.07079 298.000
51.09074 282.000
51.11069 288.000
51.13064 287.000
51.15058 261.000
51.17053 283.000
51.19048 256.000
51.21042 292.000
51.23037 275.000
51.25032 280.000
51.27026 312.000
51.29021 271.000
51.31016 272.000
51.33010 283.000
51.35005 245.000
51.37000 314.000
51.38995 274.000
51.40989 276.000
51.42984 305.000
51.44979 279.000
51.46973 268.000
51.48968 297.000
51.50963 276.000
51.52957 235.000
51.54952 270.000
51.56947 281.000
51.58942 278.000
51.60936 272.000
51.62931 309.000
51.64926 254.000
51.66920 294.000
51.68915 283.000
51.70910 279.000
51.72904 256.000
51.74899 271.000
51.76894 277.000
51.78888 266.000
51.80883 277.000
51.82878 252.000
51.84873 249.000
51.86867 285.000
51.88862 293.000
51.90857 250.000
51.92851 293.000
51.94846 266.000
51.96841 270.000
51.98835 286.000
52.00830 275.000
52.02825 272.000
52.04820 318.000
52.06814 286.000
52.08809 260.000
52.10804 300.000
52.12798 252.000
52.14793 265.000
52.16788 278.000
52.18782 290.000
52.20777 271.000
52.22772 300.000
52.24767 272.000
52.26761 268.000
52.28756 277.000
52.30751 286.000
52.32745 267.000
52.34740 295.000
52.36735 273.000
52.38729 288.000
52.40724 270.000
52.42719 285.000
52.44713 272.000
52.46708 277.000
52.48703 272.000
52.50698 281.000
52.52692 286.000
52.54687 308.000
52.56682 276.000
52.58676 279.000
52.60671 254.000
52.62666 281.000
52.64660 302.000
52.66655 313.000
52.68650 233.000
52.70645 285.000
52.72639 264.000
52.74634 260.000
52.76629 267.000
52.78623 272.000
52.80618 242.000
52.82613 300.000
52.84607 280.000
52.86602 292.000
52.88597 248.000
52.90591 264.000
52.92586 302.000
52.94581 279.000
52.96576 278.000
52.98570 294.000
53.00565 278.000
53.02560 268.000
53.04554 293.000
53.06549 280.000
53.08544 255.000
53.10538 291.000
53.12533 257.000
53.14528 291.000
53.16523 310.000
53.18517 263.000
53.20512 277.000
53.22507 281.000
53.24501 271.000
53.26496 301.000
53.28491 312.000
53.30485 312.000
53.32480 295.000
53.34475 282.000
53.36469 253.000
53.38464 272.000
53.40459 252.000
53.42454 289.000
53.44448 259.000
53.46443 270.000
53.48438 267.000
53.50432 276.000
53.52427 280.000
53.54422 261.000
53.56416 277.000
53.58411 285.000
53.60406 265.000
53.62401 269.000
53.64395 280.000
53.66390 229.000
53.68385 267.000
53.70379 284.000
53.72374 290.000
53.74369 274.000
53.76363 272.000
53.78358 311.000
53.80353 305.000
53.82348 281.000
53.84342 299.000
53.86337 323.000
53.88332 267.000
53.90326 279.000
53.92321 273.000
53.94316 295.000
53.96310 269.000
53.98305 296.000
54.00300 303.000
54.02294 260.000
54.04289 300.000
54.06284 273.000
54.08279 287.000
54.10273 267.000
54.12268 279.000
54.14263 286.000
54.16257 286.000
54.18252 287.000
54.20247 289.000
54.22241 263.000
54.24236 258.000
54.26231 298.000
54.28226 274.000
54.30220 295.000
54.32215 279.000
54.34210 281.000
54.36204 298.000
54.38199 278.000
54.40194 282.000
54.42188 288.000
54.44183 298.000
54.46178 308.000
54.48172 296.000
54.50167 300.000
54.52162 281.000
54.54157 303.000
54.56151 287.000
54.58146 290.000
54.60141 324.000
54.62135 308.000
54.64130 318.000
54.66125 323.000
54.68119 286.000
54.70114 280.000
54.72109 292.000
54.74104 319.000
54.76098 305.000
54.78093 256.000
54.80088 282.000
54.82082 283.000
54.84077 253.000
54.86072 282.000
54.88066 294.000
54.90061 270.000
54.92056 278.000
54.94050 264.000
54.96045 268.000
54.98040 247.000
55.00035 252.000
55.02029 292.000
55.04024 291.000
55.06019 301.000
55.08013 251.000
55.10008 244.000
55.12003 278.000
55.13997 264.000
55.15992 270.000
55.17987 266.000
55.19982 275.000
55.21976 291.000
55.23971 293.000
55.25966 291.000
55.27960 294.000
55.29955 267.000
55.31950 266.000
55.33944 263.000
55.35939 260.000
55.37934 268.000
55.39929 277.000
55.41923 270.000
55.43918 262.000
55.45913 251.000
55.47907 282.000
55.49902 287.000
55.51897 245.000
55.53891 283.000
55.55886 278.000
55.57881 283.000
55.59875 298.000
55.61870 282.000
55.63865 284.000
55.65860 264.000
55.67854 285.000
55.69849 266.000
55.71844 282.000
55.73838 257.000
55.75833 286.000
55.77828 303.000
55.79822 289.000
55.81817 256.000
55.83812 293.000
55.85807 278.000
55.87801 267.000
55.89796 281.000
55.91791 277.000
55.93785 283.000
55.95780 297.000
55.97775 276.000
55.99769 289.000
56.01764 284.000
56.03759 252.000
56.05753 281.000
56.07748 308.000
56.09743 301.000
56.11738 288.000
56.13732 262.000
56.15727 274.000
56.17722 268.000
56.19716 303.000
56.21711 280.000
56.23706 273.000
56.25700 293.000
56.27695 266.000
56.29690 262.000
56.31685 283.000
56.33679 270.000
56.35674 294.000
56.37669 285.000
56.39663 266.000
56.41658 255.000
56.43653 287.000
56.45647 261.000
56.47642 265.000
56.49637 289.000
56.51631 263.000
56.53626 297.000
56.55621 286.000
56.57616 270.000
56.59610 299.000
56.61605 297.000
56.63600 277.000
56.65594 259.000
56.67589 290.000
56.69584 293.000
56.71578 260.000
56.73573 275.000
56.75568 261.000
56.77563 264.000
56.79557 286.000
56.81552 280.000
56.83547 275.000
56.85541 297.000
56.87536 272.000
56.89531 307.000
56.91525 281.000
56.93520 266.000
56.95515 268.000
56.97510 304.000
56.99504 317.000
57.01499 280.000
57.03494 257.000
57.05488 288.000
57.07483 294.000
57.09478 273.000
57.11472 280.000
57.13467 263.000
57.15462 292.000
57.17456 303.000
57.19451 307.000
57.21446 304.000
57.23441 309.000
57.25435 305.000
57.27430 303.000
57.29425 322.000
57.31419 339.000
57.33414 354.000
57.35409 373.000
57.37403 336.000
57.39398 336.000
57.41393 333.000
57.43388 300.000
57.45382 325.000
57.47377 298.000
57.49372 332.000
57.51366 308.000
57.53361 309.000
57.55356 308.000
57.57350 301.000
57.59345 328.000
57.61340 301.000
57.63334 289.000
57.65329 285.000
57.67324 288.000
57.69319 286.000
57.71313 302.000
57.73308 264.000
57.75303 300.000
57.77297 280.000
57.79292 270.000
57.81287 294.000
57.83281 285.000
57.85276 282.000
57.87271 278.000
57.89266 289.000
57.91260 291.000
57.93255 246.000
57.95250 279.000
57.97244 271.000
57.99239 289.000
58.01234 295.000
58.03228 268.000
58.05223 299.000
58.07218 281.000
58.09212 294.000
58.11207 284.000
58.13202 289.000
58.15197 270.000
58.17191 268.000
58.19186 286.000
58.21181 285.000
58.23175 250.000
58.25170 267.000
58.27165 318.000
58.29159 294.000
58.31154 292.000
58.33149 301.000
58.35144 291.000
58.37138 251.000
58.39133 267.000
58.41128 282.000
58.43122 257.000
58.45117 285.000
58.47112 284.000
58.49106 291.000
58.51101 279.000
58.53096 275.000
58.55090 298.000
58.57085 280.000
58.59080 272.000
58.61075 289.000
58.63069 274.000
58.65064 272.000
58.67059 294.000
58.69053 268.000
58.71048 269.000
58.73043 268.000
58.75037 291.000
58.77032 279.000
58.79027 308.000
58.81022 302.000
58.83016 272.000
58.85011 258.000
58.87006 273.000
58.89000 288.000
58.90995 290.000
58.92990 274.000
58.94984 308.000
58.96979 280.000
58.98974 306.000
59.00969 296.000
59.02963 274.000
59.04958 262.000
59.06953 279.000
59.08947 302.000
59.10942 302.000
59.12937 304.000
59.14931 296.000
59.16926 294.000
59.18921 317.000
59.20915 275.000
59.22910 319.000
59.24905 275.000
59.26900 293.000
59.28894 300.000
59.30889 270.000
59.32884 293.000
59.34878 287.000
59.36873 326.000
59.38868 306.000
59.40862 331.000
59.42857 310.000
59.44852 295.000
59.46847 324.000
59.48841 309.000
59.50836 316.000
59.52831 290.000
59.54825 306.000
59.56820 294.000
59.58815 328.000
59.60809 337.000
59.62804 336.000
59.64799 335.000
59.66793 320.000
59.68788 365.000
59.70783 325.000
59.72778 386.000
59.74772 439.000
59.76767 380.000
59.78762 461.000
59.80756 502.000
59.82751 495.000
59.84746 498.000
59.86740 403.000
59.88735 376.000
59.90730 420.000
59.92725 411.000
59.94719 416.000
59.96714 406.000
59.98709 384.000
60.00703 406.000
60.02698 374.000
60.04693 349.000
60.06687 353.000
60.08682 333.000
60.10677 305.000
60.12671 338.000
60.14666 303.000
60.16661 297.000
60.18656 308.000
60.20650 324.000
60.22645 298.000
60.24640 310.000
60.26634 323.000
60.28629 305.000
60.30624 325.000
60.32618 337.000
60.34613 295.000
60.36608 350.000
60.38603 301.000
60.40597 297.000
60.42592 312.000
60.44587 293.000
60.46581 283.000
60.48576 282.000
60.50571 322.000
60.52565 314.000
60.54560 276.000
60.56555 312.000
60.58550 318.000
60.60544 332.000
60.62539 300.000
60.64534 283.000
60.66528 313.000
60.68523 286.000
60.70518 323.000
60.72512 295.000
60.74507 315.000
60.76502 316.000
60.78496 289.000
60.80491 325.000
60.82486 297.000
60.84481 305.000
60.86475 333.000
60.88470 305.000
60.90465 321.000
60.92459 311.000
60.94454 312.000
60.96449 320.000
60.98443 328.000
61.00438 320.000
61.02433 320.000
61.04428 314.000
61.06422 326.000
61.08417 353.000
61.10412 330.000
61.12406 348.000
61.14401 354.000
61.16396 351.000
61.18390 344.000
61.20385 380.000
61.22380 342.000
61.24374 362.000
61.26369 362.000
61.28364 346.000
61.30359 382.000
61.32353 383.000
61.34348 385.000
61.36343 398.000
61.38337 389.000
61.40332 482.000
61.42327 454.000
61.44321 465.000
61.46316 457.000
61.48311 492.000
61.50306 494.000
61.52300 571.000
61.54295 598.000
61.56290 599.000
61.58284 610.000
61.60279 581.000
61.62274 569.000
61.64268 612.000
61.66263 572.000
61.68258 581.000
61.70252 595.000
61.72247 599.000
61.74242 626.000
61.76237 627.000
61.78231 553.000
61.80226 554.000
61.82221 622.000
61.84215 639.000
61.86210 686.000
61.88205 707.000
61.90199 691.000
61.92194 708.000
61.94189 772.000
61.96184 816.000
61.98178 883.000
62.00173 903.000
62.02168 978.000
62.04162 1101.000
62.06157 1130.000
62.08152 1263.000
62.10146 1201.000
62.12141 1339.000
62.14136 1346.000
62.16131 1334.000
62.18125 1360.000
62.20120 1357.000
62.22115 1281.000
62.24109 1263.000
62.26104 1318.000
62.28099 1285.000
62.30093 1241.000
62.32088 1214.000
62.34083 1174.000
62.36077 1075.000
62.38072 1058.000
62.40067 1017.000
62.42062 954.000
62.44056 869.000
62.46051 881.000
62.48046 842.000
62.50040 832.000
62.52035 838.000
62.54030 817.000
62.56024 903.000
62.58019 910.000
62.60014 931.000
62.62009 1017.000
62.64003 1078.000
62.65998 1154.000
62.67993 1123.000
62.69987 1143.000
62.71982 1185.000
62.73977 1157.000
62.75971 1220.000
62.77966 1199.000
62.79961 1042.000
62.81955 996.000
62.83950 966.000
62.85945 837.000
62.87940 875.000
62.89934 835.000
62.91929 777.000
62.93924 734.000
62.95918 738.000
62.97913 712.000
62.99908 631.000
63.01902 568.000
63.03897 546.000
63.05892 510.000
63.07887 452.000
63.09881 445.000
63.11876 455.000
63.13871 452.000
63.15865 392.000
63.17860 388.000
63.19855 386.000
63.21849 353.000
63.23844 367.000
63.25839 342.000
63.27833 341.000
63.29828 322.000
63.31823 359.000
63.33818 354.000
63.35812 346.000
63.37807 342.000
63.39802 327.000
63.41796 284.000
63.43791 311.000
63.45786 330.000
63.47780 325.000
63.49775 334.000
63.51770 304.000
63.53765 304.000
63.55759 291.000
63.57754 318.000
63.59749 288.000
63.61743 311.000
63.63738 308.000
63.65733 314.000
63.67727 300.000
63.69722 294.000
63.71717 308.000
63.73712 322.000
63.75706 308.000
63.77701 326.000
63.79696 305.000
63.81690 282.000
63.83685 296.000
63.85680 294.000
63.87674 308.000
63.89669 263.000
63.91664 298.000
63.93658 318.000
63.95653 300.000
63.97648 299.000
63.99643 313.000
64.01637 319.000
64.03632 280.000
64.05627 322.000
64.07621 317.000
64.09616 338.000
64.11611 291.000
64.13605 293.000
64.15600 295.000
64.17595 287.000
64.19590 328.000
64.21584 323.000
64.23579 310.000
64.25574 328.000
64.27568 306.000
64.29563 313.000
64.31558 319.000
64.33552 324.000
64.35547 313.000
64.37542 295.000
64.39536 292.000
64.41531 280.000
64.43526 297.000
64.45521 310.000
64.47515 289.000
64.49510 288.000
64.51505 316.000
64.53499 302.000
64.55494 308.000
64.57489 287.000
64.59483 329.000
64.61478 297.000
64.63473 314.000
64.65468 274.000
64.67462 332.000
64.69457 322.000
64.71452 282.000
64.73446 282.000
64.75441 297.000
64.77436 271.000
64.79430 278.000
64.81425 287.000
64.83420 296.000
64.85414 279.000
64.87409 303.000
64.89404 277.000
64.91399 284.000
64.93393 287.000
64.95388 273.000
64.97383 310.000
64.99377 294.000
65.01372 285.000
65.03367 273.000
65.05361 266.000
65.07356 268.000
65.09351 280.000
65.11346 297.000
65.13340 295.000
65.15335 307.000
65.17330 300.000
65.19324 289.000
65.21319 284.000
65.23314 293.000
65.25308 266.000
65.27303 292.000
65.29298 282.000
65.31293 275.000
65.33287 280.000
65.35282 318.000
65.37277 257.000
65.39271 316.000
65.41266 264.000
65.43261 307.000
65.45255 291.000
65.47250 282.000
65.49245 297.000
65.51239 304.000
65.53234 309.000
65.55229 309.000
65.57224 297.000
65.59218 291.000
65.61213 295.000
65.63208 252.000
65.65202 319.000
65.67197 297.000
65.69192 298.000
65.71186 319.000
65.73181 280.000
65.75176 286.000
65.77171 298.000
65.79165 314.000
65.81160 288.000
65.83155 286.000
65.85149 318.000
65.87144 271.000
65.89139 277.000
65.91133 305.000
65.93128 295.000
65.95123 286.000
65.97117 285.000
65.99112 308.000
66.01107 278.000
66.03102 277.000
66.05096 266.000
66.07091 306.000
66.09086 275.000
66.11080 288.000
66.13075 255.000
66.15070 271.000
66.17064 280.000
66.19059 251.000
66.21054 287.000
66.23049 276.000
66.25043 258.000
66.27038 280.000
66.29033 225.000
66.31027 299.000
66.33022 288.000
66.35017 298.000
66.37011 276.000
66.39006 262.000
66.41001 280.000
66.42995 246.000
66.44990 292.000
66.46985 290.000
66.48980 282.000
66.50974 283.000
66.52969 261.000
66.54964 255.000
66.56958 293.000
66.58953 295.000
66.60948 264.000
66.62942 275.000
66.64937 273.000
66.66932 282.000
66.68927 249.000
66.70921 284.000
66.72916 286.000
66.74911 293.000
66.76905 283.000
66.78900 258.000
66.80895 295.000
66.82889 239.000
66.84884 242.000
66.86879 238.000
66.88874 265.000
66.90868 294.000
66.92863 295.000
66.94858 278.000
66.96852 263.000
66.98847 288.000
67.00842 265.000
67.02836 255.000
67.04831 270.000
67.06826 286.000
67.08820 270.000
67.10815 281.000
67.12810 271.000
67.14805 266.000
67.16799 252.000
67.18794 264.000
67.20789 274.000
67.22783 262.000
67.24778 264.000
67.26773 267.000
67.28767 266.000
67.30762 285.000
67.32757 288.000
67.34752 293.000
67.36746 244.000
67.38741 271.000
67.40736 251.000
67.42730 270.000
67.44725 291.000
67.46720 266.000
67.48714 276.000
67.50709 280.000
67.52704 277.000
67.54698 255.000
67.56693 298.000
67.58688 295.000
67.60683 276.000
67.62677 288.000
67.64672 280.000
67.66667 276.000
67.68661 291.000
67.70656 280.000
67.72651 281.000
67.74645 289.000
67.76640 279.000
67.78635 279.000
67.80630 294.000
67.82624 273.000
67.84619 265.000
67.86614 243.000
67.88608 262.000
67.90603 279.000
67.92598 250.000
67.94592 290.000
67.96587 305.000
67.98582 296.000
68.00576 300.000
68.02571 279.000
68.04566 269.000
68.06561 288.000
68.08555 274.000
68.10550 269.000
68.12545 281.000
68.14539 261.000
68.16534 281.000
68.18529 300.000
68.20523 294.000
68.22518 285.000
68.24513 294.000
68.26508 267.000
68.28502 282.000
68.30497 318.000
68.32492 290.000
68.34486 289.000
68.36481 305.000
68.38476 271.000
68.40470 266.000
68.42465 261.000
68.44460 264.000
68.46455 283.000
68.48449 283.000
68.50444 248.000
68.52439 274.000
68.54433 268.000
68.56428 285.000
68.58423 252.000
68.60417 265.000
68.62412 265.000
68.64407 283.000
68.66401 259.000
68.68396 255.000
68.70391 262.000
68.72386 285.000
68.74380 260.000
68.76375 242.000
68.78370 271.000
68.80364 302.000
68.82359 281.000
68.84354 262.000
68.86348 288.000
68.88343 278.000
68.90338 296.000
68.92333 267.000
68.94327 259.000
68.96322 267.000
68.98317 293.000
69.00311 281.000
69.02306 261.000
69.04301 272.000
69.06295 268.000
69.08290 276.000
69.10285 251.000
69.12279 272.000
69.14274 253.000
69.16269 290.000
69.18264 286.000
69.20258 292.000
69.22253 275.000
69.24248 254.000
69.26242 272.000
69.28237 267.000
69.30232 272.000
69.32226 240.000
69.34221 242.000
69.36216 278.000
69.38211 244.000
69.40205 250.000
69.42200 278.000
69.44195 258.000
69.46189 281.000
69.48184 292.000
69.50179 251.000
69.52173 256.000
69.54168 295.000
69.56163 267.000
69.58157 252.000
69.60152 274.000
69.62147 278.000
69.64142 263.000
69.66136 258.000
69.68131 239.000
69.70126 251.000
69.72120 294.000
69.74115 299.000
69.76110 272.000
69.78104 267.000
69.80099 267.000
69.82094 281.000
69.84089 274.000
69.86083 266.000
69.88078 291.000
69.90073 265.000
69.92067 279.000
69.94062 263.000
69.96057 287.000
69.98051 272.000
70.00046 263.000
70.02041 245.000
70.04035 271.000
70.06030 272.000
70.08025 296.000
70.10020 264.000
70.12014 265.000
70.14009 254.000
70.16004 289.000
70.17998 272.000
70.19993 291.000
70.21988 262.000
70.23982 267.000
70.25977 275.000
70.27972 286.000
70.29967 266.000
70.31961 251.000
70.33956 256.000
70.35951 291.000
70.37945 258.000
70.39940 246.000
70.41935 265.000
70.43929 260.000
70.45924 265.000
70.47919 264.000
70.49914 300.000
70.51908 258.000
70.53903 283.000
70.55898 274.000
70.57892 278.000
70.59887 284.000
70.61882 269.000
70.63876 286.000
70.65871 266.000
70.67866 263.000
70.69860 271.000
70.71855 268.000
70.73850 269.000
70.75845 273.000
70.77839 251.000
70.79834 252.000
70.81829 290.000
70.83823 302.000
70.85818 278.000
70.87813 280.000
70.89807 276.000
70.91802 275.000
70.93797 286.000
70.95792 281.000
70.97786 251.000
70.99781 274.000
71.01776 238.000
71.03770 274.000
71.05765 312.000
71.07760 295.000
71.09754 290.000
71.11749 260.000
71.13744 315.000
71.15738 295.000
71.17733 281.000
71.19728 313.000
71.21723 283.000
71.23717 327.000
71.25712 303.000
71.27707 299.000
71.29701 308.000
71.31696 291.000
71.33691 311.000
71.35685 329.000
71.37680 314.000
71.39675 333.000
71.41670 302.000
71.43664 315.000
71.45659 276.000
71.47654 310.000
71.49648 308.000
71.51643 291.000
71.53638 304.000
71.55632 305.000
71.57627 287.000
71.59622 286.000
71.61616 322.000
71.63611 283.000
71.65606 315.000
71.67601 298.000
71.69595 300.000
71.71590 271.000
71.73585 277.000
71.75579 278.000
71.77574 253.000
71.79569 263.000
71.81563 272.000
71.83558 285.000
71.85553 257.000
71.87548 267.000
71.89542 301.000
71.91537 272.000
71.93532 266.000
71.95526 276.000
71.97521 266.000
71.99516 295.000
72.01510 267.000
72.03505 296.000
72.05500 287.000
72.07495 297.000
72.09489 271.000
72.11484 282.000
72.13479 274.000
72.15473 248.000
72.17468 285.000
72.19463 282.000
72.21457 305.000
72.23452 272.000
72.25447 256.000
72.27441 268.000
72.29436 272.000
72.31431 248.000
72.33426 315.000
72.35420 281.000
72.37415 295.000
72.39410 275.000
72.41404 270.000
72.43399 267.000
72.45394 272.000
72.47388 263.000
72.49383 277.000
72.51378 263.000
72.53373 253.000
72.55367 285.000
72.57362 291.000
72.59357 320.000
72.61351 267.000
72.63346 269.000
72.65341 289.000
72.67335 286.000
72.69330 286.000
72.71325 297.000
72.73319 322.000
72.75314 311.000
72.77309 305.000
72.79304 306.000
72.81298 316.000
72.83293 344.000
72.85288 340.000
72.87282 351.000
72.89277 306.000
72.91272 329.000
72.93266 376.000
72.95261 315.000
72.97256 314.000
72.99251 313.000
73.01245 289.000
73.03240 309.000
73.05235 339.000
73.07229 324.000
73.09224 295.000
73.11219 334.000
73.13213 341.000
73.15208 310.000
73.17203 319.000
73.19197 286.000
73.21192 288.000
73.23187 311.000
73.25182 323.000
73.27176 290.000
73.29171 300.000
73.31166 302.000
73.33160 304.000
73.35155 288.000
73.37150 310.000
73.39144 317.000
73.41139 316.000
73.43134 307.000
73.45129 278.000
73.47123 308.000
73.49118 293.000
73.51113 301.000
73.53107 307.000
73.55102 301.000
73.57097 328.000
73.59091 281.000
73.61086 317.000
73.63081 331.000
73.65076 329.000
73.67070 335.000
73.69065 311.000
73.71060 300.000
73.73054 357.000
73.75049 310.000
73.77044 374.000
73.79038 315.000
73.81033 328.000
73.83028 337.000
73.85022 362.000
73.87017 358.000
73.89012 348.000
73.91007 345.000
73.93001 347.000
73.94996 350.000
73.96991 355.000
73.98985 356.000
74.00980 344.000
74.02975 366.000
74.04969 351.000
74.06964 347.000
74.08959 377.000
74.10954 379.000
74.12948 406.000
74.14943 380.000
74.16938 389.000
74.18932 417.000
74.20927 425.000
74.22922 408.000
74.24916 434.000
74.26911 456.000
74.28906 433.000
74.30900 472.000
74.32895 469.000
74.34890 508.000
74.36885 485.000
74.38879 506.000
74.40874 575.000
74.42869 557.000
74.44863 565.000
74.46858 591.000
74.48853 571.000
74.50847 583.000
74.52842 553.000
74.54837 596.000
74.56832 606.000
74.58826 582.000
74.60821 557.000
74.62816 594.000
74.64810 581.000
74.66805 532.000
74.68800 562.000
74.70794 543.000
74.72789 586.000
74.74784 549.000
74.76778 548.000
74.78773 495.000
74.80768 530.000
74.82763 461.000
74.84757 488.000
74.86752 459.000
74.88747 463.000
74.90741 406.000
74.92736 476.000
74.94731 478.000
74.96725 457.000
74.98720 454.000
75.00715 464.000
75.02710 450.000
75.04704 437.000
75.06699 447.000
75.08694 489.000
75.10688 477.000
75.12683 488.000
75.14678 534.000
75.16672 521.000
75.18667 528.000
75.20662 531.000
75.22657 545.000
75.24651 512.000
75.26646 560.000
75.28641 526.000
75.30635 529.000
75.32630 496.000
75.34625 475.000
75.36619 473.000
75.38614 476.000
75.40609 439.000
75.42603 403.000
75.44598 406.000
75.46593 462.000
75.48588 416.000
75.50582 405.000
75.52577 397.000
75.54572 368.000
75.56566 367.000
75.58561 355.000
75.60556 347.000
75.62550 288.000
75.64545 321.000
75.66540 291.000
75.68535 273.000
75.70529 306.000
75.72524 299.000
75.74519 274.000
75.76513 339.000
75.78508 289.000
75.80503 296.000
75.82497 301.000
75.84492 292.000
75.86487 312.000
75.88481 281.000
75.90476 297.000
75.92471 285.000
75.94466 271.000
75.96460 263.000
75.98455 281.000
76.00450 269.000
76.02444 278.000
76.04439 279.000
76.06434 301.000
76.08428 318.000
76.10423 282.000
76.12418 293.000
76.14413 290.000
76.16407 290.000
76.18402 300.000
76.20397 311.000
76.22391 295.000
76.24386 286.000
76.26381 271.000
76.28375 287.000
76.30370 280.000
76.32365 283.000
76.34359 296.000
76.36354 311.000
76.38349 296.000
76.40344 296.000
76.42338 279.000
76.44333 269.000
76.46328 263.000
76.48322 294.000
76.50317 289.000
76.52312 272.000
76.54306 298.000
76.56301 297.000
76.58296 303.000
76.60291 300.000
76.62285 292.000
76.64280 322.000
76.66275 274.000
76.68269 286.000
76.70264 316.000
76.72259 259.000
76.74253 269.000
76.76248 296.000
76.78243 279.000
76.80238 301.000
76.82232 280.000
76.84227 284.000
76.86222 259.000
76.88216 276.000
76.90211 291.000
76.92206 293.000
76.94200 292.000
76.96195 320.000
76.98190 320.000
77.00184 293.000
77.02179 289.000
77.04174 309.000
77.06169 318.000
77.08163 284.000
77.10158 276.000
77.12153 322.000
77.14147 305.000
77.16142 303.000
77.18137 318.000
77.20131 314.000
77.22126 330.000
77.24121 350.000
77.26116 350.000
77.28110 359.000
77.30105 342.000
77.32100 336.000
77.34094 292.000
77.36089 332.000
77.38084 314.000
77.40078 333.000
77.42073 328.000
77.44068 313.000
77.46062 293.000
77.48057 323.000
77.50052 314.000
77.52047 329.000
77.54041 302.000
77.56036 313.000
77.58031 312.000
77.60025 296.000
77.62020 331.000
77.64015 330.000
77.66009 310.000
77.68004 328.000
77.69999 303.000
77.71994 269.000
77.73988 324.000
77.75983 333.000
77.77978 301.000
77.79972 321.000
77.81967 318.000
77.83962 293.000
77.85956 292.000
77.87951 330.000
77.89946 335.000
77.91940 284.000
77.93935 301.000
77.95930 294.000
77.97925 316.000
77.99919 312.000
78.01914 342.000
78.03909 309.000
78.05903 318.000
78.07898 365.000
78.09893 318.000
78.11887 374.000
78.13882 389.000
78.15877 398.000
78.17872 349.000
78.19866 386.000
78.21861 371.000
78.23856 439.000
78.25850 396.000
78.27845 425.000
78.29840 434.000
78.31834 472.000
78.33829 428.000
78.35824 485.000
78.37819 472.000
78.39813 508.000
78.41808 490.000
78.43803 493.000
78.45797 474.000
78.47792 542.000
78.49787 512.000
78.51781 491.000
78.53776 475.000
78.55771 497.000
78.57765 471.000
78.59760 467.000
78.61755 489.000
78.63750 443.000
78.65744 451.000
78.67739 427.000
78.69734 447.000
78.71728 423.000
78.73723 410.000
78.75718 417.000
78.77712 406.000
78.79707 383.000
78.81702 392.000
78.83697 382.000
78.85691 399.000
78.87686 377.000
78.89681 406.000
78.91675 385.000
78.93670 366.000
78.95665 397.000
78.97659 382.000
78.99654 418.000
79.01649 395.000
79.03643 415.000
79.05638 403.000
79.07633 466.000
79.09628 459.000
79.11622 441.000
79.13617 436.000
79.15612 485.000
79.17606 467.000
79.19601 503.000
79.21596 484.000
79.23590 466.000
79.25585 448.000
79.27580 486.000
79.29575 504.000
79.31569 427.000
79.33564 402.000
79.35559 468.000
79.37553 426.000
79.39548 390.000
79.41543 387.000
79.43537 400.000
79.45532 381.000
79.47527 337.000
79.49521 356.000
79.51516 350.000
79.53511 326.000
79.55506 319.000
79.57500 303.000
79.59495 314.000
79.61490 314.000
79.63484 322.000
79.65479 268.000
79.67474 315.000
79.69468 288.000
79.71463 280.000
79.73458 278.000
79.75453 293.000
79.77447 298.000
79.79442 308.000
79.81437 298.000
79.83431 311.000
79.85426 259.000
79.87421 259.000
79.89415 271.000
79.91410 237.000
79.93405 269.000
79.95399 270.000
79.97394 278.000
79.99389 303.000
80.01384 290.000
80.03378 254.000
80.05373 278.000
80.07368 271.000
80.09362 247.000
80.11357 286.000
80.13352 281.000
80.15346 286.000
80.17341 260.000
80.19336 276.000
80.21331 267.000
80.23325 253.000
80.25320 284.000
80.27315 292.000
80.29309 281.000
80.31304 300.000
80.33299 265.000
80.35293 257.000
80.37288 280.000
80.39283 231.000
80.41278 283.000
80.43272 246.000
80.45267 280.000
80.47262 263.000
80.49256 259.000
80.51251 267.000
80.53246 267.000
80.55240 264.000
80.57235 277.000
80.59230 267.000
80.61224 286.000
80.63219 298.000
80.65214 272.000
80.67209 250.000
80.69203 254.000
80.71198 264.000
80.73193 278.000
80.75187 277.000
80.77182 275.000
80.79177 264.000
80.81171 252.000
80.83166 281.000
80.85161 292.000
80.87156 303.000
80.89150 296.000
80.91145 269.000
80.93140 255.000
80.95134 275.000
80.97129 272.000
80.99124 254.000
81.01118 278.000
81.03113 230.000
81.05108 257.000
81.07102 253.000
81.09097 244.000
81.11092 297.000
81.13087 259.000
81.15081 301.000
81.17076 275.000
81.19071 303.000
81.21065 276.000
81.23060 246.000
81.25055 271.000
81.27049 279.000
81.29044 264.000
81.31039 262.000
81.33034 293.000
81.35028 270.000
81.37023 280.000
81.39018 264.000
81.41012 292.000
81.43007 260.000
81.45002 280.000
81.46996 276.000
81.48991 255.000
81.50986 273.000
81.52980 281.000
81.54975 252.000
81.56970 245.000
81.58965 260.000
81.60959 269.000
81.62954 272.000
81.64949 285.000
81.66943 272.000
81.68938 254.000
81.70933 258.000
81.72927 267.000
81.74922 290.000
81.76917 273.000
81.78912 272.000
81.80906 240.000
81.82901 252.000
81.84896 246.000
81.86890 259.000
81.88885 263.000
81.90880 267.000
81.92874 233.000
81.94869 270.000
81.96864 245.000
81.98859 255.000
82.00853 276.000
82.02848 285.000
82.04843 302.000
82.06837 279.000
82.08832 273.000
82.10827 251.000
82.12821 292.000
82.14816 271.000
82.16811 249.000
82.18805 287.000
82.20800 278.000
82.22795 276.000
82.24790 227.000
82.26784 241.000
82.28779 263.000
82.30774 265.000
82.32768 269.000
82.34763 248.000
82.36758 279.000
82.38752 268.000
82.40747 269.000
82.42742 253.000
82.44737 271.000
82.46731 259.000
82.48726 267.000
82.50721 277.000
82.52715 240.000
82.54710 240.000
82.56705 260.000
82.58699 257.000
82.60694 274.000
82.62689 250.000
82.64683 258.000
82.66678 266.000
82.68673 266.000
82.70668 284.000
82.72662 286.000
82.74657 276.000
82.76652 264.000
82.78646 248.000
82.80641 263.000
82.82636 260.000
82.84630 286.000
82.86625 265.000
82.88620 262.000
82.90615 268.000
82.92609 257.000
82.94604 288.000
82.96599 249.000
82.98593 278.000
83.00588 286.000
83.02583 297.000
83.04577 260.000
83.06572 240.000
83.08567 268.000
83.10561 269.000
83.12556 262.000
83.14551 244.000
83.16546 244.000
83.18540 232.000
83.20535 279.000
83.22530 282.000
83.24524 245.000
83.26519 281.000
83.28514 296.000
83.30508 270.000
83.32503 294.000
83.34498 254.000
83.36493 261.000
83.38487 237.000
83.40482 277.000
83.42477 281.000
83.44471 288.000
83.46466 250.000
83.48461 269.000
83.50455 267.000
83.52450 277.000
83.54445 246.000
83.56440 262.000
83.58434 271.000
83.60429 256.000
83.62424 267.000
83.64418 275.000
83.66413 289.000
83.68408 280.000
83.70402 287.000
83.72397 256.000
83.74392 275.000
83.76386 264.000
83.78381 274.000
83.80376 277.000
83.82371 255.000
83.84365 273.000
83.86360 280.000
83.88355 230.000
83.90349 286.000
83.92344 254.000
83.94339 258.000
83.96333 253.000
83.98328 258.000
84.00323 271.000
84.02318 274.000
84.04312 278.000
84.06307 254.000
84.08302 249.000
84.10296 242.000
84.12291 268.000
84.14286 260.000
84.16280 258.000
84.18275 264.000
84.20270 238.000
84.22264 259.000
84.24259 255.000
84.26254 271.000
84.28249 247.000
84.30243 257.000
84.32238 254.000
84.34233 311.000
84.36227 259.000
84.38222 283.000
84.40217 281.000
84.42211 271.000
84.44206 272.000
84.46201 256.000
84.48196 257.000
84.50190 279.000
84.52185 294.000
84.54180 255.000
84.56174 294.000
84.58169 252.000
84.60164 244.000
84.62158 289.000
84.64153 277.000
84.66148 243.000
84.68142 278.000
84.70137 282.000
84.72132 249.000
84.74127 257.000
84.76121 282.000
84.78116 275.000
84.80111 252.000
84.82105 268.000
84.84100 262.000
84.86095 250.000
84.88089 263.000
84.90084 278.000
84.92079 275.000
84.94074 256.000
84.96068 299.000
84.98063 261.000
85.00058 263.000
85.02052 246.000
85.04047 237.000
85.06042 271.000
85.08036 260.000
85.10031 224.000
85.12026 280.000
85.14021 245.000
85.16015 240.000
85.18010 257.000
85.20005 252.000
85.21999 254.000
85.23994 297.000
85.25989 267.000
85.27983 257.000
85.29978 257.000
85.31973 239.000
85.33967 273.000
85.35962 237.000
85.37957 244.000
85.39952 282.000
85.41946 266.000
85.43941 248.000
85.45936 256.000
85.47930 279.000
85.49925 252.000
85.51920 267.000
85.53914 230.000
85.55909 254.000
85.57904 245.000
85.59899 283.000
85.61893 259.000
85.63888 255.000
85.65883 259.000
85.67877 241.000
85.69872 240.000
85.71867 260.000
85.73861 289.000
85.75856 270.000
85.77851 289.000
85.79845 237.000
85.81840 235.000
85.83835 244.000
85.85830 251.000
85.87824 283.000
85.89819 282.000
85.91814 284.000
85.93808 249.000
85.95803 272.000
85.97798 283.000
85.99792 235.000
86.01787 260.000
86.03782 264.000
86.05777 268.000
86.07771 306.000
86.09766 237.000
86.11761 283.000
86.13755 271.000
86.15750 260.000
86.17745 287.000
86.19739 255.000
86.21734 247.000
86.23729 248.000
86.25723 259.000
86.27718 278.000
86.29713 245.000
86.31708 247.000
86.33702 259.000
86.35697 241.000
86.37692 256.000
86.39686 271.000
86.41681 231.000
86.43676 272.000
86.45670 273.000
86.47665 276.000
86.49660 252.000
86.51655 257.000
86.53649 258.000
86.55644 231.000
86.57639 255.000
86.59633 258.000
86.61628 300.000
86.63623 273.000
86.65617 265.000
86.67612 255.000
86.69607 268.000
86.71602 242.000
86.73596 238.000
86.75591 251.000
86.77586 265.000
86.79580 291.000
86.81575 258.000
86.83570 232.000
86.85564 263.000
86.87559 281.000
86.89554 263.000
86.91548 254.000
86.93543 258.000
86.95538 254.000
86.97533 247.000
86.99527 285.000
87.01522 269.000
87.03517 280.000
87.05511 261.000
87.07506 288.000
87.09501 261.000
87.11495 272.000
87.13490 254.000
87.15485 275.000
87.17480 251.000
87.19474 260.000
87.21469 261.000
87.23464 258.000
87.25458 253.000
87.27453 267.000
87.29448 263.000
87.31442 248.000
87.33437 247.000
87.35432 273.000
87.37426 251.000
87.39421 257.000
87.41416 266.000
87.43411 278.000
87.45405 258.000
87.47400 276.000
87.49395 269.000
87.51389 247.000
87.53384 290.000
87.55379 261.000
87.57373 252.000
87.59368 281.000
87.61363 269.000
87.63358 280.000
87.65352 251.000
87.67347 288.000
87.69342 263.000
87.71336 256.000
87.73331 263.000
87.75326 261.000
87.77320 303.000
87.79315 279.000
87.81310 227.000
87.83304 240.000
87.85299 266.000
87.87294 256.000
87.89289 261.000
87.91283 290.000
87.93278 260.000
87.95273 277.000
87.97267 256.000
87.99262 278.000
88.01257 284.000
88.03251 262.000
88.05246 231.000
88.07241 279.000
88.09236 305.000
88.11230 273.000
88.13225 261.000
88.15220 279.000
88.17214 251.000
88.19209 247.000
88.21204 272.000
88.23198 271.000
88.25193 258.000
88.27188 254.000
88.29183 293.000
88.31177 267.000
88.33172 251.000
88.35167 273.000
88.37161 271.000
88.39156 253.000
88.41151 240.000
88.43145 292.000
88.45140 258.000
88.47135 269.000
88.49129 273.000
88.51124 236.000
88.53119 270.000
88.55114 299.000
88.57108 268.000
88.59103 247.000
88.61098 265.000
88.63092 244.000
88.65087 271.000
88.67082 261.000
88.69076 250.000
88.71071 250.000
88.73066 286.000
88.75061 251.000
88.77055 265.000
88.79050 242.000
88.81045 289.000
88.83039 252.000
88.85034 268.000
88.87029 256.000
88.89023 276.000
88.91018 261.000
88.93013 257.000
88.95007 264.000
88.97002 253.000
88.98997 291.000
89.00992 262.000
89.02986 289.000
89.04981 275.000
89.06976 269.000
89.08970 265.000
89.10965 264.000
89.12960 248.000
89.14954 255.000
89.16949 259.000
89.18944 249.000
89.20939 240.000
89.22933 265.000
89.24928 272.000
89.26923 255.000
89.28917 274.000
89.30912 283.000
89.32907 272.000
89.34901 266.000
89.36896 250.000
89.38891 246.000
89.40885 257.000
89.42880 301.000
89.44875 266.000
89.46870 288.000
89.48864 269.000
89.50859 289.000
89.52854 274.000
89.54848 275.000
89.56843 236.000
89.58838 300.000
89.60832 276.000
89.62827 280.000
89.64822 268.000
89.66817 279.000
89.68811 244.000
89.70806 270.000
89.72801 271.000
89.74795 250.000
89.76790 253.000
89.78785 262.000
89.80779 270.000
89.82774 258.000
89.84769 267.000
89.86764 246.000
89.88758 267.000
89.90753 255.000
89.92748 245.000
89.94742 246.000
89.96737 281.000
89.98732 244.000
90.00726 281.000
