10.00000 407.000
10.01995 455.000
10.03989 423.000
10.05984 386.000
10.07979 413.000
10.09973 404.000
10.11968 468.000
10.13963 410.000
10.15958 398.000
10.17952 453.000
10.19947 396.000
10.21942 406.000
10.23936 388.000
10.25931 427.000
10.27926 423.000
10.29920 463.000
10.31915 390.000
10.33910 389.000
10.35905 387.000
10.37899 393.000
10.39894 410.000
10.41889 422.000
10.43883 431.000
10.45878 459.000
10.47873 413.000
10.49867 444.000
10.51862 415.000
10.53857 420.000
10.55851 400.000
10.57846 403.000
10.59841 407.000
10.61836 423.000
10.63830 457.000
10.65825 407.000
10.67820 414.000
10.69814 421.000
10.71809 425.000
10.73804 427.000
10.75798 438.000
10.77793 400.000
10.79788 433.000
10.81783 411.000
10.83777 408.000
10.85772 463.000
10.87767 419.000
10.89761 398.000
10.91756 378.000
10.93751 407.000
10.95745 424.000
10.97740 450.000
10.99735 432.000
11.01730 431.000
11.03724 439.000
11.05719 437.000
11.07714 427.000
11.09708 402.000
11.11703 459.000
11.13698 412.000
11.15692 409.000
11.17687 398.000
11.19682 436.000
11.21676 422.000
11.23671 410.000
11.25666 411.000
11.27661 414.000
11.29655 470.000
11.31650 441.000
11.33645 425.000
11.35639 431.000
11.37634 423.000
11.39629 424.000
11.41623 439.000
11.43618 426.000
11.45613 438.000
11.47608 401.000
11.49602 446.000
11.51597 419.000
11.53592 442.000
11.55586 447.000
11.57581 430.000
11.59576 417.000
11.61570 426.000
11.63565 414.000
11.65560 427.000
11.67554 414.000
11.69549 429.000
11.71544 431.000
11.73539 413.000
11.75533 445.000
11.77528 415.000
11.79523 398.000
11.81517 428.000
11.83512 468.000
11.85507 433.000
11.87501 442.000
11.89496 436.000
11.91491 430.000
11.93486 405.000
11.95480 409.000
11.97475 417.000
11.99470 414.000
12.01464 406.000
12.03459 434.000
12.05454 449.000
12.07448 402.000
12.09443 459.000
12.11438 446.000
12.13432 422.000
12.15427 439.000
12.17422 427.000
12.19417 476.000
12.21411 398.000
12.23406 443.000
12.25401 465.000
12.27395 390.000
12.29390 437.000
12.31385 441.000
12.33379 448.000
12.35374 391.000
12.37369 437.000
12.39364 467.000
12.41358 412.000
12.43353 415.000
12.45348 456.000
12.47342 444.000
12.49337 457.000
12.51332 465.000
12.53326 434.000
12.55321 430.000
12.57316 440.000
12.59311 422.000
12.61305 440.000
12.63300 426.000
12.65295 416.000
12.67289 387.000
12.69284 424.000
12.71279 441.000
12.73273 448.000
12.75268 449.000
12.77263 433.000
12.79257 466.000
12.81252 410.000
12.83247 437.000
12.85242 422.000
12.87236 465.000
12.89231 434.000
12.91226 461.000
12.93220 429.000
12.95215 442.000
12.97210 450.000
12.99204 433.000
13.01199 437.000
13.03194 421.000
13.05189 412.000
13.07183 425.000
13.09178 444.000
13.11173 465.000
13.13167 410.000
13.15162 417.000
13.17157 412.000
13.19151 423.000
13.21146 465.000
13.23141 411.000
13.25135 393.000
13.27130 443.000
13.29125 424.000
13.31120 454.000
13.33114 443.000
13.35109 449.000
13.37104 445.000
13.39098 455.000
13.41093 449.000
13.43088 427.000
13.45082 431.000
13.47077 474.000
13.49072 452.000
13.51067 456.000
13.53061 409.000
13.55056 421.000
13.57051 464.000
13.59045 420.000
13.61040 406.000
13.63035 412.000
13.65029 457.000
13.67024 429.000
13.69019 415.000
13.71013 428.000
13.73008 465.000
13.75003 432.000
13.76998 473.000
13.78992 391.000
13.80987 447.000
13.82982 487.000
13.84976 407.000
13.86971 435.000
13.88966 433.000
13.90960 369.000
13.92955 426.000
13.94950 447.000
13.96945 432.000
13.98939 459.000
14.00934 428.000
14.02929 409.000
14.04923 443.000
14.06918 457.000
14.08913 472.000
14.10907 445.000
14.12902 447.000
14.14897 464.000
14.16892 430.000
14.18886 461.000
14.20881 482.000
14.22876 404.000
14.24870 451.000
14.26865 438.000
14.28860 420.000
14.30854 440.000
14.32849 451.000
14.34844 437.000
14.36838 423.000
14.38833 427.000
14.40828 406.000
14.42823 416.000
14.44817 466.000
14.46812 406.000
14.48807 426.000
14.50801 402.000
14.52796 465.000
14.54791 471.000
14.56785 465.000
14.58780 490.000
14.60775 422.000
14.62770 449.000
14.64764 429.000
14.66759 459.000
14.68754 445.000
14.70748 399.000
14.72743 438.000
14.74738 439.000
14.76732 460.000
14.78727 449.000
14.80722 467.000
14.82716 410.000
14.84711 476.000
14.86706 442.000
14.88701 452.000
14.90695 485.000
14.92690 451.000
14.94685 452.000
14.96679 471.000
14.98674 466.000
15.00669 451.000
15.02663 460.000
15.04658 482.000
15.06653 519.000
15.08648 481.000
15.10642 447.000
15.12637 417.000
15.14632 487.000
15.16626 456.000
15.18621 495.000
15.20616 493.000
15.22610 441.000
15.24605 472.000
15.26600 424.000
15.28594 523.000
15.30589 492.000
15.32584 481.000
15.34579 464.000
15.36573 469.000
15.38568 498.000
15.40563 474.000
15.42557 488.000
15.44552 497.000
15.46547 504.000
15.48541 504.000
15.50536 550.000
15.52531 542.000
15.54526 578.000
15.56520 644.000
15.58515 749.000
15.60510 881.000
15.62504 1114.000
15.64499 1455.000
15.66494 2130.000
15.68488 3002.000
15.70483 4056.000
15.72478 4847.000
15.74472 4849.000
15.76467 3675.000
15.78462 2614.000
15.80457 1616.000
15.82451 968.000
15.84446 743.000
15.86441 646.000
15.88435 535.000
15.90430 535.000
15.92425 539.000
15.94419 508.000
15.96414 528.000
15.98409 510.000
16.00404 489.000
16.02398 492.000
16.04393 456.000
16.06388 496.000
16.08382 483.000
16.10377 486.000
16.12372 465.000
16.14366 484.000
16.16361 463.000
16.18356 485.000
16.20351 494.000
16.22345 458.000
16.24340 439.000
16.26335 456.000
16.28329 442.000
16.30324 463.000
16.32319 448.000
16.34313 427.000
16.36308 452.000
16.38303 501.000
16.40297 401.000
16.42292 463.000
16.44287 473.000
16.46282 443.000
16.48276 473.000
16.50271 472.000
16.52266 449.000
16.54260 429.000
16.56255 459.000
16.58250 471.000
16.60244 465.000
16.62239 456.000
16.64234 421.000
16.66229 461.000
16.68223 445.000
16.70218 453.000
16.72213 417.000
16.74207 429.000
16.76202 434.000
16.78197 407.000
16.80191 448.000
16.82186 430.000
16.84181 472.000
16.86175 445.000
16.88170 422.000
16.90165 497.000
16.92160 473.000
16.94154 446.000
16.96149 434.000
16.98144 466.000
17.00138 460.000
17.02133 454.000
17.04128 431.000
17.06122 405.000
17.08117 451.000
17.10112 420.000
17.12107 478.000
17.14101 426.000
17.16096 450.000
17.18091 430.000
17.20085 469.000
17.22080 456.000
17.24075 458.000
17.26069 403.000
17.28064 453.000
17.30059 421.000
17.32053 439.000
17.34048 393.000
17.36043 420.000
17.38038 452.000
17.40032 423.000
17.42027 436.000
17.44022 452.000
17.46016 437.000
17.48011 440.000
17.50006 490.000
17.52000 429.000
17.53995 424.000
17.55990 425.000
17.57985 394.000
17.59979 409.000
17.61974 448.000
17.63969 453.000
17.65963 451.000
17.67958 450.000
17.69953 442.000
17.71947 482.000
17.73942 499.000
17.75937 440.000
17.77932 426.000
17.79926 399.000
17.81921 455.000
17.83916 436.000
17.85910 427.000
17.87905 489.000
17.89900 442.000
17.91894 422.000
17.93889 454.000
17.95884 445.000
17.97878 435.000
17.99873 436.000
18.01868 454.000
18.03863 443.000
18.05857 444.000
18.07852 472.000
18.09847 470.000
18.11841 480.000
18.13836 495.000
18.15831 552.000
18.17825 583.000
18.19820 574.000
18.21815 572.000
18.23810 516.000
18.25804 463.000
18.27799 481.000
18.29794 460.000
18.31788 435.000
18.33783 434.000
18.35778 462.000
18.37772 435.000
18.39767 428.000
18.41762 458.000
18.43756 428.000
18.45751 463.000
18.47746 436.000
18.49741 449.000
18.51735 450.000
18.53730 448.000
18.55725 450.000
18.57719 423.000
18.59714 470.000
18.61709 457.000
18.63703 479.000
18.65698 418.000
18.67693 459.000
18.69688 464.000
18.71682 433.000
18.73677 457.000
18.75672 445.000
18.77666 422.000
18.79661 417.000
18.81656 469.000
18.83650 450.000
18.85645 438.000
18.87640 433.000
18.89634 405.000
18.91629 450.000
18.93624 446.000
18.95619 422.000
18.97613 443.000
18.99608 445.000
19.01603 438.000
19.03597 421.000
19.05592 432.000
19.07587 441.000
19.09581 424.000
19.11576 414.000
19.13571 413.000
19.15566 472.000
19.17560 482.000
19.19555 445.000
19.21550 462.000
19.23544 439.000
19.25539 420.000
19.27534 422.000
19.29528 468.000
19.31523 419.000
19.33518 458.000
19.35513 394.000
19.37507 412.000
19.39502 438.000
19.41497 436.000
19.43491 402.000
19.45486 454.000
19.47481 413.000
19.49475 472.000
19.51470 418.000
19.53465 446.000
19.55459 470.000
19.57454 432.000
19.59449 440.000
19.61444 428.000
19.63438 434.000
19.65433 483.000
19.67428 427.000
19.69422 455.000
19.71417 460.000
19.73412 427.000
19.75406 415.000
19.77401 459.000
19.79396 434.000
19.81391 470.000
19.83385 466.000
19.85380 435.000
19.87375 425.000
19.89369 444.000
19.91364 471.000
19.93359 458.000
19.95353 437.000
19.97348 450.000
19.99343 448.000
20.01337 431.000
20.03332 475.000
20.05327 433.000
20.07322 447.000
20.09316 449.000
20.11311 396.000
20.13306 420.000
20.15300 465.000
20.17295 416.000
20.19290 477.000
20.21284 438.000
20.23279 451.000
20.25274 435.000
20.27269 424.000
20.29263 414.000
20.31258 458.000
20.33253 448.000
20.35247 431.000
20.37242 413.000
20.39237 470.000
20.41231 445.000
20.43226 437.000
20.45221 450.000
20.47215 458.000
20.49210 385.000
20.51205 473.000
20.53200 434.000
20.55194 417.000
20.57189 484.000
20.59184 446.000
20.61178 453.000
20.63173 432.000
20.65168 442.000
20.67162 458.000
20.69157 422.000
20.71152 461.000
20.73147 467.000
20.75141 477.000
20.77136 477.000
20.79131 481.000
20.81125 533.000
20.83120 572.000
20.85115 613.000
20.87109 587.000
20.89104 587.000
20.91099 627.000
20.93094 604.000
20.95088 595.000
20.97083 556.000
20.99078 589.000
21.01072 593.000
21.03067 573.000
21.05062 515.000
21.07056 575.000
21.09051 515.000
21.11046 499.000
21.13040 470.000
21.15035 508.000
21.17030 489.000
21.19025 446.000
21.21019 471.000
21.23014 438.000
21.25009 432.000
21.27003 476.000
21.28998 456.000
21.30993 458.000
21.32987 444.000
21.34982 423.000
21.36977 429.000
21.38972 421.000
21.40966 465.000
21.42961 449.000
21.44956 427.000
21.46950 448.000
21.48945 453.000
21.50940 455.000
21.52934 458.000
21.54929 488.000
21.56924 412.000
21.58918 425.000
21.60913 477.000
21.62908 460.000
21.64903 444.000
21.66897 493.000
21.68892 413.000
21.70887 466.000
21.72881 437.000
21.74876 447.000
21.76871 453.000
21.78865 438.000
21.80860 450.000
21.82855 425.000
21.84850 493.000
21.86844 447.000
21.88839 444.000
21.90834 419.000
21.92828 411.000
21.94823 454.000
21.96818 465.000
21.98812 445.000
22.00807 458.000
22.02802 465.000
22.04796 442.000
22.06791 443.000
22.08786 447.000
22.10781 427.000
22.12775 408.000
22.14770 447.000
22.16765 478.000
22.18759 403.000
22.20754 480.000
22.22749 441.000
22.24743 441.000
22.26738 433.000
22.28733 467.000
22.30728 466.000
22.32722 450.000
22.34717 413.000
22.36712 424.000
22.38706 486.000
22.40701 441.000
22.42696 459.000
22.44690 439.000
22.46685 421.000
22.48680 423.000
22.50675 431.000
22.52669 428.000
22.54664 398.000
22.56659 423.000
22.58653 460.000
22.60648 464.000
22.62643 448.000
22.64637 454.000
22.66632 410.000
22.68627 448.000
22.70621 434.000
22.72616 460.000
22.74611 503.000
22.76606 460.000
22.78600 470.000
22.80595 457.000
22.82590 486.000
22.84584 449.000
22.86579 425.000
22.88574 450.000
22.90568 438.000
22.92563 464.000
22.94558 463.000
22.96553 473.000
22.98547 457.000
23.00542 456.000
23.02537 429.000
23.04531 461.000
23.06526 470.000
23.08521 463.000
23.10515 460.000
23.12510 479.000
23.14505 453.000
23.16499 440.000
23.18494 450.000
23.20489 456.000
23.22484 408.000
23.24478 422.000
23.26473 470.000
23.28468 489.000
23.30462 439.000
23.32457 438.000
23.34452 433.000
23.36446 433.000
23.38441 447.000
23.40436 475.000
23.42431 457.000
23.44425 470.000
23.46420 471.000
23.48415 469.000
23.50409 430.000
23.52404 466.000
23.54399 478.000
23.56393 465.000
23.58388 468.000
23.60383 436.000
23.62377 430.000
23.64372 458.000
23.66367 475.000
23.68362 474.000
23.70356 458.000
23.72351 468.000
23.74346 415.000
23.76340 432.000
23.78335 479.000
23.80330 466.000
23.82324 460.000
23.84319 429.000
23.86314 452.000
23.88309 453.000
23.90303 410.000
23.92298 473.000
23.94293 431.000
23.96287 461.000
23.98282 422.000
24.00277 474.000
24.02271 489.000
24.04266 477.000
24.06261 434.000
24.08256 467.000
24.10250 451.000
24.12245 446.000
24.14240 473.000
24.16234 446.000
24.18229 477.000
24.20224 432.000
24.22218 423.000
24.24213 482.000
24.26208 465.000
24.28202 474.000
24.30197 455.000
24.32192 501.000
24.34187 471.000
24.36181 442.000
24.38176 435.000
24.40171 447.000
24.42165 480.000
24.44160 446.000
24.46155 462.000
24.48149 432.000
24.50144 436.000
24.52139 464.000
24.54134 475.000
24.56128 475.000
24.58123 465.000
24.60118 488.000
24.62112 451.000
24.64107 471.000
24.66102 429.000
24.68096 472.000
24.70091 449.000
24.72086 469.000
24.74080 452.000
24.76075 467.000
24.78070 466.000
24.80065 471.000
24.82059 425.000
24.84054 458.000
24.86049 452.000
24.88043 473.000
24.90038 469.000
24.92033 426.000
24.94027 450.000
24.96022 441.000
24.98017 467.000
25.00012 444.000
25.02006 443.000
25.04001 462.000
25.05996 440.000
25.07990 478.000
25.09985 462.000
25.11980 463.000
25.13974 456.000
25.15969 469.000
25.17964 429.000
25.19958 449.000
25.21953 433.000
25.23948 443.000
25.25943 467.000
25.27937 487.000
25.29932 463.000
25.31927 467.000
25.33921 451.000
25.35916 454.000
25.37911 471.000
25.39905 424.000
25.41900 429.000
25.43895 440.000
25.45890 449.000
25.47884 447.000
25.49879 416.000
25.51874 467.000
25.53868 458.000
25.55863 466.000
25.57858 476.000
25.59852 452.000
25.61847 450.000
25.63842 449.000
25.65837 442.000
25.67831 471.000
25.69826 503.000
25.71821 462.000
25.73815 455.000
25.75810 483.000
25.77805 444.000
25.79799 482.000
25.81794 460.000
25.83789 440.000
25.85783 470.000
25.87778 463.000
25.89773 435.000
25.91768 503.000
25.93762 466.000
25.95757 458.000
25.97752 498.000
25.99746 473.000
26.01741 469.000
26.03736 450.000
26.05730 457.000
26.07725 466.000
26.09720 451.000
26.11715 435.000
26.13709 459.000
26.15704 455.000
26.17699 451.000
26.19693 454.000
26.21688 439.000
26.23683 489.000
26.25677 495.000
26.27672 478.000
26.29667 436.000
26.31661 485.000
26.33656 439.000
26.35651 465.000
26.37646 500.000
26.39640 481.000
26.41635 450.000
26.43630 482.000
26.45624 465.000
26.47619 477.000
26.49614 488.000
26.51608 457.000
26.53603 498.000
26.55598 440.000
26.57593 470.000
26.59587 486.000
26.61582 512.000
26.63577 432.000
26.65571 455.000
26.67566 479.000
26.69561 471.000
26.71555 429.000
26.73550 450.000
26.75545 492.000
26.77539 482.000
26.79534 454.000
26.81529 473.000
26.83524 489.000
26.85518 487.000
26.87513 440.000
26.89508 445.000
26.91502 492.000
26.93497 470.000
26.95492 471.000
26.97486 519.000
26.99481 481.000
27.01476 464.000
27.03471 465.000
27.05465 471.000
27.07460 429.000
27.09455 463.000
27.11449 518.000
27.13444 508.000
27.15439 517.000
27.17433 464.000
27.19428 466.000
27.21423 485.000
27.23417 471.000
27.25412 468.000
27.27407 476.000
27.29402 479.000
27.31396 452.000
27.33391 479.000
27.35386 474.000
27.37380 432.000
27.39375 484.000
27.41370 437.000
27.43364 488.000
27.45359 470.000
27.47354 484.000
27.49349 489.000
27.51343 425.000
27.53338 482.000
27.55333 484.000
27.57327 475.000
27.59322 451.000
27.61317 487.000
27.63311 490.000
27.65306 473.000
27.67301 500.000
27.69296 461.000
27.71290 488.000
27.73285 463.000
27.75280 467.000
27.77274 514.000
27.79269 460.000
27.81264 449.000
27.83258 447.000
27.85253 478.000
27.87248 497.000
27.89242 479.000
27.91237 480.000
27.93232 490.000
27.95227 532.000
27.97221 482.000
27.99216 453.000
28.01211 511.000
28.03205 504.000
28.05200 513.000
28.07195 449.000
28.09189 480.000
28.11184 485.000
28.13179 455.000
28.15174 490.000
28.17168 479.000
28.19163 494.000
28.21158 461.000
28.23152 495.000
28.25147 480.000
28.27142 476.000
28.29136 472.000
28.31131 498.000
28.33126 458.000
28.35120 444.000
28.37115 511.000
28.39110 485.000
28.41105 470.000
28.43099 460.000
28.45094 468.000
28.47089 463.000
28.49083 487.000
28.51078 478.000
28.53073 474.000
28.55067 486.000
28.57062 480.000
28.59057 495.000
28.61052 498.000
28.63046 492.000
28.65041 459.000
28.67036 520.000
28.69030 512.000
28.71025 475.000
28.73020 470.000
28.75014 472.000
28.77009 485.000
28.79004 486.000
28.80998 476.000
28.82993 469.000
28.84988 542.000
28.86983 512.000
28.88977 455.000
28.90972 486.000
28.92967 464.000
28.94961 451.000
28.96956 465.000
28.98951 470.000
29.00945 459.000
29.02940 440.000
29.04935 510.000
29.06930 483.000
29.08924 479.000
29.10919 498.000
29.12914 481.000
29.14908 463.000
29.16903 488.000
29.18898 522.000
29.20892 467.000
29.22887 445.000
29.24882 530.000
29.26877 484.000
29.28871 519.000
29.30866 498.000
29.32861 491.000
29.34855 472.000
29.36850 518.000
29.38845 492.000
29.40839 514.000
29.42834 476.000
29.44829 511.000
29.46823 477.000
29.48818 523.000
29.50813 505.000
29.52808 437.000
29.54802 512.000
29.56797 485.000
29.58792 499.000
29.60786 504.000
29.62781 508.000
29.64776 507.000
29.66770 477.000
29.68765 480.000
29.70760 439.000
29.72755 476.000
29.74749 509.000
29.76744 493.000
29.78739 507.000
29.80733 480.000
29.82728 511.000
29.84723 539.000
29.86717 565.000
29.88712 644.000
29.90707 653.000
29.92701 643.000
29.94696 609.000
29.96691 634.000
29.98686 619.000
30.00680 595.000
30.02675 588.000
30.04670 554.000
30.06664 536.000
30.08659 527.000
30.10654 515.000
30.12648 445.000
30.14643 520.000
30.16638 528.000
30.18633 523.000
30.20627 509.000
30.22622 476.000
30.24617 472.000
30.26611 476.000
30.28606 543.000
30.30601 540.000
30.32595 501.000
30.34590 476.000
30.36585 507.000
30.38579 472.000
30.40574 473.000
30.42569 473.000
30.44564 433.000
30.46558 509.000
30.48553 489.000
30.50548 517.000
30.52542 535.000
30.54537 506.000
30.56532 511.000
30.58526 479.000
30.60521 484.000
30.62516 492.000
30.64511 493.000
30.66505 475.000
30.68500 488.000
30.70495 463.000
30.72489 481.000
30.74484 503.000
30.76479 497.000
30.78473 499.000
30.80468 524.000
30.82463 473.000
30.84458 477.000
30.86452 477.000
30.88447 519.000
30.90442 513.000
30.92436 482.000
30.94431 526.000
30.96426 516.000
30.98420 543.000
31.00415 520.000
31.02410 505.000
31.04404 482.000
31.06399 487.000
31.08394 484.000
31.10389 485.000
31.12383 474.000
31.14378 524.000
31.16373 499.000
31.18367 482.000
31.20362 491.000
31.22357 523.000
31.24351 533.000
31.26346 506.000
31.28341 487.000
31.30336 500.000
31.32330 519.000
31.34325 510.000
31.36320 532.000
31.38314 474.000
31.40309 483.000
31.42304 505.000
31.44298 477.000
31.46293 483.000
31.48288 481.000
31.50282 511.000
31.52277 490.000
31.54272 528.000
31.56267 508.000
31.58261 506.000
31.60256 499.000
31.62251 520.000
31.64245 585.000
31.66240 560.000
31.68235 536.000
31.70229 565.000
31.72224 633.000
31.74219 669.000
31.76214 766.000
31.78208 794.000
31.80203 802.000
31.82198 775.000
31.84192 683.000
31.86187 688.000
31.88182 655.000
31.90176 595.000
31.92171 618.000
31.94166 564.000
31.96160 536.000
31.98155 511.000
32.00150 524.000
32.02145 511.000
32.04139 536.000
32.06134 490.000
32.08129 544.000
32.10123 526.000
32.12118 501.000
32.14113 462.000
32.16107 515.000
32.18102 501.000
32.20097 526.000
32.22092 500.000
32.24086 499.000
32.26081 507.000
32.28076 504.000
32.30070 519.000
32.32065 523.000
32.34060 510.000
32.36054 519.000
32.38049 548.000
32.40044 521.000
32.42039 591.000
32.44033 576.000
32.46028 700.000
32.48023 850.000
32.50017 1026.000
32.52012 1075.000
32.54007 961.000
32.56001 831.000
32.57996 847.000
32.59991 832.000
32.61985 728.000
32.63980 632.000
32.65975 639.000
32.67970 537.000
32.69964 516.000
32.71959 535.000
32.73954 540.000
32.75948 517.000
32.77943 499.000
32.79938 509.000
32.81932 473.000
32.83927 501.000
32.85922 503.000
32.87917 521.000
32.89911 485.000
32.91906 486.000
32.93901 488.000
32.95895 497.000
32.97890 490.000
32.99885 495.000
33.01879 449.000
33.03874 498.000
33.05869 502.000
33.07863 518.000
33.09858 501.000
33.11853 521.000
33.13848 538.000
33.15842 478.000
33.17837 517.000
33.19832 497.000
33.21826 498.000
33.23821 473.000
33.25816 515.000
33.27810 501.000
33.29805 465.000
33.31800 473.000
33.33795 466.000
33.35789 494.000
33.37784 451.000
33.39779 477.000
33.41773 493.000
33.43768 530.000
33.45763 488.000
33.47757 518.000
33.49752 501.000
33.51747 514.000
33.53741 501.000
33.55736 466.000
33.57731 487.000
33.59726 515.000
33.61720 482.000
33.63715 511.000
33.65710 505.000
33.67704 493.000
33.69699 493.000
33.71694 511.000
33.73688 473.000
33.75683 517.000
33.77678 468.000
33.79673 506.000
33.81667 505.000
33.83662 540.000
33.85657 508.000
33.87651 469.000
33.89646 542.000
33.91641 513.000
33.93635 505.000
33.95630 516.000
33.97625 563.000
33.99620 537.000
34.01614 496.000
34.03609 489.000
34.05604 497.000
34.07598 495.000
34.09593 484.000
34.11588 510.000
34.13582 543.000
34.15577 558.000
34.17572 544.000
34.19566 539.000
34.21561 548.000
34.23556 543.000
34.25551 570.000
34.27545 598.000
34.29540 594.000
34.31535 664.000
34.33529 650.000
34.35524 665.000
34.37519 726.000
34.39513 719.000
34.41508 691.000
34.43503 736.000
34.45498 758.000
34.47492 692.000
34.49487 678.000
34.51482 623.000
34.53476 654.000
34.55471 610.000
34.57466 697.000
34.59460 583.000
34.61455 606.000
34.63450 618.000
34.65444 609.000
34.67439 635.000
34.69434 655.000
34.71429 632.000
34.73423 636.000
34.75418 631.000
34.77413 668.000
34.79407 703.000
34.81402 615.000
34.83397 639.000
34.85391 655.000
34.87386 660.000
34.89381 627.000
34.91376 621.000
34.93370 622.000
34.95365 634.000
34.97360 601.000
34.99354 613.000
35.01349 625.000
35.03344 612.000
35.05338 630.000
35.07333 637.000
35.09328 660.000
35.11322 730.000
35.13317 728.000
35.15312 780.000
35.17307 902.000
35.19301 963.000
35.21296 1122.000
35.23291 1201.000
35.25285 1343.000
35.27280 1348.000
35.29275 1420.000
35.31269 1511.000
35.33264 1563.000
35.35259 1688.000
35.37254 2026.000
35.39248 2540.000
35.41243 3163.000
35.43238 3684.000
35.45232 3981.000
35.47227 3922.000
35.49222 4600.000
35.51216 5813.000
35.53211 6473.000
35.55206 5948.000
35.57201 4731.000
35.59195 4089.000
35.61190 3784.000
35.63185 3550.000
35.65179 2812.000
35.67174 2171.000
35.69169 1649.000
35.71163 1282.000
35.73158 1060.000
35.75153 919.000
35.77147 806.000
35.79142 800.000
35.81137 729.000
35.83132 667.000
35.85126 653.000
35.87121 678.000
35.89116 604.000
35.91110 642.000
35.93105 581.000
35.95100 630.000
35.97094 587.000
35.99089 627.000
36.01084 608.000
36.03079 552.000
36.05073 587.000
36.07068 594.000
36.09063 548.000
36.11057 501.000
36.13052 565.000
36.15047 530.000
36.17041 547.000
36.19036 522.000
36.21031 547.000
36.23025 518.000
36.25020 560.000
36.27015 534.000
36.29010 544.000
36.31004 510.000
36.32999 544.000
36.34994 498.000
36.36988 541.000
36.38983 606.000
36.40978 549.000
36.42972 561.000
36.44967 567.000
36.46962 528.000
36.48957 557.000
36.50951 555.000
36.52946 536.000
36.54941 531.000
36.56935 534.000
36.58930 541.000
36.60925 513.000
36.62919 538.000
36.64914 524.000
36.66909 504.000
36.68903 476.000
36.70898 506.000
36.72893 532.000
36.74888 538.000
36.76882 527.000
36.78877 516.000
36.80872 553.000
36.82866 557.000
36.84861 573.000
36.86856 586.000
36.88850 510.000
36.90845 573.000
36.92840 555.000
36.94835 522.000
36.96829 499.000
36.98824 557.000
37.00819 573.000
37.02813 560.000
37.04808 537.000
37.06803 493.000
37.08797 536.000
37.10792 511.000
37.12787 493.000
37.14781 514.000
37.16776 499.000
37.18771 529.000
37.20766 557.000
37.22760 506.000
37.24755 520.000
37.26750 504.000
37.28744 548.000
37.30739 534.000
37.32734 510.000
37.34728 560.000
37.36723 543.000
37.38718 496.000
37.40713 514.000
37.42707 524.000
37.44702 504.000
37.46697 528.000
37.48691 523.000
37.50686 487.000
37.52681 517.000
37.54675 542.000
37.56670 522.000
37.58665 494.000
37.60660 499.000
37.62654 523.000
37.64649 552.000
37.66644 523.000
37.68638 545.000
37.70633 551.000
37.72628 540.000
37.74622 543.000
37.76617 557.000
37.78612 557.000
37.80606 504.000
37.82601 525.000
37.84596 579.000
37.86591 540.000
37.88585 536.000
37.90580 550.000
37.92575 545.000
37.94569 542.000
37.96564 589.000
37.98559 546.000
38.00553 582.000
38.02548 515.000
38.04543 555.000
38.06538 587.000
38.08532 584.000
38.10527 594.000
38.12522 609.000
38.14516 626.000
38.16511 594.000
38.18506 614.000
38.20500 610.000
38.22495 627.000
38.24490 578.000
38.26484 652.000
38.28479 669.000
38.30474 669.000
38.32469 674.000
38.34463 670.000
38.36458 690.000
38.38453 702.000
38.40447 768.000
38.42442 791.000
38.44437 704.000
38.46431 840.000
38.48426 862.000
38.50421 904.000
38.52416 1012.000
38.54410 1044.000
38.56405 1218.000
38.58400 1385.000
38.60394 1687.000
38.62389 1995.000
38.64384 2433.000
38.66378 3125.000
38.68373 3851.000
38.70368 4835.000
38.72362 5818.000
38.74357 5730.000
38.76352 5168.000
38.78347 4607.000
38.80341 4551.000
38.82336 4435.000
38.84331 4172.000
38.86325 3836.000
38.88320 3418.000
38.90315 3070.000
38.92309 2735.000
38.94304 2395.000
38.96299 2039.000
38.98294 1980.000
39.00288 1990.000
39.02283 1853.000
39.04278 1612.000
39.06272 1496.000
39.08267 1316.000
39.10262 1155.000
39.12256 1138.000
39.14251 1074.000
39.16246 968.000
39.18241 940.000
39.20235 891.000
39.22230 825.000
39.24225 793.000
39.26219 760.000
39.28214 759.000
39.30209 681.000
39.32203 702.000
39.34198 696.000
39.36193 681.000
39.38187 631.000
39.40182 631.000
39.42177 593.000
39.44172 602.000
39.46166 563.000
39.48161 583.000
39.50156 515.000
39.52150 581.000
39.54145 555.000
39.56140 562.000
39.58134 547.000
39.60129 538.000
39.62124 551.000
39.64119 533.000
39.66113 496.000
39.68108 547.000
39.70103 522.000
39.72097 507.000
39.74092 511.000
39.76087 502.000
39.78081 526.000
39.80076 518.000
39.82071 519.000
39.84065 502.000
39.86060 522.000
39.88055 523.000
39.90050 477.000
39.92044 557.000
39.94039 510.000
39.96034 512.000
39.98028 490.000
40.00023 485.000
40.02018 536.000
40.04012 481.000
40.06007 523.000
40.08002 539.000
40.09997 514.000
40.11991 497.000
40.13986 479.000
40.15981 521.000
40.17975 487.000
40.19970 519.000
40.21965 473.000
40.23959 514.000
40.25954 503.000
40.27949 451.000
40.29943 485.000
40.31938 494.000
40.33933 485.000
40.35928 527.000
40.37922 474.000
40.39917 461.000
40.41912 501.000
40.43906 510.000
40.45901 474.000
40.47896 488.000
40.49890 502.000
40.51885 484.000
40.53880 451.000
40.55875 510.000
40.57869 494.000
40.59864 504.000
40.61859 499.000
40.63853 536.000
40.65848 509.000
40.67843 516.000
40.69837 473.000
40.71832 503.000
40.73827 510.000
40.75822 503.000
40.77816 490.000
40.79811 495.000
40.81806 522.000
40.83800 469.000
40.85795 508.000
40.87790 488.000
40.89784 484.000
40.91779 460.000
40.93774 476.000
40.95768 512.000
40.97763 517.000
40.99758 480.000
41.01753 505.000
41.03747 515.000
41.05742 513.000
41.07737 474.000
41.09731 428.000
41.11726 470.000
41.13721 453.000
41.15715 497.000
41.17710 493.000
41.19705 471.000
41.21700 458.000
41.23694 486.000
41.25689 514.000
41.27684 504.000
41.29678 516.000
41.31673 467.000
41.33668 460.000
41.35662 484.000
41.37657 476.000
41.39652 472.000
41.41646 459.000
41.43641 495.000
41.45636 492.000
41.47631 497.000
41.49625 489.000
41.51620 531.000
41.53615 501.000
41.55609 508.000
41.57604 482.000
41.59599 487.000
41.61593 447.000
41.63588 468.000
41.65583 503.000
41.67578 465.000
41.69572 507.000
41.71567 490.000
41.73562 468.000
41.75556 490.000
41.77551 502.000
41.79546 500.000
41.81540 500.000
41.83535 469.000
41.85530 493.000
41.87524 442.000
41.89519 504.000
41.91514 514.000
41.93509 473.000
41.95503 474.000
41.97498 453.000
41.99493 498.000
42.01487 448.000
42.03482 469.000
42.05477 513.000
42.07471 508.000
42.09466 513.000
42.11461 507.000
42.13456 484.000
42.15450 476.000
42.17445 505.000
42.19440 471.000
42.21434 506.000
42.23429 513.000
42.25424 478.000
42.27418 473.000
42.29413 471.000
42.31408 483.000
42.33403 459.000
42.35397 475.000
42.37392 503.000
42.39387 478.000
42.41381 492.000
42.43376 474.000
42.45371 486.000
42.47365 520.000
42.49360 467.000
42.51355 483.000
42.53349 513.000
42.55344 495.000
42.57339 503.000
42.59334 504.000
42.61328 495.000
42.63323 534.000
42.65318 486.000
42.67312 492.000
42.69307 507.000
42.71302 560.000
42.73296 532.000
42.75291 564.000
42.77286 575.000
42.79281 556.000
42.81275 588.000
42.83270 591.000
42.85265 616.000
42.87259 645.000
42.89254 641.000
42.91249 608.000
42.93243 616.000
42.95238 612.000
42.97233 600.000
42.99227 578.000
43.01222 614.000
43.03217 568.000
43.05212 647.000
43.07206 666.000
43.09201 638.000
43.11196 675.000
43.13190 668.000
43.15185 660.000
43.17180 655.000
43.19174 662.000
43.21169 605.000
43.23164 683.000
43.25159 611.000
43.27153 648.000
43.29148 585.000
43.31143 557.000
43.33137 610.000
43.35132 516.000
43.37127 589.000
43.39121 556.000
43.41116 540.000
43.43111 543.000
43.45105 505.000
43.47100 503.000
43.49095 528.000
43.51090 529.000
43.53084 553.000
43.55079 517.000
43.57074 504.000
43.59068 526.000
43.61063 546.000
43.63058 472.000
43.65052 521.000
43.67047 511.000
43.69042 486.000
43.71037 477.000
43.73031 472.000
43.75026 483.000
43.77021 493.000
43.79015 492.000
43.81010 487.000
43.83005 488.000
43.84999 513.000
43.86994 481.000
43.88989 474.000
43.90984 474.000
43.92978 496.000
43.94973 479.000
43.96968 494.000
43.98962 478.000
44.00957 483.000
44.02952 510.000
44.04946 504.000
44.06941 483.000
44.08936 500.000
44.10930 473.000
44.12925 499.000
44.14920 488.000
44.16915 458.000
44.18909 517.000
44.20904 501.000
44.22899 468.000
44.24893 485.000
44.26888 479.000
44.28883 449.000
44.30877 497.000
44.32872 514.000
44.34867 481.000
44.36862 509.000
44.38856 487.000
44.40851 459.000
44.42846 467.000
44.44840 476.000
44.46835 473.000
44.48830 480.000
44.50824 516.000
44.52819 493.000
44.54814 493.000
44.56808 475.000
44.58803 487.000
44.60798 518.000
44.62793 544.000
44.64787 475.000
44.66782 470.000
44.68777 470.000
44.70771 472.000
44.72766 475.000
44.74761 471.000
44.76755 459.000
44.78750 513.000
44.80745 473.000
44.82740 502.000
44.84734 493.000
44.86729 502.000
44.88724 484.000
44.90718 454.000
44.92713 483.000
44.94708 510.000
44.96702 526.000
44.98697 462.000
45.00692 478.000
45.02686 425.000
45.04681 464.000
45.06676 501.000
45.08671 485.000
45.10665 476.000
45.12660 486.000
45.14655 420.000
45.16649 474.000
45.18644 479.000
45.20639 496.000
45.22633 487.000
45.24628 454.000
45.26623 472.000
45.28618 490.000
45.30612 477.000
45.32607 459.000
45.34602 469.000
45.36596 477.000
45.38591 508.000
45.40586 440.000
45.42580 516.000
45.44575 530.000
45.46570 463.000
45.48565 483.000
45.50559 448.000
45.52554 488.000
45.54549 495.000
45.56543 491.000
45.58538 473.000
45.60533 476.000
45.62527 484.000
45.64522 490.000
45.66517 492.000
45.68511 484.000
45.70506 504.000
45.72501 476.000
45.74496 438.000
45.76490 469.000
45.78485 487.000
45.80480 454.000
45.82474 492.000
45.84469 508.000
45.86464 461.000
45.88458 486.000
45.90453 485.000
45.92448 449.000
45.94443 493.000
45.96437 460.000
45.98432 467.000
46.00427 471.000
46.02421 494.000
46.04416 499.000
46.06411 430.000
46.08405 519.000
46.10400 516.000
46.12395 512.000
46.14389 497.000
46.16384 531.000
46.18379 535.000
46.20374 567.000
46.22368 565.000
46.24363 617.000
46.26358 531.000
46.28352 563.000
46.30347 574.000
46.32342 550.000
46.34336 539.000
46.36331 570.000
46.38326 546.000
46.40321 522.000
46.42315 535.000
46.44310 511.000
46.46305 529.000
46.48299 496.000
46.50294 494.000
46.52289 448.000
46.54283 503.000
46.56278 455.000
46.58273 500.000
46.60267 468.000
46.62262 506.000
46.64257 522.000
46.66252 450.000
46.68246 492.000
46.70241 484.000
46.72236 510.000
46.74230 501.000
46.76225 514.000
46.78220 500.000
46.80214 459.000
46.82209 486.000
46.84204 508.000
46.86199 510.000
46.88193 473.000
46.90188 508.000
46.92183 482.000
46.94177 531.000
46.96172 479.000
46.98167 490.000
47.00161 508.000
47.02156 507.000
47.04151 508.000
47.06146 463.000
47.08140 501.000
47.10135 466.000
47.12130 476.000
47.14124 452.000
47.16119 444.000
47.18114 473.000
47.20108 505.000
47.22103 521.000
47.24098 472.000
47.26092 474.000
47.28087 501.000
47.30082 498.000
47.32077 503.000
47.34071 512.000
47.36066 461.000
47.38061 450.000
47.40055 524.000
47.42050 530.000
47.44045 481.000
47.46039 496.000
47.48034 517.000
47.50029 478.000
47.52024 464.000
47.54018 472.000
47.56013 483.000
47.58008 498.000
47.60002 513.000
47.61997 459.000
47.63992 494.000
47.65986 489.000
47.67981 495.000
47.69976 507.000
47.71970 522.000
47.73965 503.000
47.75960 480.000
47.77955 504.000
47.79949 497.000
47.81944 519.000
47.83939 534.000
47.85933 511.000
47.87928 536.000
47.89923 511.000
47.91917 511.000
47.93912 520.000
47.95907 507.000
47.97902 495.000
47.99896 489.000
48.01891 537.000
48.03886 516.000
48.05880 514.000
48.07875 575.000
48.09870 547.000
48.11864 566.000
48.13859 566.000
48.15854 597.000
48.17848 521.000
48.19843 651.000
48.21838 601.000
48.23833 676.000
48.25827 707.000
48.27822 727.000
48.29817 773.000
48.31811 924.000
48.33806 991.000
48.35801 1030.000
48.37795 1082.000
48.39790 1057.000
48.41785 1100.000
48.43780 1099.000
48.45774 1046.000
48.47769 1121.000
48.49764 1002.000
48.51758 1103.000
48.53753 1017.000
48.55748 1063.000
48.57742 1076.000
48.59737 1295.000
48.61732 1339.000
48.63726 1612.000
48.65721 1700.000
48.67716 1907.000
48.69711 1891.000
48.71705 1689.000
48.73700 1596.000
48.75695 1521.000
48.77689 1433.000
48.79684 1372.000
48.81679 1367.000
48.83673 1232.000
48.85668 974.000
48.87663 880.000
48.89658 846.000
48.91652 709.000
48.93647 700.000
48.95642 645.000
48.97636 602.000
48.99631 542.000
49.01626 560.000
49.03620 544.000
49.05615 549.000
49.07610 506.000
49.09605 519.000
49.11599 566.000
49.13594 516.000
49.15589 495.000
49.17583 445.000
49.19578 478.000
49.21573 551.000
49.23567 523.000
49.25562 528.000
49.27557 541.000
49.29551 473.000
49.31546 544.000
49.33541 489.000
49.35536 513.000
49.37530 460.000
49.39525 528.000
49.41520 542.000
49.43514 524.000
49.45509 501.000
49.47504 508.000
49.49498 487.000
49.51493 497.000
49.53488 487.000
49.55483 533.000
49.57477 497.000
49.59472 555.000
49.61467 517.000
49.63461 471.000
49.65456 492.000
49.67451 490.000
49.69445 505.000
49.71440 510.000
49.73435 488.000
49.75429 519.000
49.77424 468.000
49.79419 494.000
49.81414 465.000
49.83408 493.000
49.85403 450.000
49.87398 509.000
49.89392 492.000
49.91387 511.000
49.93382 466.000
49.95376 482.000
49.97371 490.000
49.99366 516.000
50.01361 455.000
50.03355 485.000
50.05350 497.000
50.07345 501.000
50.09339 457.000
50.11334 440.000
50.13329 496.000
50.15323 471.000
50.17318 457.000
50.19313 460.000
50.21307 508.000
50.23302 528.000
50.25297 475.000
50.27292 486.000
50.29286 491.000
50.31281 486.000
50.33276 469.000
50.35270 489.000
50.37265 502.000
50.39260 463.000
50.41254 448.000
50.43249 485.000
50.45244 492.000
50.47239 446.000
50.49233 486.000
50.51228 526.000
50.53223 494.000
50.55217 453.000
50.57212 468.000
50.59207 485.000
50.61201 508.000
50.63196 494.000
50.65191 508.000
50.67186 496.000
50.69180 491.000
50.71175 496.000
50.73170 512.000
50.75164 435.000
50.77159 486.000
50.79154 460.000
50.81148 506.000
50.83143 527.000
50.85138 517.000
50.87132 464.000
50.89127 466.000
50.91122 486.000
50.93117 509.000
50.95111 494.000
50.97106 464.000
50.99101 476.000
51.01095 439.000
51.03090 513.000
51.05085 509.000
51.07079 489.000
51.09074 441.000
51.11069 497.000
51.13064 542.000
51.15058 476.000
51.17053 491.000
51.19048 513.000
51.21042 519.000
51.23037 509.000
51.25032 482.000
51.27026 483.000
51.29021 528.000
51.31016 503.000
51.33010 571.000
51.35005 535.000
51.37000 545.000
51.38995 511.000
51.40989 538.000
51.42984 529.000
51.44979 512.000
51.46973 503.000
51.48968 508.000
51.50963 510.000
51.52957 522.000
51.54952 512.000
51.56947 495.000
51.58942 482.000
51.60936 460.000
51.62931 473.000
51.64926 498.000
51.66920 476.000
51.68915 492.000
51.70910 470.000
51.72904 486.000
51.74899 470.000
51.76894 482.000
51.78888 509.000
51.80883 489.000
51.82878 477.000
51.84873 485.000
51.86867 444.000
51.88862 494.000
51.90857 492.000
51.92851 491.000
51.94846 512.000
51.96841 507.000
51.98835 489.000
52.00830 477.000
52.02825 487.000
52.04820 501.000
52.06814 481.000
52.08809 514.000
52.10804 424.000
52.12798 453.000
52.14793 474.000
52.16788 475.000
52.18782 466.000
52.20777 490.000
52.22772 478.000
52.24767 473.000
52.26761 460.000
52.28756 484.000
52.30751 458.000
52.32745 446.000
52.34740 483.000
52.36735 469.000
52.38729 515.000
52.40724 460.000
52.42719 466.000
52.44713 462.000
52.46708 535.000
52.48703 462.000
52.50698 484.000
52.52692 470.000
52.54687 449.000
52.56682 489.000
52.58676 498.000
52.60671 453.000
52.62666 497.000
52.64660 493.000
52.66655 458.000
52.68650 492.000
52.70645 490.000
52.72639 498.000
52.74634 456.000
52.76629 519.000
52.78623 494.000
52.80618 486.000
52.82613 543.000
52.84607 486.000
52.86602 528.000
52.88597 476.000
52.90591 476.000
52.92586 540.000
52.94581 470.000
52.96576 485.000
52.98570 512.000
53.00565 544.000
53.02560 483.000
53.04554 502.000
53.06549 496.000
53.08544 499.000
53.10538 562.000
53.12533 505.000
53.14528 549.000
53.16523 495.000
53.18517 566.000
53.20512 612.000
53.22507 506.000
53.24501 546.000
53.26496 530.000
53.28491 590.000
53.30485 543.000
53.32480 572.000
53.34475 611.000
53.36469 611.000
53.38464 610.000
53.40459 664.000
53.42454 647.000
53.44448 692.000
53.46443 755.000
53.48438 773.000
53.50432 773.000
53.52427 760.000
53.54422 768.000
53.56416 773.000
53.58411 771.000
53.60406 775.000
53.62401 812.000
53.64395 723.000
53.66390 720.000
53.68385 674.000
53.70379 703.000
53.72374 626.000
53.74369 556.000
53.76363 595.000
53.78358 583.000
53.80353 541.000
53.82348 540.000
53.84342 552.000
53.86337 529.000
53.88332 520.000
53.90326 473.000
53.92321 495.000
53.94316 519.000
53.96310 554.000
53.98305 500.000
54.00300 481.000
54.02294 512.000
54.04289 493.000
54.06284 460.000
54.08279 480.000
54.10273 484.000
54.12268 511.000
54.14263 481.000
54.16257 490.000
54.18252 505.000
54.20247 496.000
54.22241 479.000
54.24236 484.000
54.26231 479.000
54.28226 460.000
54.30220 485.000
54.32215 534.000
54.34210 530.000
54.36204 499.000
54.38199 522.000
54.40194 498.000
54.42188 475.000
54.44183 506.000
54.46178 471.000
54.48172 486.000
54.50167 494.000
54.52162 485.000
54.54157 469.000
54.56151 467.000
54.58146 471.000
54.60141 457.000
54.62135 449.000
54.64130 484.000
54.66125 502.000
54.68119 509.000
54.70114 455.000
54.72109 464.000
54.74104 490.000
54.76098 494.000
54.78093 488.000
54.80088 465.000
54.82082 475.000
54.84077 509.000
54.86072 454.000
54.88066 494.000
54.90061 477.000
54.92056 467.000
54.94050 478.000
54.96045 474.000
54.98040 512.000
55.00035 441.000
55.02029 480.000
55.04024 496.000
55.06019 451.000
55.08013 470.000
55.10008 458.000
55.12003 479.000
55.13997 481.000
55.15992 506.000
55.17987 503.000
55.19982 475.000
55.21976 482.000
55.23971 461.000
55.25966 463.000
55.27960 480.000
55.29955 468.000
55.31950 481.000
55.33944 482.000
55.35939 460.000
55.37934 478.000
55.39929 465.000
55.41923 437.000
55.43918 460.000
55.45913 499.000
55.47907 468.000
55.49902 469.000
55.51897 482.000
55.53891 491.000
55.55886 473.000
55.57881 453.000
55.59875 502.000
55.61870 472.000
55.63865 483.000
55.65860 465.000
55.67854 506.000
55.69849 544.000
55.71844 474.000
55.73838 494.000
55.75833 474.000
55.77828 504.000
55.79822 466.000
55.81817 476.000
55.83812 464.000
55.85807 493.000
55.87801 482.000
55.89796 485.000
55.91791 464.000
55.93785 484.000
55.95780 481.000
55.97775 469.000
55.99769 506.000
56.01764 487.000
56.03759 480.000
56.05753 427.000
56.07748 500.000
56.09743 483.000
56.11738 488.000
56.13732 492.000
56.15727 491.000
56.17722 489.000
56.19716 464.000
56.21711 469.000
56.23706 483.000
56.25700 503.000
56.27695 458.000
56.29690 508.000
56.31685 486.000
56.33679 471.000
56.35674 518.000
56.37669 475.000
56.39663 505.000
56.41658 489.000
56.43653 495.000
56.45647 501.000
56.47642 490.000
56.49637 518.000
56.51631 527.000
56.53626 552.000
56.55621 592.000
56.57616 540.000
56.59610 564.000
56.61605 622.000
56.63600 588.000
56.65594 628.000
56.67589 572.000
56.69584 613.000
56.71578 603.000
56.73573 600.000
56.75568 532.000
56.77563 579.000
56.79557 577.000
56.81552 543.000
56.83547 550.000
56.85541 530.000
56.87536 566.000
56.89531 543.000
56.91525 514.000
56.93520 525.000
56.95515 516.000
56.97510 528.000
56.99504 494.000
57.01499 468.000
57.03494 510.000
57.05488 508.000
57.07483 510.000
57.09478 528.000
57.11472 473.000
57.13467 462.000
57.15462 495.000
57.17456 502.000
57.19451 475.000
57.21446 491.000
57.23441 464.000
57.25435 476.000
57.27430 455.000
57.29425 493.000
57.31419 490.000
57.33414 501.000
57.35409 489.000
57.37403 491.000
57.39398 460.000
57.41393 528.000
57.43388 477.000
57.45382 474.000
57.47377 467.000
57.49372 460.000
57.51366 494.000
57.53361 499.000
57.55356 486.000
57.57350 470.000
57.59345 491.000
57.61340 489.000
57.63334 544.000
57.65329 504.000
57.67324 504.000
57.69319 479.000
57.71313 505.000
57.73308 454.000
57.75303 506.000
57.77297 524.000
57.79292 511.000
57.81287 496.000
57.83281 504.000
57.85276 503.000
57.87271 568.000
57.89266 523.000
57.91260 559.000
57.93255 491.000
57.95250 538.000
57.97244 540.000
57.99239 532.000
58.01234 528.000
58.03228 505.000
58.05223 558.000
58.07218 600.000
58.09212 561.000
58.11207 565.000
58.13202 643.000
58.15197 637.000
58.17191 678.000
58.19186 789.000
58.21181 837.000
58.23175 896.000
58.25170 919.000
58.27165 977.000
58.29159 1046.000
58.31154 1029.000
58.33149 1071.000
58.35144 962.000
58.37138 857.000
58.39133 806.000
58.41128 787.000
58.43122 824.000
58.45117 816.000
58.47112 802.000
58.49106 749.000
58.51101 722.000
58.53096 651.000
58.55090 614.000
58.57085 601.000
58.59080 579.000
58.61075 600.000
58.63069 522.000
58.65064 535.000
58.67059 483.000
58.69053 481.000
58.71048 482.000
58.73043 501.000
58.75037 474.000
58.77032 492.000
58.79027 517.000
58.81022 519.000
58.83016 453.000
58.85011 491.000
58.87006 524.000
58.89000 502.000
58.90995 519.000
58.92990 515.000
58.94984 465.000
58.96979 519.000
58.98974 462.000
59.00969 484.000
59.02963 520.000
59.04958 508.000
59.06953 471.000
59.08947 438.000
59.10942 510.000
59.12937 507.000
59.14931 457.000
59.16926 448.000
59.18921 474.000
59.20915 470.000
59.22910 488.000
59.24905 471.000
59.26900 483.000
59.28894 478.000
59.30889 530.000
59.32884 494.000
59.34878 472.000
59.36873 496.000
59.38868 489.000
59.40862 490.000
59.42857 490.000
59.44852 487.000
59.46847 479.000
59.48841 472.000
59.50836 502.000
59.52831 458.000
59.54825 504.000
59.56820 473.000
59.58815 462.000
59.60809 483.000
59.62804 462.000
59.64799 492.000
59.66793 446.000
59.68788 508.000
59.70783 491.000
59.72778 493.000
59.74772 481.000
59.76767 470.000
59.78762 509.000
59.80756 508.000
59.82751 466.000
59.84746 470.000
59.86740 467.000
59.88735 490.000
59.90730 474.000
59.92725 475.000
59.94719 464.000
59.96714 479.000
59.98709 489.000
60.00703 471.000
60.02698 555.000
60.04693 490.000
60.06687 533.000
60.08682 505.000
60.10677 495.000
60.12671 481.000
60.14666 445.000
60.16661 455.000
60.18656 455.000
60.20650 430.000
60.22645 510.000
60.24640 491.000
60.26634 504.000
60.28629 463.000
60.30624 478.000
60.32618 483.000
60.34613 482.000
60.36608 429.000
60.38603 498.000
60.40597 496.000
60.42592 520.000
60.44587 516.000
60.46581 466.000
60.48576 493.000
60.50571 531.000
60.52565 465.000
60.54560 480.000
60.56555 482.000
60.58550 504.000
60.60544 436.000
60.62539 476.000
60.64534 503.000
60.66528 487.000
60.68523 507.000
60.70518 522.000
60.72512 493.000
60.74507 480.000
60.76502 494.000
60.78496 498.000
60.80491 493.000
60.82486 478.000
60.84481 522.000
60.86475 517.000
60.88470 504.000
60.90465 522.000
60.92459 522.000
60.94454 502.000
60.96449 498.000
60.98443 526.000
61.00438 490.000
61.02433 524.000
61.04428 485.000
61.06422 558.000
61.08417 547.000
61.10412 553.000
61.12406 548.000
61.14401 598.000
61.16396 556.000
61.18390 524.000
61.20385 566.000
61.22380 565.000
61.24374 601.000
61.26369 586.000
61.28364 657.000
61.30359 625.000
61.32353 630.000
61.34348 737.000
61.36343 640.000
61.38337 725.000
61.40332 754.000
61.42327 894.000
61.44321 1019.000
61.46316 1120.000
61.48311 1335.000
61.50306 1536.000
61.52300 1680.000
61.54295 1643.000
61.56290 1561.000
61.58284 1390.000
61.60279 1300.000
61.62274 1188.000
61.64268 1216.000
61.66263 1268.000
61.68258 1294.000
61.70252 1259.000
61.72247 1148.000
61.74242 1069.000
61.76237 942.000
61.78231 799.000
61.80226 745.000
61.82221 706.000
61.84215 682.000
61.86210 632.000
61.88205 635.000
61.90199 621.000
61.92194 588.000
61.94189 583.000
61.96184 580.000
61.98178 561.000
62.00173 572.000
62.02168 599.000
62.04162 607.000
62.06157 570.000
62.08152 530.000
62.10146 592.000
62.12141 598.000
62.14136 629.000
62.16131 613.000
62.18125 665.000
62.20120 669.000
62.22115 673.000
62.24109 614.000
62.26104 620.000
62.28099 644.000
62.30093 648.000
62.32088 614.000
62.34083 604.000
62.36077 613.000
62.38072 616.000
62.40067 572.000
62.42062 570.000
62.44056 584.000
62.46051 562.000
62.48046 532.000
62.50040 547.000
62.52035 499.000
62.54030 559.000
62.56024 516.000
62.58019 518.000
62.60014 507.000
62.62009 584.000
62.64003 515.000
62.65998 502.000
62.67993 521.000
62.69987 480.000
62.71982 500.000
62.73977 511.000
62.75971 508.000
62.77966 493.000
62.79961 543.000
62.81955 522.000
62.83950 492.000
62.85945 453.000
62.87940 490.000
62.89934 496.000
62.91929 510.000
62.93924 518.000
62.95918 523.000
62.97913 510.000
62.99908 513.000
63.01902 488.000
63.03897 495.000
63.05892 489.000
63.07887 501.000
63.09881 528.000
63.11876 502.000
63.13871 535.000
63.15865 492.000
63.17860 446.000
63.19855 471.000
63.21849 487.000
63.23844 468.000
63.25839 527.000
63.27833 492.000
63.29828 491.000
63.31823 510.000
63.33818 486.000
63.35812 505.000
63.37807 492.000
63.39802 515.000
63.41796 518.000
63.43791 519.000
63.45786 491.000
63.47780 522.000
63.49775 534.000
63.51770 536.000
63.53765 524.000
63.55759 536.000
63.57754 560.000
63.59749 549.000
63.61743 578.000
63.63738 549.000
63.65733 603.000
63.67727 577.000
63.69722 599.000
63.71717 586.000
63.73712 560.000
63.75706 573.000
63.77701 598.000
63.79696 568.000
63.81690 583.000
63.83685 595.000
63.85680 598.000
63.87674 538.000
63.89669 542.000
63.91664 590.000
63.93658 566.000
63.95653 560.000
63.97648 568.000
63.99643 503.000
64.01637 521.000
64.03632 545.000
64.05627 549.000
64.07621 526.000
64.09616 537.000
64.11611 523.000
64.13605 501.000
64.15600 527.000
64.17595 521.000
64.19590 522.000
64.21584 525.000
64.23579 527.000
64.25574 574.000
64.27568 497.000
64.29563 514.000
64.31558 496.000
64.33552 495.000
64.35547 493.000
64.37542 485.000
64.39536 479.000
64.41531 483.000
64.43526 536.000
64.45521 488.000
64.47515 465.000
64.49510 558.000
64.51505 511.000
64.53499 509.000
64.55494 513.000
64.57489 531.000
64.59483 489.000
64.61478 465.000
64.63473 493.000
64.65468 510.000
64.67462 508.000
64.69457 522.000
64.71452 543.000
64.73446 532.000
64.75441 449.000
64.77436 487.000
64.79430 493.000
64.81425 527.000
64.83420 501.000
64.85414 522.000
64.87409 487.000
64.89404 506.000
64.91399 502.000
64.93393 509.000
64.95388 470.000
64.97383 508.000
64.99377 493.000
65.01372 468.000
65.03367 514.000
65.05361 501.000
65.07356 473.000
65.09351 488.000
65.11346 512.000
65.13340 496.000
65.15335 466.000
65.17330 480.000
65.19324 491.000
65.21319 517.000
65.23314 512.000
65.25308 545.000
65.27303 489.000
65.29298 496.000
65.31293 546.000
65.33287 544.000
65.35282 576.000
65.37277 508.000
65.39271 546.000
65.41266 502.000
65.43261 565.000
65.45255 525.000
65.47250 515.000
65.49245 533.000
65.51239 565.000
65.53234 557.000
65.55229 622.000
65.57224 592.000
65.59218 600.000
65.61213 558.000
65.63208 614.000
65.65202 675.000
65.67197 638.000
65.69192 710.000
65.71186 781.000
65.73181 776.000
65.75176 852.000
65.77171 861.000
65.79165 909.000
65.81160 973.000
65.83155 979.000
65.85149 1010.000
65.87144 988.000
65.89139 946.000
65.91133 888.000
65.93128 962.000
65.95123 926.000
65.97117 951.000
65.99112 951.000
66.01107 915.000
66.03102 977.000
66.05096 949.000
66.07091 981.000
66.09086 966.000
66.11080 1047.000
66.13075 1151.000
66.15070 1210.000
66.17064 1185.000
66.19059 1273.000
66.21054 1251.000
66.23049 1174.000
66.25043 1103.000
66.27038 1030.000
66.29033 987.000
66.31027 986.000
66.33022 912.000
66.35017 981.000
66.37011 942.000
66.39006 940.000
66.41001 931.000
66.42995 865.000
66.44990 828.000
66.46985 739.000
66.48980 716.000
66.50974 682.000
66.52969 681.000
66.54964 616.000
66.56958 661.000
66.58953 581.000
66.60948 603.000
66.62942 614.000
66.64937 594.000
66.66932 510.000
66.68927 546.000
66.70921 517.000
66.72916 567.000
66.74911 573.000
66.76905 517.000
66.78900 557.000
66.80895 536.000
66.82889 564.000
66.84884 548.000
66.86879 516.000
66.88874 493.000
66.90868 512.000
66.92863 484.000
66.94858 496.000
66.96852 522.000
66.98847 535.000
67.00842 490.000
67.02836 498.000
67.04831 501.000
67.06826 483.000
67.08820 523.000
67.10815 555.000
67.12810 503.000
67.14805 498.000
67.16799 485.000
67.18794 518.000
67.20789 514.000
67.22783 518.000
67.24778 515.000
67.26773 496.000
67.28767 500.000
67.30762 486.000
67.32757 518.000
67.34752 512.000
67.36746 529.000
67.38741 488.000
67.40736 508.000
67.42730 492.000
67.44725 503.000
67.46720 515.000
67.48714 453.000
67.50709 532.000
67.52704 537.000
67.54698 530.000
67.56693 519.000
67.58688 544.000
67.60683 521.000
67.62677 522.000
67.64672 518.000
67.66667 519.000
67.68661 584.000
67.70656 591.000
67.72651 593.000
67.74645 590.000
67.76640 664.000
67.78635 669.000
67.80630 660.000
67.82624 668.000
67.84619 708.000
67.86614 729.000
67.88608 778.000
67.90603 821.000
67.92598 883.000
67.94592 879.000
67.96587 868.000
67.98582 921.000
68.00576 901.000
68.02571 949.000
68.04566 1007.000
68.06561 1009.000
68.08555 1150.000
68.10550 1212.000
68.12545 1220.000
68.14539 1176.000
68.16534 1009.000
68.18529 968.000
68.20523 932.000
68.22518 836.000
68.24513 844.000
68.26508 958.000
68.28502 839.000
68.30497 893.000
68.32492 776.000
68.34486 825.000
68.36481 754.000
68.38476 721.000
68.40470 597.000
68.42465 600.000
68.44460 609.000
68.46455 575.000
68.48449 607.000
68.50444 585.000
68.52439 536.000
68.54433 499.000
68.56428 519.000
68.58423 511.000
68.60417 527.000
68.62412 506.000
68.64407 512.000
68.66401 472.000
68.68396 531.000
68.70391 487.000
68.72386 465.000
68.74380 536.000
68.76375 528.000
68.78370 512.000
68.80364 525.000
68.82359 492.000
68.84354 521.000
68.86348 508.000
68.88343 525.000
68.90338 522.000
68.92333 490.000
68.94327 509.000
68.96322 509.000
68.98317 485.000
69.00311 514.000
69.02306 496.000
69.04301 486.000
69.06295 483.000
69.08290 494.000
69.10285 476.000
69.12279 478.000
69.14274 453.000
69.16269 499.000
69.18264 514.000
69.20258 501.000
69.22253 500.000
69.24248 500.000
69.26242 484.000
69.28237 492.000
69.30232 472.000
69.32226 475.000
69.34221 479.000
69.36216 490.000
69.38211 470.000
69.40205 466.000
69.42200 480.000
69.44195 465.000
69.46189 456.000
69.48184 460.000
69.50179 499.000
69.52173 475.000
69.54168 516.000
69.56163 478.000
69.58157 491.000
69.60152 475.000
69.62147 480.000
69.64142 489.000
69.66136 494.000
69.68131 471.000
69.70126 494.000
69.72120 430.000
69.74115 511.000
69.76110 515.000
69.78104 463.000
69.80099 482.000
69.82094 479.000
69.84089 501.000
69.86083 468.000
69.88078 503.000
69.90073 478.000
69.92067 488.000
69.94062 446.000
69.96057 504.000
69.98051 488.000
70.00046 549.000
70.02041 447.000
70.04035 498.000
70.06030 477.000
70.08025 510.000
70.10020 504.000
70.12014 466.000
70.14009 487.000
70.16004 493.000
70.17998 493.000
70.19993 472.000
70.21988 506.000
70.23982 497.000
70.25977 447.000
70.27972 478.000
70.29967 506.000
70.31961 514.000
70.33956 505.000
70.35951 513.000
70.37945 503.000
70.39940 463.000
70.41935 475.000
70.43929 472.000
70.45924 465.000
70.47919 514.000
70.49914 497.000
70.51908 495.000
70.53903 510.000
70.55898 494.000
70.57892 477.000
70.59887 465.000
70.61882 500.000
70.63876 491.000
70.65871 476.000
70.67866 509.000
70.69860 496.000
70.71855 520.000
70.73850 466.000
70.75845 514.000
70.77839 488.000
70.79834 457.000
70.81829 523.000
70.83823 514.000
70.85818 477.000
70.87813 499.000
70.89807 517.000
70.91802 499.000
70.93797 532.000
70.95792 448.000
70.97786 523.000
70.99781 425.000
71.01776 443.000
71.03770 455.000
71.05765 464.000
71.07760 453.000
71.09754 473.000
71.11749 502.000
71.13744 474.000
71.15738 481.000
71.17733 470.000
71.19728 460.000
71.21723 451.000
71.23717 473.000
71.25712 474.000
71.27707 503.000
71.29701 511.000
71.31696 497.000
71.33691 491.000
71.35685 478.000
71.37680 505.000
71.39675 468.000
71.41670 480.000
71.43664 490.000
71.45659 460.000
71.47654 509.000
71.49648 479.000
71.51643 518.000
71.53638 475.000
71.55632 449.000
71.57627 495.000
71.59622 493.000
71.61616 524.000
71.63611 525.000
71.65606 505.000
71.67601 460.000
71.69595 495.000
71.71590 460.000
71.73585 501.000
71.75579 466.000
71.77574 463.000
71.79569 502.000
71.81563 513.000
71.83558 446.000
71.85553 519.000
71.87548 497.000
71.89542 509.000
71.91537 569.000
71.93532 492.000
71.95526 489.000
71.97521 495.000
71.99516 500.000
72.01510 491.000
72.03505 515.000
72.05500 497.000
72.07495 480.000
72.09489 539.000
72.11484 468.000
72.13479 515.000
72.15473 479.000
72.17468 552.000
72.19463 519.000
72.21457 548.000
72.23452 565.000
72.25447 537.000
72.27441 625.000
72.29436 606.000
72.31431 646.000
72.33426 670.000
72.35420 653.000
72.37415 703.000
72.39410 774.000
72.41404 710.000
72.43399 673.000
72.45394 663.000
72.47388 606.000
72.49383 638.000
72.51378 589.000
72.53373 580.000
72.55367 649.000
72.57362 646.000
72.59357 644.000
72.61351 671.000
72.63346 650.000
72.65341 631.000
72.67335 593.000
72.69330 550.000
72.71325 553.000
72.73319 501.000
72.75314 524.000
72.77309 482.000
72.79304 565.000
72.81298 511.000
72.83293 543.000
72.85288 520.000
72.87282 476.000
72.89277 523.000
72.91272 559.000
72.93266 550.000
72.95261 560.000
72.97256 523.000
72.99251 547.000
73.01245 556.000
73.03240 532.000
73.05235 563.000
73.07229 531.000
73.09224 538.000
73.11219 580.000
73.13213 514.000
73.15208 532.000
73.17203 536.000
73.19197 507.000
73.21192 477.000
73.23187 520.000
73.25182 502.000
73.27176 508.000
73.29171 470.000
73.31166 520.000
73.33160 496.000
73.35155 506.000
73.37150 525.000
73.39144 545.000
73.41139 488.000
73.43134 481.000
73.45129 512.000
73.47123 528.000
73.49118 536.000
73.51113 579.000
73.53107 545.000
73.55102 487.000
73.57097 514.000
73.59091 506.000
73.61086 548.000
73.63081 515.000
73.65076 550.000
73.67070 491.000
73.69065 509.000
73.71060 478.000
73.73054 566.000
73.75049 575.000
73.77044 496.000
73.79038 488.000
73.81033 581.000
73.83028 483.000
73.85022 496.000
73.87017 475.000
73.89012 469.000
73.91007 498.000
73.93001 502.000
73.94996 487.000
73.96991 463.000
73.98985 482.000
74.00980 482.000
74.02975 491.000
74.04969 491.000
74.06964 458.000
74.08959 467.000
74.10954 485.000
74.12948 514.000
74.14943 460.000
74.16938 510.000
74.18932 488.000
74.20927 498.000
74.22922 509.000
74.24916 494.000
74.26911 478.000
74.28906 488.000
74.30900 486.000
74.32895 444.000
74.34890 494.000
74.36885 516.000
74.38879 497.000
74.40874 477.000
74.42869 482.000
74.44863 504.000
74.46858 491.000
74.48853 546.000
74.50847 501.000
74.52842 521.000
74.54837 515.000
74.56832 488.000
74.58826 484.000
74.60821 524.000
74.62816 513.000
74.64810 539.000
74.66805 534.000
74.68800 513.000
74.70794 531.000
74.72789 547.000
74.74784 520.000
74.76778 556.000
74.78773 573.000
74.80768 570.000
74.82763 530.000
74.84757 566.000
74.86752 571.000
74.88747 594.000
74.90741 622.000
74.92736 576.000
74.94731 684.000
74.96725 710.000
74.98720 766.000
75.00715 728.000
75.02710 803.000
75.04704 754.000
75.06699 784.000
75.08694 669.000
75.10688 723.000
75.12683 688.000
75.14678 648.000
75.16672 727.000
75.18667 731.000
75.20662 825.000
75.22657 821.000
75.24651 830.000
75.26646 848.000
75.28641 720.000
75.30635 714.000
75.32630 702.000
75.34625 649.000
75.36619 649.000
75.38614 632.000
75.40609 632.000
75.42603 629.000
75.44598 647.000
75.46593 668.000
75.48588 597.000
75.50582 618.000
75.52577 632.000
75.54572 552.000
75.56566 578.000
75.58561 568.000
75.60556 510.000
75.62550 517.000
75.64545 549.000
75.66540 526.000
75.68535 489.000
75.70529 484.000
75.72524 511.000
75.74519 477.000
75.76513 475.000
75.78508 484.000
75.80503 488.000
75.82497 488.000
75.84492 448.000
75.86487 465.000
75.88481 491.000
75.90476 467.000
75.92471 477.000
75.94466 474.000
75.96460 477.000
75.98455 457.000
76.00450 526.000
76.02444 480.000
76.04439 482.000
76.06434 493.000
76.08428 468.000
76.10423 505.000
76.12418 509.000
76.14413 540.000
76.16407 516.000
76.18402 488.000
76.20397 493.000
76.22391 501.000
76.24386 480.000
76.26381 489.000
76.28375 481.000
76.30370 507.000
76.32365 505.000
76.34359 464.000
76.36354 465.000
76.38349 506.000
76.40344 460.000
76.42338 452.000
76.44333 533.000
76.46328 475.000
76.48322 455.000
76.50317 510.000
76.52312 500.000
76.54306 488.000
76.56301 508.000
76.58296 502.000
76.60291 511.000
76.62285 510.000
76.64280 507.000
76.66275 552.000
76.68269 491.000
76.70264 470.000
76.72259 501.000
76.74253 467.000
76.76248 492.000
76.78243 443.000
76.80238 487.000
76.82232 484.000
76.84227 509.000
76.86222 504.000
76.88216 464.000
76.90211 514.000
76.92206 442.000
76.94200 463.000
76.96195 515.000
76.98190 472.000
77.00184 476.000
77.02179 483.000
77.04174 471.000
77.06169 490.000
77.08163 453.000
77.10158 514.000
77.12153 453.000
77.14147 496.000
77.16142 513.000
77.18137 499.000
77.20131 475.000
77.22126 518.000
77.24121 509.000
77.26116 497.000
77.28110 520.000
77.30105 516.000
77.32100 492.000
77.34094 524.000
77.36089 495.000
77.38084 512.000
77.40078 502.000
77.42073 486.000
77.44068 536.000
77.46062 519.000
77.48057 558.000
77.50052 556.000
77.52047 504.000
77.54041 510.000
77.56036 518.000
77.58031 577.000
77.60025 549.000
77.62020 538.000
77.64015 524.000
77.66009 564.000
77.68004 564.000
77.69999 515.000
77.71994 552.000
77.73988 523.000
77.75983 521.000
77.77978 501.000
77.79972 513.000
77.81967 533.000
77.83962 552.000
77.85956 540.000
77.87951 545.000
77.89946 539.000
77.91940 560.000
77.93935 499.000
77.95930 505.000
77.97925 529.000
77.99919 533.000
78.01914 512.000
78.03909 532.000
78.05903 495.000
78.07898 547.000
78.09893 500.000
78.11887 529.000
78.13882 481.000
78.15877 501.000
78.17872 527.000
78.19866 496.000
78.21861 498.000
78.23856 487.000
78.25850 484.000
78.27845 519.000
78.29840 480.000
78.31834 478.000
78.33829 467.000
78.35824 514.000
78.37819 479.000
78.39813 453.000
78.41808 502.000
78.43803 495.000
78.45797 504.000
78.47792 530.000
78.49787 519.000
78.51781 506.000
78.53776 509.000
78.55771 492.000
78.57765 509.000
78.59760 532.000
78.61755 464.000
78.63750 457.000
78.65744 470.000
78.67739 504.000
78.69734 530.000
78.71728 449.000
78.73723 468.000
78.75718 455.000
78.77712 480.000
78.79707 457.000
78.81702 478.000
78.83697 531.000
78.85691 478.000
78.87686 486.000
78.89681 456.000
78.91675 483.000
78.93670 513.000
78.95665 491.000
78.97659 474.000
78.99654 552.000
79.01649 487.000
79.03643 501.000
79.05638 463.000
79.07633 524.000
79.09628 471.000
79.11622 520.000
79.13617 472.000
79.15612 477.000
79.17606 472.000
79.19601 465.000
79.21596 489.000
79.23590 473.000
79.25585 507.000
79.27580 478.000
79.29575 507.000
79.31569 482.000
79.33564 459.000
79.35559 517.000
79.37553 521.000
79.39548 475.000
79.41543 480.000
79.43537 504.000
79.45532 509.000
79.47527 480.000
79.49521 492.000
79.51516 533.000
79.53511 447.000
79.55506 478.000
79.57500 491.000
79.59495 471.000
79.61490 514.000
79.63484 497.000
79.65479 490.000
79.67474 494.000
79.69468 515.000
79.71463 491.000
79.73458 456.000
79.75453 476.000
79.77447 505.000
79.79442 465.000
79.81437 495.000
79.83431 509.000
79.85426 481.000
79.87421 484.000
79.89415 496.000
79.91410 501.000
79.93405 452.000
79.95399 464.000
79.97394 518.000
79.99389 534.000
80.01384 546.000
80.03378 536.000
80.05373 548.000
80.07368 532.000
80.09362 591.000
80.11357 571.000
80.13352 580.000
80.15346 587.000
80.17341 593.000
80.19336 565.000
80.21331 562.000
80.23325 532.000
80.25320 505.000
80.27315 509.000
80.29309 498.000
80.31304 513.000
80.33299 539.000
80.35293 549.000
80.37288 521.000
80.39283 539.000
80.41278 484.000
80.43272 533.000
80.45267 530.000
80.47262 541.000
80.49256 475.000
80.51251 500.000
80.53246 469.000
80.55240 505.000
80.57235 495.000
80.59230 459.000
80.61224 484.000
80.63219 480.000
80.65214 490.000
80.67209 484.000
80.69203 524.000
80.71198 492.000
80.73193 488.000
80.75187 516.000
80.77182 505.000
80.79177 472.000
80.81171 512.000
80.83166 468.000
80.85161 482.000
80.87156 487.000
80.89150 505.000
80.91145 452.000
80.93140 482.000
80.95134 508.000
80.97129 465.000
80.99124 478.000
81.01118 517.000
81.03113 498.000
81.05108 485.000
81.07102 486.000
81.09097 479.000
81.11092 472.000
81.13087 465.000
81.15081 444.000
81.17076 452.000
81.19071 491.000
81.21065 475.000
81.23060 483.000
81.25055 499.000
81.27049 474.000
81.29044 483.000
81.31039 489.000
81.33034 497.000
81.35028 504.000
81.37023 491.000
81.39018 488.000
81.41012 473.000
81.43007 472.000
81.45002 459.000
81.46996 483.000
81.48991 486.000
81.50986 475.000
81.52980 480.000
81.54975 499.000
81.56970 504.000
81.58965 484.000
81.60959 492.000
81.62954 474.000
81.64949 485.000
81.66943 499.000
81.68938 480.000
81.70933 489.000
81.72927 524.000
81.74922 550.000
81.76917 490.000
81.78912 461.000
81.80906 511.000
81.82901 497.000
81.84896 453.000
81.86890 482.000
81.88885 479.000
81.90880 486.000
81.92874 466.000
81.94869 458.000
81.96864 450.000
81.98859 468.000
82.00853 505.000
82.02848 470.000
82.04843 504.000
82.06837 481.000
82.08832 484.000
82.10827 531.000
82.12821 487.000
82.14816 555.000
82.16811 537.000
82.18805 549.000
82.20800 590.000
82.22795 558.000
82.24790 636.000
82.26784 620.000
82.28779 656.000
82.30774 650.000
82.32768 657.000
82.34763 612.000
82.36758 627.000
82.38752 558.000
82.40747 595.000
82.42742 581.000
82.44737 574.000
82.46731 564.000
82.48726 582.000
82.50721 623.000
82.52715 610.000
82.54710 596.000
82.56705 581.000
82.58699 571.000
82.60694 581.000
82.62689 546.000
82.64683 567.000
82.66678 559.000
82.68673 533.000
82.70668 519.000
82.72662 536.000
82.74657 534.000
82.76652 512.000
82.78646 512.000
82.80641 543.000
82.82636 555.000
82.84630 560.000
82.86625 518.000
82.88620 535.000
82.90615 550.000
82.92609 539.000
82.94604 553.000
82.96599 547.000
82.98593 553.000
83.00588 566.000
83.02583 579.000
83.04577 544.000
83.06572 571.000
83.08567 623.000
83.10561 599.000
83.12556 636.000
83.14551 615.000
83.16546 613.000
83.18540 605.000
83.20535 583.000
83.22530 579.000
83.24524 576.000
83.26519 603.000
83.28514 578.000
83.30508 623.000
83.32503 602.000
83.34498 612.000
83.36493 579.000
83.38487 629.000
83.40482 607.000
83.42477 641.000
83.44471 621.000
83.46466 585.000
83.48461 635.000
83.50455 644.000
83.52450 605.000
83.54445 654.000
83.56440 600.000
83.58434 579.000
83.60429 644.000
83.62424 635.000
83.64418 611.000
83.66413 588.000
83.68408 565.000
83.70402 588.000
83.72397 581.000
83.74392 629.000
83.76386 618.000
83.78381 595.000
83.80376 579.000
83.82371 576.000
83.84365 558.000
83.86360 564.000
83.88355 618.000
83.90349 551.000
83.92344 618.000
83.94339 514.000
83.96333 527.000
83.98328 568.000
84.00323 500.000
84.02318 485.000
84.04312 555.000
84.06307 516.000
84.08302 551.000
84.10296 507.000
84.12291 496.000
84.14286 525.000
84.16280 503.000
84.18275 531.000
84.20270 510.000
84.22264 489.000
84.24259 536.000
84.26254 482.000
84.28249 516.000
84.30243 501.000
84.32238 476.000
84.34233 505.000
84.36227 540.000
84.38222 484.000
84.40217 527.000
84.42211 499.000
84.44206 476.000
84.46201 511.000
84.48196 484.000
84.50190 500.000
84.52185 514.000
84.54180 534.000
84.56174 481.000
84.58169 477.000
84.60164 479.000
84.62158 498.000
84.64153 507.000
84.66148 531.000
84.68142 521.000
84.70137 469.000
84.72132 526.000
84.74127 523.000
84.76121 488.000
84.78116 465.000
84.80111 487.000
84.82105 505.000
84.84100 481.000
84.86095 464.000
84.88089 501.000
84.90084 488.000
84.92079 489.000
84.94074 522.000
84.96068 464.000
84.98063 479.000
85.00058 464.000
85.02052 535.000
85.04047 480.000
85.06042 473.000
85.08036 489.000
85.10031 480.000
85.12026 470.000
85.14021 482.000
85.16015 501.000
85.18010 478.000
85.20005 512.000
85.21999 498.000
85.23994 459.000
85.25989 474.000
85.27983 499.000
85.29978 485.000
85.31973 504.000
85.33967 497.000
85.35962 472.000
85.37957 505.000
85.39952 482.000
85.41946 495.000
85.43941 483.000
85.45936 507.000
85.47930 468.000
85.49925 496.000
85.51920 509.000
85.53914 467.000
85.55909 490.000
85.57904 462.000
85.59899 479.000
85.61893 480.000
85.63888 498.000
85.65883 497.000
85.67877 482.000
85.69872 479.000
85.71867 471.000
85.73861 497.000
85.75856 465.000
85.77851 453.000
85.79845 491.000
85.81840 462.000
85.83835 470.000
85.85830 494.000
85.87824 470.000
85.89819 480.000
85.91814 456.000
85.93808 524.000
85.95803 495.000
85.97798 470.000
85.99792 488.000
86.01787 488.000
86.03782 451.000
86.05777 498.000
86.07771 510.000
86.09766 529.000
86.11761 498.000
86.13755 515.000
86.15750 535.000
86.17745 509.000
86.19739 481.000
86.21734 474.000
86.23729 450.000
86.25723 513.000
86.27718 494.000
86.29713 526.000
86.31708 537.000
86.33702 530.000
86.35697 534.000
86.37692 537.000
86.39686 527.000
86.41681 527.000
86.43676 509.000
86.45670 559.000
86.47665 526.000
86.49660 539.000
86.51655 535.000
86.53649 513.000
86.55644 514.000
86.57639 519.000
86.59633 521.000
86.61628 515.000
86.63623 513.000
86.65617 493.000
86.67612 528.000
86.69607 548.000
86.71602 522.000
86.73596 520.000
86.75591 532.000
86.77586 534.000
86.79580 532.000
86.81575 493.000
86.83570 541.000
86.85564 526.000
86.87559 533.000
86.89554 540.000
86.91548 499.000
86.93543 513.000
86.95538 511.000
86.97533 473.000
86.99527 454.000
87.01522 488.000
87.03517 494.000
87.05511 477.000
87.07506 504.000
87.09501 503.000
87.11495 500.000
87.13490 502.000
87.15485 518.000
87.17480 490.000
87.19474 480.000
87.21469 510.000
87.23464 489.000
87.25458 472.000
87.27453 448.000
87.29448 496.000
87.31442 494.000
87.33437 477.000
87.35432 486.000
87.37426 510.000
87.39421 463.000
87.41416 485.000
87.43411 487.000
87.45405 469.000
87.47400 489.000
87.49395 511.000
87.51389 462.000
87.53384 460.000
87.55379 484.000
87.57373 491.000
87.59368 451.000
87.61363 471.000
87.63358 467.000
87.65352 484.000
87.67347 497.000
87.69342 504.000
87.71336 469.000
87.73331 473.000
87.75326 505.000
87.77320 461.000
87.79315 439.000
87.81310 454.000
87.83304 530.000
87.85299 495.000
87.87294 473.000
87.89289 468.000
87.91283 474.000
87.93278 510.000
87.95273 508.000
87.97267 466.000
87.99262 477.000
88.01257 502.000
88.03251 451.000
88.05246 497.000
88.07241 506.000
88.09236 504.000
88.11230 439.000
88.13225 481.000
88.15220 425.000
88.17214 487.000
88.19209 506.000
88.21204 489.000
88.23198 487.000
88.25193 527.000
88.27188 490.000
88.29183 520.000
88.31177 510.000
88.33172 485.000
88.35167 512.000
88.37161 494.000
88.39156 499.000
88.41151 528.000
88.43145 466.000
88.45140 504.000
88.47135 517.000
88.49129 478.000
88.51124 500.000
88.53119 506.000
88.55114 501.000
88.57108 503.000
88.59103 465.000
88.61098 464.000
88.63092 495.000
88.65087 529.000
88.67082 528.000
88.69076 501.000
88.71071 529.000
88.73066 474.000
88.75061 462.000
88.77055 445.000
88.79050 459.000
88.81045 490.000
88.83039 469.000
88.85034 491.000
88.87029 518.000
88.89023 491.000
88.91018 528.000
88.93013 515.000
88.95007 513.000
88.97002 527.000
88.98997 499.000
89.00992 537.000
89.02986 509.000
89.04981 521.000
89.06976 539.000
89.08970 462.000
89.10965 523.000
89.12960 541.000
89.14954 511.000
89.16949 478.000
89.18944 511.000
89.20939 492.000
89.22933 527.000
89.24928 505.000
89.26923 503.000
89.28917 510.000
89.30912 504.000
89.32907 527.000
89.34901 512.000
89.36896 557.000
89.38891 527.000
89.40885 502.000
89.42880 496.000
89.44875 511.000
89.46870 536.000
89.48864 512.000
89.50859 530.000
89.52854 479.000
89.54848 519.000
89.56843 521.000
89.58838 559.000
89.60832 560.000
89.62827 507.000
89.64822 505.000
89.66817 556.000
89.68811 544.000
89.70806 558.000
89.72801 553.000
89.74795 550.000
89.76790 591.000
89.78785 642.000
89.80779 587.000
89.82774 590.000
89.84769 623.000
89.86764 617.000
89.88758 644.000
89.90753 617.000
89.92748 614.000
89.94742 578.000
89.96737 589.000
89.98732 603.000
90.00726 530.000
