10.00000 165.000
10.01995 158.000
10.03989 183.000
10.05984 182.000
10.07979 163.000
10.09973 167.000
10.11968 207.000
10.13963 175.000
10.15958 192.000
10.17952 190.000
10.19947 174.000
10.21942 158.000
10.23936 187.000
10.25931 196.000
10.27926 193.000
10.29920 185.000
10.31915 186.000
10.33910 185.000
10.35905 185.000
10.37899 184.000
10.39894 198.000
10.41889 151.000
10.43883 172.000
10.45878 183.000
10.47873 172.000
10.49867 179.000
10.51862 178.000
10.53857 191.000
10.55851 190.000
10.57846 170.000
10.59841 189.000
10.61836 177.000
10.63830 164.000
10.65825 183.000
10.67820 160.000
10.69814 180.000
10.71809 193.000
10.73804 171.000
10.75798 175.000
10.77793 171.000
10.79788 169.000
10.81783 169.000
10.83777 189.000
10.85772 189.000
10.87767 175.000
10.89761 173.000
10.91756 186.000
10.93751 155.000
10.95745 192.000
10.97740 166.000
10.99735 182.000
11.01730 185.000
11.03724 178.000
11.05719 187.000
11.07714 166.000
11.09708 192.000
11.11703 173.000
11.13698 166.000
11.15692 166.000
11.17687 152.000
11.19682 189.000
11.21676 169.000
11.23671 185.000
11.25666 171.000
11.27661 169.000
11.29655 197.000
11.31650 175.000
11.33645 215.000
11.35639 178.000
11.37634 177.000
11.39629 190.000
11.41623 191.000
11.43618 174.000
11.45613 159.000
11.47608 176.000
11.49602 197.000
11.51597 184.000
11.53592 192.000
11.55586 164.000
11.57581 170.000
11.59576 188.000
11.61570 171.000
11.63565 189.000
11.65560 183.000
11.67554 183.000
11.69549 191.000
11.71544 198.000
11.73539 175.000
11.75533 200.000
11.77528 167.000
11.79523 180.000
11.81517 179.000
11.83512 217.000
11.85507 191.000
11.87501 167.000
11.89496 175.000
11.91491 190.000
11.93486 195.000
11.95480 180.000
11.97475 173.000
11.99470 205.000
12.01464 154.000
12.03459 170.000
12.05454 202.000
12.07448 187.000
12.09443 204.000
12.11438 228.000
12.13432 170.000
12.15427 189.000
12.17422 177.000
12.19417 203.000
12.21411 188.000
12.23406 187.000
12.25401 189.000
12.27395 188.000
12.29390 204.000
12.31385 204.000
12.33379 189.000
12.35374 172.000
12.37369 195.000
12.39364 179.000
12.41358 173.000
12.43353 196.000
12.45348 197.000
12.47342 182.000
12.49337 170.000
12.51332 166.000
12.53326 154.000
12.55321 173.000
12.57316 176.000
12.59311 194.000
12.61305 180.000
12.63300 181.000
12.65295 184.000
12.67289 180.000
12.69284 176.000
12.71279 182.000
12.73273 193.000
12.75268 189.000
12.77263 185.000
12.79257 164.000
12.81252 190.000
12.83247 190.000
12.85242 183.000
12.87236 174.000
12.89231 183.000
12.91226 186.000
12.93220 152.000
12.95215 174.000
12.97210 196.000
12.99204 188.000
13.01199 162.000
13.03194 182.000
13.05189 200.000
13.07183 173.000
13.09178 197.000
13.11173 199.000
13.13167 173.000
13.15162 167.000
13.17157 180.000
13.19151 199.000
13.21146 183.000
13.23141 187.000
13.25135 191.000
13.27130 187.000
13.29125 201.000
13.31120 190.000
13.33114 194.000
13.35109 190.000
13.37104 202.000
13.39098 167.000
13.41093 166.000
13.43088 174.000
13.45082 175.000
13.47077 188.000
13.49072 209.000
13.51067 178.000
13.53061 177.000
13.55056 190.000
13.57051 195.000
13.59045 184.000
13.61040 170.000
13.63035 204.000
13.65029 190.000
13.67024 200.000
13.69019 173.000
13.71013 187.000
13.73008 206.000
13.75003 203.000
13.76998 181.000
13.78992 187.000
13.80987 198.000
13.82982 196.000
13.84976 178.000
13.86971 193.000
13.88966 181.000
13.90960 209.000
13.92955 220.000
13.94950 175.000
13.96945 188.000
13.98939 221.000
14.00934 181.000
14.02929 177.000
14.04923 202.000
14.06918 171.000
14.08913 173.000
14.10907 181.000
14.12902 171.000
14.14897 197.000
14.16892 211.000
14.18886 185.000
14.20881 206.000
14.22876 209.000
14.24870 210.000
14.26865 201.000
14.28860 192.000
14.30854 215.000
14.32849 199.000
14.34844 202.000
14.36838 192.000
14.38833 184.000
14.40828 202.000
14.42823 194.000
14.44817 194.000
14.46812 203.000
14.48807 207.000
14.50801 206.000
14.52796 187.000
14.54791 216.000
14.56785 225.000
14.58780 182.000
14.60775 197.000
14.62770 184.000
14.64764 196.000
14.66759 229.000
14.68754 208.000
14.70748 187.000
14.72743 197.000
14.74738 235.000
14.76732 210.000
14.78727 195.000
14.80722 236.000
14.82716 230.000
14.84711 233.000
14.86706 223.000
14.88701 256.000
14.90695 218.000
14.92690 263.000
14.94685 230.000
14.96679 241.000
14.98674 247.000
15.00669 232.000
15.02663 234.000
15.04658 233.000
15.06653 268.000
15.08648 243.000
15.10642 247.000
15.12637 231.000
15.14632 247.000
15.16626 263.000
15.18621 280.000
15.20616 248.000
15.22610 294.000
15.24605 293.000
15.26600 290.000
15.28594 321.000
15.30589 296.000
15.32584 314.000
15.34579 306.000
15.36573 344.000
15.38568 331.000
15.40563 364.000
15.42557 340.000
15.44552 360.000
15.46547 395.000
15.48541 392.000
15.50536 421.000
15.52531 448.000
15.54526 457.000
15.56520 507.000
15.58515 577.000
15.60510 648.000
15.62504 726.000
15.64499 867.000
15.66494 1086.000
15.68488 1357.000
15.70483 1865.000
15.72478 2531.000
15.74472 3313.000
15.76467 4068.000
15.78462 4424.000
15.80457 3945.000
15.82451 3142.000
15.84446 2358.000
15.86441 1551.000
15.88435 1115.000
15.90430 827.000
15.92425 679.000
15.94419 596.000
15.96414 518.000
15.98409 454.000
16.00404 403.000
16.02398 423.000
16.04393 393.000
16.06388 342.000
16.08382 335.000
16.10377 339.000
16.12372 310.000
16.14366 301.000
16.16361 302.000
16.18356 296.000
16.20351 311.000
16.22345 277.000
16.24340 289.000
16.26335 271.000
16.28329 272.000
16.30324 252.000
16.32319 240.000
16.34313 259.000
16.36308 279.000
16.38303 254.000
16.40297 267.000
16.42292 245.000
16.44287 251.000
16.46282 220.000
16.48276 230.000
16.50271 224.000
16.52266 228.000
16.54260 246.000
16.56255 217.000
16.58250 198.000
16.60244 236.000
16.62239 228.000
16.64234 222.000
16.66229 210.000
16.68223 201.000
16.70218 202.000
16.72213 204.000
16.74207 212.000
16.76202 187.000
16.78197 181.000
16.80191 222.000
16.82186 206.000
16.84181 234.000
16.86175 214.000
16.88170 209.000
16.90165 214.000
16.92160 193.000
16.94154 178.000
16.96149 179.000
16.98144 203.000
17.00138 217.000
17.02133 198.000
17.04128 195.000
17.06122 187.000
17.08117 200.000
17.10112 222.000
17.12107 184.000
17.14101 191.000
17.16096 171.000
17.18091 199.000
17.20085 194.000
17.22080 199.000
17.24075 175.000
17.26069 182.000
17.28064 158.000
17.30059 188.000
17.32053 174.000
17.34048 216.000
17.36043 200.000
17.38038 200.000
17.40032 185.000
17.42027 172.000
17.44022 205.000
17.46016 165.000
17.48011 166.000
17.50006 175.000
17.52000 194.000
17.53995 186.000
17.55990 207.000
17.57985 199.000
17.59979 177.000
17.61974 192.000
17.63969 200.000
17.65963 183.000
17.67958 198.000
17.69953 200.000
17.71947 188.000
17.73942 202.000
17.75937 192.000
17.77932 180.000
17.79926 170.000
17.81921 162.000
17.83916 176.000
17.85910 177.000
17.87905 192.000
17.89900 196.000
17.91894 200.000
17.93889 190.000
17.95884 176.000
17.97878 176.000
17.99873 195.000
18.01868 175.000
18.03863 211.000
18.05857 215.000
18.07852 210.000
18.09847 165.000
18.11841 204.000
18.13836 192.000
18.15831 203.000
18.17825 184.000
18.19820 198.000
18.21815 203.000
18.23810 216.000
18.25804 223.000
18.27799 272.000
18.29794 295.000
18.31788 369.000
18.33783 479.000
18.35778 538.000
18.37772 607.000
18.39767 553.000
18.41762 409.000
18.43756 363.000
18.45751 271.000
18.47746 251.000
18.49741 224.000
18.51735 219.000
18.53730 175.000
18.55725 175.000
18.57719 194.000
18.59714 176.000
18.61709 166.000
18.63703 182.000
18.65698 175.000
18.67693 183.000
18.69688 205.000
18.71682 187.000
18.73677 201.000
18.75672 190.000
18.77666 175.000
18.79661 181.000
18.81656 169.000
18.83650 193.000
18.85645 192.000
18.87640 176.000
18.89634 182.000
18.91629 183.000
18.93624 196.000
18.95619 218.000
18.97613 189.000
18.99608 154.000
19.01603 173.000
19.03597 170.000
19.05592 178.000
19.07587 184.000
19.09581 157.000
19.11576 175.000
19.13571 173.000
19.15566 172.000
19.17560 183.000
19.19555 195.000
19.21550 202.000
19.23544 200.000
19.25539 185.000
19.27534 190.000
19.29528 164.000
19.31523 196.000
19.33518 186.000
19.35513 191.000
19.37507 158.000
19.39502 179.000
19.41497 194.000
19.43491 153.000
19.45486 176.000
19.47481 183.000
19.49475 164.000
19.51470 194.000
19.53465 179.000
19.55459 196.000
19.57454 158.000
19.59449 200.000
19.61444 169.000
19.63438 184.000
19.65433 187.000
19.67428 170.000
19.69422 165.000
19.71417 179.000
19.73412 187.000
19.75406 163.000
19.77401 171.000
19.79396 157.000
19.81391 159.000
19.83385 182.000
19.85380 187.000
19.87375 189.000
19.89369 187.000
19.91364 196.000
19.93359 187.000
19.95353 169.000
19.97348 201.000
19.99343 191.000
20.01337 201.000
20.03332 198.000
20.05327 171.000
20.07322 175.000
20.09316 155.000
20.11311 146.000
20.13306 188.000
20.15300 155.000
20.17295 178.000
20.19290 177.000
20.21284 197.000
20.23279 185.000
20.25274 172.000
20.27269 191.000
20.29263 165.000
20.31258 216.000
20.33253 199.000
20.35247 188.000
20.37242 200.000
20.39237 156.000
20.41231 188.000
20.43226 171.000
20.45221 175.000
20.47215 165.000
20.49210 180.000
20.51205 187.000
20.53200 191.000
20.55194 195.000
20.57189 184.000
20.59184 171.000
20.61178 165.000
20.63173 202.000
20.65168 181.000
20.67162 178.000
20.69157 191.000
20.71152 186.000
20.73147 177.000
20.75141 165.000
20.77136 193.000
20.79131 183.000
20.81125 185.000
20.83120 201.000
20.85115 168.000
20.87109 200.000
20.89104 192.000
20.91099 159.000
20.93094 174.000
20.95088 181.000
20.97083 190.000
20.99078 195.000
21.01072 215.000
21.03067 204.000
21.05062 180.000
21.07056 208.000
21.09051 194.000
21.11046 219.000
21.13040 243.000
21.15035 165.000
21.17030 179.000
21.19025 179.000
21.21019 207.000
21.23014 196.000
21.25009 199.000
21.27003 172.000
21.28998 182.000
21.30993 173.000
21.32987 187.000
21.34982 185.000
21.36977 199.000
21.38972 191.000
21.40966 181.000
21.42961 167.000
21.44956 165.000
21.46950 180.000
21.48945 194.000
21.50940 176.000
21.52934 160.000
21.54929 184.000
21.56924 193.000
21.58918 206.000
21.60913 176.000
21.62908 186.000
21.64903 190.000
21.66897 184.000
21.68892 195.000
21.70887 174.000
21.72881 165.000
21.74876 182.000
21.76871 175.000
21.78865 176.000
21.80860 168.000
21.82855 180.000
21.84850 191.000
21.86844 164.000
21.88839 179.000
21.90834 165.000
21.92828 165.000
21.94823 193.000
21.96818 167.000
21.98812 149.000
22.00807 171.000
22.02802 182.000
22.04796 173.000
22.06791 155.000
22.08786 189.000
22.10781 181.000
22.12775 173.000
22.14770 172.000
22.16765 189.000
22.18759 172.000
22.20754 197.000
22.22749 188.000
22.24743 182.000
22.26738 214.000
22.28733 182.000
22.30728 173.000
22.32722 196.000
22.34717 177.000
22.36712 200.000
22.38706 180.000
22.40701 166.000
22.42696 186.000
22.44690 187.000
22.46685 173.000
22.48680 177.000
22.50675 185.000
22.52669 192.000
22.54664 180.000
22.56659 174.000
22.58653 189.000
22.60648 174.000
22.62643 177.000
22.64637 174.000
22.66632 181.000
22.68627 206.000
22.70621 191.000
22.72616 180.000
22.74611 170.000
22.76606 176.000
22.78600 191.000
22.80595 181.000
22.82590 175.000
22.84584 159.000
22.86579 165.000
22.88574 187.000
22.90568 169.000
22.92563 169.000
22.94558 161.000
22.96553 191.000
22.98547 197.000
23.00542 167.000
23.02537 195.000
23.04531 189.000
23.06526 171.000
23.08521 193.000
23.10515 185.000
23.12510 197.000
23.14505 164.000
23.16499 169.000
23.18494 183.000
23.20489 180.000
23.22484 183.000
23.24478 177.000
23.26473 185.000
23.28468 190.000
23.30462 193.000
23.32457 159.000
23.34452 174.000
23.36446 176.000
23.38441 185.000
23.40436 188.000
23.42431 169.000
23.44425 177.000
23.46420 172.000
23.48415 201.000
23.50409 177.000
23.52404 190.000
23.54399 180.000
23.56393 159.000
23.58388 199.000
23.60383 191.000
23.62377 209.000
23.64372 172.000
23.66367 164.000
23.68362 184.000
23.70356 177.000
23.72351 195.000
23.74346 160.000
23.76340 177.000
23.78335 178.000
23.80330 193.000
23.82324 173.000
23.84319 168.000
23.86314 165.000
23.88309 194.000
23.90303 193.000
23.92298 178.000
23.94293 168.000
23.96287 195.000
23.98282 188.000
24.00277 194.000
24.02271 188.000
24.04266 174.000
24.06261 186.000
24.08256 189.000
24.10250 180.000
24.12245 174.000
24.14240 165.000
24.16234 170.000
24.18229 160.000
24.20224 196.000
24.22218 210.000
24.24213 172.000
24.26208 192.000
24.28202 177.000
24.30197 176.000
24.32192 179.000
24.34187 177.000
24.36181 170.000
24.38176 195.000
24.40171 158.000
24.42165 187.000
24.44160 163.000
24.46155 203.000
24.48149 189.000
24.50144 183.000
24.52139 187.000
24.54134 192.000
24.56128 181.000
24.58123 195.000
24.60118 172.000
24.62112 165.000
24.64107 191.000
24.66102 196.000
24.68096 176.000
24.70091 192.000
24.72086 193.000
24.74080 171.000
24.76075 187.000
24.78070 198.000
24.80065 193.000
24.82059 191.000
24.84054 180.000
24.86049 174.000
24.88043 205.000
24.90038 203.000
24.92033 198.000
24.94027 174.000
24.96022 163.000
24.98017 195.000
25.00012 172.000
25.02006 217.000
25.04001 160.000
25.05996 197.000
25.07990 203.000
25.09985 184.000
25.11980 193.000
25.13974 165.000
25.15969 221.000
25.17964 188.000
25.19958 159.000
25.21953 156.000
25.23948 189.000
25.25943 202.000
25.27937 192.000
25.29932 175.000
25.31927 175.000
25.33921 198.000
25.35916 175.000
25.37911 202.000
25.39905 186.000
25.41900 179.000
25.43895 155.000
25.45890 189.000
25.47884 184.000
25.49879 201.000
25.51874 195.000
25.53868 167.000
25.55863 176.000
25.57858 199.000
25.59852 198.000
25.61847 187.000
25.63842 191.000
25.65837 179.000
25.67831 189.000
25.69826 177.000
25.71821 194.000
25.73815 177.000
25.75810 178.000
25.77805 188.000
25.79799 179.000
25.81794 192.000
25.83789 171.000
25.85783 195.000
25.87778 172.000
25.89773 188.000
25.91768 177.000
25.93762 177.000
25.95757 164.000
25.97752 197.000
25.99746 172.000
26.01741 206.000
26.03736 198.000
26.05730 182.000
26.07725 163.000
26.09720 204.000
26.11715 179.000
26.13709 198.000
26.15704 182.000
26.17699 196.000
26.19693 189.000
26.21688 198.000
26.23683 194.000
26.25677 192.000
26.27672 204.000
26.29667 175.000
26.31661 182.000
26.33656 199.000
26.35651 192.000
26.37646 179.000
26.39640 180.000
26.41635 181.000
26.43630 187.000
26.45624 195.000
26.47619 182.000
26.49614 181.000
26.51608 173.000
26.53603 192.000
26.55598 185.000
26.57593 183.000
26.59587 177.000
26.61582 200.000
26.63577 185.000
26.65571 217.000
26.67566 201.000
26.69561 179.000
26.71555 213.000
26.73550 194.000
26.75545 205.000
26.77539 173.000
26.79534 189.000
26.81529 187.000
26.83524 200.000
26.85518 203.000
26.87513 192.000
26.89508 228.000
26.91502 177.000
26.93497 205.000
26.95492 184.000
26.97486 205.000
26.99481 217.000
27.01476 214.000
27.03471 167.000
27.05465 181.000
27.07460 228.000
27.09455 196.000
27.11449 183.000
27.13444 216.000
27.15439 208.000
27.17433 203.000
27.19428 204.000
27.21423 214.000
27.23417 194.000
27.25412 188.000
27.27407 186.000
27.29402 191.000
27.31396 190.000
27.33391 205.000
27.35386 221.000
27.37380 215.000
27.39375 182.000
27.41370 193.000
27.43364 200.000
27.45359 212.000
27.47354 203.000
27.49349 204.000
27.51343 179.000
27.53338 198.000
27.55333 172.000
27.57327 207.000
27.59322 189.000
27.61317 187.000
27.63311 211.000
27.65306 190.000
27.67301 194.000
27.69296 215.000
27.71290 203.000
27.73285 201.000
27.75280 190.000
27.77274 198.000
27.79269 220.000
27.81264 196.000
27.83258 196.000
27.85253 205.000
27.87248 223.000
27.89242 187.000
27.91237 213.000
27.93232 196.000
27.95227 200.000
27.97221 198.000
27.99216 211.000
28.01211 197.000
28.03205 219.000
28.05200 212.000
28.07195 212.000
28.09189 199.000
28.11184 202.000
28.13179 205.000
28.15174 202.000
28.17168 202.000
28.19163 198.000
28.21158 204.000
28.23152 199.000
28.25147 214.000
28.27142 189.000
28.29136 180.000
28.31131 214.000
28.33126 190.000
28.35120 179.000
28.37115 196.000
28.39110 205.000
28.41105 194.000
28.43099 185.000
28.45094 202.000
28.47089 216.000
28.49083 206.000
28.51078 202.000
28.53073 218.000
28.55067 199.000
28.57062 184.000
28.59057 188.000
28.61052 191.000
28.63046 202.000
28.65041 194.000
28.67036 181.000
28.69030 215.000
28.71025 232.000
28.73020 192.000
28.75014 233.000
28.77009 190.000
28.79004 194.000
28.80998 190.000
28.82993 200.000
28.84988 207.000
28.86983 188.000
28.88977 209.000
28.90972 201.000
28.92967 213.000
28.94961 193.000
28.96956 196.000
28.98951 183.000
29.00945 212.000
29.02940 188.000
29.04935 203.000
29.06930 191.000
29.08924 192.000
29.10919 205.000
29.12914 214.000
29.14908 181.000
29.16903 181.000
29.18898 224.000
29.20892 197.000
29.22887 195.000
29.24882 219.000
29.26877 197.000
29.28871 192.000
29.30866 223.000
29.32861 181.000
29.34855 202.000
29.36850 206.000
29.38845 216.000
29.40839 185.000
29.42834 197.000
29.44829 188.000
29.46823 198.000
29.48818 203.000
29.50813 197.000
29.52808 185.000
29.54802 216.000
29.56797 214.000
29.58792 204.000
29.60786 189.000
29.62781 207.000
29.64776 185.000
29.66770 197.000
29.68765 202.000
29.70760 201.000
29.72755 229.000
29.74749 221.000
29.76744 220.000
29.78739 197.000
29.80733 213.000
29.82728 202.000
29.84723 181.000
29.86717 194.000
29.88712 207.000
29.90707 210.000
29.92701 198.000
29.94696 237.000
29.96691 227.000
29.98686 230.000
30.00680 214.000
30.02675 259.000
30.04670 275.000
30.06664 268.000
30.08659 323.000
30.10654 374.000
30.12648 444.000
30.14643 525.000
30.16638 641.000
30.18633 730.000
30.20627 891.000
30.22622 941.000
30.24617 897.000
30.26611 841.000
30.28606 690.000
30.30601 612.000
30.32595 530.000
30.34590 391.000
30.36585 361.000
30.38579 264.000
30.40574 237.000
30.42569 242.000
30.44564 254.000
30.46558 197.000
30.48553 208.000
30.50548 205.000
30.52542 221.000
30.54537 201.000
30.56532 213.000
30.58526 213.000
30.60521 202.000
30.62516 202.000
30.64511 210.000
30.66505 207.000
30.68500 187.000
30.70495 219.000
30.72489 226.000
30.74484 178.000
30.76479 196.000
30.78473 217.000
30.80468 207.000
30.82463 251.000
30.84458 212.000
30.86452 201.000
30.88447 201.000
30.90442 214.000
30.92436 221.000
30.94431 209.000
30.96426 233.000
30.98420 208.000
31.00415 204.000
31.02410 225.000
31.04404 211.000
31.06399 189.000
31.08394 230.000
31.10389 241.000
31.12383 241.000
31.14378 184.000
31.16373 239.000
31.18367 206.000
31.20362 192.000
31.22357 207.000
31.24351 201.000
31.26346 223.000
31.28341 201.000
31.30336 210.000
31.32330 215.000
31.34325 227.000
31.36320 221.000
31.38314 227.000
31.40309 217.000
31.42304 227.000
31.44298 222.000
31.46293 236.000
31.48288 228.000
31.50282 226.000
31.52277 199.000
31.54272 218.000
31.56267 226.000
31.58261 206.000
31.60256 202.000
31.62251 247.000
31.64245 226.000
31.66240 264.000
31.68235 266.000
31.70229 283.000
31.72224 301.000
31.74219 309.000
31.76214 329.000
31.78208 368.000
31.80203 386.000
31.82198 415.000
31.84192 458.000
31.86187 467.000
31.88182 485.000
31.90176 476.000
31.92171 446.000
31.94166 437.000
31.96160 388.000
31.98155 356.000
32.00150 358.000
32.02145 325.000
32.04139 285.000
32.06134 261.000
32.08129 269.000
32.10123 256.000
32.12118 242.000
32.14113 261.000
32.16107 224.000
32.18102 252.000
32.20097 241.000
32.22092 220.000
32.24086 232.000
32.26081 205.000
32.28076 224.000
32.30070 220.000
32.32065 228.000
32.34060 221.000
32.36054 222.000
32.38049 210.000
32.40044 231.000
32.42039 218.000
32.44033 245.000
32.46028 246.000
32.48023 295.000
32.50017 270.000
32.52012 281.000
32.54007 261.000
32.56001 244.000
32.57996 248.000
32.59991 245.000
32.61985 248.000
32.63980 221.000
32.65975 238.000
32.67970 194.000
32.69964 194.000
32.71959 238.000
32.73954 209.000
32.75948 184.000
32.77943 199.000
32.79938 204.000
32.81932 213.000
32.83927 224.000
32.85922 199.000
32.87917 183.000
32.89911 237.000
32.91906 210.000
32.93901 197.000
32.95895 229.000
32.97890 213.000
32.99885 197.000
33.01879 195.000
33.03874 217.000
33.05869 198.000
33.07863 190.000
33.09858 228.000
33.11853 196.000
33.13848 226.000
33.15842 217.000
33.17837 201.000
33.19832 231.000
33.21826 229.000
33.23821 181.000
33.25816 203.000
33.27810 215.000
33.29805 208.000
33.31800 199.000
33.33795 213.000
33.35789 192.000
33.37784 212.000
33.39779 197.000
33.41773 191.000
33.43768 202.000
33.45763 181.000
33.47757 201.000
33.49752 211.000
33.51747 202.000
33.53741 211.000
33.55736 197.000
33.57731 190.000
33.59726 196.000
33.61720 184.000
33.63715 226.000
33.65710 197.000
33.67704 217.000
33.69699 213.000
33.71694 236.000
33.73688 196.000
33.75683 232.000
33.77678 196.000
33.79673 213.000
33.81667 204.000
33.83662 213.000
33.85657 203.000
33.87651 205.000
33.89646 201.000
33.91641 197.000
33.93635 221.000
33.95630 247.000
33.97625 188.000
33.99620 198.000
34.01614 232.000
34.03609 215.000
34.05604 208.000
34.07598 225.000
34.09593 209.000
34.11588 215.000
34.13582 203.000
34.15577 193.000
34.17572 228.000
34.19566 216.000
34.21561 186.000
34.23556 209.000
34.25551 214.000
34.27545 199.000
34.29540 217.000
34.31535 200.000
34.33529 233.000
34.35524 232.000
34.37519 204.000
34.39513 209.000
34.41508 214.000
34.43503 237.000
34.45498 219.000
34.47492 220.000
34.49487 222.000
34.51482 249.000
34.53476 241.000
34.55471 247.000
34.57466 256.000
34.59460 237.000
34.61455 245.000
34.63450 258.000
34.65444 262.000
34.67439 285.000
34.69434 231.000
34.71429 247.000
34.73423 292.000
34.75418 235.000
34.77413 279.000
34.79407 246.000
34.81402 249.000
34.83397 251.000
34.85391 257.000
34.87386 262.000
34.89381 270.000
34.91376 272.000
34.93370 305.000
34.95365 251.000
34.97360 261.000
34.99354 296.000
35.01349 283.000
35.03344 301.000
35.05338 310.000
35.07333 314.000
35.09328 312.000
35.11322 297.000
35.13317 296.000
35.15312 343.000
35.17307 348.000
35.19301 360.000
35.21296 349.000
35.23291 405.000
35.25285 421.000
35.27280 388.000
35.29275 460.000
35.31269 494.000
35.33264 537.000
35.35259 603.000
35.37254 685.000
35.39248 870.000
35.41243 1004.000
35.43238 1161.000
35.45232 1315.000
35.47227 1458.000
35.49222 1738.000
35.51216 2048.000
35.53211 2402.000
35.55206 2725.000
35.57201 2940.000
35.59195 3100.000
35.61190 3235.000
35.63185 2928.000
35.65179 2561.000
35.67174 2258.000
35.69169 2030.000
35.71163 1819.000
35.73158 1491.000
35.75153 1149.000
35.77147 932.000
35.79142 790.000
35.81137 659.000
35.83132 600.000
35.85126 512.000
35.87121 472.000
35.89116 402.000
35.91110 386.000
35.93105 419.000
35.95100 352.000
35.97094 354.000
35.99089 318.000
36.01084 342.000
36.03079 308.000
36.05073 304.000
36.07068 283.000
36.09063 273.000
36.11057 245.000
36.13052 265.000
36.15047 283.000
36.17041 275.000
36.19036 270.000
36.21031 283.000
36.23025 259.000
36.25020 225.000
36.27015 221.000
36.29010 265.000
36.31004 247.000
36.32999 260.000
36.34994 224.000
36.36988 220.000
36.38983 273.000
36.40978 218.000
36.42972 227.000
36.44967 251.000
36.46962 268.000
36.48957 245.000
36.50951 255.000
36.52946 272.000
36.54941 257.000
36.56935 260.000
36.58930 238.000
36.60925 259.000
36.62919 263.000
36.64914 241.000
36.66909 252.000
36.68903 250.000
36.70898 255.000
36.72893 228.000
36.74888 254.000
36.76882 238.000
36.78877 268.000
36.80872 220.000
36.82866 245.000
36.84861 241.000
36.86856 217.000
36.88850 243.000
36.90845 253.000
36.92840 256.000
36.94835 267.000
36.96829 226.000
36.98824 245.000
37.00819 255.000
37.02813 270.000
37.04808 234.000
37.06803 250.000
37.08797 238.000
37.10792 275.000
37.12787 289.000
37.14781 310.000
37.16776 309.000
37.18771 319.000
37.20766 341.000
37.22760 382.000
37.24755 402.000
37.26750 380.000
37.28744 349.000
37.30739 339.000
37.32734 353.000
37.34728 296.000
37.36723 307.000
37.38718 273.000
37.40713 245.000
37.42707 222.000
37.44702 220.000
37.46697 220.000
37.48691 223.000
37.50686 236.000
37.52681 219.000
37.54675 238.000
37.56670 214.000
37.58665 235.000
37.60660 209.000
37.62654 244.000
37.64649 243.000
37.66644 231.000
37.68638 204.000
37.70633 254.000
37.72628 225.000
37.74622 234.000
37.76617 187.000
37.78612 235.000
37.80606 251.000
37.82601 232.000
37.84596 202.000
37.86591 227.000
37.88585 260.000
37.90580 213.000
37.92575 237.000
37.94569 234.000
37.96564 221.000
37.98559 232.000
38.00553 227.000
38.02548 254.000
38.04543 233.000
38.06538 232.000
38.08532 270.000
38.10527 232.000
38.12522 264.000
38.14516 252.000
38.16511 264.000
38.18506 289.000
38.20500 290.000
38.22495 262.000
38.24490 293.000
38.26484 306.000
38.28479 298.000
38.30474 264.000
38.32469 278.000
38.34463 304.000
38.36458 301.000
38.38453 364.000
38.40447 336.000
38.42442 387.000
38.44437 370.000
38.46431 435.000
38.48426 412.000
38.50421 449.000
38.52416 447.000
38.54410 448.000
38.56405 489.000
38.58400 576.000
38.60394 617.000
38.62389 667.000
38.64384 771.000
38.66378 882.000
38.68373 903.000
38.70368 942.000
38.72362 922.000
38.74357 928.000
38.76352 810.000
38.78347 855.000
38.80341 765.000
38.82336 722.000
38.84331 724.000
38.86325 607.000
38.88320 596.000
38.90315 550.000
38.92309 552.000
38.94304 549.000
38.96299 532.000
38.98294 539.000
39.00288 550.000
39.02283 551.000
39.04278 548.000
39.06272 544.000
39.08267 596.000
39.10262 572.000
39.12256 642.000
39.14251 632.000
39.16246 648.000
39.18241 719.000
39.20235 708.000
39.22230 751.000
39.24225 732.000
39.26219 683.000
39.28214 720.000
39.30209 701.000
39.32203 656.000
39.34198 638.000
39.36193 574.000
39.38187 531.000
39.40182 507.000
39.42177 452.000
39.44172 435.000
39.46166 400.000
39.48161 376.000
39.50156 359.000
39.52150 325.000
39.54145 359.000
39.56140 311.000
39.58134 322.000
39.60129 268.000
39.62124 264.000
39.64119 268.000
39.66113 272.000
39.68108 270.000
39.70103 246.000
39.72097 249.000
39.74092 282.000
39.76087 234.000
39.78081 238.000
39.80076 245.000
39.82071 239.000
39.84065 249.000
39.86060 257.000
39.88055 245.000
39.90050 224.000
39.92044 215.000
39.94039 231.000
39.96034 207.000
39.98028 227.000
40.00023 223.000
40.02018 220.000
40.04012 198.000
40.06007 197.000
40.08002 234.000
40.09997 203.000
40.11991 219.000
40.13986 221.000
40.15981 185.000
40.17975 218.000
40.19970 213.000
40.21965 226.000
40.23959 237.000
40.25954 191.000
40.27949 242.000
40.29943 212.000
40.31938 218.000
40.33933 227.000
40.35928 213.000
40.37922 240.000
40.39917 203.000
40.41912 216.000
40.43906 210.000
40.45901 204.000
40.47896 219.000
40.49890 194.000
40.51885 203.000
40.53880 193.000
40.55875 206.000
40.57869 215.000
40.59864 207.000
40.61859 203.000
40.63853 165.000
40.65848 193.000
40.67843 211.000
40.69837 210.000
40.71832 199.000
40.73827 204.000
40.75822 204.000
40.77816 219.000
40.79811 215.000
40.81806 210.000
40.83800 203.000
40.85795 221.000
40.87790 173.000
40.89784 205.000
40.91779 192.000
40.93774 233.000
40.95768 199.000
40.97763 203.000
40.99758 192.000
41.01753 207.000
41.03747 223.000
41.05742 233.000
41.07737 214.000
41.09731 229.000
41.11726 198.000
41.13721 215.000
41.15715 213.000
41.17710 222.000
41.19705 212.000
41.21700 179.000
41.23694 188.000
41.25689 211.000
41.27684 228.000
41.29678 232.000
41.31673 193.000
41.33668 183.000
41.35662 209.000
41.37657 199.000
41.39652 202.000
41.41646 196.000
41.43641 180.000
41.45636 211.000
41.47631 231.000
41.49625 225.000
41.51620 200.000
41.53615 211.000
41.55609 207.000
41.57604 203.000
41.59599 218.000
41.61593 202.000
41.63588 209.000
41.65583 208.000
41.67578 193.000
41.69572 209.000
41.71567 221.000
41.73562 187.000
41.75556 196.000
41.77551 224.000
41.79546 197.000
41.81540 211.000
41.83535 215.000
41.85530 196.000
41.87524 199.000
41.89519 190.000
41.91514 209.000
41.93509 183.000
41.95503 208.000
41.97498 197.000
41.99493 214.000
42.01487 217.000
42.03482 183.000
42.05477 200.000
42.07471 233.000
42.09466 195.000
42.11461 184.000
42.13456 207.000
42.15450 190.000
42.17445 205.000
42.19440 189.000
42.21434 201.000
42.23429 203.000
42.25424 211.000
42.27418 196.000
42.29413 200.000
42.31408 190.000
42.33403 198.000
42.35397 202.000
42.37392 214.000
42.39387 194.000
42.41381 204.000
42.43376 205.000
42.45371 240.000
42.47365 217.000
42.49360 216.000
42.51355 215.000
42.53349 219.000
42.55344 204.000
42.57339 202.000
42.59334 218.000
42.61328 207.000
42.63323 212.000
42.65318 193.000
42.67312 200.000
42.69307 217.000
42.71302 217.000
42.73296 219.000
42.75291 225.000
42.77286 219.000
42.79281 219.000
42.81275 248.000
42.83270 229.000
42.85265 234.000
42.87259 245.000
42.89254 266.000
42.91249 234.000
42.93243 239.000
42.95238 252.000
42.97233 269.000
42.99227 252.000
43.01222 279.000
43.03217 282.000
43.05212 305.000
43.07206 324.000
43.09201 375.000
43.11196 393.000
43.13190 385.000
43.15185 423.000
43.17180 468.000
43.19174 540.000
43.21169 620.000
43.23164 655.000
43.25159 724.000
43.27153 768.000
43.29148 790.000
43.31143 746.000
43.33137 661.000
43.35132 669.000
43.37127 614.000
43.39121 567.000
43.41116 580.000
43.43111 520.000
43.45105 425.000
43.47100 410.000
43.49095 408.000
43.51090 354.000
43.53084 329.000
43.55079 332.000
43.57074 307.000
43.59068 308.000
43.61063 279.000
43.63058 264.000
43.65052 221.000
43.67047 246.000
43.69042 225.000
43.71037 220.000
43.73031 221.000
43.75026 213.000
43.77021 235.000
43.79015 235.000
43.81010 210.000
43.83005 197.000
43.84999 216.000
43.86994 224.000
43.88989 230.000
43.90984 237.000
43.92978 220.000
43.94973 190.000
43.96968 240.000
43.98962 211.000
44.00957 218.000
44.02952 196.000
44.04946 194.000
44.06941 209.000
44.08936 229.000
44.10930 217.000
44.12925 212.000
44.14920 217.000
44.16915 206.000
44.18909 212.000
44.20904 223.000
44.22899 219.000
44.24893 201.000
44.26888 196.000
44.28883 199.000
44.30877 196.000
44.32872 198.000
44.34867 210.000
44.36862 176.000
44.38856 198.000
44.40851 218.000
44.42846 190.000
44.44840 195.000
44.46835 219.000
44.48830 209.000
44.50824 189.000
44.52819 212.000
44.54814 223.000
44.56808 217.000
44.58803 204.000
44.60798 185.000
44.62793 199.000
44.64787 201.000
44.66782 181.000
44.68777 191.000
44.70771 215.000
44.72766 185.000
44.74761 204.000
44.76755 205.000
44.78750 201.000
44.80745 194.000
44.82740 207.000
44.84734 207.000
44.86729 194.000
44.88724 206.000
44.90718 196.000
44.92713 209.000
44.94708 203.000
44.96702 188.000
44.98697 208.000
45.00692 181.000
45.02686 210.000
45.04681 167.000
45.06676 197.000
45.08671 208.000
45.10665 210.000
45.12660 210.000
45.14655 185.000
45.16649 206.000
45.18644 179.000
45.20639 204.000
45.22633 192.000
45.24628 198.000
45.26623 206.000
45.28618 182.000
45.30612 191.000
45.32607 230.000
45.34602 194.000
45.36596 196.000
45.38591 195.000
45.40586 201.000
45.42580 179.000
45.44575 201.000
45.46570 185.000
45.48565 199.000
45.50559 166.000
45.52554 204.000
45.54549 198.000
45.56543 196.000
45.58538 159.000
45.60533 169.000
45.62527 190.000
45.64522 177.000
45.66517 193.000
45.68511 188.000
45.70506 188.000
45.72501 208.000
45.74496 203.000
45.76490 217.000
45.78485 204.000
45.80480 183.000
45.82474 193.000
45.84469 204.000
45.86464 190.000
45.88458 182.000
45.90453 210.000
45.92448 163.000
45.94443 211.000
45.96437 203.000
45.98432 199.000
46.00427 223.000
46.02421 200.000
46.04416 224.000
46.06411 225.000
46.08405 179.000
46.10400 205.000
46.12395 196.000
46.14389 184.000
46.16384 237.000
46.18379 202.000
46.20374 186.000
46.22368 206.000
46.24363 216.000
46.26358 216.000
46.28352 203.000
46.30347 194.000
46.32342 202.000
46.34336 210.000
46.36331 187.000
46.38326 194.000
46.40321 202.000
46.42315 182.000
46.44310 176.000
46.46305 225.000
46.48299 174.000
46.50294 232.000
46.52289 210.000
46.54283 225.000
46.56278 220.000
46.58273 178.000
46.60267 222.000
46.62262 194.000
46.64257 197.000
46.66252 226.000
46.68246 216.000
46.70241 205.000
46.72236 226.000
46.74230 169.000
46.76225 186.000
46.78220 215.000
46.80214 235.000
46.82209 198.000
46.84204 206.000
46.86199 202.000
46.88193 190.000
46.90188 219.000
46.92183 185.000
46.94177 195.000
46.96172 198.000
46.98167 231.000
47.00161 225.000
47.02156 189.000
47.04151 211.000
47.06146 205.000
47.08140 206.000
47.10135 201.000
47.12130 195.000
47.14124 214.000
47.16119 208.000
47.18114 210.000
47.20108 199.000
47.22103 189.000
47.24098 238.000
47.26092 226.000
47.28087 217.000
47.30082 211.000
47.32077 222.000
47.34071 204.000
47.36066 215.000
47.38061 248.000
47.40055 230.000
47.42050 234.000
47.44045 200.000
47.46039 245.000
47.48034 180.000
47.50029 224.000
47.52024 232.000
47.54018 231.000
47.56013 200.000
47.58008 220.000
47.60002 195.000
47.61997 236.000
47.63992 209.000
47.65986 191.000
47.67981 201.000
47.69976 211.000
47.71970 210.000
47.73965 222.000
47.75960 209.000
47.77955 213.000
47.79949 219.000
47.81944 211.000
47.83939 194.000
47.85933 220.000
47.87928 226.000
47.89923 226.000
47.91917 241.000
47.93912 254.000
47.95907 223.000
47.97902 236.000
47.99896 244.000
48.01891 257.000
48.03886 255.000
48.05880 229.000
48.07875 241.000
48.09870 247.000
48.11864 233.000
48.13859 257.000
48.15854 243.000
48.17848 310.000
48.19843 232.000
48.21838 269.000
48.23833 297.000
48.25827 309.000
48.27822 314.000
48.29817 324.000
48.31811 331.000
48.33806 345.000
48.35801 332.000
48.37795 352.000
48.39790 353.000
48.41785 366.000
48.43780 457.000
48.45774 452.000
48.47769 515.000
48.49764 545.000
48.51758 538.000
48.53753 594.000
48.55748 626.000
48.57742 619.000
48.59737 602.000
48.61732 668.000
48.63726 643.000
48.65721 630.000
48.67716 619.000
48.69711 608.000
48.71705 606.000
48.73700 582.000
48.75695 591.000
48.77689 561.000
48.79684 552.000
48.81679 536.000
48.83673 510.000
48.85668 517.000
48.87663 446.000
48.89658 458.000
48.91652 413.000
48.93647 420.000
48.95642 379.000
48.97636 339.000
48.99631 324.000
49.01626 317.000
49.03620 305.000
49.05615 302.000
49.07610 290.000
49.09605 286.000
49.11599 269.000
49.13594 275.000
49.15589 295.000
49.17583 250.000
49.19578 277.000
49.21573 237.000
49.23567 233.000
49.25562 261.000
49.27557 268.000
49.29551 228.000
49.31546 227.000
49.33541 254.000
49.35536 267.000
49.37530 212.000
49.39525 204.000
49.41520 224.000
49.43514 243.000
49.45509 246.000
49.47504 218.000
49.49498 210.000
49.51493 219.000
49.53488 232.000
49.55483 249.000
49.57477 211.000
49.59472 213.000
49.61467 204.000
49.63461 186.000
49.65456 211.000
49.67451 206.000
49.69445 215.000
49.71440 211.000
49.73435 218.000
49.75429 223.000
49.77424 198.000
49.79419 220.000
49.81414 212.000
49.83408 218.000
49.85403 213.000
49.87398 191.000
49.89392 187.000
49.91387 196.000
49.93382 224.000
49.95376 218.000
49.97371 215.000
49.99366 194.000
50.01361 230.000
50.03355 201.000
50.05350 215.000
50.07345 205.000
50.09339 208.000
50.11334 209.000
50.13329 218.000
50.15323 208.000
50.17318 201.000
50.19313 209.000
50.21307 182.000
50.23302 178.000
50.25297 198.000
50.27292 205.000
50.29286 233.000
50.31281 196.000
50.33276 218.000
50.35270 191.000
50.37265 215.000
50.39260 195.000
50.41254 198.000
50.43249 208.000
50.45244 178.000
50.47239 202.000
50.49233 190.000
50.51228 188.000
50.53223 190.000
50.55217 184.000
50.57212 174.000
50.59207 195.000
50.61201 189.000
50.63196 199.000
50.65191 194.000
50.67186 205.000
50.69180 167.000
50.71175 184.000
50.73170 198.000
50.75164 192.000
50.77159 181.000
50.79154 191.000
50.81148 198.000
50.83143 189.000
50.85138 192.000
50.87132 215.000
50.89127 218.000
50.91122 199.000
50.93117 192.000
50.95111 223.000
50.97106 210.000
50.99101 195.000
51.01095 178.000
51.03090 198.000
51.05085 211.000
51.07079 177.000
51.09074 189.000
51.11069 182.000
51.13064 218.000
51.15058 199.000
51.17053 208.000
51.19048 179.000
51.21042 221.000
51.23037 172.000
51.25032 172.000
51.27026 217.000
51.29021 198.000
51.31016 202.000
51.33010 229.000
51.35005 215.000
51.37000 205.000
51.38995 202.000
51.40989 188.000
51.42984 190.000
51.44979 211.000
51.46973 199.000
51.48968 196.000
51.50963 201.000
51.52957 208.000
51.54952 213.000
51.56947 198.000
51.58942 207.000
51.60936 199.000
51.62931 195.000
51.64926 184.000
51.66920 184.000
51.68915 189.000
51.70910 192.000
51.72904 217.000
51.74899 190.000
51.76894 192.000
51.78888 161.000
51.80883 176.000
51.82878 177.000
51.84873 174.000
51.86867 192.000
51.88862 213.000
51.90857 208.000
51.92851 162.000
51.94846 198.000
51.96841 222.000
51.98835 165.000
52.00830 192.000
52.02825 184.000
52.04820 196.000
52.06814 177.000
52.08809 190.000
52.10804 199.000
52.12798 181.000
52.14793 198.000
52.16788 222.000
52.18782 222.000
52.20777 177.000
52.22772 182.000
52.24767 172.000
52.26761 205.000
52.28756 165.000
52.30751 204.000
52.32745 207.000
52.34740 187.000
52.36735 201.000
52.38729 177.000
52.40724 194.000
52.42719 206.000
52.44713 161.000
52.46708 202.000
52.48703 208.000
52.50698 182.000
52.52692 178.000
52.54687 194.000
52.56682 188.000
52.58676 188.000
52.60671 190.000
52.62666 168.000
52.64660 206.000
52.66655 198.000
52.68650 194.000
52.70645 229.000
52.72639 177.000
52.74634 200.000
52.76629 223.000
52.78623 205.000
52.80618 179.000
52.82613 204.000
52.84607 200.000
52.86602 200.000
52.88597 196.000
52.90591 199.000
52.92586 213.000
52.94581 196.000
52.96576 204.000
52.98570 215.000
53.00565 208.000
53.02560 188.000
53.04554 203.000
53.06549 195.000
53.08544 225.000
53.10538 207.000
53.12533 198.000
53.14528 207.000
53.16523 224.000
53.18517 214.000
53.20512 222.000
53.22507 210.000
53.24501 199.000
53.26496 200.000
53.28491 243.000
53.30485 231.000
53.32480 230.000
53.34475 248.000
53.36469 233.000
53.38464 272.000
53.40459 228.000
53.42454 261.000
53.44448 256.000
53.46443 260.000
53.48438 264.000
53.50432 267.000
53.52427 282.000
53.54422 269.000
53.56416 300.000
53.58411 318.000
53.60406 302.000
53.62401 332.000
53.64395 332.000
53.66390 340.000
53.68385 352.000
53.70379 376.000
53.72374 356.000
53.74369 336.000
53.76363 301.000
53.78358 287.000
53.80353 283.000
53.82348 271.000
53.84342 288.000
53.86337 267.000
53.88332 257.000
53.90326 214.000
53.92321 256.000
53.94316 232.000
53.96310 208.000
53.98305 194.000
54.00300 189.000
54.02294 191.000
54.04289 203.000
54.06284 214.000
54.08279 198.000
54.10273 219.000
54.12268 184.000
54.14263 187.000
54.16257 223.000
54.18252 178.000
54.20247 198.000
54.22241 178.000
54.24236 185.000
54.26231 196.000
54.28226 182.000
54.30220 188.000
54.32215 200.000
54.34210 202.000
54.36204 196.000
54.38199 192.000
54.40194 197.000
54.42188 212.000
54.44183 171.000
54.46178 181.000
54.48172 196.000
54.50167 171.000
54.52162 185.000
54.54157 190.000
54.56151 208.000
54.58146 166.000
54.60141 188.000
54.62135 215.000
54.64130 184.000
54.66125 179.000
54.68119 194.000
54.70114 190.000
54.72109 162.000
54.74104 181.000
54.76098 190.000
54.78093 173.000
54.80088 210.000
54.82082 202.000
54.84077 227.000
54.86072 207.000
54.88066 201.000
54.90061 178.000
54.92056 190.000
54.94050 199.000
54.96045 194.000
54.98040 183.000
55.00035 215.000
55.02029 154.000
55.04024 212.000
55.06019 211.000
55.08013 188.000
55.10008 185.000
55.12003 180.000
55.13997 206.000
55.15992 187.000
55.17987 206.000
55.19982 186.000
55.21976 178.000
55.23971 180.000
55.25966 215.000
55.27960 172.000
55.29955 178.000
55.31950 192.000
55.33944 175.000
55.35939 190.000
55.37934 213.000
55.39929 173.000
55.41923 224.000
55.43918 191.000
55.45913 179.000
55.47907 206.000
55.49902 166.000
55.51897 186.000
55.53891 177.000
55.55886 194.000
55.57881 207.000
55.59875 200.000
55.61870 184.000
55.63865 218.000
55.65860 208.000
55.67854 212.000
55.69849 189.000
55.71844 221.000
55.73838 164.000
55.75833 208.000
55.77828 184.000
55.79822 208.000
55.81817 206.000
55.83812 187.000
55.85807 182.000
55.87801 191.000
55.89796 170.000
55.91791 183.000
55.93785 195.000
55.95780 193.000
55.97775 187.000
55.99769 182.000
56.01764 187.000
56.03759 217.000
56.05753 197.000
56.07748 202.000
56.09743 199.000
56.11738 198.000
56.13732 213.000
56.15727 201.000
56.17722 194.000
56.19716 206.000
56.21711 211.000
56.23706 193.000
56.25700 187.000
56.27695 194.000
56.29690 186.000
56.31685 207.000
56.33679 169.000
56.35674 194.000
56.37669 190.000
56.39663 180.000
56.41658 214.000
56.43653 194.000
56.45647 207.000
56.47642 194.000
56.49637 190.000
56.51631 203.000
56.53626 203.000
56.55621 193.000
56.57616 203.000
56.59610 202.000
56.61605 191.000
56.63600 205.000
56.65594 216.000
56.67589 176.000
56.69584 212.000
56.71578 190.000
56.73573 208.000
56.75568 225.000
56.77563 215.000
56.79557 214.000
56.81552 201.000
56.83547 224.000
56.85541 224.000
56.87536 225.000
56.89531 227.000
56.91525 262.000
56.93520 278.000
56.95515 261.000
56.97510 311.000
56.99504 296.000
57.01499 330.000
57.03494 352.000
57.05488 365.000
57.07483 414.000
57.09478 435.000
57.11472 479.000
57.13467 470.000
57.15462 494.000
57.17456 563.000
57.19451 620.000
57.21446 581.000
57.23441 600.000
57.25435 614.000
57.27430 612.000
57.29425 592.000
57.31419 507.000
57.33414 517.000
57.35409 477.000
57.37403 451.000
57.39398 424.000
57.41393 408.000
57.43388 408.000
57.45382 331.000
57.47377 318.000
57.49372 302.000
57.51366 242.000
57.53361 263.000
57.55356 221.000
57.57350 249.000
57.59345 239.000
57.61340 239.000
57.63334 216.000
57.65329 223.000
57.67324 199.000
57.69319 226.000
57.71313 242.000
57.73308 218.000
57.75303 220.000
57.77297 214.000
57.79292 248.000
57.81287 233.000
57.83281 185.000
57.85276 205.000
57.87271 206.000
57.89266 214.000
57.91260 210.000
57.93255 205.000
57.95250 232.000
57.97244 214.000
57.99239 223.000
58.01234 220.000
58.03228 212.000
58.05223 236.000
58.07218 207.000
58.09212 204.000
58.11207 214.000
58.13202 221.000
58.15197 213.000
58.17191 254.000
58.19186 248.000
58.21181 275.000
58.23175 248.000
58.25170 268.000
58.27165 297.000
58.29159 224.000
58.31154 262.000
58.33149 268.000
58.35144 257.000
58.37138 265.000
58.39133 258.000
58.41128 254.000
58.43122 261.000
58.45117 246.000
58.47112 245.000
58.49106 240.000
58.51101 210.000
58.53096 214.000
58.55090 231.000
58.57085 220.000
58.59080 172.000
58.61075 250.000
58.63069 194.000
58.65064 208.000
58.67059 197.000
58.69053 199.000
58.71048 196.000
58.73043 208.000
58.75037 232.000
58.77032 206.000
58.79027 212.000
58.81022 198.000
58.83016 189.000
58.85011 214.000
58.87006 213.000
58.89000 183.000
58.90995 210.000
58.92990 203.000
58.94984 198.000
58.96979 168.000
58.98974 202.000
59.00969 202.000
59.02963 221.000
59.04958 167.000
59.06953 197.000
59.08947 198.000
59.10942 210.000
59.12937 184.000
59.14931 205.000
59.16926 202.000
59.18921 209.000
59.20915 195.000
59.22910 185.000
59.24905 210.000
59.26900 190.000
59.28894 203.000
59.30889 188.000
59.32884 178.000
59.34878 177.000
59.36873 185.000
59.38868 179.000
59.40862 189.000
59.42857 203.000
59.44852 195.000
59.46847 179.000
59.48841 179.000
59.50836 198.000
59.52831 202.000
59.54825 194.000
59.56820 174.000
59.58815 184.000
59.60809 181.000
59.62804 176.000
59.64799 192.000
59.66793 210.000
59.68788 196.000
59.70783 192.000
59.72778 193.000
59.74772 229.000
59.76767 186.000
59.78762 182.000
59.80756 198.000
59.82751 188.000
59.84746 162.000
59.86740 194.000
59.88735 210.000
59.90730 198.000
59.92725 209.000
59.94719 206.000
59.96714 200.000
59.98709 206.000
60.00703 172.000
60.02698 212.000
60.04693 208.000
60.06687 210.000
60.08682 192.000
60.10677 199.000
60.12671 203.000
60.14666 206.000
60.16661 213.000
60.18656 217.000
60.20650 218.000
60.22645 179.000
60.24640 201.000
60.26634 200.000
60.28629 179.000
60.30624 217.000
60.32618 198.000
60.34613 173.000
60.36608 185.000
60.38603 190.000
60.40597 206.000
60.42592 181.000
60.44587 195.000
60.46581 205.000
60.48576 191.000
60.50571 185.000
60.52565 195.000
60.54560 201.000
60.56555 215.000
60.58550 195.000
60.60544 194.000
60.62539 228.000
60.64534 218.000
60.66528 204.000
60.68523 209.000
60.70518 225.000
60.72512 202.000
60.74507 206.000
60.76502 196.000
60.78496 207.000
60.80491 202.000
60.82486 213.000
60.84481 208.000
60.86475 213.000
60.88470 201.000
60.90465 203.000
60.92459 207.000
60.94454 250.000
60.96449 197.000
60.98443 205.000
61.00438 216.000
61.02433 212.000
61.04428 215.000
61.06422 232.000
61.08417 210.000
61.10412 227.000
61.12406 227.000
61.14401 221.000
61.16396 201.000
61.18390 215.000
61.20385 255.000
61.22380 215.000
61.24374 229.000
61.26369 220.000
61.28364 270.000
61.30359 239.000
61.32353 273.000
61.34348 251.000
61.36343 248.000
61.38337 276.000
61.40332 267.000
61.42327 300.000
61.44321 289.000
61.46316 294.000
61.48311 318.000
61.50306 332.000
61.52300 342.000
61.54295 378.000
61.56290 380.000
61.58284 374.000
61.60279 381.000
61.62274 392.000
61.64268 380.000
61.66263 405.000
61.68258 398.000
61.70252 423.000
61.72247 380.000
61.74242 444.000
61.76237 394.000
61.78231 390.000
61.80226 380.000
61.82221 377.000
61.84215 400.000
61.86210 365.000
61.88205 346.000
61.90199 359.000
61.92194 327.000
61.94189 321.000
61.96184 336.000
61.98178 330.000
62.00173 303.000
62.02168 284.000
62.04162 276.000
62.06157 261.000
62.08152 268.000
62.10146 270.000
62.12141 256.000
62.14136 250.000
62.16131 241.000
62.18125 275.000
62.20120 249.000
62.22115 253.000
62.24109 260.000
62.26104 261.000
62.28099 244.000
62.30093 218.000
62.32088 244.000
62.34083 238.000
62.36077 235.000
62.38072 255.000
62.40067 244.000
62.42062 236.000
62.44056 251.000
62.46051 257.000
62.48046 242.000
62.50040 264.000
62.52035 281.000
62.54030 256.000
62.56024 303.000
62.58019 337.000
62.60014 339.000
62.62009 359.000
62.64003 379.000
62.65998 407.000
62.67993 444.000
62.69987 474.000
62.71982 502.000
62.73977 546.000
62.75971 620.000
62.77966 659.000
62.79961 672.000
62.81955 698.000
62.83950 764.000
62.85945 741.000
62.87940 768.000
62.89934 738.000
62.91929 678.000
62.93924 651.000
62.95918 583.000
62.97913 512.000
62.99908 504.000
63.01902 543.000
63.03897 500.000
63.05892 495.000
63.07887 450.000
63.09881 417.000
63.11876 391.000
63.13871 322.000
63.15865 288.000
63.17860 303.000
63.19855 260.000
63.21849 244.000
63.23844 261.000
63.25839 251.000
63.27833 242.000
63.29828 252.000
63.31823 248.000
63.33818 218.000
63.35812 239.000
63.37807 234.000
63.39802 243.000
63.41796 244.000
63.43791 236.000
63.45786 215.000
63.47780 250.000
63.49775 214.000
63.51770 208.000
63.53765 213.000
63.55759 193.000
63.57754 215.000
63.59749 229.000
63.61743 201.000
63.63738 220.000
63.65733 220.000
63.67727 205.000
63.69722 227.000
63.71717 236.000
63.73712 246.000
63.75706 251.000
63.77701 272.000
63.79696 238.000
63.81690 223.000
63.83685 286.000
63.85680 283.000
63.87674 294.000
63.89669 248.000
63.91664 281.000
63.93658 304.000
63.95653 274.000
63.97648 301.000
63.99643 274.000
64.01637 292.000
64.03632 298.000
64.05627 306.000
64.07621 336.000
64.09616 271.000
64.11611 309.000
64.13605 316.000
64.15600 295.000
64.17595 318.000
64.19590 310.000
64.21584 310.000
64.23579 283.000
64.25574 304.000
64.27568 318.000
64.29563 294.000
64.31558 297.000
64.33552 317.000
64.35547 302.000
64.37542 270.000
64.39536 242.000
64.41531 273.000
64.43526 274.000
64.45521 260.000
64.47515 270.000
64.49510 249.000
64.51505 215.000
64.53499 221.000
64.55494 238.000
64.57489 219.000
64.59483 236.000
64.61478 198.000
64.63473 228.000
64.65468 228.000
64.67462 217.000
64.69457 222.000
64.71452 200.000
64.73446 212.000
64.75441 211.000
64.77436 222.000
64.79430 232.000
64.81425 247.000
64.83420 230.000
64.85414 205.000
64.87409 224.000
64.89404 233.000
64.91399 250.000
64.93393 223.000
64.95388 231.000
64.97383 207.000
64.99377 183.000
65.01372 196.000
65.03367 218.000
65.05361 232.000
65.07356 232.000
65.09351 217.000
65.11346 223.000
65.13340 205.000
65.15335 214.000
65.17330 207.000
65.19324 234.000
65.21319 183.000
65.23314 233.000
65.25308 230.000
65.27303 230.000
65.29298 221.000
65.31293 220.000
65.33287 204.000
65.35282 244.000
65.37277 228.000
65.39271 236.000
65.41266 235.000
65.43261 234.000
65.45255 204.000
65.47250 227.000
65.49245 228.000
65.51239 229.000
65.53234 226.000
65.55229 253.000
65.57224 240.000
65.59218 276.000
65.61213 262.000
65.63208 237.000
65.65202 260.000
65.67197 262.000
65.69192 245.000
65.71186 260.000
65.73181 270.000
65.75176 251.000
65.77171 279.000
65.79165 260.000
65.81160 299.000
65.83155 264.000
65.85149 265.000
65.87144 257.000
65.89139 251.000
65.91133 295.000
65.93128 250.000
65.95123 271.000
65.97117 275.000
65.99112 244.000
66.01107 245.000
66.03102 294.000
66.05096 264.000
66.07091 260.000
66.09086 274.000
66.11080 307.000
66.13075 282.000
66.15070 275.000
66.17064 330.000
66.19059 304.000
66.21054 334.000
66.23049 327.000
66.25043 319.000
66.27038 318.000
66.29033 355.000
66.31027 347.000
66.33022 327.000
66.35017 390.000
66.37011 362.000
66.39006 369.000
66.41001 337.000
66.42995 356.000
66.44990 353.000
66.46985 354.000
66.48980 339.000
66.50974 312.000
66.52969 338.000
66.54964 366.000
66.56958 327.000
66.58953 317.000
66.60948 307.000
66.62942 310.000
66.64937 349.000
66.66932 326.000
66.68927 331.000
66.70921 293.000
66.72916 290.000
66.74911 270.000
66.76905 267.000
66.78900 279.000
66.80895 281.000
66.82889 253.000
66.84884 240.000
66.86879 268.000
66.88874 236.000
66.90868 228.000
66.92863 234.000
66.94858 220.000
66.96852 200.000
66.98847 248.000
67.00842 201.000
67.02836 227.000
67.04831 213.000
67.06826 244.000
67.08820 204.000
67.10815 218.000
67.12810 198.000
67.14805 200.000
67.16799 197.000
67.18794 194.000
67.20789 211.000
67.22783 208.000
67.24778 203.000
67.26773 219.000
67.28767 209.000
67.30762 240.000
67.32757 206.000
67.34752 223.000
67.36746 230.000
67.38741 231.000
67.40736 216.000
67.42730 211.000
67.44725 202.000
67.46720 208.000
67.48714 208.000
67.50709 213.000
67.52704 222.000
67.54698 223.000
67.56693 228.000
67.58688 188.000
67.60683 220.000
67.62677 242.000
67.64672 221.000
67.66667 230.000
67.68661 246.000
67.70656 216.000
67.72651 223.000
67.74645 255.000
67.76640 227.000
67.78635 253.000
67.80630 225.000
67.82624 261.000
67.84619 247.000
67.86614 230.000
67.88608 271.000
67.90603 263.000
67.92598 271.000
67.94592 270.000
67.96587 259.000
67.98582 286.000
68.00576 255.000
68.02571 248.000
68.04566 270.000
68.06561 283.000
68.08555 260.000
68.10550 275.000
68.12545 262.000
68.14539 273.000
68.16534 252.000
68.18529 258.000
68.20523 244.000
68.22518 278.000
68.24513 234.000
68.26508 211.000
68.28502 239.000
68.30497 238.000
68.32492 239.000
68.34486 212.000
68.36481 215.000
68.38476 211.000
68.40470 226.000
68.42465 215.000
68.44460 224.000
68.46455 206.000
68.48449 202.000
68.50444 196.000
68.52439 195.000
68.54433 202.000
68.56428 189.000
68.58423 196.000
68.60417 188.000
68.62412 201.000
68.64407 194.000
68.66401 213.000
68.68396 201.000
68.70391 188.000
68.72386 205.000
68.74380 209.000
68.76375 185.000
68.78370 194.000
68.80364 193.000
68.82359 193.000
68.84354 186.000
68.86348 174.000
68.88343 195.000
68.90338 203.000
68.92333 187.000
68.94327 198.000
68.96322 178.000
68.98317 177.000
69.00311 239.000
69.02306 223.000
69.04301 190.000
69.06295 218.000
69.08290 207.000
69.10285 181.000
69.12279 195.000
69.14274 206.000
69.16269 161.000
69.18264 192.000
69.20258 180.000
69.22253 194.000
69.24248 187.000
69.26242 193.000
69.28237 213.000
69.30232 180.000
69.32226 186.000
69.34221 169.000
69.36216 187.000
69.38211 184.000
69.40205 184.000
69.42200 171.000
69.44195 198.000
69.46189 191.000
69.48184 199.000
69.50179 218.000
69.52173 186.000
69.54168 214.000
69.56163 192.000
69.58157 176.000
69.60152 190.000
69.62147 191.000
69.64142 207.000
69.66136 197.000
69.68131 157.000
69.70126 173.000
69.72120 183.000
69.74115 199.000
69.76110 169.000
69.78104 203.000
69.80099 188.000
69.82094 213.000
69.84089 184.000
69.86083 189.000
69.88078 188.000
69.90073 195.000
69.92067 171.000
69.94062 189.000
69.96057 190.000
69.98051 197.000
70.00046 191.000
70.02041 174.000
70.04035 187.000
70.06030 176.000
70.08025 184.000
70.10020 178.000
70.12014 206.000
70.14009 188.000
70.16004 198.000
70.17998 203.000
70.19993 161.000
70.21988 193.000
70.23982 173.000
70.25977 195.000
70.27972 189.000
70.29967 174.000
70.31961 176.000
70.33956 180.000
70.35951 192.000
70.37945 192.000
70.39940 179.000
70.41935 206.000
70.43929 163.000
70.45924 174.000
70.47919 173.000
70.49914 184.000
70.51908 193.000
70.53903 176.000
70.55898 191.000
70.57892 181.000
70.59887 188.000
70.61882 185.000
70.63876 184.000
70.65871 193.000
70.67866 168.000
70.69860 187.000
70.71855 177.000
70.73850 185.000
70.75845 202.000
70.77839 178.000
70.79834 173.000
70.81829 207.000
70.83823 183.000
70.85818 166.000
70.87813 177.000
70.89807 185.000
70.91802 198.000
70.93797 202.000
70.95792 188.000
70.97786 202.000
70.99781 189.000
71.01776 204.000
71.03770 185.000
71.05765 185.000
71.07760 198.000
71.09754 223.000
71.11749 200.000
71.13744 205.000
71.15738 211.000
71.17733 205.000
71.19728 205.000
71.21723 209.000
71.23717 213.000
71.25712 211.000
71.27707 222.000
71.29701 233.000
71.31696 227.000
71.33691 197.000
71.35685 221.000
71.37680 227.000
71.39675 213.000
71.41670 207.000
71.43664 218.000
71.45659 224.000
71.47654 195.000
71.49648 228.000
71.51643 187.000
71.53638 213.000
71.55632 211.000
71.57627 192.000
71.59622 219.000
71.61616 219.000
71.63611 214.000
71.65606 203.000
71.67601 188.000
71.69595 218.000
71.71590 206.000
71.73585 206.000
71.75579 212.000
71.77574 187.000
71.79569 206.000
71.81563 196.000
71.83558 200.000
71.85553 187.000
71.87548 185.000
71.89542 190.000
71.91537 200.000
71.93532 203.000
71.95526 173.000
71.97521 212.000
71.99516 196.000
72.01510 210.000
72.03505 202.000
72.05500 193.000
72.07495 194.000
72.09489 228.000
72.11484 165.000
72.13479 195.000
72.15473 194.000
72.17468 205.000
72.19463 201.000
72.21457 208.000
72.23452 191.000
72.25447 235.000
72.27441 191.000
72.29436 213.000
72.31431 195.000
72.33426 240.000
72.35420 230.000
72.37415 230.000
72.39410 227.000
72.41404 215.000
72.43399 221.000
72.45394 224.000
72.47388 238.000
72.49383 201.000
72.51378 243.000
72.53373 209.000
72.55367 193.000
72.57362 207.000
72.59357 213.000
72.61351 206.000
72.63346 206.000
72.65341 188.000
72.67335 191.000
72.69330 207.000
72.71325 196.000
72.73319 214.000
72.75314 189.000
72.77309 194.000
72.79304 212.000
72.81298 205.000
72.83293 207.000
72.85288 187.000
72.87282 182.000
72.89277 183.000
72.91272 208.000
72.93266 196.000
72.95261 205.000
72.97256 200.000
72.99251 196.000
73.01245 188.000
73.03240 192.000
73.05235 182.000
73.07229 215.000
73.09224 202.000
73.11219 214.000
73.13213 215.000
73.15208 205.000
73.17203 194.000
73.19197 202.000
73.21192 208.000
73.23187 222.000
73.25182 211.000
73.27176 240.000
73.29171 216.000
73.31166 215.000
73.33160 219.000
73.35155 179.000
73.37150 244.000
73.39144 198.000
73.41139 216.000
73.43134 214.000
73.45129 219.000
73.47123 213.000
73.49118 214.000
73.51113 222.000
73.53107 234.000
73.55102 190.000
73.57097 201.000
73.59091 239.000
73.61086 207.000
73.63081 196.000
73.65076 227.000
73.67070 204.000
73.69065 200.000
73.71060 223.000
73.73054 220.000
73.75049 219.000
73.77044 223.000
73.79038 222.000
73.81033 225.000
73.83028 213.000
73.85022 226.000
73.87017 210.000
73.89012 225.000
73.91007 222.000
73.93001 212.000
73.94996 207.000
73.96991 193.000
73.98985 218.000
74.00980 214.000
74.02975 214.000
74.04969 208.000
74.06964 224.000
74.08959 214.000
74.10954 241.000
74.12948 213.000
74.14943 227.000
74.16938 219.000
74.18932 229.000
74.20927 256.000
74.22922 258.000
74.24916 234.000
74.26911 285.000
74.28906 246.000
74.30900 262.000
74.32895 302.000
74.34890 237.000
74.36885 274.000
74.38879 295.000
74.40874 303.000
74.42869 311.000
74.44863 269.000
74.46858 285.000
74.48853 245.000
74.50847 266.000
74.52842 211.000
74.54837 264.000
74.56832 266.000
74.58826 247.000
74.60821 233.000
74.62816 251.000
74.64810 200.000
74.66805 242.000
74.68800 228.000
74.70794 224.000
74.72789 229.000
74.74784 208.000
74.76778 205.000
74.78773 224.000
74.80768 195.000
74.82763 226.000
74.84757 229.000
74.86752 220.000
74.88747 221.000
74.90741 233.000
74.92736 215.000
74.94731 284.000
74.96725 249.000
74.98720 242.000
75.00715 283.000
75.02710 256.000
75.04704 226.000
75.06699 238.000
75.08694 254.000
75.10688 257.000
75.12683 241.000
75.14678 254.000
75.16672 288.000
75.18667 283.000
75.20662 262.000
75.22657 276.000
75.24651 251.000
75.26646 246.000
75.28641 255.000
75.30635 253.000
75.32630 238.000
75.34625 288.000
75.36619 269.000
75.38614 271.000
75.40609 266.000
75.42603 292.000
75.44598 268.000
75.46593 286.000
75.48588 244.000
75.50582 260.000
75.52577 248.000
75.54572 238.000
75.56566 244.000
75.58561 235.000
75.60556 228.000
75.62550 209.000
75.64545 213.000
75.66540 228.000
75.68535 223.000
75.70529 221.000
75.72524 248.000
75.74519 214.000
75.76513 205.000
75.78508 195.000
75.80503 215.000
75.82497 202.000
75.84492 202.000
75.86487 221.000
75.88481 184.000
75.90476 189.000
75.92471 196.000
75.94466 188.000
75.96460 213.000
75.98455 190.000
76.00450 218.000
76.02444 193.000
76.04439 187.000
76.06434 193.000
76.08428 195.000
76.10423 209.000
76.12418 208.000
76.14413 220.000
76.16407 222.000
76.18402 193.000
76.20397 182.000
76.22391 189.000
76.24386 199.000
76.26381 204.000
76.28375 192.000
76.30370 194.000
76.32365 210.000
76.34359 217.000
76.36354 188.000
76.38349 217.000
76.40344 198.000
76.42338 175.000
76.44333 213.000
76.46328 182.000
76.48322 207.000
76.50317 188.000
76.52312 222.000
76.54306 164.000
76.56301 190.000
76.58296 202.000
76.60291 195.000
76.62285 190.000
76.64280 186.000
76.66275 196.000
76.68269 204.000
76.70264 190.000
76.72259 196.000
76.74253 184.000
76.76248 175.000
76.78243 184.000
76.80238 186.000
76.82232 204.000
76.84227 184.000
76.86222 195.000
76.88216 199.000
76.90211 182.000
76.92206 191.000
76.94200 176.000
76.96195 161.000
76.98190 190.000
77.00184 198.000
77.02179 178.000
77.04174 192.000
77.06169 182.000
77.08163 206.000
77.10158 193.000
77.12153 202.000
77.14147 196.000
77.16142 201.000
77.18137 195.000
77.20131 174.000
77.22126 191.000
77.24121 184.000
77.26116 216.000
77.28110 186.000
77.30105 204.000
77.32100 205.000
77.34094 204.000
77.36089 237.000
77.38084 191.000
77.40078 204.000
77.42073 196.000
77.44068 225.000
77.46062 206.000
77.48057 203.000
77.50052 233.000
77.52047 190.000
77.54041 235.000
77.56036 197.000
77.58031 215.000
77.60025 233.000
77.62020 228.000
77.64015 212.000
77.66009 245.000
77.68004 244.000
77.69999 247.000
77.71994 248.000
77.73988 247.000
77.75983 237.000
77.77978 260.000
77.79972 269.000
77.81967 231.000
77.83962 255.000
77.85956 230.000
77.87951 243.000
77.89946 253.000
77.91940 243.000
77.93935 258.000
77.95930 242.000
77.97925 246.000
77.99919 235.000
78.01914 227.000
78.03909 253.000
78.05903 247.000
78.07898 235.000
78.09893 247.000
78.11887 228.000
78.13882 255.000
78.15877 234.000
78.17872 225.000
78.19866 222.000
78.21861 213.000
78.23856 224.000
78.25850 205.000
78.27845 215.000
78.29840 216.000
78.31834 230.000
78.33829 215.000
78.35824 223.000
78.37819 182.000
78.39813 205.000
78.41808 200.000
78.43803 212.000
78.45797 194.000
78.47792 215.000
78.49787 210.000
78.51781 206.000
78.53776 196.000
78.55771 182.000
78.57765 225.000
78.59760 170.000
78.61755 197.000
78.63750 204.000
78.65744 201.000
78.67739 225.000
78.69734 196.000
78.71728 188.000
78.73723 190.000
78.75718 178.000
78.77712 160.000
78.79707 189.000
78.81702 162.000
78.83697 195.000
78.85691 209.000
78.87686 181.000
78.89681 190.000
78.91675 186.000
78.93670 196.000
78.95665 173.000
78.97659 199.000
78.99654 192.000
79.01649 187.000
79.03643 209.000
79.05638 170.000
79.07633 187.000
79.09628 175.000
79.11622 177.000
79.13617 175.000
79.15612 212.000
79.17606 183.000
79.19601 232.000
79.21596 193.000
79.23590 221.000
79.25585 205.000
79.27580 211.000
79.29575 199.000
79.31569 225.000
79.33564 213.000
79.35559 237.000
79.37553 196.000
79.39548 215.000
79.41543 202.000
79.43537 214.000
79.45532 206.000
79.47527 215.000
79.49521 187.000
79.51516 210.000
79.53511 201.000
79.55506 203.000
79.57500 217.000
79.59495 192.000
79.61490 204.000
79.63484 187.000
79.65479 200.000
79.67474 233.000
79.69468 190.000
79.71463 197.000
79.73458 178.000
79.75453 178.000
79.77447 185.000
79.79442 196.000
79.81437 185.000
79.83431 197.000
79.85426 180.000
79.87421 189.000
79.89415 177.000
79.91410 182.000
79.93405 187.000
79.95399 202.000
79.97394 163.000
79.99389 175.000
80.01384 203.000
80.03378 193.000
80.05373 199.000
80.07368 178.000
80.09362 190.000
80.11357 207.000
80.13352 211.000
80.15346 220.000
80.17341 172.000
80.19336 183.000
80.21331 216.000
80.23325 172.000
80.25320 206.000
80.27315 177.000
80.29309 209.000
80.31304 195.000
80.33299 180.000
80.35293 192.000
80.37288 171.000
80.39283 194.000
80.41278 203.000
80.43272 236.000
80.45267 203.000
80.47262 187.000
80.49256 207.000
80.51251 192.000
80.53246 209.000
80.55240 197.000
80.57235 207.000
80.59230 181.000
80.61224 190.000
80.63219 196.000
80.65214 195.000
80.67209 194.000
80.69203 206.000
80.71198 194.000
80.73193 206.000
80.75187 197.000
80.77182 199.000
80.79177 186.000
80.81171 197.000
80.83166 174.000
80.85161 194.000
80.87156 231.000
80.89150 164.000
80.91145 191.000
80.93140 175.000
80.95134 187.000
80.97129 200.000
80.99124 209.000
81.01118 188.000
81.03113 174.000
81.05108 178.000
81.07102 169.000
81.09097 175.000
81.11092 185.000
81.13087 195.000
81.15081 183.000
81.17076 180.000
81.19071 172.000
81.21065 170.000
81.23060 182.000
81.25055 188.000
81.27049 181.000
81.29044 145.000
81.31039 191.000
81.33034 180.000
81.35028 189.000
81.37023 168.000
81.39018 191.000
81.41012 177.000
81.43007 200.000
81.45002 168.000
81.46996 193.000
81.48991 211.000
81.50986 189.000
81.52980 191.000
81.54975 177.000
81.56970 188.000
81.58965 170.000
81.60959 160.000
81.62954 211.000
81.64949 214.000
81.66943 195.000
81.68938 212.000
81.70933 187.000
81.72927 174.000
81.74922 179.000
81.76917 186.000
81.78912 158.000
81.80906 166.000
81.82901 191.000
81.84896 179.000
81.86890 204.000
81.88885 180.000
81.90880 190.000
81.92874 180.000
81.94869 195.000
81.96864 206.000
81.98859 189.000
82.00853 177.000
82.02848 175.000
82.04843 191.000
82.06837 170.000
82.08832 197.000
82.10827 193.000
82.12821 165.000
82.14816 210.000
82.16811 197.000
82.18805 209.000
82.20800 176.000
82.22795 204.000
82.24790 179.000
82.26784 168.000
82.28779 235.000
82.30774 194.000
82.32768 209.000
82.34763 197.000
82.36758 204.000
82.38752 206.000
82.40747 177.000
82.42742 192.000
82.44737 216.000
82.46731 222.000
82.48726 221.000
82.50721 223.000
82.52715 217.000
82.54710 234.000
82.56705 219.000
82.58699 214.000
82.60694 208.000
82.62689 207.000
82.64683 217.000
82.66678 228.000
82.68673 222.000
82.70668 182.000
82.72662 188.000
82.74657 203.000
82.76652 216.000
82.78646 207.000
82.80641 204.000
82.82636 211.000
82.84630 209.000
82.86625 215.000
82.88620 212.000
82.90615 231.000
82.92609 215.000
82.94604 210.000
82.96599 218.000
82.98593 219.000
83.00588 217.000
83.02583 178.000
83.04577 197.000
83.06572 200.000
83.08567 206.000
83.10561 181.000
83.12556 183.000
83.14551 202.000
83.16546 220.000
83.18540 214.000
83.20535 185.000
83.22530 207.000
83.24524 203.000
83.26519 179.000
83.28514 210.000
83.30508 159.000
83.32503 200.000
83.34498 205.000
83.36493 193.000
83.38487 201.000
83.40482 188.000
83.42477 194.000
83.44471 195.000
83.46466 192.000
83.48461 202.000
83.50455 206.000
83.52450 185.000
83.54445 219.000
83.56440 215.000
83.58434 192.000
83.60429 182.000
83.62424 188.000
83.64418 227.000
83.66413 200.000
83.68408 162.000
83.70402 201.000
83.72397 198.000
83.74392 204.000
83.76386 237.000
83.78381 182.000
83.80376 219.000
83.82371 214.000
83.84365 196.000
83.86360 205.000
83.88355 208.000
83.90349 205.000
83.92344 182.000
83.94339 200.000
83.96333 209.000
83.98328 203.000
84.00323 195.000
84.02318 189.000
84.04312 231.000
84.06307 215.000
84.08302 243.000
84.10296 206.000
84.12291 218.000
84.14286 209.000
84.16280 205.000
84.18275 218.000
84.20270 229.000
84.22264 220.000
84.24259 240.000
84.26254 214.000
84.28249 216.000
84.30243 231.000
84.32238 212.000
84.34233 229.000
84.36227 255.000
84.38222 211.000
84.40217 205.000
84.42211 229.000
84.44206 208.000
84.46201 209.000
84.48196 223.000
84.50190 205.000
84.52185 242.000
84.54180 234.000
84.56174 220.000
84.58169 222.000
84.60164 181.000
84.62158 226.000
84.64153 208.000
84.66148 197.000
84.68142 215.000
84.70137 193.000
84.72132 214.000
84.74127 195.000
84.76121 199.000
84.78116 208.000
84.80111 165.000
84.82105 192.000
84.84100 205.000
84.86095 173.000
84.88089 188.000
84.90084 192.000
84.92079 217.000
84.94074 197.000
84.96068 177.000
84.98063 186.000
85.00058 199.000
85.02052 167.000
85.04047 184.000
85.06042 201.000
85.08036 204.000
85.10031 202.000
85.12026 184.000
85.14021 197.000
85.16015 179.000
85.18010 173.000
85.20005 162.000
85.21999 186.000
85.23994 173.000
85.25989 175.000
85.27983 197.000
85.29978 173.000
85.31973 200.000
85.33967 174.000
85.35962 189.000
85.37957 211.000
85.39952 204.000
85.41946 192.000
85.43941 177.000
85.45936 179.000
85.47930 179.000
85.49925 199.000
85.51920 212.000
85.53914 200.000
85.55909 176.000
85.57904 201.000
85.59899 175.000
85.61893 176.000
85.63888 186.000
85.65883 177.000
85.67877 169.000
85.69872 164.000
85.71867 195.000
85.73861 190.000
85.75856 203.000
85.77851 177.000
85.79845 187.000
85.81840 175.000
85.83835 184.000
85.85830 177.000
85.87824 188.000
85.89819 194.000
85.91814 183.000
85.93808 190.000
85.95803 184.000
85.97798 163.000
85.99792 200.000
86.01787 195.000
86.03782 193.000
86.05777 202.000
86.07771 205.000
86.09766 204.000
86.11761 180.000
86.13755 204.000
86.15750 186.000
86.17745 200.000
86.19739 196.000
86.21734 201.000
86.23729 170.000
86.25723 186.000
86.27718 174.000
86.29713 200.000
86.31708 209.000
86.33702 188.000
86.35697 193.000
86.37692 189.000
86.39686 204.000
86.41681 170.000
86.43676 196.000
86.45670 197.000
86.47665 192.000
86.49660 203.000
86.51655 197.000
86.53649 184.000
86.55644 209.000
86.57639 170.000
86.59633 206.000
86.61628 187.000
86.63623 182.000
86.65617 190.000
86.67612 191.000
86.69607 185.000
86.71602 180.000
86.73596 201.000
86.75591 196.000
86.77586 237.000
86.79580 188.000
86.81575 196.000
86.83570 183.000
86.85564 218.000
86.87559 203.000
86.89554 191.000
86.91548 217.000
86.93543 212.000
86.95538 198.000
86.97533 191.000
86.99527 187.000
87.01522 187.000
87.03517 216.000
87.05511 224.000
87.07506 234.000
87.09501 230.000
87.11495 188.000
87.13490 246.000
87.15485 250.000
87.17480 253.000
87.19474 216.000
87.21469 206.000
87.23464 227.000
87.25458 250.000
87.27453 232.000
87.29448 219.000
87.31442 222.000
87.33437 192.000
87.35432 236.000
87.37426 213.000
87.39421 242.000
87.41416 217.000
87.43411 221.000
87.45405 200.000
87.47400 213.000
87.49395 209.000
87.51389 214.000
87.53384 188.000
87.55379 204.000
87.57373 202.000
87.59368 195.000
87.61363 200.000
87.63358 194.000
87.65352 170.000
87.67347 188.000
87.69342 192.000
87.71336 172.000
87.73331 171.000
87.75326 178.000
87.77320 155.000
87.79315 184.000
87.81310 211.000
87.83304 172.000
87.85299 209.000
87.87294 195.000
87.89289 173.000
87.91283 192.000
87.93278 182.000
87.95273 191.000
87.97267 186.000
87.99262 206.000
88.01257 185.000
88.03251 196.000
88.05246 171.000
88.07241 171.000
88.09236 190.000
88.11230 201.000
88.13225 191.000
88.15220 186.000
88.17214 192.000
88.19209 185.000
88.21204 192.000
88.23198 175.000
88.25193 182.000
88.27188 216.000
88.29183 184.000
88.31177 187.000
88.33172 181.000
88.35167 182.000
88.37161 171.000
88.39156 190.000
88.41151 228.000
88.43145 188.000
88.45140 199.000
88.47135 187.000
88.49129 162.000
88.51124 183.000
88.53119 171.000
88.55114 183.000
88.57108 197.000
88.59103 181.000
88.61098 206.000
88.63092 188.000
88.65087 200.000
88.67082 191.000
88.69076 183.000
88.71071 180.000
88.73066 188.000
88.75061 204.000
88.77055 178.000
88.79050 211.000
88.81045 211.000
88.83039 190.000
88.85034 189.000
88.87029 184.000
88.89023 186.000
88.91018 182.000
88.93013 184.000
88.95007 201.000
88.97002 196.000
88.98997 191.000
89.00992 167.000
89.02986 184.000
89.04981 196.000
89.06976 187.000
89.08970 208.000
89.10965 198.000
89.12960 212.000
89.14954 203.000
89.16949 170.000
89.18944 202.000
89.20939 163.000
89.22933 182.000
89.24928 190.000
89.26923 195.000
89.28917 165.000
89.30912 201.000
89.32907 194.000
89.34901 192.000
89.36896 194.000
89.38891 186.000
89.40885 198.000
89.42880 182.000
89.44875 217.000
89.46870 208.000
89.48864 221.000
89.50859 216.000
89.52854 191.000
89.54848 210.000
89.56843 223.000
89.58838 221.000
89.60832 210.000
89.62827 220.000
89.64822 188.000
89.66817 216.000
89.68811 223.000
89.70806 220.000
89.72801 221.000
89.74795 222.000
89.76790 217.000
89.78785 237.000
89.80779 246.000
89.82774 227.000
89.84769 239.000
89.86764 229.000
89.88758 250.000
89.90753 248.000
89.92748 269.000
89.94742 255.000
89.96737 273.000
89.98732 272.000
90.00726 279.000
