10.00000 74.000
10.01995 70.000
10.03989 66.000
10.05984 67.000
10.07979 63.000
10.09973 59.000
10.11968 69.000
10.13963 68.000
10.15958 67.000
10.17952 69.000
10.19947 68.000
10.21942 57.000
10.23936 59.000
10.25931 73.000
10.27926 84.000
10.29920 75.000
10.31915 73.000
10.33910 68.000
10.35905 65.000
10.37899 76.000
10.39894 75.000
10.41889 64.000
10.43883 67.000
10.45878 68.000
10.47873 71.000
10.49867 69.000
10.51862 71.000
10.53857 83.000
10.55851 73.000
10.57846 61.000
10.59841 69.000
10.61836 57.000
10.63830 72.000
10.65825 63.000
10.67820 58.000
10.69814 72.000
10.71809 77.000
10.73804 65.000
10.75798 73.000
10.77793 71.000
10.79788 67.000
10.81783 79.000
10.83777 66.000
10.85772 75.000
10.87767 70.000
10.89761 76.000
10.91756 78.000
10.93751 71.000
10.95745 67.000
10.97740 64.000
10.99735 67.000
11.01730 59.000
11.03724 63.000
11.05719 66.000
11.07714 68.000
11.09708 67.000
11.11703 75.000
11.13698 60.000
11.15692 85.000
11.17687 86.000
11.19682 64.000
11.21676 59.000
11.23671 74.000
11.25666 71.000
11.27661 74.000
11.29655 72.000
11.31650 77.000
11.33645 70.000
11.35639 74.000
11.37634 73.000
11.39629 66.000
11.41623 73.000
11.43618 70.000
11.45613 65.000
11.47608 77.000
11.49602 74.000
11.51597 68.000
11.53592 72.000
11.55586 61.000
11.57581 66.000
11.59576 67.000
11.61570 58.000
11.63565 60.000
11.65560 73.000
11.67554 70.000
11.69549 70.000
11.71544 86.000
11.73539 74.000
11.75533 81.000
11.77528 77.000
11.79523 79.000
11.81517 73.000
11.83512 70.000
11.85507 73.000
11.87501 65.000
11.89496 78.000
11.91491 65.000
11.93486 76.000
11.95480 77.000
11.97475 78.000
11.99470 66.000
12.01464 79.000
12.03459 83.000
12.05454 81.000
12.07448 91.000
12.09443 63.000
12.11438 91.000
12.13432 73.000
12.15427 86.000
12.17422 92.000
12.19417 84.000
12.21411 58.000
12.23406 91.000
12.25401 76.000
12.27395 86.000
12.29390 68.000
12.31385 99.000
12.33379 79.000
12.35374 75.000
12.37369 78.000
12.39364 71.000
12.41358 69.000
12.43353 86.000
12.45348 62.000
12.47342 68.000
12.49337 81.000
12.51332 95.000
12.53326 81.000
12.55321 89.000
12.57316 79.000
12.59311 97.000
12.61305 84.000
12.63300 87.000
12.65295 79.000
12.67289 99.000
12.69284 100.000
12.71279 91.000
12.73273 92.000
12.75268 101.000
12.77263 106.000
12.79257 100.000
12.81252 104.000
12.83247 95.000
12.85242 95.000
12.87236 102.000
12.89231 100.000
12.91226 112.000
12.93220 106.000
12.95215 98.000
12.97210 88.000
12.99204 80.000
13.01199 85.000
13.03194 100.000
13.05189 108.000
13.07183 91.000
13.09178 78.000
13.11173 84.000
13.13167 85.000
13.15162 96.000
13.17157 76.000
13.19151 100.000
13.21146 74.000
13.23141 110.000
13.25135 100.000
13.27130 87.000
13.29125 91.000
13.31120 84.000
13.33114 99.000
13.35109 104.000
13.37104 117.000
13.39098 102.000
13.41093 106.000
13.43088 112.000
13.45082 113.000
13.47077 99.000
13.49072 115.000
13.51067 105.000
13.53061 111.000
13.55056 107.000
13.57051 90.000
13.59045 101.000
13.61040 101.000
13.63035 102.000
13.65029 113.000
13.67024 98.000
13.69019 106.000
13.71013 122.000
13.73008 106.000
13.75003 100.000
13.76998 101.000
13.78992 114.000
13.80987 129.000
13.82982 120.000
13.84976 119.000
13.86971 96.000
13.88966 118.000
13.90960 106.000
13.92955 107.000
13.94950 108.000
13.96945 119.000
13.98939 124.000
14.00934 104.000
14.02929 108.000
14.04923 123.000
14.06918 127.000
14.08913 106.000
14.10907 119.000
14.12902 120.000
14.14897 108.000
14.16892 124.000
14.18886 122.000
14.20881 132.000
14.22876 131.000
14.24870 139.000
14.26865 124.000
14.28860 125.000
14.30854 120.000
14.32849 125.000
14.34844 141.000
14.36838 120.000
14.38833 121.000
14.40828 121.000
14.42823 121.000
14.44817 130.000
14.46812 136.000
14.48807 125.000
14.50801 136.000
14.52796 131.000
14.54791 110.000
14.56785 111.000
14.58780 141.000
14.60775 129.000
14.62770 121.000
14.64764 119.000
14.66759 116.000
14.68754 126.000
14.70748 134.000
14.72743 148.000
14.74738 159.000
14.76732 160.000
14.78727 154.000
14.80722 135.000
14.82716 153.000
14.84711 148.000
14.86706 134.000
14.88701 148.000
14.90695 159.000
14.92690 157.000
14.94685 186.000
14.96679 164.000
14.98674 181.000
15.00669 172.000
15.02663 192.000
15.04658 184.000
15.06653 188.000
15.08648 196.000
15.10642 215.000
15.12637 186.000
15.14632 181.000
15.16626 191.000
15.18621 201.000
15.20616 211.000
15.22610 245.000
15.24605 209.000
15.26600 234.000
15.28594 232.000
15.30589 283.000
15.32584 246.000
15.34579 239.000
15.36573 257.000
15.38568 248.000
15.40563 256.000
15.42557 285.000
15.44552 353.000
15.46547 367.000
15.48541 376.000
15.50536 429.000
15.52531 449.000
15.54526 481.000
15.56520 568.000
15.58515 734.000
15.60510 998.000
15.62504 1331.000
15.64499 1967.000
15.66494 3027.000
15.68488 4676.000
15.70483 7378.000
15.72478 10177.000
15.74472 11259.000
15.76467 10152.000
15.78462 7570.000
15.80457 4726.000
15.82451 2621.000
15.84446 1329.000
15.86441 841.000
15.88435 619.000
15.90430 479.000
15.92425 392.000
15.94419 354.000
15.96414 285.000
15.98409 272.000
16.00404 221.000
16.02398 221.000
16.04393 197.000
16.06388 197.000
16.08382 182.000
16.10377 198.000
16.12372 178.000
16.14366 152.000
16.16361 144.000
16.18356 155.000
16.20351 154.000
16.22345 133.000
16.24340 157.000
16.26335 153.000
16.28329 149.000
16.30324 109.000
16.32319 149.000
16.34313 113.000
16.36308 135.000
16.38303 104.000
16.40297 111.000
16.42292 122.000
16.44287 111.000
16.46282 114.000
16.48276 97.000
16.50271 102.000
16.52266 107.000
16.54260 107.000
16.56255 125.000
16.58250 95.000
16.60244 88.000
16.62239 89.000
16.64234 99.000
16.66229 109.000
16.68223 88.000
16.70218 89.000
16.72213 102.000
16.74207 88.000
16.76202 92.000
16.78197 116.000
16.80191 81.000
16.82186 90.000
16.84181 85.000
16.86175 84.000
16.88170 95.000
16.90165 81.000
16.92160 77.000
16.94154 89.000
16.96149 69.000
16.98144 81.000
17.00138 88.000
17.02133 88.000
17.04128 96.000
17.06122 76.000
17.08117 96.000
17.10112 82.000
17.12107 84.000
17.14101 94.000
17.16096 70.000
17.18091 83.000
17.20085 83.000
17.22080 81.000
17.24075 72.000
17.26069 80.000
17.28064 80.000
17.30059 67.000
17.32053 83.000
17.34048 76.000
17.36043 87.000
17.38038 77.000
17.40032 84.000
17.42027 72.000
17.44022 77.000
17.46016 74.000
17.48011 86.000
17.50006 75.000
17.52000 78.000
17.53995 70.000
17.55990 84.000
17.57985 69.000
17.59979 79.000
17.61974 65.000
17.63969 77.000
17.65963 69.000
17.67958 85.000
17.69953 101.000
17.71947 62.000
17.73942 80.000
17.75937 69.000
17.77932 80.000
17.79926 86.000
17.81921 89.000
17.83916 71.000
17.85910 79.000
17.87905 78.000
17.89900 79.000
17.91894 80.000
17.93889 74.000
17.95884 61.000
17.97878 65.000
17.99873 70.000
18.01868 91.000
18.03863 95.000
18.05857 93.000
18.07852 82.000
18.09847 96.000
18.11841 104.000
18.13836 132.000
18.15831 158.000
18.17825 181.000
18.19820 211.000
18.21815 213.000
18.23810 206.000
18.25804 144.000
18.27799 132.000
18.29794 103.000
18.31788 72.000
18.33783 74.000
18.35778 79.000
18.37772 79.000
18.39767 90.000
18.41762 63.000
18.43756 77.000
18.45751 59.000
18.47746 74.000
18.49741 82.000
18.51735 85.000
18.53730 72.000
18.55725 70.000
18.57719 57.000
18.59714 74.000
18.61709 68.000
18.63703 72.000
18.65698 63.000
18.67693 82.000
18.69688 80.000
18.71682 69.000
18.73677 82.000
18.75672 88.000
18.77666 74.000
18.79661 69.000
18.81656 72.000
18.83650 66.000
18.85645 75.000
18.87640 93.000
18.89634 81.000
18.91629 67.000
18.93624 78.000
18.95619 64.000
18.97613 70.000
18.99608 69.000
19.01603 70.000
19.03597 70.000
19.05592 82.000
19.07587 72.000
19.09581 75.000
19.11576 70.000
19.13571 76.000
19.15566 61.000
19.17560 79.000
19.19555 64.000
19.21550 59.000
19.23544 78.000
19.25539 65.000
19.27534 73.000
19.29528 72.000
19.31523 78.000
19.33518 73.000
19.35513 63.000
19.37507 75.000
19.39502 79.000
19.41497 64.000
19.43491 70.000
19.45486 70.000
19.47481 70.000
19.49475 86.000
19.51470 74.000
19.53465 76.000
19.55459 70.000
19.57454 81.000
19.59449 74.000
19.61444 81.000
19.63438 68.000
19.65433 80.000
19.67428 59.000
19.69422 74.000
19.71417 81.000
19.73412 78.000
19.75406 70.000
19.77401 63.000
19.79396 72.000
19.81391 79.000
19.83385 79.000
19.85380 89.000
19.87375 84.000
19.89369 61.000
19.91364 78.000
19.93359 82.000
19.95353 77.000
19.97348 64.000
19.99343 79.000
20.01337 61.000
20.03332 81.000
20.05327 67.000
20.07322 72.000
20.09316 61.000
20.11311 65.000
20.13306 59.000
20.15300 80.000
20.17295 80.000
20.19290 68.000
20.21284 63.000
20.23279 61.000
20.25274 80.000
20.27269 56.000
20.29263 70.000
20.31258 71.000
20.33253 57.000
20.35247 70.000
20.37242 72.000
20.39237 67.000
20.41231 71.000
20.43226 70.000
20.45221 81.000
20.47215 69.000
20.49210 69.000
20.51205 66.000
20.53200 69.000
20.55194 64.000
20.57189 75.000
20.59184 77.000
20.61178 70.000
20.63173 75.000
20.65168 79.000
20.67162 75.000
20.69157 69.000
20.71152 71.000
20.73147 74.000
20.75141 63.000
20.77136 64.000
20.79131 74.000
20.81125 82.000
20.83120 74.000
20.85115 69.000
20.87109 84.000
20.89104 50.000
20.91099 79.000
20.93094 92.000
20.95088 70.000
20.97083 58.000
20.99078 52.000
21.01072 75.000
21.03067 84.000
21.05062 76.000
21.07056 90.000
21.09051 79.000
21.11046 101.000
21.13040 111.000
21.15035 97.000
21.17030 85.000
21.19025 102.000
21.21019 82.000
21.23014 104.000
21.25009 80.000
21.27003 75.000
21.28998 100.000
21.30993 81.000
21.32987 89.000
21.34982 71.000
21.36977 71.000
21.38972 75.000
21.40966 64.000
21.42961 86.000
21.44956 85.000
21.46950 78.000
21.48945 84.000
21.50940 78.000
21.52934 74.000
21.54929 59.000
21.56924 73.000
21.58918 67.000
21.60913 74.000
21.62908 79.000
21.64903 86.000
21.66897 75.000
21.68892 77.000
21.70887 54.000
21.72881 83.000
21.74876 88.000
21.76871 74.000
21.78865 70.000
21.80860 56.000
21.82855 81.000
21.84850 77.000
21.86844 73.000
21.88839 66.000
21.90834 76.000
21.92828 74.000
21.94823 82.000
21.96818 67.000
21.98812 79.000
22.00807 76.000
22.02802 96.000
22.04796 80.000
22.06791 76.000
22.08786 71.000
22.10781 66.000
22.12775 75.000
22.14770 77.000
22.16765 65.000
22.18759 80.000
22.20754 89.000
22.22749 66.000
22.24743 78.000
22.26738 80.000
22.28733 89.000
22.30728 76.000
22.32722 78.000
22.34717 76.000
22.36712 83.000
22.38706 83.000
22.40701 70.000
22.42696 79.000
22.44690 76.000
22.46685 102.000
22.48680 70.000
22.50675 79.000
22.52669 55.000
22.54664 79.000
22.56659 75.000
22.58653 77.000
22.60648 78.000
22.62643 70.000
22.64637 86.000
22.66632 68.000
22.68627 85.000
22.70621 82.000
22.72616 96.000
22.74611 87.000
22.76606 68.000
22.78600 80.000
22.80595 75.000
22.82590 80.000
22.84584 73.000
22.86579 71.000
22.88574 75.000
22.90568 81.000
22.92563 80.000
22.94558 68.000
22.96553 78.000
22.98547 69.000
23.00542 88.000
23.02537 82.000
23.04531 70.000
23.06526 83.000
23.08521 80.000
23.10515 65.000
23.12510 72.000
23.14505 76.000
23.16499 89.000
23.18494 82.000
23.20489 73.000
23.22484 76.000
23.24478 74.000
23.26473 84.000
23.28468 83.000
23.30462 72.000
23.32457 79.000
23.34452 81.000
23.36446 76.000
23.38441 63.000
23.40436 76.000
23.42431 88.000
23.44425 106.000
23.46420 70.000
23.48415 79.000
23.50409 68.000
23.52404 68.000
23.54399 67.000
23.56393 71.000
23.58388 78.000
23.60383 85.000
23.62377 83.000
23.64372 91.000
23.66367 72.000
23.68362 78.000
23.70356 58.000
23.72351 91.000
23.74346 74.000
23.76340 80.000
23.78335 74.000
23.80330 77.000
23.82324 72.000
23.84319 84.000
23.86314 87.000
23.88309 82.000
23.90303 72.000
23.92298 78.000
23.94293 60.000
23.96287 94.000
23.98282 82.000
24.00277 79.000
24.02271 87.000
24.04266 88.000
24.06261 97.000
24.08256 73.000
24.10250 67.000
24.12245 75.000
24.14240 79.000
24.16234 85.000
24.18229 78.000
24.20224 81.000
24.22218 78.000
24.24213 89.000
24.26208 103.000
24.28202 91.000
24.30197 74.000
24.32192 71.000
24.34187 79.000
24.36181 74.000
24.38176 69.000
24.40171 76.000
24.42165 80.000
24.44160 78.000
24.46155 93.000
24.48149 78.000
24.50144 92.000
24.52139 71.000
24.54134 86.000
24.56128 100.000
24.58123 81.000
24.60118 96.000
24.62112 71.000
24.64107 62.000
24.66102 95.000
24.68096 79.000
24.70091 94.000
24.72086 62.000
24.74080 79.000
24.76075 85.000
24.78070 79.000
24.80065 76.000
24.82059 93.000
24.84054 91.000
24.86049 84.000
24.88043 76.000
24.90038 101.000
24.92033 74.000
24.94027 97.000
24.96022 72.000
24.98017 89.000
25.00012 86.000
25.02006 86.000
25.04001 83.000
25.05996 91.000
25.07990 76.000
25.09985 75.000
25.11980 69.000
25.13974 96.000
25.15969 86.000
25.17964 88.000
25.19958 82.000
25.21953 78.000
25.23948 88.000
25.25943 89.000
25.27937 98.000
25.29932 69.000
25.31927 96.000
25.33921 71.000
25.35916 79.000
25.37911 69.000
25.39905 86.000
25.41900 91.000
25.43895 88.000
25.45890 90.000
25.47884 88.000
25.49879 75.000
25.51874 84.000
25.53868 84.000
25.55863 99.000
25.57858 90.000
25.59852 80.000
25.61847 95.000
25.63842 90.000
25.65837 69.000
25.67831 79.000
25.69826 94.000
25.71821 77.000
25.73815 91.000
25.75810 84.000
25.77805 89.000
25.79799 91.000
25.81794 99.000
25.83789 85.000
25.85783 102.000
25.87778 87.000
25.89773 68.000
25.91768 80.000
25.93762 87.000
25.95757 76.000
25.97752 88.000
25.99746 73.000
26.01741 80.000
26.03736 95.000
26.05730 89.000
26.07725 85.000
26.09720 75.000
26.11715 90.000
26.13709 91.000
26.15704 80.000
26.17699 84.000
26.19693 74.000
26.21688 69.000
26.23683 99.000
26.25677 66.000
26.27672 97.000
26.29667 73.000
26.31661 79.000
26.33656 73.000
26.35651 83.000
26.37646 88.000
26.39640 76.000
26.41635 84.000
26.43630 78.000
26.45624 87.000
26.47619 95.000
26.49614 96.000
26.51608 110.000
26.53603 78.000
26.55598 90.000
26.57593 80.000
26.59587 81.000
26.61582 68.000
26.63577 79.000
26.65571 70.000
26.67566 92.000
26.69561 98.000
26.71555 90.000
26.73550 96.000
26.75545 73.000
26.77539 105.000
26.79534 94.000
26.81529 89.000
26.83524 98.000
26.85518 92.000
26.87513 64.000
26.89508 86.000
26.91502 82.000
26.93497 96.000
26.95492 102.000
26.97486 100.000
26.99481 76.000
27.01476 83.000
27.03471 82.000
27.05465 87.000
27.07460 111.000
27.09455 72.000
27.11449 99.000
27.13444 84.000
27.15439 83.000
27.17433 91.000
27.19428 89.000
27.21423 95.000
27.23417 86.000
27.25412 84.000
27.27407 89.000
27.29402 87.000
27.31396 79.000
27.33391 96.000
27.35386 68.000
27.37380 97.000
27.39375 101.000
27.41370 90.000
27.43364 92.000
27.45359 91.000
27.47354 94.000
27.49349 77.000
27.51343 88.000
27.53338 82.000
27.55333 81.000
27.57327 97.000
27.59322 79.000
27.61317 86.000
27.63311 87.000
27.65306 95.000
27.67301 95.000
27.69296 84.000
27.71290 83.000
27.73285 85.000
27.75280 80.000
27.77274 90.000
27.79269 102.000
27.81264 92.000
27.83258 84.000
27.85253 101.000
27.87248 88.000
27.89242 77.000
27.91237 88.000
27.93232 91.000
27.95227 107.000
27.97221 85.000
27.99216 85.000
28.01211 100.000
28.03205 98.000
28.05200 92.000
28.07195 89.000
28.09189 73.000
28.11184 102.000
28.13179 107.000
28.15174 85.000
28.17168 98.000
28.19163 81.000
28.21158 96.000
28.23152 102.000
28.25147 82.000
28.27142 81.000
28.29136 88.000
28.31131 75.000
28.33126 96.000
28.35120 99.000
28.37115 79.000
28.39110 87.000
28.41105 83.000
28.43099 81.000
28.45094 96.000
28.47089 76.000
28.49083 92.000
28.51078 117.000
28.53073 94.000
28.55067 96.000
28.57062 85.000
28.59057 76.000
28.61052 77.000
28.63046 87.000
28.65041 101.000
28.67036 91.000
28.69030 82.000
28.71025 80.000
28.73020 85.000
28.75014 81.000
28.77009 89.000
28.79004 80.000
28.80998 71.000
28.82993 82.000
28.84988 102.000
28.86983 76.000
28.88977 100.000
28.90972 90.000
28.92967 97.000
28.94961 92.000
28.96956 81.000
28.98951 88.000
29.00945 82.000
29.02940 98.000
29.04935 76.000
29.06930 94.000
29.08924 86.000
29.10919 91.000
29.12914 84.000
29.14908 86.000
29.16903 95.000
29.18898 99.000
29.20892 94.000
29.22887 91.000
29.24882 74.000
29.26877 88.000
29.28871 93.000
29.30866 91.000
29.32861 90.000
29.34855 115.000
29.36850 99.000
29.38845 85.000
29.40839 84.000
29.42834 104.000
29.44829 100.000
29.46823 92.000
29.48818 95.000
29.50813 74.000
29.52808 89.000
29.54802 96.000
29.56797 86.000
29.58792 87.000
29.60786 80.000
29.62781 95.000
29.64776 86.000
29.66770 99.000
29.68765 87.000
29.70760 97.000
29.72755 103.000
29.74749 102.000
29.76744 112.000
29.78739 133.000
29.80733 151.000
29.82728 142.000
29.84723 144.000
29.86717 155.000
29.88712 173.000
29.90707 156.000
29.92701 188.000
29.94696 159.000
29.96691 149.000
29.98686 143.000
30.00680 129.000
30.02675 150.000
30.04670 116.000
30.06664 127.000
30.08659 99.000
30.10654 115.000
30.12648 109.000
30.14643 104.000
30.16638 98.000
30.18633 97.000
30.20627 95.000
30.22622 105.000
30.24617 104.000
30.26611 101.000
30.28606 96.000
30.30601 106.000
30.32595 107.000
30.34590 100.000
30.36585 108.000
30.38579 92.000
30.40574 83.000
30.42569 90.000
30.44564 99.000
30.46558 102.000
30.48553 74.000
30.50548 86.000
30.52542 97.000
30.54537 87.000
30.56532 114.000
30.58526 115.000
30.60521 87.000
30.62516 107.000
30.64511 102.000
30.66505 80.000
30.68500 88.000
30.70495 93.000
30.72489 110.000
30.74484 110.000
30.76479 97.000
30.78473 104.000
30.80468 105.000
30.82463 98.000
30.84458 108.000
30.86452 103.000
30.88447 106.000
30.90442 103.000
30.92436 83.000
30.94431 92.000
30.96426 92.000
30.98420 96.000
31.00415 117.000
31.02410 113.000
31.04404 94.000
31.06399 106.000
31.08394 95.000
31.10389 91.000
31.12383 88.000
31.14378 93.000
31.16373 91.000
31.18367 95.000
31.20362 110.000
31.22357 102.000
31.24351 87.000
31.26346 106.000
31.28341 89.000
31.30336 92.000
31.32330 106.000
31.34325 108.000
31.36320 81.000
31.38314 97.000
31.40309 95.000
31.42304 104.000
31.44298 108.000
31.46293 116.000
31.48288 104.000
31.50282 116.000
31.52277 130.000
31.54272 158.000
31.56267 145.000
31.58261 162.000
31.60256 200.000
31.62251 238.000
31.64245 321.000
31.66240 404.000
31.68235 544.000
31.70229 642.000
31.72224 789.000
31.74219 713.000
31.76214 729.000
31.78208 703.000
31.80203 677.000
31.82198 524.000
31.84192 392.000
31.86187 382.000
31.88182 327.000
31.90176 224.000
31.92171 200.000
31.94166 152.000
31.96160 141.000
31.98155 128.000
32.00150 122.000
32.02145 102.000
32.04139 114.000
32.06134 92.000
32.08129 117.000
32.10123 108.000
32.12118 110.000
32.14113 126.000
32.16107 116.000
32.18102 89.000
32.20097 90.000
32.22092 101.000
32.24086 106.000
32.26081 95.000
32.28076 84.000
32.30070 86.000
32.32065 101.000
32.34060 101.000
32.36054 92.000
32.38049 106.000
32.40044 91.000
32.42039 101.000
32.44033 89.000
32.46028 94.000
32.48023 97.000
32.50017 107.000
32.52012 103.000
32.54007 112.000
32.56001 101.000
32.57996 92.000
32.59991 103.000
32.61985 110.000
32.63980 107.000
32.65975 94.000
32.67970 93.000
32.69964 96.000
32.71959 99.000
32.73954 100.000
32.75948 99.000
32.77943 88.000
32.79938 78.000
32.81932 91.000
32.83927 100.000
32.85922 96.000
32.87917 93.000
32.89911 102.000
32.91906 94.000
32.93901 98.000
32.95895 100.000
32.97890 92.000
32.99885 84.000
33.01879 89.000
33.03874 92.000
33.05869 98.000
33.07863 103.000
33.09858 84.000
33.11853 85.000
33.13848 92.000
33.15842 104.000
33.17837 81.000
33.19832 103.000
33.21826 93.000
33.23821 93.000
33.25816 79.000
33.27810 85.000
33.29805 81.000
33.31800 102.000
33.33795 126.000
33.35789 78.000
33.37784 106.000
33.39779 103.000
33.41773 82.000
33.43768 83.000
33.45763 108.000
33.47757 92.000
33.49752 76.000
33.51747 85.000
33.53741 83.000
33.55736 77.000
33.57731 97.000
33.59726 90.000
33.61720 92.000
33.63715 106.000
33.65710 97.000
33.67704 86.000
33.69699 81.000
33.71694 91.000
33.73688 98.000
33.75683 79.000
33.77678 89.000
33.79673 98.000
33.81667 90.000
33.83662 103.000
33.85657 91.000
33.87651 88.000
33.89646 87.000
33.91641 79.000
33.93635 79.000
33.95630 89.000
33.97625 79.000
33.99620 87.000
34.01614 84.000
34.03609 97.000
34.05604 95.000
34.07598 102.000
34.09593 96.000
34.11588 110.000
34.13582 85.000
34.15577 99.000
34.17572 85.000
34.19566 103.000
34.21561 114.000
34.23556 121.000
34.25551 83.000
34.27545 119.000
34.29540 93.000
34.31535 94.000
34.33529 99.000
34.35524 81.000
34.37519 110.000
34.39513 112.000
34.41508 98.000
34.43503 88.000
34.45498 95.000
34.47492 94.000
34.49487 80.000
34.51482 100.000
34.53476 110.000
34.55471 101.000
34.57466 97.000
34.59460 96.000
34.61455 85.000
34.63450 125.000
34.65444 104.000
34.67439 112.000
34.69434 119.000
34.71429 109.000
34.73423 106.000
34.75418 115.000
34.77413 122.000
34.79407 111.000
34.81402 130.000
34.83397 128.000
34.85391 130.000
34.87386 109.000
34.89381 135.000
34.91376 114.000
34.93370 141.000
34.95365 99.000
34.97360 123.000
34.99354 143.000
35.01349 136.000
35.03344 144.000
35.05338 150.000
35.07333 178.000
35.09328 184.000
35.11322 220.000
35.13317 257.000
35.15312 315.000
35.17307 326.000
35.19301 354.000
35.21296 402.000
35.23291 414.000
35.25285 361.000
35.27280 399.000
35.29275 318.000
35.31269 333.000
35.33264 306.000
35.35259 274.000
35.37254 233.000
35.39248 209.000
35.41243 212.000
35.43238 173.000
35.45232 163.000
35.47227 173.000
35.49222 204.000
35.51216 216.000
35.53211 169.000
35.55206 213.000
35.57201 247.000
35.59195 284.000
35.61190 257.000
35.63185 275.000
35.65179 370.000
35.67174 396.000
35.69169 576.000
35.71163 641.000
35.73158 715.000
35.75153 820.000
35.77147 762.000
35.79142 806.000
35.81137 699.000
35.83132 686.000
35.85126 618.000
35.87121 510.000
35.89116 416.000
35.91110 333.000
35.93105 317.000
35.95100 276.000
35.97094 234.000
35.99089 208.000
36.01084 163.000
36.03079 167.000
36.05073 148.000
36.07068 185.000
36.09063 160.000
36.11057 119.000
36.13052 116.000
36.15047 118.000
36.17041 119.000
36.19036 98.000
36.21031 120.000
36.23025 121.000
36.25020 115.000
36.27015 119.000
36.29010 98.000
36.31004 125.000
36.32999 104.000
36.34994 122.000
36.36988 103.000
36.38983 102.000
36.40978 121.000
36.42972 108.000
36.44967 110.000
36.46962 114.000
36.48957 97.000
36.50951 127.000
36.52946 118.000
36.54941 143.000
36.56935 124.000
36.58930 149.000
36.60925 153.000
36.62919 161.000
36.64914 192.000
36.66909 190.000
36.68903 188.000
36.70898 160.000
36.72893 188.000
36.74888 169.000
36.76882 161.000
36.78877 153.000
36.80872 175.000
36.82866 159.000
36.84861 150.000
36.86856 160.000
36.88850 139.000
36.90845 127.000
36.92840 148.000
36.94835 135.000
36.96829 121.000
36.98824 125.000
37.00819 113.000
37.02813 93.000
37.04808 99.000
37.06803 113.000
37.08797 90.000
37.10792 102.000
37.12787 106.000
37.14781 93.000
37.16776 93.000
37.18771 112.000
37.20766 116.000
37.22760 116.000
37.24755 103.000
37.26750 102.000
37.28744 103.000
37.30739 102.000
37.32734 108.000
37.34728 104.000
37.36723 106.000
37.38718 84.000
37.40713 95.000
37.42707 99.000
37.44702 107.000
37.46697 95.000
37.48691 93.000
37.50686 102.000
37.52681 100.000
37.54675 105.000
37.56670 106.000
37.58665 98.000
37.60660 117.000
37.62654 99.000
37.64649 107.000
37.66644 100.000
37.68638 96.000
37.70633 107.000
37.72628 106.000
37.74622 92.000
37.76617 96.000
37.78612 104.000
37.80606 108.000
37.82601 103.000
37.84596 101.000
37.86591 103.000
37.88585 105.000
37.90580 113.000
37.92575 100.000
37.94569 115.000
37.96564 103.000
37.98559 133.000
38.00553 121.000
38.02548 103.000
38.04543 119.000
38.06538 102.000
38.08532 102.000
38.10527 105.000
38.12522 129.000
38.14516 130.000
38.16511 116.000
38.18506 119.000
38.20500 118.000
38.22495 112.000
38.24490 103.000
38.26484 114.000
38.28479 118.000
38.30474 121.000
38.32469 109.000
38.34463 131.000
38.36458 105.000
38.38453 107.000
38.40447 113.000
38.42442 122.000
38.44437 126.000
38.46431 106.000
38.48426 116.000
38.50421 129.000
38.52416 91.000
38.54410 136.000
38.56405 127.000
38.58400 142.000
38.60394 142.000
38.62389 126.000
38.64384 151.000
38.66378 126.000
38.68373 139.000
38.70368 145.000
38.72362 159.000
38.74357 189.000
38.76352 186.000
38.78347 223.000
38.80341 225.000
38.82336 209.000
38.84331 203.000
38.86325 217.000
38.88320 253.000
38.90315 194.000
38.92309 203.000
38.94304 195.000
38.96299 181.000
38.98294 241.000
39.00288 220.000
39.02283 210.000
39.04278 224.000
39.06272 260.000
39.08267 304.000
39.10262 358.000
39.12256 389.000
39.14251 436.000
39.16246 583.000
39.18241 728.000
39.20235 951.000
39.22230 1221.000
39.24225 1376.000
39.26219 1385.000
39.28214 1376.000
39.30209 1360.000
39.32203 1273.000
39.34198 1197.000
39.36193 1060.000
39.38187 970.000
39.40182 776.000
39.42177 605.000
39.44172 594.000
39.46166 438.000
39.48161 361.000
39.50156 312.000
39.52150 301.000
39.54145 270.000
39.56140 211.000
39.58134 207.000
39.60129 179.000
39.62124 185.000
39.64119 172.000
39.66113 162.000
39.68108 152.000
39.70103 157.000
39.72097 137.000
39.74092 124.000
39.76087 125.000
39.78081 120.000
39.80076 109.000
39.82071 130.000
39.84065 119.000
39.86060 125.000
39.88055 124.000
39.90050 113.000
39.92044 115.000
39.94039 109.000
39.96034 112.000
39.98028 124.000
40.00023 103.000
40.02018 111.000
40.04012 94.000
40.06007 109.000
40.08002 122.000
40.09997 129.000
40.11991 118.000
40.13986 113.000
40.15981 103.000
40.17975 79.000
40.19970 100.000
40.21965 107.000
40.23959 85.000
40.25954 100.000
40.27949 98.000
40.29943 107.000
40.31938 104.000
40.33933 98.000
40.35928 90.000
40.37922 96.000
40.39917 95.000
40.41912 114.000
40.43906 90.000
40.45901 91.000
40.47896 89.000
40.49890 94.000
40.51885 68.000
40.53880 93.000
40.55875 90.000
40.57869 104.000
40.59864 92.000
40.61859 101.000
40.63853 109.000
40.65848 93.000
40.67843 84.000
40.69837 113.000
40.71832 103.000
40.73827 83.000
40.75822 87.000
40.77816 103.000
40.79811 81.000
40.81806 92.000
40.83800 82.000
40.85795 77.000
40.87790 94.000
40.89784 103.000
40.91779 79.000
40.93774 103.000
40.95768 88.000
40.97763 91.000
40.99758 80.000
41.01753 85.000
41.03747 108.000
41.05742 106.000
41.07737 96.000
41.09731 88.000
41.11726 93.000
41.13721 80.000
41.15715 110.000
41.17710 104.000
41.19705 112.000
41.21700 104.000
41.23694 92.000
41.25689 81.000
41.27684 88.000
41.29678 83.000
41.31673 93.000
41.33668 93.000
41.35662 112.000
41.37657 101.000
41.39652 90.000
41.41646 95.000
41.43641 79.000
41.45636 98.000
41.47631 106.000
41.49625 88.000
41.51620 105.000
41.53615 101.000
41.55609 78.000
41.57604 100.000
41.59599 100.000
41.61593 83.000
41.63588 93.000
41.65583 111.000
41.67578 94.000
41.69572 99.000
41.71567 98.000
41.73562 111.000
41.75556 91.000
41.77551 95.000
41.79546 73.000
41.81540 93.000
41.83535 87.000
41.85530 100.000
41.87524 95.000
41.89519 100.000
41.91514 102.000
41.93509 88.000
41.95503 75.000
41.97498 99.000
41.99493 92.000
42.01487 94.000
42.03482 90.000
42.05477 85.000
42.07471 87.000
42.09466 82.000
42.11461 90.000
42.13456 88.000
42.15450 107.000
42.17445 95.000
42.19440 79.000
42.21434 93.000
42.23429 83.000
42.25424 91.000
42.27418 94.000
42.29413 106.000
42.31408 111.000
42.33403 105.000
42.35397 87.000
42.37392 116.000
42.39387 83.000
42.41381 94.000
42.43376 106.000
42.45371 106.000
42.47365 109.000
42.49360 96.000
42.51355 98.000
42.53349 115.000
42.55344 120.000
42.57339 101.000
42.59334 101.000
42.61328 101.000
42.63323 114.000
42.65318 132.000
42.67312 142.000
42.69307 118.000
42.71302 128.000
42.73296 145.000
42.75291 169.000
42.77286 138.000
42.79281 150.000
42.81275 155.000
42.83270 159.000
42.85265 160.000
42.87259 158.000
42.89254 159.000
42.91249 144.000
42.93243 130.000
42.95238 136.000
42.97233 151.000
42.99227 128.000
43.01222 146.000
43.03217 121.000
43.05212 143.000
43.07206 132.000
43.09201 139.000
43.11196 151.000
43.13190 177.000
43.15185 160.000
43.17180 176.000
43.19174 192.000
43.21169 256.000
43.23164 315.000
43.25159 372.000
43.27153 479.000
43.29148 549.000
43.31143 564.000
43.33137 569.000
43.35132 523.000
43.37127 488.000
43.39121 503.000
43.41116 459.000
43.43111 390.000
43.45105 376.000
43.47100 305.000
43.49095 250.000
43.51090 231.000
43.53084 226.000
43.55079 191.000
43.57074 186.000
43.59068 171.000
43.61063 134.000
43.63058 132.000
43.65052 143.000
43.67047 110.000
43.69042 111.000
43.71037 120.000
43.73031 111.000
43.75026 102.000
43.77021 116.000
43.79015 109.000
43.81010 110.000
43.83005 113.000
43.84999 88.000
43.86994 108.000
43.88989 107.000
43.90984 96.000
43.92978 86.000
43.94973 94.000
43.96968 105.000
43.98962 80.000
44.00957 92.000
44.02952 99.000
44.04946 100.000
44.06941 100.000
44.08936 82.000
44.10930 99.000
44.12925 78.000
44.14920 80.000
44.16915 71.000
44.18909 101.000
44.20904 91.000
44.22899 85.000
44.24893 98.000
44.26888 95.000
44.28883 62.000
44.30877 83.000
44.32872 92.000
44.34867 96.000
44.36862 90.000
44.38856 86.000
44.40851 98.000
44.42846 87.000
44.44840 83.000
44.46835 115.000
44.48830 100.000
44.50824 92.000
44.52819 107.000
44.54814 89.000
44.56808 100.000
44.58803 90.000
44.60798 109.000
44.62793 106.000
44.64787 90.000
44.66782 92.000
44.68777 87.000
44.70771 104.000
44.72766 75.000
44.74761 93.000
44.76755 89.000
44.78750 88.000
44.80745 107.000
44.82740 99.000
44.84734 93.000
44.86729 87.000
44.88724 94.000
44.90718 86.000
44.92713 91.000
44.94708 72.000
44.96702 86.000
44.98697 94.000
45.00692 96.000
45.02686 95.000
45.04681 96.000
45.06676 109.000
45.08671 93.000
45.10665 102.000
45.12660 88.000
45.14655 72.000
45.16649 87.000
45.18644 99.000
45.20639 89.000
45.22633 88.000
45.24628 74.000
45.26623 92.000
45.28618 83.000
45.30612 87.000
45.32607 103.000
45.34602 89.000
45.36596 99.000
45.38591 79.000
45.40586 88.000
45.42580 84.000
45.44575 106.000
45.46570 74.000
45.48565 93.000
45.50559 91.000
45.52554 96.000
45.54549 81.000
45.56543 78.000
45.58538 100.000
45.60533 79.000
45.62527 91.000
45.64522 84.000
45.66517 68.000
45.68511 90.000
45.70506 73.000
45.72501 91.000
45.74496 105.000
45.76490 85.000
45.78485 93.000
45.80480 82.000
45.82474 103.000
45.84469 87.000
45.86464 78.000
45.88458 94.000
45.90453 76.000
45.92448 95.000
45.94443 109.000
45.96437 75.000
45.98432 93.000
46.00427 85.000
46.02421 81.000
46.04416 82.000
46.06411 84.000
46.08405 81.000
46.10400 79.000
46.12395 84.000
46.14389 107.000
46.16384 86.000
46.18379 95.000
46.20374 100.000
46.22368 83.000
46.24363 96.000
46.26358 102.000
46.28352 107.000
46.30347 84.000
46.32342 101.000
46.34336 106.000
46.36331 92.000
46.38326 94.000
46.40321 98.000
46.42315 91.000
46.44310 89.000
46.46305 92.000
46.48299 108.000
46.50294 95.000
46.52289 110.000
46.54283 104.000
46.56278 90.000
46.58273 115.000
46.60267 86.000
46.62262 93.000
46.64257 89.000
46.66252 104.000
46.68246 112.000
46.70241 97.000
46.72236 95.000
46.74230 91.000
46.76225 113.000
46.78220 100.000
46.80214 93.000
46.82209 107.000
46.84204 98.000
46.86199 107.000
46.88193 103.000
46.90188 91.000
46.92183 97.000
46.94177 89.000
46.96172 101.000
46.98167 98.000
47.00161 114.000
47.02156 89.000
47.04151 77.000
47.06146 112.000
47.08140 78.000
47.10135 88.000
47.12130 98.000
47.14124 83.000
47.16119 93.000
47.18114 99.000
47.20108 89.000
47.22103 89.000
47.24098 108.000
47.26092 101.000
47.28087 85.000
47.30082 112.000
47.32077 97.000
47.34071 111.000
47.36066 88.000
47.38061 89.000
47.40055 96.000
47.42050 87.000
47.44045 96.000
47.46039 106.000
47.48034 90.000
47.50029 111.000
47.52024 116.000
47.54018 91.000
47.56013 106.000
47.58008 109.000
47.60002 113.000
47.61997 101.000
47.63992 108.000
47.65986 98.000
47.67981 85.000
47.69976 101.000
47.71970 87.000
47.73965 102.000
47.75960 125.000
47.77955 105.000
47.79949 120.000
47.81944 98.000
47.83939 110.000
47.85933 109.000
47.87928 102.000
47.89923 105.000
47.91917 109.000
47.93912 132.000
47.95907 107.000
47.97902 128.000
47.99896 129.000
48.01891 138.000
48.03886 129.000
48.05880 120.000
48.07875 144.000
48.09870 136.000
48.11864 159.000
48.13859 142.000
48.15854 167.000
48.17848 163.000
48.19843 201.000
48.21838 179.000
48.23833 184.000
48.25827 231.000
48.27822 249.000
48.29817 269.000
48.31811 258.000
48.33806 323.000
48.35801 337.000
48.37795 376.000
48.39790 435.000
48.41785 532.000
48.43780 662.000
48.45774 809.000
48.47769 1006.000
48.49764 1180.000
48.51758 1269.000
48.53753 1225.000
48.55748 1137.000
48.57742 1084.000
48.59737 1012.000
48.61732 999.000
48.63726 970.000
48.65721 861.000
48.67716 807.000
48.69711 696.000
48.71705 600.000
48.73700 503.000
48.75695 424.000
48.77689 354.000
48.79684 317.000
48.81679 280.000
48.83673 257.000
48.85668 230.000
48.87663 218.000
48.89658 195.000
48.91652 193.000
48.93647 183.000
48.95642 150.000
48.97636 162.000
48.99631 149.000
49.01626 136.000
49.03620 144.000
49.05615 134.000
49.07610 134.000
49.09605 127.000
49.11599 118.000
49.13594 113.000
49.15589 129.000
49.17583 119.000
49.19578 108.000
49.21573 121.000
49.23567 129.000
49.25562 113.000
49.27557 96.000
49.29551 120.000
49.31546 98.000
49.33541 102.000
49.35536 88.000
49.37530 111.000
49.39525 111.000
49.41520 119.000
49.43514 112.000
49.45509 98.000
49.47504 108.000
49.49498 96.000
49.51493 87.000
49.53488 111.000
49.55483 97.000
49.57477 83.000
49.59472 103.000
49.61467 97.000
49.63461 95.000
49.65456 100.000
49.67451 104.000
49.69445 90.000
49.71440 80.000
49.73435 88.000
49.75429 76.000
49.77424 97.000
49.79419 97.000
49.81414 110.000
49.83408 85.000
49.85403 102.000
49.87398 96.000
49.89392 109.000
49.91387 96.000
49.93382 92.000
49.95376 89.000
49.97371 87.000
49.99366 77.000
50.01361 91.000
50.03355 92.000
50.05350 99.000
50.07345 68.000
50.09339 105.000
50.11334 94.000
50.13329 91.000
50.15323 84.000
50.17318 92.000
50.19313 76.000
50.21307 85.000
50.23302 70.000
50.25297 92.000
50.27292 74.000
50.29286 88.000
50.31281 87.000
50.33276 96.000
50.35270 95.000
50.37265 95.000
50.39260 77.000
50.41254 103.000
50.43249 86.000
50.45244 91.000
50.47239 91.000
50.49233 99.000
50.51228 79.000
50.53223 81.000
50.55217 79.000
50.57212 73.000
50.59207 95.000
50.61201 80.000
50.63196 71.000
50.65191 96.000
50.67186 89.000
50.69180 82.000
50.71175 67.000
50.73170 89.000
50.75164 86.000
50.77159 78.000
50.79154 79.000
50.81148 91.000
50.83143 93.000
50.85138 75.000
50.87132 86.000
50.89127 89.000
50.91122 101.000
50.93117 82.000
50.95111 78.000
50.97106 79.000
50.99101 91.000
51.01095 86.000
51.03090 81.000
51.05085 87.000
51.07079 93.000
51.09074 89.000
51.11069 85.000
51.13064 93.000
51.15058 93.000
51.17053 105.000
51.19048 92.000
51.21042 72.000
51.23037 94.000
51.25032 90.000
51.27026 80.000
51.29021 72.000
51.31016 69.000
51.33010 64.000
51.35005 96.000
51.37000 91.000
51.38995 89.000
51.40989 105.000
51.42984 65.000
51.44979 74.000
51.46973 85.000
51.48968 83.000
51.50963 84.000
51.52957 88.000
51.54952 89.000
51.56947 78.000
51.58942 98.000
51.60936 89.000
51.62931 68.000
51.64926 77.000
51.66920 79.000
51.68915 83.000
51.70910 73.000
51.72904 74.000
51.74899 92.000
51.76894 80.000
51.78888 83.000
51.80883 89.000
51.82878 80.000
51.84873 78.000
51.86867 88.000
51.88862 82.000
51.90857 73.000
51.92851 83.000
51.94846 83.000
51.96841 85.000
51.98835 92.000
52.00830 88.000
52.02825 87.000
52.04820 81.000
52.06814 74.000
52.08809 96.000
52.10804 71.000
52.12798 84.000
52.14793 85.000
52.16788 79.000
52.18782 84.000
52.20777 88.000
52.22772 74.000
52.24767 75.000
52.26761 91.000
52.28756 92.000
52.30751 81.000
52.32745 108.000
52.34740 77.000
52.36735 76.000
52.38729 92.000
52.40724 77.000
52.42719 80.000
52.44713 74.000
52.46708 90.000
52.48703 77.000
52.50698 83.000
52.52692 68.000
52.54687 72.000
52.56682 90.000
52.58676 97.000
52.60671 91.000
52.62666 78.000
52.64660 84.000
52.66655 66.000
52.68650 85.000
52.70645 98.000
52.72639 87.000
52.74634 95.000
52.76629 74.000
52.78623 92.000
52.80618 77.000
52.82613 90.000
52.84607 81.000
52.86602 88.000
52.88597 86.000
52.90591 78.000
52.92586 85.000
52.94581 94.000
52.96576 87.000
52.98570 91.000
53.00565 85.000
53.02560 84.000
53.04554 111.000
53.06549 99.000
53.08544 117.000
53.10538 99.000
53.12533 75.000
53.14528 106.000
53.16523 93.000
53.18517 86.000
53.20512 95.000
53.22507 95.000
53.24501 83.000
53.26496 92.000
53.28491 88.000
53.30485 92.000
53.32480 64.000
53.34475 76.000
53.36469 91.000
53.38464 81.000
53.40459 98.000
53.42454 102.000
53.44448 105.000
53.46443 87.000
53.48438 95.000
53.50432 92.000
53.52427 83.000
53.54422 68.000
53.56416 97.000
53.58411 87.000
53.60406 93.000
53.62401 72.000
53.64395 82.000
53.66390 87.000
53.68385 100.000
53.70379 93.000
53.72374 73.000
53.74369 76.000
53.76363 82.000
53.78358 76.000
53.80353 67.000
53.82348 93.000
53.84342 88.000
53.86337 70.000
53.88332 86.000
53.90326 78.000
53.92321 87.000
53.94316 88.000
53.96310 93.000
53.98305 80.000
54.00300 79.000
54.02294 80.000
54.04289 85.000
54.06284 82.000
54.08279 82.000
54.10273 78.000
54.12268 70.000
54.14263 81.000
54.16257 82.000
54.18252 79.000
54.20247 57.000
54.22241 84.000
54.24236 66.000
54.26231 82.000
54.28226 76.000
54.30220 95.000
54.32215 95.000
54.34210 84.000
54.36204 99.000
54.38199 90.000
54.40194 87.000
54.42188 88.000
54.44183 86.000
54.46178 92.000
54.48172 85.000
54.50167 90.000
54.52162 80.000
54.54157 83.000
54.56151 80.000
54.58146 84.000
54.60141 83.000
54.62135 75.000
54.64130 95.000
54.66125 84.000
54.68119 92.000
54.70114 89.000
54.72109 86.000
54.74104 69.000
54.76098 104.000
54.78093 64.000
54.80088 87.000
54.82082 73.000
54.84077 81.000
54.86072 75.000
54.88066 103.000
54.90061 85.000
54.92056 80.000
54.94050 79.000
54.96045 86.000
54.98040 98.000
55.00035 89.000
55.02029 72.000
55.04024 87.000
55.06019 78.000
55.08013 68.000
55.10008 98.000
55.12003 93.000
55.13997 78.000
55.15992 97.000
55.17987 77.000
55.19982 65.000
55.21976 72.000
55.23971 81.000
55.25966 98.000
55.27960 67.000
55.29955 79.000
55.31950 80.000
55.33944 87.000
55.35939 88.000
55.37934 67.000
55.39929 69.000
55.41923 88.000
55.43918 90.000
55.45913 66.000
55.47907 75.000
55.49902 81.000
55.51897 88.000
55.53891 81.000
55.55886 73.000
55.57881 92.000
55.59875 82.000
55.61870 100.000
55.63865 72.000
55.65860 91.000
55.67854 72.000
55.69849 76.000
55.71844 64.000
55.73838 71.000
55.75833 77.000
55.77828 59.000
55.79822 72.000
55.81817 62.000
55.83812 91.000
55.85807 74.000
55.87801 87.000
55.89796 68.000
55.91791 69.000
55.93785 70.000
55.95780 75.000
55.97775 81.000
55.99769 93.000
56.01764 82.000
56.03759 71.000
56.05753 82.000
56.07748 88.000
56.09743 82.000
56.11738 71.000
56.13732 65.000
56.15727 72.000
56.17722 83.000
56.19716 93.000
56.21711 79.000
56.23706 77.000
56.25700 86.000
56.27695 88.000
56.29690 105.000
56.31685 106.000
56.33679 92.000
56.35674 107.000
56.37669 104.000
56.39663 105.000
56.41658 108.000
56.43653 125.000
56.45647 100.000
56.47642 133.000
56.49637 121.000
56.51631 132.000
56.53626 107.000
56.55621 130.000
56.57616 139.000
56.59610 117.000
56.61605 136.000
56.63600 134.000
56.65594 130.000
56.67589 128.000
56.69584 130.000
56.71578 116.000
56.73573 115.000
56.75568 101.000
56.77563 105.000
56.79557 89.000
56.81552 76.000
56.83547 115.000
56.85541 95.000
56.87536 101.000
56.89531 87.000
56.91525 71.000
56.93520 83.000
56.95515 94.000
56.97510 90.000
56.99504 74.000
57.01499 79.000
57.03494 92.000
57.05488 94.000
57.07483 83.000
57.09478 95.000
57.11472 93.000
57.13467 85.000
57.15462 84.000
57.17456 76.000
57.19451 83.000
57.21446 86.000
57.23441 59.000
57.25435 78.000
57.27430 77.000
57.29425 83.000
57.31419 91.000
57.33414 89.000
57.35409 70.000
57.37403 82.000
57.39398 80.000
57.41393 79.000
57.43388 91.000
57.45382 81.000
57.47377 70.000
57.49372 87.000
57.51366 69.000
57.53361 75.000
57.55356 73.000
57.57350 81.000
57.59345 67.000
57.61340 73.000
57.63334 91.000
57.65329 76.000
57.67324 77.000
57.69319 81.000
57.71313 94.000
57.73308 77.000
57.75303 86.000
57.77297 89.000
57.79292 71.000
57.81287 91.000
57.83281 73.000
57.85276 92.000
57.87271 77.000
57.89266 85.000
57.91260 90.000
57.93255 83.000
57.95250 81.000
57.97244 84.000
57.99239 79.000
58.01234 97.000
58.03228 93.000
58.05223 78.000
58.07218 86.000
58.09212 80.000
58.11207 71.000
58.13202 78.000
58.15197 74.000
58.17191 95.000
58.19186 73.000
58.21181 104.000
58.23175 80.000
58.25170 97.000
58.27165 99.000
58.29159 97.000
58.31154 82.000
58.33149 88.000
58.35144 82.000
58.37138 114.000
58.39133 89.000
58.41128 87.000
58.43122 84.000
58.45117 84.000
58.47112 97.000
58.49106 83.000
58.51101 101.000
58.53096 112.000
58.55090 90.000
58.57085 80.000
58.59080 83.000
58.61075 90.000
58.63069 86.000
58.65064 89.000
58.67059 94.000
58.69053 73.000
58.71048 74.000
58.73043 87.000
58.75037 88.000
58.77032 102.000
58.79027 93.000
58.81022 96.000
58.83016 66.000
58.85011 100.000
58.87006 91.000
58.89000 75.000
58.90995 80.000
58.92990 70.000
58.94984 88.000
58.96979 93.000
58.98974 77.000
59.00969 69.000
59.02963 96.000
59.04958 79.000
59.06953 67.000
59.08947 100.000
59.10942 88.000
59.12937 89.000
59.14931 84.000
59.16926 91.000
59.18921 78.000
59.20915 80.000
59.22910 83.000
59.24905 84.000
59.26900 86.000
59.28894 76.000
59.30889 91.000
59.32884 84.000
59.34878 76.000
59.36873 69.000
59.38868 75.000
59.40862 80.000
59.42857 78.000
59.44852 73.000
59.46847 92.000
59.48841 69.000
59.50836 77.000
59.52831 68.000
59.54825 96.000
59.56820 89.000
59.58815 79.000
59.60809 78.000
59.62804 84.000
59.64799 83.000
59.66793 71.000
59.68788 81.000
59.70783 80.000
59.72778 88.000
59.74772 73.000
59.76767 90.000
59.78762 86.000
59.80756 91.000
59.82751 85.000
59.84746 84.000
59.86740 88.000
59.88735 80.000
59.90730 91.000
59.92725 87.000
59.94719 91.000
59.96714 83.000
59.98709 86.000
60.00703 73.000
60.02698 79.000
60.04693 97.000
60.06687 84.000
60.08682 82.000
60.10677 85.000
60.12671 69.000
60.14666 79.000
60.16661 100.000
60.18656 85.000
60.20650 73.000
60.22645 93.000
60.24640 88.000
60.26634 80.000
60.28629 86.000
60.30624 102.000
60.32618 72.000
60.34613 101.000
60.36608 76.000
60.38603 81.000
60.40597 79.000
60.42592 94.000
60.44587 92.000
60.46581 86.000
60.48576 73.000
60.50571 88.000
60.52565 75.000
60.54560 106.000
60.56555 103.000
60.58550 85.000
60.60544 92.000
60.62539 80.000
60.64534 94.000
60.66528 83.000
60.68523 87.000
60.70518 78.000
60.72512 99.000
60.74507 101.000
60.76502 99.000
60.78496 84.000
60.80491 95.000
60.82486 87.000
60.84481 101.000
60.86475 101.000
60.88470 103.000
60.90465 106.000
60.92459 105.000
60.94454 95.000
60.96449 91.000
60.98443 97.000
61.00438 114.000
61.02433 94.000
61.04428 101.000
61.06422 114.000
61.08417 110.000
61.10412 90.000
61.12406 110.000
61.14401 123.000
61.16396 138.000
61.18390 104.000
61.20385 127.000
61.22380 120.000
61.24374 128.000
61.26369 130.000
61.28364 152.000
61.30359 152.000
61.32353 153.000
61.34348 151.000
61.36343 173.000
61.38337 180.000
61.40332 218.000
61.42327 215.000
61.44321 257.000
61.46316 245.000
61.48311 302.000
61.50306 386.000
61.52300 392.000
61.54295 427.000
61.56290 448.000
61.58284 484.000
61.60279 544.000
61.62274 515.000
61.64268 511.000
61.66263 490.000
61.68258 459.000
61.70252 432.000
61.72247 427.000
61.74242 425.000
61.76237 422.000
61.78231 360.000
61.80226 364.000
61.82221 310.000
61.84215 324.000
61.86210 295.000
61.88205 267.000
61.90199 225.000
61.92194 240.000
61.94189 200.000
61.96184 210.000
61.98178 188.000
62.00173 200.000
62.02168 191.000
62.04162 195.000
62.06157 192.000
62.08152 188.000
62.10146 187.000
62.12141 171.000
62.14136 163.000
62.16131 170.000
62.18125 170.000
62.20120 162.000
62.22115 165.000
62.24109 134.000
62.26104 133.000
62.28099 134.000
62.30093 134.000
62.32088 147.000
62.34083 119.000
62.36077 127.000
62.38072 120.000
62.40067 123.000
62.42062 133.000
62.44056 117.000
62.46051 117.000
62.48046 111.000
62.50040 104.000
62.52035 97.000
62.54030 83.000
62.56024 88.000
62.58019 93.000
62.60014 113.000
62.62009 102.000
62.64003 100.000
62.65998 106.000
62.67993 105.000
62.69987 90.000
62.71982 116.000
62.73977 95.000
62.75971 98.000
62.77966 94.000
62.79961 111.000
62.81955 96.000
62.83950 100.000
62.85945 99.000
62.87940 96.000
62.89934 80.000
62.91929 102.000
62.93924 93.000
62.95918 85.000
62.97913 91.000
62.99908 105.000
63.01902 87.000
63.03897 84.000
63.05892 90.000
63.07887 116.000
63.09881 85.000
63.11876 89.000
63.13871 98.000
63.15865 91.000
63.17860 104.000
63.19855 81.000
63.21849 90.000
63.23844 90.000
63.25839 94.000
63.27833 97.000
63.29828 107.000
63.31823 89.000
63.33818 92.000
63.35812 107.000
63.37807 85.000
63.39802 73.000
63.41796 111.000
63.43791 115.000
63.45786 103.000
63.47780 94.000
63.49775 88.000
63.51770 96.000
63.53765 94.000
63.55759 115.000
63.57754 111.000
63.59749 97.000
63.61743 107.000
63.63738 107.000
63.65733 98.000
63.67727 120.000
63.69722 98.000
63.71717 117.000
63.73712 101.000
63.75706 111.000
63.77701 131.000
63.79696 99.000
63.81690 106.000
63.83685 135.000
63.85680 107.000
63.87674 118.000
63.89669 122.000
63.91664 148.000
63.93658 145.000
63.95653 156.000
63.97648 175.000
63.99643 207.000
64.01637 206.000
64.03632 226.000
64.05627 260.000
64.07621 269.000
64.09616 290.000
64.11611 342.000
64.13605 322.000
64.15600 337.000
64.17595 325.000
64.19590 366.000
64.21584 382.000
64.23579 363.000
64.25574 379.000
64.27568 364.000
64.29563 349.000
64.31558 334.000
64.33552 321.000
64.35547 320.000
64.37542 286.000
64.39536 279.000
64.41531 260.000
64.43526 259.000
64.45521 244.000
64.47515 201.000
64.49510 196.000
64.51505 194.000
64.53499 162.000
64.55494 172.000
64.57489 169.000
64.59483 137.000
64.61478 115.000
64.63473 146.000
64.65468 130.000
64.67462 117.000
64.69457 112.000
64.71452 129.000
64.73446 115.000
64.75441 99.000
64.77436 105.000
64.79430 107.000
64.81425 90.000
64.83420 107.000
64.85414 107.000
64.87409 103.000
64.89404 107.000
64.91399 119.000
64.93393 94.000
64.95388 94.000
64.97383 97.000
64.99377 104.000
65.01372 75.000
65.03367 94.000
65.05361 102.000
65.07356 81.000
65.09351 100.000
65.11346 114.000
65.13340 112.000
65.15335 106.000
65.17330 104.000
65.19324 113.000
65.21319 94.000
65.23314 75.000
65.25308 90.000
65.27303 98.000
65.29298 88.000
65.31293 95.000
65.33287 107.000
65.35282 87.000
65.37277 105.000
65.39271 91.000
65.41266 119.000
65.43261 90.000
65.45255 108.000
65.47250 103.000
65.49245 93.000
65.51239 106.000
65.53234 100.000
65.55229 105.000
65.57224 98.000
65.59218 97.000
65.61213 97.000
65.63208 106.000
65.65202 112.000
65.67197 88.000
65.69192 98.000
65.71186 86.000
65.73181 95.000
65.75176 99.000
65.77171 117.000
65.79165 84.000
65.81160 103.000
65.83155 93.000
65.85149 111.000
65.87144 111.000
65.89139 110.000
65.91133 113.000
65.93128 111.000
65.95123 106.000
65.97117 108.000
65.99112 123.000
66.01107 108.000
66.03102 108.000
66.05096 125.000
66.07091 134.000
66.09086 133.000
66.11080 136.000
66.13075 146.000
66.15070 165.000
66.17064 144.000
66.19059 163.000
66.21054 155.000
66.23049 162.000
66.25043 175.000
66.27038 184.000
66.29033 189.000
66.31027 191.000
66.33022 220.000
66.35017 231.000
66.37011 239.000
66.39006 252.000
66.41001 250.000
66.42995 307.000
66.44990 302.000
66.46985 276.000
66.48980 300.000
66.50974 318.000
66.52969 328.000
66.54964 312.000
66.56958 341.000
66.58953 301.000
66.60948 290.000
66.62942 315.000
66.64937 277.000
66.66932 278.000
66.68927 270.000
66.70921 266.000
66.72916 222.000
66.74911 228.000
66.76905 219.000
66.78900 209.000
66.80895 195.000
66.82889 165.000
66.84884 161.000
66.86879 171.000
66.88874 150.000
66.90868 148.000
66.92863 136.000
66.94858 128.000
66.96852 138.000
66.98847 91.000
67.00842 109.000
67.02836 122.000
67.04831 125.000
67.06826 94.000
67.08820 84.000
67.10815 100.000
67.12810 81.000
67.14805 90.000
67.16799 67.000
67.18794 103.000
67.20789 89.000
67.22783 87.000
67.24778 88.000
67.26773 93.000
67.28767 93.000
67.30762 99.000
67.32757 93.000
67.34752 76.000
67.36746 93.000
67.38741 90.000
67.40736 79.000
67.42730 90.000
67.44725 88.000
67.46720 95.000
67.48714 83.000
67.50709 110.000
67.52704 95.000
67.54698 75.000
67.56693 92.000
67.58688 89.000
67.60683 85.000
67.62677 70.000
67.64672 102.000
67.66667 67.000
67.68661 79.000
67.70656 85.000
67.72651 85.000
67.74645 97.000
67.76640 93.000
67.78635 88.000
67.80630 95.000
67.82624 81.000
67.84619 89.000
67.86614 86.000
67.88608 94.000
67.90603 86.000
67.92598 90.000
67.94592 82.000
67.96587 91.000
67.98582 79.000
68.00576 93.000
68.02571 78.000
68.04566 90.000
68.06561 90.000
68.08555 98.000
68.10550 78.000
68.12545 85.000
68.14539 94.000
68.16534 94.000
68.18529 89.000
68.20523 86.000
68.22518 99.000
68.24513 82.000
68.26508 87.000
68.28502 88.000
68.30497 79.000
68.32492 70.000
68.34486 87.000
68.36481 87.000
68.38476 82.000
68.40470 91.000
68.42465 84.000
68.44460 93.000
68.46455 82.000
68.48449 106.000
68.50444 68.000
68.52439 83.000
68.54433 88.000
68.56428 60.000
68.58423 75.000
68.60417 74.000
68.62412 86.000
68.64407 87.000
68.66401 88.000
68.68396 93.000
68.70391 71.000
68.72386 84.000
68.74380 92.000
68.76375 76.000
68.78370 99.000
68.80364 69.000
68.82359 76.000
68.84354 93.000
68.86348 92.000
68.88343 87.000
68.90338 77.000
68.92333 85.000
68.94327 92.000
68.96322 77.000
68.98317 69.000
69.00311 88.000
69.02306 91.000
69.04301 92.000
69.06295 93.000
69.08290 70.000
69.10285 83.000
69.12279 77.000
69.14274 90.000
69.16269 93.000
69.18264 76.000
69.20258 79.000
69.22253 81.000
69.24248 80.000
69.26242 91.000
69.28237 93.000
69.30232 73.000
69.32226 81.000
69.34221 84.000
69.36216 99.000
69.38211 106.000
69.40205 73.000
69.42200 84.000
69.44195 86.000
69.46189 78.000
69.48184 78.000
69.50179 82.000
69.52173 77.000
69.54168 70.000
69.56163 90.000
69.58157 91.000
69.60152 87.000
69.62147 76.000
69.64142 82.000
69.66136 94.000
69.68131 85.000
69.70126 80.000
69.72120 75.000
69.74115 78.000
69.76110 64.000
69.78104 69.000
69.80099 73.000
69.82094 96.000
69.84089 64.000
69.86083 94.000
69.88078 89.000
69.90073 86.000
69.92067 82.000
69.94062 96.000
69.96057 81.000
69.98051 72.000
70.00046 85.000
70.02041 83.000
70.04035 58.000
70.06030 83.000
70.08025 79.000
70.10020 75.000
70.12014 82.000
70.14009 82.000
70.16004 83.000
70.17998 76.000
70.19993 72.000
70.21988 70.000
70.23982 92.000
70.25977 102.000
70.27972 81.000
70.29967 69.000
70.31961 76.000
70.33956 89.000
70.35951 83.000
70.37945 84.000
70.39940 97.000
70.41935 88.000
70.43929 92.000
70.45924 92.000
70.47919 62.000
70.49914 65.000
70.51908 71.000
70.53903 83.000
70.55898 65.000
70.57892 79.000
70.59887 81.000
70.61882 77.000
70.63876 92.000
70.65871 84.000
70.67866 85.000
70.69860 70.000
70.71855 78.000
70.73850 68.000
70.75845 84.000
70.77839 82.000
70.79834 86.000
70.81829 88.000
70.83823 76.000
70.85818 76.000
70.87813 87.000
70.89807 78.000
70.91802 64.000
70.93797 81.000
70.95792 77.000
70.97786 70.000
70.99781 86.000
71.01776 77.000
71.03770 81.000
71.05765 80.000
71.07760 85.000
71.09754 76.000
71.11749 84.000
71.13744 89.000
71.15738 71.000
71.17733 74.000
71.19728 90.000
71.21723 92.000
71.23717 83.000
71.25712 88.000
71.27707 92.000
71.29701 72.000
71.31696 71.000
71.33691 91.000
71.35685 90.000
71.37680 70.000
71.39675 80.000
71.41670 81.000
71.43664 61.000
71.45659 75.000
71.47654 80.000
71.49648 69.000
71.51643 64.000
71.53638 72.000
71.55632 79.000
71.57627 84.000
71.59622 76.000
71.61616 79.000
71.63611 84.000
71.65606 83.000
71.67601 62.000
71.69595 81.000
71.71590 86.000
71.73585 86.000
71.75579 75.000
71.77574 105.000
71.79569 75.000
71.81563 88.000
71.83558 81.000
71.85553 78.000
71.87548 87.000
71.89542 72.000
71.91537 86.000
71.93532 75.000
71.95526 82.000
71.97521 73.000
71.99516 75.000
72.01510 88.000
72.03505 65.000
72.05500 89.000
72.07495 65.000
72.09489 59.000
72.11484 79.000
72.13479 85.000
72.15473 85.000
72.17468 83.000
72.19463 75.000
72.21457 71.000
72.23452 63.000
72.25447 82.000
72.27441 94.000
72.29436 83.000
72.31431 87.000
72.33426 88.000
72.35420 82.000
72.37415 72.000
72.39410 85.000
72.41404 91.000
72.43399 76.000
72.45394 90.000
72.47388 97.000
72.49383 82.000
72.51378 99.000
72.53373 111.000
72.55367 76.000
72.57362 78.000
72.59357 87.000
72.61351 68.000
72.63346 70.000
72.65341 93.000
72.67335 90.000
72.69330 61.000
72.71325 94.000
72.73319 80.000
72.75314 86.000
72.77309 71.000
72.79304 69.000
72.81298 80.000
72.83293 78.000
72.85288 82.000
72.87282 87.000
72.89277 88.000
72.91272 92.000
72.93266 78.000
72.95261 86.000
72.97256 74.000
72.99251 72.000
73.01245 85.000
73.03240 97.000
73.05235 103.000
73.07229 98.000
73.09224 101.000
73.11219 102.000
73.13213 128.000
73.15208 107.000
73.17203 123.000
73.19197 114.000
73.21192 138.000
73.23187 138.000
73.25182 154.000
73.27176 172.000
73.29171 175.000
73.31166 200.000
73.33160 183.000
73.35155 188.000
73.37150 186.000
73.39144 180.000
73.41139 167.000
73.43134 159.000
73.45129 146.000
73.47123 169.000
73.49118 161.000
73.51113 164.000
73.53107 157.000
73.55102 147.000
73.57097 150.000
73.59091 141.000
73.61086 129.000
73.63081 109.000
73.65076 140.000
73.67070 120.000
73.69065 132.000
73.71060 104.000
73.73054 113.000
73.75049 103.000
73.77044 87.000
73.79038 94.000
73.81033 94.000
73.83028 88.000
73.85022 96.000
73.87017 85.000
73.89012 95.000
73.91007 125.000
73.93001 100.000
73.94996 79.000
73.96991 84.000
73.98985 95.000
74.00980 86.000
74.02975 79.000
74.04969 70.000
74.06964 77.000
74.08959 84.000
74.10954 77.000
74.12948 87.000
74.14943 78.000
74.16938 84.000
74.18932 85.000
74.20927 78.000
74.22922 79.000
74.24916 72.000
74.26911 79.000
74.28906 86.000
74.30900 97.000
74.32895 93.000
74.34890 91.000
74.36885 71.000
74.38879 86.000
74.40874 93.000
74.42869 91.000
74.44863 84.000
74.46858 93.000
74.48853 106.000
74.50847 97.000
74.52842 92.000
74.54837 75.000
74.56832 86.000
74.58826 84.000
74.60821 89.000
74.62816 92.000
74.64810 71.000
74.66805 89.000
74.68800 90.000
74.70794 86.000
74.72789 80.000
74.74784 88.000
74.76778 81.000
74.78773 95.000
74.80768 79.000
74.82763 78.000
74.84757 68.000
74.86752 80.000
74.88747 80.000
74.90741 84.000
74.92736 95.000
74.94731 91.000
74.96725 65.000
74.98720 83.000
75.00715 93.000
75.02710 92.000
75.04704 77.000
75.06699 90.000
75.08694 89.000
75.10688 85.000
75.12683 85.000
75.14678 82.000
75.16672 77.000
75.18667 69.000
75.20662 69.000
75.22657 91.000
75.24651 86.000
75.26646 78.000
75.28641 91.000
75.30635 88.000
75.32630 79.000
75.34625 90.000
75.36619 78.000
75.38614 91.000
75.40609 109.000
75.42603 94.000
75.44598 94.000
75.46593 103.000
75.48588 105.000
75.50582 100.000
75.52577 112.000
75.54572 97.000
75.56566 104.000
75.58561 105.000
75.60556 107.000
75.62550 113.000
75.64545 133.000
75.66540 129.000
75.68535 129.000
75.70529 118.000
75.72524 93.000
75.74519 117.000
75.76513 108.000
75.78508 113.000
75.80503 96.000
75.82497 109.000
75.84492 95.000
75.86487 100.000
75.88481 87.000
75.90476 95.000
75.92471 121.000
75.94466 90.000
75.96460 90.000
75.98455 76.000
76.00450 89.000
76.02444 93.000
76.04439 95.000
76.06434 99.000
76.08428 80.000
76.10423 80.000
76.12418 87.000
76.14413 91.000
76.16407 98.000
76.18402 75.000
76.20397 97.000
76.22391 104.000
76.24386 90.000
76.26381 84.000
76.28375 91.000
76.30370 76.000
76.32365 92.000
76.34359 87.000
76.36354 90.000
76.38349 72.000
76.40344 110.000
76.42338 78.000
76.44333 89.000
76.46328 73.000
76.48322 70.000
76.50317 69.000
76.52312 94.000
76.54306 95.000
76.56301 67.000
76.58296 88.000
76.60291 82.000
76.62285 85.000
76.64280 72.000
76.66275 80.000
76.68269 79.000
76.70264 75.000
76.72259 87.000
76.74253 91.000
76.76248 99.000
76.78243 82.000
76.80238 70.000
76.82232 78.000
76.84227 85.000
76.86222 86.000
76.88216 91.000
76.90211 96.000
76.92206 81.000
76.94200 78.000
76.96195 86.000
76.98190 76.000
77.00184 86.000
77.02179 81.000
77.04174 90.000
77.06169 84.000
77.08163 95.000
77.10158 94.000
77.12153 94.000
77.14147 101.000
77.16142 82.000
77.18137 116.000
77.20131 100.000
77.22126 110.000
77.24121 107.000
77.26116 91.000
77.28110 101.000
77.30105 98.000
77.32100 114.000
77.34094 117.000
77.36089 127.000
77.38084 128.000
77.40078 116.000
77.42073 124.000
77.44068 138.000
77.46062 154.000
77.48057 139.000
77.50052 169.000
77.52047 157.000
77.54041 179.000
77.56036 182.000
77.58031 164.000
77.60025 199.000
77.62020 224.000
77.64015 216.000
77.66009 255.000
77.68004 234.000
77.69999 240.000
77.71994 213.000
77.73988 215.000
77.75983 241.000
77.77978 240.000
77.79972 217.000
77.81967 222.000
77.83962 238.000
77.85956 200.000
77.87951 227.000
77.89946 210.000
77.91940 223.000
77.93935 222.000
77.95930 205.000
77.97925 188.000
77.99919 181.000
78.01914 168.000
78.03909 177.000
78.05903 165.000
78.07898 158.000
78.09893 170.000
78.11887 126.000
78.13882 141.000
78.15877 135.000
78.17872 143.000
78.19866 119.000
78.21861 125.000
78.23856 124.000
78.25850 126.000
78.27845 123.000
78.29840 105.000
78.31834 93.000
78.33829 111.000
78.35824 95.000
78.37819 115.000
78.39813 103.000
78.41808 83.000
78.43803 85.000
78.45797 102.000
78.47792 87.000
78.49787 109.000
78.51781 95.000
78.53776 100.000
78.55771 88.000
78.57765 71.000
78.59760 79.000
78.61755 102.000
78.63750 90.000
78.65744 84.000
78.67739 88.000
78.69734 79.000
78.71728 85.000
78.73723 95.000
78.75718 79.000
78.77712 83.000
78.79707 93.000
78.81702 87.000
78.83697 78.000
78.85691 96.000
78.87686 88.000
78.89681 85.000
78.91675 78.000
78.93670 74.000
78.95665 80.000
78.97659 68.000
78.99654 84.000
79.01649 72.000
79.03643 83.000
79.05638 68.000
79.07633 78.000
79.09628 74.000
79.11622 87.000
79.13617 72.000
79.15612 76.000
79.17606 84.000
79.19601 83.000
79.21596 75.000
79.23590 80.000
79.25585 87.000
79.27580 74.000
79.29575 85.000
79.31569 77.000
79.33564 65.000
79.35559 70.000
79.37553 91.000
79.39548 82.000
79.41543 86.000
79.43537 78.000
79.45532 75.000
79.47527 63.000
79.49521 69.000
79.51516 76.000
79.53511 55.000
79.55506 79.000
79.57500 73.000
79.59495 74.000
79.61490 79.000
79.63484 68.000
79.65479 59.000
79.67474 68.000
79.69468 73.000
79.71463 77.000
79.73458 74.000
79.75453 79.000
79.77447 94.000
79.79442 74.000
79.81437 66.000
79.83431 94.000
79.85426 87.000
79.87421 89.000
79.89415 84.000
79.91410 72.000
79.93405 69.000
79.95399 71.000
79.97394 82.000
79.99389 81.000
80.01384 76.000
80.03378 88.000
80.05373 89.000
80.07368 79.000
80.09362 70.000
80.11357 76.000
80.13352 73.000
80.15346 73.000
80.17341 75.000
80.19336 85.000
80.21331 89.000
80.23325 81.000
80.25320 86.000
80.27315 69.000
80.29309 75.000
80.31304 76.000
80.33299 71.000
80.35293 86.000
80.37288 85.000
80.39283 70.000
80.41278 86.000
80.43272 75.000
80.45267 70.000
80.47262 81.000
80.49256 98.000
80.51251 101.000
80.53246 80.000
80.55240 97.000
80.57235 98.000
80.59230 77.000
80.61224 89.000
80.63219 97.000
80.65214 76.000
80.67209 91.000
80.69203 83.000
80.71198 85.000
80.73193 103.000
80.75187 93.000
80.77182 86.000
80.79177 100.000
80.81171 113.000
80.83166 77.000
80.85161 91.000
80.87156 83.000
80.89150 91.000
80.91145 87.000
80.93140 89.000
80.95134 78.000
80.97129 83.000
80.99124 79.000
81.01118 72.000
81.03113 70.000
81.05108 82.000
81.07102 86.000
81.09097 62.000
81.11092 66.000
81.13087 75.000
81.15081 78.000
81.17076 78.000
81.19071 63.000
81.21065 83.000
81.23060 85.000
81.25055 72.000
81.27049 78.000
81.29044 88.000
81.31039 68.000
81.33034 76.000
81.35028 92.000
81.37023 92.000
81.39018 81.000
81.41012 78.000
81.43007 97.000
81.45002 63.000
81.46996 77.000
81.48991 77.000
81.50986 63.000
81.52980 77.000
81.54975 74.000
81.56970 66.000
81.58965 56.000
81.60959 92.000
81.62954 81.000
81.64949 79.000
81.66943 69.000
81.68938 84.000
81.70933 75.000
81.72927 70.000
81.74922 73.000
81.76917 73.000
81.78912 67.000
81.80906 75.000
81.82901 75.000
81.84896 84.000
81.86890 74.000
81.88885 67.000
81.90880 78.000
81.92874 69.000
81.94869 77.000
81.96864 79.000
81.98859 72.000
82.00853 67.000
82.02848 77.000
82.04843 82.000
82.06837 80.000
82.08832 88.000
82.10827 83.000
82.12821 95.000
82.14816 85.000
82.16811 77.000
82.18805 75.000
82.20800 60.000
82.22795 77.000
82.24790 80.000
82.26784 71.000
82.28779 62.000
82.30774 68.000
82.32768 80.000
82.34763 80.000
82.36758 96.000
82.38752 75.000
82.40747 87.000
82.42742 68.000
82.44737 80.000
82.46731 76.000
82.48726 69.000
82.50721 92.000
82.52715 76.000
82.54710 72.000
82.56705 86.000
82.58699 81.000
82.60694 93.000
82.62689 72.000
82.64683 72.000
82.66678 83.000
82.68673 78.000
82.70668 77.000
82.72662 73.000
82.74657 81.000
82.76652 59.000
82.78646 79.000
82.80641 78.000
82.82636 65.000
82.84630 82.000
82.86625 69.000
82.88620 82.000
82.90615 84.000
82.92609 81.000
82.94604 82.000
82.96599 81.000
82.98593 66.000
83.00588 91.000
83.02583 82.000
83.04577 71.000
83.06572 93.000
83.08567 76.000
83.10561 93.000
83.12556 92.000
83.14551 91.000
83.16546 83.000
83.18540 79.000
83.20535 94.000
83.22530 80.000
83.24524 78.000
83.26519 83.000
83.28514 70.000
83.30508 75.000
83.32503 65.000
83.34498 81.000
83.36493 83.000
83.38487 77.000
83.40482 79.000
83.42477 92.000
83.44471 79.000
83.46466 74.000
83.48461 87.000
83.50455 72.000
83.52450 66.000
83.54445 83.000
83.56440 76.000
83.58434 74.000
83.60429 72.000
83.62424 77.000
83.64418 96.000
83.66413 85.000
83.68408 63.000
83.70402 97.000
83.72397 88.000
83.74392 75.000
83.76386 85.000
83.78381 101.000
83.80376 86.000
83.82371 88.000
83.84365 80.000
83.86360 90.000
83.88355 85.000
83.90349 83.000
83.92344 64.000
83.94339 99.000
83.96333 97.000
83.98328 88.000
84.00323 109.000
84.02318 104.000
84.04312 98.000
84.06307 97.000
84.08302 94.000
84.10296 106.000
84.12291 102.000
84.14286 131.000
84.16280 139.000
84.18275 128.000
84.20270 151.000
84.22264 162.000
84.24259 141.000
84.26254 151.000
84.28249 164.000
84.30243 155.000
84.32238 174.000
84.34233 168.000
84.36227 159.000
84.38222 159.000
84.40217 161.000
84.42211 153.000
84.44206 161.000
84.46201 166.000
84.48196 135.000
84.50190 155.000
84.52185 170.000
84.54180 162.000
84.56174 142.000
84.58169 158.000
84.60164 155.000
84.62158 134.000
84.64153 137.000
84.66148 138.000
84.68142 110.000
84.70137 132.000
84.72132 118.000
84.74127 119.000
84.76121 125.000
84.78116 99.000
84.80111 99.000
84.82105 117.000
84.84100 105.000
84.86095 107.000
84.88089 93.000
84.90084 79.000
84.92079 100.000
84.94074 93.000
84.96068 87.000
84.98063 84.000
85.00058 89.000
85.02052 96.000
85.04047 93.000
85.06042 86.000
85.08036 83.000
85.10031 71.000
85.12026 86.000
85.14021 83.000
85.16015 89.000
85.18010 87.000
85.20005 86.000
85.21999 77.000
85.23994 86.000
85.25989 69.000
85.27983 105.000
85.29978 86.000
85.31973 76.000
85.33967 99.000
85.35962 71.000
85.37957 81.000
85.39952 78.000
85.41946 81.000
85.43941 73.000
85.45936 89.000
85.47930 59.000
85.49925 75.000
85.51920 95.000
85.53914 71.000
85.55909 70.000
85.57904 79.000
85.59899 91.000
85.61893 77.000
85.63888 87.000
85.65883 86.000
85.67877 74.000
85.69872 71.000
85.71867 82.000
85.73861 77.000
85.75856 86.000
85.77851 81.000
85.79845 80.000
85.81840 85.000
85.83835 80.000
85.85830 94.000
85.87824 84.000
85.89819 81.000
85.91814 107.000
85.93808 89.000
85.95803 82.000
85.97798 92.000
85.99792 98.000
86.01787 82.000
86.03782 94.000
86.05777 89.000
86.07771 91.000
86.09766 90.000
86.11761 100.000
86.13755 95.000
86.15750 82.000
86.17745 100.000
86.19739 76.000
86.21734 96.000
86.23729 93.000
86.25723 78.000
86.27718 78.000
86.29713 101.000
86.31708 82.000
86.33702 74.000
86.35697 79.000
86.37692 100.000
86.39686 94.000
86.41681 78.000
86.43676 84.000
86.45670 85.000
86.47665 80.000
86.49660 76.000
86.51655 74.000
86.53649 72.000
86.55644 90.000
86.57639 94.000
86.59633 97.000
86.61628 81.000
86.63623 89.000
86.65617 66.000
86.67612 103.000
86.69607 87.000
86.71602 96.000
86.73596 106.000
86.75591 80.000
86.77586 102.000
86.79580 87.000
86.81575 88.000
86.83570 80.000
86.85564 91.000
86.87559 80.000
86.89554 93.000
86.91548 96.000
86.93543 87.000
86.95538 99.000
86.97533 78.000
86.99527 78.000
87.01522 76.000
87.03517 91.000
87.05511 85.000
87.07506 94.000
87.09501 66.000
87.11495 86.000
87.13490 85.000
87.15485 77.000
87.17480 78.000
87.19474 81.000
87.21469 89.000
87.23464 82.000
87.25458 75.000
87.27453 93.000
87.29448 79.000
87.31442 66.000
87.33437 91.000
87.35432 70.000
87.37426 81.000
87.39421 65.000
87.41416 75.000
87.43411 70.000
87.45405 64.000
87.47400 65.000
87.49395 75.000
87.51389 83.000
87.53384 89.000
87.55379 82.000
87.57373 63.000
87.59368 79.000
87.61363 65.000
87.63358 80.000
87.65352 75.000
87.67347 82.000
87.69342 82.000
87.71336 72.000
87.73331 68.000
87.75326 84.000
87.77320 70.000
87.79315 80.000
87.81310 64.000
87.83304 66.000
87.85299 65.000
87.87294 75.000
87.89289 78.000
87.91283 81.000
87.93278 88.000
87.95273 68.000
87.97267 66.000
87.99262 80.000
88.01257 79.000
88.03251 65.000
88.05246 73.000
88.07241 78.000
88.09236 66.000
88.11230 76.000
88.13225 78.000
88.15220 70.000
88.17214 84.000
88.19209 85.000
88.21204 66.000
88.23198 78.000
88.25193 66.000
88.27188 94.000
88.29183 78.000
88.31177 69.000
88.33172 80.000
88.35167 75.000
88.37161 78.000
88.39156 84.000
88.41151 81.000
88.43145 96.000
88.45140 92.000
88.47135 77.000
88.49129 72.000
88.51124 68.000
88.53119 84.000
88.55114 74.000
88.57108 87.000
88.59103 84.000
88.61098 85.000
88.63092 99.000
88.65087 70.000
88.67082 76.000
88.69076 79.000
88.71071 81.000
88.73066 85.000
88.75061 86.000
88.77055 88.000
88.79050 111.000
88.81045 102.000
88.83039 83.000
88.85034 100.000
88.87029 87.000
88.89023 85.000
88.91018 76.000
88.93013 84.000
88.95007 89.000
88.97002 84.000
88.98997 68.000
89.00992 80.000
89.02986 69.000
89.04981 98.000
89.06976 71.000
89.08970 79.000
89.10965 80.000
89.12960 85.000
89.14954 80.000
89.16949 87.000
89.18944 95.000
89.20939 80.000
89.22933 88.000
89.24928 89.000
89.26923 75.000
89.28917 88.000
89.30912 74.000
89.32907 76.000
89.34901 80.000
89.36896 80.000
89.38891 81.000
89.40885 80.000
89.42880 84.000
89.44875 68.000
89.46870 77.000
89.48864 76.000
89.50859 79.000
89.52854 73.000
89.54848 89.000
89.56843 86.000
89.58838 67.000
89.60832 83.000
89.62827 77.000
89.64822 75.000
89.66817 62.000
89.68811 70.000
89.70806 77.000
89.72801 73.000
89.74795 69.000
89.76790 78.000
89.78785 85.000
89.80779 68.000
89.82774 75.000
89.84769 62.000
89.86764 78.000
89.88758 77.000
89.90753 69.000
89.92748 72.000
89.94742 83.000
89.96737 71.000
89.98732 88.000
90.00726 72.000
