10.00000 156.000
10.01995 121.000
10.03989 141.000
10.05984 136.000
10.07979 118.000
10.09973 152.000
10.11968 132.000
10.13963 150.000
10.15958 155.000
10.17952 157.000
10.19947 133.000
10.21942 152.000
10.23936 137.000
10.25931 145.000
10.27926 145.000
10.29920 175.000
10.31915 160.000
10.33910 166.000
10.35905 151.000
10.37899 146.000
10.39894 134.000
10.41889 143.000
10.43883 157.000
10.45878 135.000
10.47873 152.000
10.49867 164.000
10.51862 140.000
10.53857 140.000
10.55851 151.000
10.57846 150.000
10.59841 143.000
10.61836 163.000
10.63830 137.000
10.65825 160.000
10.67820 166.000
10.69814 121.000
10.71809 157.000
10.73804 162.000
10.75798 149.000
10.77793 158.000
10.79788 143.000
10.81783 144.000
10.83777 133.000
10.85772 142.000
10.87767 167.000
10.89761 132.000
10.91756 136.000
10.93751 152.000
10.95745 140.000
10.97740 124.000
10.99735 156.000
11.01730 139.000
11.03724 157.000
11.05719 151.000
11.07714 145.000
11.09708 143.000
11.11703 135.000
11.13698 162.000
11.15692 142.000
11.17687 161.000
11.19682 142.000
11.21676 146.000
11.23671 145.000
11.25666 154.000
11.27661 150.000
11.29655 162.000
11.31650 138.000
11.33645 160.000
11.35639 169.000
11.37634 144.000
11.39629 141.000
11.41623 158.000
11.43618 155.000
11.45613 143.000
11.47608 150.000
11.49602 166.000
11.51597 152.000
11.53592 144.000
11.55586 136.000
11.57581 144.000
11.59576 157.000
11.61570 166.000
11.63565 168.000
11.65560 170.000
11.67554 158.000
11.69549 125.000
11.71544 134.000
11.73539 146.000
11.75533 153.000
11.77528 150.000
11.79523 152.000
11.81517 137.000
11.83512 131.000
11.85507 151.000
11.87501 157.000
11.89496 116.000
11.91491 157.000
11.93486 133.000
11.95480 147.000
11.97475 152.000
11.99470 135.000
12.01464 160.000
12.03459 123.000
12.05454 132.000
12.07448 170.000
12.09443 154.000
12.11438 147.000
12.13432 113.000
12.15427 145.000
12.17422 140.000
12.19417 154.000
12.21411 136.000
12.23406 148.000
12.25401 161.000
12.27395 141.000
12.29390 148.000
12.31385 165.000
12.33379 153.000
12.35374 168.000
12.37369 158.000
12.39364 137.000
12.41358 156.000
12.43353 137.000
12.45348 131.000
12.47342 145.000
12.49337 170.000
12.51332 131.000
12.53326 139.000
12.55321 144.000
12.57316 147.000
12.59311 148.000
12.61305 138.000
12.63300 167.000
12.65295 147.000
12.67289 149.000
12.69284 143.000
12.71279 149.000
12.73273 144.000
12.75268 144.000
12.77263 122.000
12.79257 154.000
12.81252 147.000
12.83247 160.000
12.85242 159.000
12.87236 166.000
12.89231 168.000
12.91226 130.000
12.93220 160.000
12.95215 176.000
12.97210 165.000
12.99204 142.000
13.01199 131.000
13.03194 148.000
13.05189 151.000
13.07183 159.000
13.09178 130.000
13.11173 154.000
13.13167 153.000
13.15162 139.000
13.17157 145.000
13.19151 142.000
13.21146 146.000
13.23141 145.000
13.25135 142.000
13.27130 146.000
13.29125 151.000
13.31120 138.000
13.33114 146.000
13.35109 159.000
13.37104 135.000
13.39098 151.000
13.41093 144.000
13.43088 122.000
13.45082 161.000
13.47077 169.000
13.49072 131.000
13.51067 144.000
13.53061 117.000
13.55056 144.000
13.57051 160.000
13.59045 137.000
13.61040 154.000
13.63035 158.000
13.65029 138.000
13.67024 134.000
13.69019 160.000
13.71013 160.000
13.73008 155.000
13.75003 128.000
13.76998 170.000
13.78992 151.000
13.80987 135.000
13.82982 144.000
13.84976 129.000
13.86971 141.000
13.88966 121.000
13.90960 140.000
13.92955 150.000
13.94950 154.000
13.96945 149.000
13.98939 150.000
14.00934 136.000
14.02929 160.000
14.04923 157.000
14.06918 140.000
14.08913 113.000
14.10907 134.000
14.12902 149.000
14.14897 159.000
14.16892 139.000
14.18886 160.000
14.20881 152.000
14.22876 143.000
14.24870 136.000
14.26865 167.000
14.28860 141.000
14.30854 145.000
14.32849 155.000
14.34844 150.000
14.36838 147.000
14.38833 159.000
14.40828 148.000
14.42823 139.000
14.44817 145.000
14.46812 152.000
14.48807 134.000
14.50801 136.000
14.52796 152.000
14.54791 152.000
14.56785 151.000
14.58780 160.000
14.60775 125.000
14.62770 165.000
14.64764 150.000
14.66759 145.000
14.68754 157.000
14.70748 123.000
14.72743 149.000
14.74738 162.000
14.76732 150.000
14.78727 129.000
14.80722 139.000
14.82716 172.000
14.84711 171.000
14.86706 157.000
14.88701 149.000
14.90695 144.000
14.92690 148.000
14.94685 150.000
14.96679 162.000
14.98674 180.000
15.00669 165.000
15.02663 144.000
15.04658 165.000
15.06653 178.000
15.08648 163.000
15.10642 154.000
15.12637 159.000
15.14632 166.000
15.16626 149.000
15.18621 137.000
15.20616 158.000
15.22610 145.000
15.24605 150.000
15.26600 152.000
15.28594 180.000
15.30589 191.000
15.32584 167.000
15.34579 179.000
15.36573 181.000
15.38568 175.000
15.40563 167.000
15.42557 173.000
15.44552 167.000
15.46547 198.000
15.48541 214.000
15.50536 236.000
15.52531 248.000
15.54526 247.000
15.56520 301.000
15.58515 349.000
15.60510 442.000
15.62504 636.000
15.64499 855.000
15.66494 1262.000
15.68488 1890.000
15.70483 2628.000
15.72478 3514.000
15.74472 4117.000
15.76467 4646.000
15.78462 4219.000
15.80457 3394.000
15.82451 2305.000
15.84446 1482.000
15.86441 828.000
15.88435 556.000
15.90430 345.000
15.92425 297.000
15.94419 229.000
15.96414 228.000
15.98409 193.000
16.00404 226.000
16.02398 177.000
16.04393 226.000
16.06388 182.000
16.08382 171.000
16.10377 166.000
16.12372 209.000
16.14366 170.000
16.16361 180.000
16.18356 168.000
16.20351 168.000
16.22345 164.000
16.24340 168.000
16.26335 148.000
16.28329 164.000
16.30324 177.000
16.32319 152.000
16.34313 153.000
16.36308 127.000
16.38303 146.000
16.40297 161.000
16.42292 178.000
16.44287 153.000
16.46282 164.000
16.48276 133.000
16.50271 142.000
16.52266 151.000
16.54260 160.000
16.56255 150.000
16.58250 143.000
16.60244 123.000
16.62239 155.000
16.64234 148.000
16.66229 157.000
16.68223 163.000
16.70218 149.000
16.72213 139.000
16.74207 152.000
16.76202 161.000
16.78197 139.000
16.80191 143.000
16.82186 160.000
16.84181 147.000
16.86175 146.000
16.88170 156.000
16.90165 141.000
16.92160 128.000
16.94154 150.000
16.96149 135.000
16.98144 152.000
17.00138 147.000
17.02133 149.000
17.04128 150.000
17.06122 142.000
17.08117 116.000
17.10112 178.000
17.12107 163.000
17.14101 144.000
17.16096 137.000
17.18091 124.000
17.20085 133.000
17.22080 159.000
17.24075 145.000
17.26069 149.000
17.28064 136.000
17.30059 140.000
17.32053 155.000
17.34048 140.000
17.36043 145.000
17.38038 166.000
17.40032 133.000
17.42027 133.000
17.44022 156.000
17.46016 155.000
17.48011 130.000
17.50006 135.000
17.52000 168.000
17.53995 151.000
17.55990 147.000
17.57985 141.000
17.59979 155.000
17.61974 158.000
17.63969 153.000
17.65963 156.000
17.67958 145.000
17.69953 120.000
17.71947 136.000
17.73942 140.000
17.75937 158.000
17.77932 161.000
17.79926 143.000
17.81921 140.000
17.83916 155.000
17.85910 159.000
17.87905 155.000
17.89900 156.000
17.91894 134.000
17.93889 170.000
17.95884 148.000
17.97878 138.000
17.99873 144.000
18.01868 167.000
18.03863 151.000
18.05857 154.000
18.07852 144.000
18.09847 177.000
18.11841 152.000
18.13836 159.000
18.15831 148.000
18.17825 142.000
18.19820 160.000
18.21815 164.000
18.23810 216.000
18.25804 218.000
18.27799 247.000
18.29794 315.000
18.31788 388.000
18.33783 389.000
18.35778 389.000
18.37772 307.000
18.39767 230.000
18.41762 210.000
18.43756 165.000
18.45751 161.000
18.47746 153.000
18.49741 152.000
18.51735 131.000
18.53730 128.000
18.55725 146.000
18.57719 152.000
18.59714 140.000
18.61709 159.000
18.63703 163.000
18.65698 147.000
18.67693 147.000
18.69688 143.000
18.71682 145.000
18.73677 143.000
18.75672 168.000
18.77666 161.000
18.79661 146.000
18.81656 122.000
18.83650 144.000
18.85645 167.000
18.87640 139.000
18.89634 143.000
18.91629 136.000
18.93624 158.000
18.95619 141.000
18.97613 150.000
18.99608 148.000
19.01603 168.000
19.03597 138.000
19.05592 140.000
19.07587 140.000
19.09581 138.000
19.11576 163.000
19.13571 142.000
19.15566 140.000
19.17560 153.000
19.19555 129.000
19.21550 153.000
19.23544 132.000
19.25539 130.000
19.27534 149.000
19.29528 127.000
19.31523 141.000
19.33518 128.000
19.35513 136.000
19.37507 142.000
19.39502 139.000
19.41497 160.000
19.43491 129.000
19.45486 143.000
19.47481 141.000
19.49475 148.000
19.51470 136.000
19.53465 138.000
19.55459 127.000
19.57454 148.000
19.59449 161.000
19.61444 148.000
19.63438 152.000
19.65433 143.000
19.67428 155.000
19.69422 147.000
19.71417 145.000
19.73412 142.000
19.75406 142.000
19.77401 141.000
19.79396 134.000
19.81391 142.000
19.83385 131.000
19.85380 116.000
19.87375 164.000
19.89369 148.000
19.91364 137.000
19.93359 167.000
19.95353 133.000
19.97348 155.000
19.99343 153.000
20.01337 158.000
20.03332 142.000
20.05327 139.000
20.07322 152.000
20.09316 142.000
20.11311 149.000
20.13306 144.000
20.15300 128.000
20.17295 143.000
20.19290 136.000
20.21284 160.000
20.23279 138.000
20.25274 133.000
20.27269 145.000
20.29263 134.000
20.31258 143.000
20.33253 135.000
20.35247 149.000
20.37242 130.000
20.39237 157.000
20.41231 135.000
20.43226 150.000
20.45221 145.000
20.47215 150.000
20.49210 148.000
20.51205 150.000
20.53200 140.000
20.55194 150.000
20.57189 157.000
20.59184 134.000
20.61178 167.000
20.63173 135.000
20.65168 171.000
20.67162 161.000
20.69157 125.000
20.71152 151.000
20.73147 156.000
20.75141 143.000
20.77136 146.000
20.79131 166.000
20.81125 160.000
20.83120 182.000
20.85115 176.000
20.87109 165.000
20.89104 162.000
20.91099 190.000
20.93094 208.000
20.95088 171.000
20.97083 184.000
20.99078 184.000
21.01072 186.000
21.03067 199.000
21.05062 217.000
21.07056 204.000
21.09051 196.000
21.11046 197.000
21.13040 166.000
21.15035 153.000
21.17030 167.000
21.19025 150.000
21.21019 167.000
21.23014 157.000
21.25009 142.000
21.27003 154.000
21.28998 137.000
21.30993 144.000
21.32987 145.000
21.34982 161.000
21.36977 151.000
21.38972 164.000
21.40966 147.000
21.42961 166.000
21.44956 138.000
21.46950 143.000
21.48945 131.000
21.50940 142.000
21.52934 154.000
21.54929 126.000
21.56924 149.000
21.58918 162.000
21.60913 138.000
21.62908 168.000
21.64903 126.000
21.66897 132.000
21.68892 144.000
21.70887 130.000
21.72881 128.000
21.74876 149.000
21.76871 153.000
21.78865 145.000
21.80860 129.000
21.82855 122.000
21.84850 161.000
21.86844 170.000
21.88839 156.000
21.90834 125.000
21.92828 140.000
21.94823 179.000
21.96818 144.000
21.98812 136.000
22.00807 157.000
22.02802 187.000
22.04796 160.000
22.06791 145.000
22.08786 139.000
22.10781 160.000
22.12775 155.000
22.14770 140.000
22.16765 141.000
22.18759 132.000
22.20754 140.000
22.22749 145.000
22.24743 150.000
22.26738 133.000
22.28733 147.000
22.30728 171.000
22.32722 140.000
22.34717 139.000
22.36712 154.000
22.38706 156.000
22.40701 146.000
22.42696 124.000
22.44690 150.000
22.46685 151.000
22.48680 148.000
22.50675 132.000
22.52669 146.000
22.54664 164.000
22.56659 153.000
22.58653 120.000
22.60648 160.000
22.62643 134.000
22.64637 140.000
22.66632 148.000
22.68627 154.000
22.70621 173.000
22.72616 127.000
22.74611 148.000
22.76606 158.000
22.78600 150.000
22.80595 132.000
22.82590 146.000
22.84584 137.000
22.86579 146.000
22.88574 140.000
22.90568 170.000
22.92563 153.000
22.94558 137.000
22.96553 149.000
22.98547 147.000
23.00542 156.000
23.02537 150.000
23.04531 150.000
23.06526 144.000
23.08521 144.000
23.10515 158.000
23.12510 144.000
23.14505 154.000
23.16499 143.000
23.18494 149.000
23.20489 148.000
23.22484 130.000
23.24478 133.000
23.26473 157.000
23.28468 128.000
23.30462 136.000
23.32457 154.000
23.34452 159.000
23.36446 141.000
23.38441 139.000
23.40436 143.000
23.42431 119.000
23.44425 154.000
23.46420 143.000
23.48415 164.000
23.50409 150.000
23.52404 145.000
23.54399 141.000
23.56393 143.000
23.58388 160.000
23.60383 157.000
23.62377 146.000
23.64372 180.000
23.66367 139.000
23.68362 154.000
23.70356 154.000
23.72351 131.000
23.74346 146.000
23.76340 123.000
23.78335 140.000
23.80330 145.000
23.82324 177.000
23.84319 156.000
23.86314 152.000
23.88309 148.000
23.90303 139.000
23.92298 154.000
23.94293 149.000
23.96287 131.000
23.98282 140.000
24.00277 144.000
24.02271 135.000
24.04266 139.000
24.06261 152.000
24.08256 154.000
24.10250 165.000
24.12245 114.000
24.14240 131.000
24.16234 170.000
24.18229 140.000
24.20224 163.000
24.22218 142.000
24.24213 152.000
24.26208 148.000
24.28202 163.000
24.30197 149.000
24.32192 131.000
24.34187 160.000
24.36181 133.000
24.38176 152.000
24.40171 131.000
24.42165 134.000
24.44160 180.000
24.46155 147.000
24.48149 168.000
24.50144 174.000
24.52139 151.000
24.54134 151.000
24.56128 158.000
24.58123 150.000
24.60118 130.000
24.62112 156.000
24.64107 155.000
24.66102 150.000
24.68096 137.000
24.70091 169.000
24.72086 178.000
24.74080 132.000
24.76075 155.000
24.78070 160.000
24.80065 138.000
24.82059 157.000
24.84054 144.000
24.86049 147.000
24.88043 154.000
24.90038 117.000
24.92033 152.000
24.94027 158.000
24.96022 144.000
24.98017 153.000
25.00012 142.000
25.02006 151.000
25.04001 136.000
25.05996 150.000
25.07990 148.000
25.09985 141.000
25.11980 131.000
25.13974 152.000
25.15969 151.000
25.17964 153.000
25.19958 157.000
25.21953 162.000
25.23948 162.000
25.25943 170.000
25.27937 174.000
25.29932 173.000
25.31927 142.000
25.33921 148.000
25.35916 145.000
25.37911 146.000
25.39905 169.000
25.41900 170.000
25.43895 150.000
25.45890 147.000
25.47884 152.000
25.49879 141.000
25.51874 142.000
25.53868 147.000
25.55863 125.000
25.57858 150.000
25.59852 154.000
25.61847 157.000
25.63842 145.000
25.65837 151.000
25.67831 147.000
25.69826 147.000
25.71821 166.000
25.73815 147.000
25.75810 138.000
25.77805 157.000
25.79799 147.000
25.81794 159.000
25.83789 152.000
25.85783 149.000
25.87778 126.000
25.89773 137.000
25.91768 158.000
25.93762 150.000
25.95757 174.000
25.97752 152.000
25.99746 158.000
26.01741 153.000
26.03736 150.000
26.05730 166.000
26.07725 150.000
26.09720 155.000
26.11715 148.000
26.13709 127.000
26.15704 161.000
26.17699 162.000
26.19693 152.000
26.21688 160.000
26.23683 124.000
26.25677 173.000
26.27672 152.000
26.29667 154.000
26.31661 159.000
26.33656 146.000
26.35651 141.000
26.37646 172.000
26.39640 148.000
26.41635 145.000
26.43630 150.000
26.45624 162.000
26.47619 148.000
26.49614 156.000
26.51608 159.000
26.53603 185.000
26.55598 137.000
26.57593 156.000
26.59587 160.000
26.61582 140.000
26.63577 169.000
26.65571 183.000
26.67566 155.000
26.69561 147.000
26.71555 181.000
26.73550 178.000
26.75545 148.000
26.77539 158.000
26.79534 155.000
26.81529 153.000
26.83524 151.000
26.85518 144.000
26.87513 142.000
26.89508 170.000
26.91502 160.000
26.93497 155.000
26.95492 171.000
26.97486 151.000
26.99481 139.000
27.01476 161.000
27.03471 168.000
27.05465 168.000
27.07460 166.000
27.09455 158.000
27.11449 130.000
27.13444 139.000
27.15439 158.000
27.17433 161.000
27.19428 163.000
27.21423 160.000
27.23417 136.000
27.25412 146.000
27.27407 155.000
27.29402 161.000
27.31396 145.000
27.33391 147.000
27.35386 178.000
27.37380 160.000
27.39375 162.000
27.41370 148.000
27.43364 157.000
27.45359 146.000
27.47354 135.000
27.49349 158.000
27.51343 176.000
27.53338 166.000
27.55333 169.000
27.57327 136.000
27.59322 165.000
27.61317 164.000
27.63311 159.000
27.65306 160.000
27.67301 153.000
27.69296 166.000
27.71290 149.000
27.73285 155.000
27.75280 152.000
27.77274 144.000
27.79269 170.000
27.81264 175.000
27.83258 125.000
27.85253 152.000
27.87248 155.000
27.89242 159.000
27.91237 186.000
27.93232 132.000
27.95227 170.000
27.97221 151.000
27.99216 141.000
28.01211 135.000
28.03205 143.000
28.05200 149.000
28.07195 144.000
28.09189 145.000
28.11184 178.000
28.13179 197.000
28.15174 140.000
28.17168 164.000
28.19163 161.000
28.21158 150.000
28.23152 158.000
28.25147 174.000
28.27142 165.000
28.29136 148.000
28.31131 157.000
28.33126 146.000
28.35120 167.000
28.37115 160.000
28.39110 149.000
28.41105 142.000
28.43099 146.000
28.45094 156.000
28.47089 152.000
28.49083 149.000
28.51078 140.000
28.53073 143.000
28.55067 177.000
28.57062 175.000
28.59057 151.000
28.61052 143.000
28.63046 163.000
28.65041 137.000
28.67036 149.000
28.69030 135.000
28.71025 136.000
28.73020 156.000
28.75014 162.000
28.77009 156.000
28.79004 154.000
28.80998 154.000
28.82993 154.000
28.84988 158.000
28.86983 145.000
28.88977 157.000
28.90972 155.000
28.92967 154.000
28.94961 159.000
28.96956 175.000
28.98951 150.000
29.00945 140.000
29.02940 155.000
29.04935 147.000
29.06930 151.000
29.08924 145.000
29.10919 163.000
29.12914 168.000
29.14908 155.000
29.16903 154.000
29.18898 175.000
29.20892 143.000
29.22887 157.000
29.24882 148.000
29.26877 166.000
29.28871 161.000
29.30866 173.000
29.32861 165.000
29.34855 156.000
29.36850 157.000
29.38845 140.000
29.40839 154.000
29.42834 167.000
29.44829 150.000
29.46823 151.000
29.48818 156.000
29.50813 157.000
29.52808 129.000
29.54802 146.000
29.56797 146.000
29.58792 156.000
29.60786 158.000
29.62781 160.000
29.64776 157.000
29.66770 184.000
29.68765 154.000
29.70760 187.000
29.72755 157.000
29.74749 161.000
29.76744 170.000
29.78739 165.000
29.80733 163.000
29.82728 179.000
29.84723 130.000
29.86717 167.000
29.88712 168.000
29.90707 164.000
29.92701 182.000
29.94696 168.000
29.96691 204.000
29.98686 200.000
30.00680 179.000
30.02675 215.000
30.04670 256.000
30.06664 254.000
30.08659 315.000
30.10654 345.000
30.12648 426.000
30.14643 498.000
30.16638 550.000
30.18633 667.000
30.20627 650.000
30.22622 568.000
30.24617 487.000
30.26611 454.000
30.28606 402.000
30.30601 286.000
30.32595 243.000
30.34590 181.000
30.36585 201.000
30.38579 187.000
30.40574 169.000
30.42569 177.000
30.44564 175.000
30.46558 153.000
30.48553 142.000
30.50548 175.000
30.52542 160.000
30.54537 171.000
30.56532 178.000
30.58526 172.000
30.60521 165.000
30.62516 158.000
30.64511 175.000
30.66505 147.000
30.68500 167.000
30.70495 154.000
30.72489 178.000
30.74484 166.000
30.76479 146.000
30.78473 137.000
30.80468 139.000
30.82463 166.000
30.84458 174.000
30.86452 121.000
30.88447 162.000
30.90442 144.000
30.92436 158.000
30.94431 156.000
30.96426 192.000
30.98420 168.000
31.00415 148.000
31.02410 177.000
31.04404 181.000
31.06399 165.000
31.08394 146.000
31.10389 161.000
31.12383 172.000
31.14378 127.000
31.16373 173.000
31.18367 189.000
31.20362 145.000
31.22357 154.000
31.24351 162.000
31.26346 147.000
31.28341 167.000
31.30336 162.000
31.32330 160.000
31.34325 141.000
31.36320 147.000
31.38314 164.000
31.40309 182.000
31.42304 154.000
31.44298 195.000
31.46293 159.000
31.48288 177.000
31.50282 175.000
31.52277 169.000
31.54272 187.000
31.56267 150.000
31.58261 164.000
31.60256 180.000
31.62251 174.000
31.64245 168.000
31.66240 207.000
31.68235 180.000
31.70229 234.000
31.72224 256.000
31.74219 260.000
31.76214 285.000
31.78208 333.000
31.80203 410.000
31.82198 420.000
31.84192 444.000
31.86187 507.000
31.88182 454.000
31.90176 451.000
31.92171 448.000
31.94166 447.000
31.96160 375.000
31.98155 346.000
32.00150 287.000
32.02145 269.000
32.04139 224.000
32.06134 233.000
32.08129 214.000
32.10123 177.000
32.12118 202.000
32.14113 187.000
32.16107 166.000
32.18102 185.000
32.20097 171.000
32.22092 171.000
32.24086 159.000
32.26081 184.000
32.28076 144.000
32.30070 192.000
32.32065 167.000
32.34060 199.000
32.36054 166.000
32.38049 176.000
32.40044 199.000
32.42039 189.000
32.44033 204.000
32.46028 207.000
32.48023 218.000
32.50017 219.000
32.52012 225.000
32.54007 242.000
32.56001 209.000
32.57996 201.000
32.59991 192.000
32.61985 185.000
32.63980 189.000
32.65975 188.000
32.67970 151.000
32.69964 164.000
32.71959 168.000
32.73954 151.000
32.75948 130.000
32.77943 170.000
32.79938 169.000
32.81932 177.000
32.83927 141.000
32.85922 153.000
32.87917 156.000
32.89911 144.000
32.91906 154.000
32.93901 148.000
32.95895 154.000
32.97890 162.000
32.99885 182.000
33.01879 150.000
33.03874 176.000
33.05869 178.000
33.07863 157.000
33.09858 204.000
33.11853 156.000
33.13848 152.000
33.15842 156.000
33.17837 182.000
33.19832 165.000
33.21826 156.000
33.23821 158.000
33.25816 156.000
33.27810 158.000
33.29805 166.000
33.31800 144.000
33.33795 138.000
33.35789 173.000
33.37784 160.000
33.39779 154.000
33.41773 147.000
33.43768 151.000
33.45763 166.000
33.47757 169.000
33.49752 162.000
33.51747 164.000
33.53741 166.000
33.55736 166.000
33.57731 174.000
33.59726 186.000
33.61720 149.000
33.63715 161.000
33.65710 151.000
33.67704 156.000
33.69699 158.000
33.71694 185.000
33.73688 164.000
33.75683 162.000
33.77678 163.000
33.79673 155.000
33.81667 167.000
33.83662 151.000
33.85657 158.000
33.87651 180.000
33.89646 145.000
33.91641 165.000
33.93635 158.000
33.95630 198.000
33.97625 168.000
33.99620 142.000
34.01614 177.000
34.03609 169.000
34.05604 217.000
34.07598 184.000
34.09593 173.000
34.11588 162.000
34.13582 164.000
34.15577 146.000
34.17572 172.000
34.19566 172.000
34.21561 184.000
34.23556 186.000
34.25551 140.000
34.27545 189.000
34.29540 225.000
34.31535 167.000
34.33529 181.000
34.35524 186.000
34.37519 204.000
34.39513 190.000
34.41508 201.000
34.43503 221.000
34.45498 211.000
34.47492 201.000
34.49487 197.000
34.51482 204.000
34.53476 190.000
34.55471 193.000
34.57466 206.000
34.59460 207.000
34.61455 189.000
34.63450 202.000
34.65444 208.000
34.67439 205.000
34.69434 203.000
34.71429 186.000
34.73423 207.000
34.75418 177.000
34.77413 191.000
34.79407 194.000
34.81402 172.000
34.83397 209.000
34.85391 199.000
34.87386 191.000
34.89381 209.000
34.91376 195.000
34.93370 206.000
34.95365 182.000
34.97360 170.000
34.99354 198.000
35.01349 205.000
35.03344 191.000
35.05338 203.000
35.07333 211.000
35.09328 199.000
35.11322 229.000
35.13317 228.000
35.15312 216.000
35.17307 207.000
35.19301 221.000
35.21296 269.000
35.23291 256.000
35.25285 280.000
35.27280 294.000
35.29275 300.000
35.31269 333.000
35.33264 396.000
35.35259 548.000
35.37254 608.000
35.39248 794.000
35.41243 888.000
35.43238 1050.000
35.45232 1213.000
35.47227 1431.000
35.49222 1865.000
35.51216 2116.000
35.53211 2327.000
35.55206 2509.000
35.57201 2699.000
35.59195 2615.000
35.61190 2393.000
35.63185 2029.000
35.65179 1820.000
35.67174 1615.000
35.69169 1251.000
35.71163 1030.000
35.73158 796.000
35.75153 616.000
35.77147 469.000
35.79142 384.000
35.81137 324.000
35.83132 275.000
35.85126 252.000
35.87121 235.000
35.89116 229.000
35.91110 205.000
35.93105 190.000
35.95100 199.000
35.97094 189.000
35.99089 199.000
36.01084 185.000
36.03079 179.000
36.05073 184.000
36.07068 175.000
36.09063 171.000
36.11057 176.000
36.13052 180.000
36.15047 185.000
36.17041 172.000
36.19036 157.000
36.21031 177.000
36.23025 195.000
36.25020 181.000
36.27015 187.000
36.29010 177.000
36.31004 168.000
36.32999 186.000
36.34994 156.000
36.36988 187.000
36.38983 201.000
36.40978 191.000
36.42972 168.000
36.44967 193.000
36.46962 208.000
36.48957 200.000
36.50951 188.000
36.52946 214.000
36.54941 222.000
36.56935 208.000
36.58930 196.000
36.60925 173.000
36.62919 179.000
36.64914 168.000
36.66909 174.000
36.68903 171.000
36.70898 177.000
36.72893 160.000
36.74888 191.000
36.76882 157.000
36.78877 165.000
36.80872 180.000
36.82866 175.000
36.84861 167.000
36.86856 146.000
36.88850 163.000
36.90845 186.000
36.92840 141.000
36.94835 157.000
36.96829 176.000
36.98824 208.000
37.00819 215.000
37.02813 199.000
37.04808 170.000
37.06803 173.000
37.08797 191.000
37.10792 221.000
37.12787 215.000
37.14781 291.000
37.16776 283.000
37.18771 294.000
37.20766 287.000
37.22760 302.000
37.24755 220.000
37.26750 267.000
37.28744 263.000
37.30739 243.000
37.32734 228.000
37.34728 192.000
37.36723 177.000
37.38718 177.000
37.40713 174.000
37.42707 189.000
37.44702 176.000
37.46697 166.000
37.48691 148.000
37.50686 158.000
37.52681 175.000
37.54675 151.000
37.56670 168.000
37.58665 181.000
37.60660 139.000
37.62654 163.000
37.64649 159.000
37.66644 149.000
37.68638 144.000
37.70633 158.000
37.72628 144.000
37.74622 142.000
37.76617 177.000
37.78612 159.000
37.80606 159.000
37.82601 154.000
37.84596 180.000
37.86591 166.000
37.88585 176.000
37.90580 194.000
37.92575 182.000
37.94569 175.000
37.96564 183.000
37.98559 180.000
38.00553 182.000
38.02548 163.000
38.04543 181.000
38.06538 174.000
38.08532 165.000
38.10527 186.000
38.12522 163.000
38.14516 175.000
38.16511 154.000
38.18506 170.000
38.20500 205.000
38.22495 173.000
38.24490 179.000
38.26484 184.000
38.28479 162.000
38.30474 193.000
38.32469 170.000
38.34463 184.000
38.36458 170.000
38.38453 182.000
38.40447 215.000
38.42442 211.000
38.44437 205.000
38.46431 233.000
38.48426 234.000
38.50421 257.000
38.52416 273.000
38.54410 343.000
38.56405 364.000
38.58400 438.000
38.60394 529.000
38.62389 620.000
38.64384 714.000
38.66378 859.000
38.68373 912.000
38.70368 822.000
38.72362 808.000
38.74357 764.000
38.76352 778.000
38.78347 675.000
38.80341 673.000
38.82336 586.000
38.84331 536.000
38.86325 515.000
38.88320 505.000
38.90315 465.000
38.92309 414.000
38.94304 423.000
38.96299 426.000
38.98294 435.000
39.00288 442.000
39.02283 524.000
39.04278 519.000
39.06272 616.000
39.08267 702.000
39.10262 847.000
39.12256 903.000
39.14251 978.000
39.16246 1161.000
39.18241 1162.000
39.20235 1163.000
39.22230 1109.000
39.24225 1030.000
39.26219 915.000
39.28214 832.000
39.30209 710.000
39.32203 634.000
39.34198 491.000
39.36193 422.000
39.38187 383.000
39.40182 326.000
39.42177 278.000
39.44172 238.000
39.46166 212.000
39.48161 193.000
39.50156 199.000
39.52150 192.000
39.54145 196.000
39.56140 204.000
39.58134 178.000
39.60129 180.000
39.62124 156.000
39.64119 174.000
39.66113 189.000
39.68108 177.000
39.70103 166.000
39.72097 176.000
39.74092 147.000
39.76087 169.000
39.78081 176.000
39.80076 167.000
39.82071 162.000
39.84065 172.000
39.86060 143.000
39.88055 163.000
39.90050 155.000
39.92044 177.000
39.94039 154.000
39.96034 175.000
39.98028 170.000
40.00023 158.000
40.02018 179.000
40.04012 167.000
40.06007 162.000
40.08002 154.000
40.09997 147.000
40.11991 168.000
40.13986 137.000
40.15981 159.000
40.17975 161.000
40.19970 146.000
40.21965 165.000
40.23959 171.000
40.25954 161.000
40.27949 163.000
40.29943 168.000
40.31938 161.000
40.33933 144.000
40.35928 170.000
40.37922 173.000
40.39917 170.000
40.41912 178.000
40.43906 129.000
40.45901 156.000
40.47896 139.000
40.49890 159.000
40.51885 157.000
40.53880 180.000
40.55875 168.000
40.57869 194.000
40.59864 170.000
40.61859 158.000
40.63853 139.000
40.65848 159.000
40.67843 147.000
40.69837 152.000
40.71832 171.000
40.73827 147.000
40.75822 166.000
40.77816 157.000
40.79811 154.000
40.81806 170.000
40.83800 124.000
40.85795 161.000
40.87790 187.000
40.89784 162.000
40.91779 147.000
40.93774 161.000
40.95768 161.000
40.97763 153.000
40.99758 175.000
41.01753 148.000
41.03747 152.000
41.05742 139.000
41.07737 159.000
41.09731 151.000
41.11726 168.000
41.13721 174.000
41.15715 152.000
41.17710 164.000
41.19705 170.000
41.21700 153.000
41.23694 148.000
41.25689 190.000
41.27684 171.000
41.29678 179.000
41.31673 156.000
41.33668 159.000
41.35662 166.000
41.37657 174.000
41.39652 158.000
41.41646 172.000
41.43641 153.000
41.45636 175.000
41.47631 164.000
41.49625 148.000
41.51620 148.000
41.53615 157.000
41.55609 144.000
41.57604 157.000
41.59599 163.000
41.61593 155.000
41.63588 155.000
41.65583 157.000
41.67578 183.000
41.69572 166.000
41.71567 147.000
41.73562 154.000
41.75556 157.000
41.77551 147.000
41.79546 151.000
41.81540 156.000
41.83535 142.000
41.85530 143.000
41.87524 174.000
41.89519 165.000
41.91514 167.000
41.93509 153.000
41.95503 131.000
41.97498 149.000
41.99493 150.000
42.01487 131.000
42.03482 140.000
42.05477 155.000
42.07471 152.000
42.09466 181.000
42.11461 180.000
42.13456 152.000
42.15450 147.000
42.17445 157.000
42.19440 154.000
42.21434 168.000
42.23429 164.000
42.25424 158.000
42.27418 166.000
42.29413 163.000
42.31408 134.000
42.33403 155.000
42.35397 149.000
42.37392 176.000
42.39387 160.000
42.41381 150.000
42.43376 152.000
42.45371 158.000
42.47365 159.000
42.49360 158.000
42.51355 151.000
42.53349 171.000
42.55344 170.000
42.57339 186.000
42.59334 156.000
42.61328 143.000
42.63323 152.000
42.65318 169.000
42.67312 143.000
42.69307 155.000
42.71302 169.000
42.73296 167.000
42.75291 196.000
42.77286 163.000
42.79281 182.000
42.81275 175.000
42.83270 174.000
42.85265 181.000
42.87259 156.000
42.89254 177.000
42.91249 171.000
42.93243 178.000
42.95238 208.000
42.97233 194.000
42.99227 231.000
43.01222 225.000
43.03217 249.000
43.05212 268.000
43.07206 266.000
43.09201 346.000
43.11196 376.000
43.13190 412.000
43.15185 490.000
43.17180 528.000
43.19174 656.000
43.21169 718.000
43.23164 753.000
43.25159 830.000
43.27153 814.000
43.29148 771.000
43.31143 720.000
43.33137 636.000
43.35132 625.000
43.37127 631.000
43.39121 523.000
43.41116 432.000
43.43111 427.000
43.45105 349.000
43.47100 287.000
43.49095 261.000
43.51090 248.000
43.53084 185.000
43.55079 176.000
43.57074 195.000
43.59068 195.000
43.61063 196.000
43.63058 159.000
43.65052 197.000
43.67047 169.000
43.69042 187.000
43.71037 183.000
43.73031 167.000
43.75026 171.000
43.77021 182.000
43.79015 148.000
43.81010 154.000
43.83005 172.000
43.84999 153.000
43.86994 161.000
43.88989 163.000
43.90984 155.000
43.92978 177.000
43.94973 178.000
43.96968 151.000
43.98962 174.000
44.00957 157.000
44.02952 153.000
44.04946 181.000
44.06941 165.000
44.08936 151.000
44.10930 132.000
44.12925 152.000
44.14920 136.000
44.16915 157.000
44.18909 159.000
44.20904 174.000
44.22899 163.000
44.24893 153.000
44.26888 135.000
44.28883 150.000
44.30877 146.000
44.32872 146.000
44.34867 145.000
44.36862 156.000
44.38856 160.000
44.40851 156.000
44.42846 160.000
44.44840 175.000
44.46835 132.000
44.48830 163.000
44.50824 139.000
44.52819 173.000
44.54814 156.000
44.56808 161.000
44.58803 148.000
44.60798 166.000
44.62793 146.000
44.64787 142.000
44.66782 166.000
44.68777 149.000
44.70771 157.000
44.72766 155.000
44.74761 146.000
44.76755 149.000
44.78750 176.000
44.80745 171.000
44.82740 173.000
44.84734 151.000
44.86729 170.000
44.88724 140.000
44.90718 168.000
44.92713 161.000
44.94708 155.000
44.96702 134.000
44.98697 148.000
45.00692 134.000
45.02686 160.000
45.04681 154.000
45.06676 131.000
45.08671 146.000
45.10665 164.000
45.12660 160.000
45.14655 153.000
45.16649 156.000
45.18644 146.000
45.20639 161.000
45.22633 171.000
45.24628 158.000
45.26623 136.000
45.28618 147.000
45.30612 160.000
45.32607 137.000
45.34602 164.000
45.36596 128.000
45.38591 154.000
45.40586 152.000
45.42580 151.000
45.44575 174.000
45.46570 161.000
45.48565 149.000
45.50559 145.000
45.52554 147.000
45.54549 149.000
45.56543 152.000
45.58538 127.000
45.60533 164.000
45.62527 158.000
45.64522 124.000
45.66517 138.000
45.68511 141.000
45.70506 144.000
45.72501 166.000
45.74496 138.000
45.76490 148.000
45.78485 144.000
45.80480 160.000
45.82474 144.000
45.84469 155.000
45.86464 141.000
45.88458 137.000
45.90453 138.000
45.92448 131.000
45.94443 137.000
45.96437 131.000
45.98432 133.000
46.00427 172.000
46.02421 165.000
46.04416 176.000
46.06411 146.000
46.08405 136.000
46.10400 152.000
46.12395 138.000
46.14389 153.000
46.16384 171.000
46.18379 172.000
46.20374 145.000
46.22368 180.000
46.24363 170.000
46.26358 157.000
46.28352 156.000
46.30347 188.000
46.32342 180.000
46.34336 161.000
46.36331 177.000
46.38326 143.000
46.40321 172.000
46.42315 172.000
46.44310 143.000
46.46305 145.000
46.48299 142.000
46.50294 178.000
46.52289 162.000
46.54283 159.000
46.56278 175.000
46.58273 160.000
46.60267 139.000
46.62262 170.000
46.64257 174.000
46.66252 165.000
46.68246 149.000
46.70241 156.000
46.72236 151.000
46.74230 157.000
46.76225 174.000
46.78220 160.000
46.80214 160.000
46.82209 155.000
46.84204 153.000
46.86199 164.000
46.88193 136.000
46.90188 158.000
46.92183 167.000
46.94177 146.000
46.96172 143.000
46.98167 148.000
47.00161 164.000
47.02156 151.000
47.04151 162.000
47.06146 144.000
47.08140 156.000
47.10135 148.000
47.12130 156.000
47.14124 144.000
47.16119 151.000
47.18114 147.000
47.20108 161.000
47.22103 159.000
47.24098 161.000
47.26092 153.000
47.28087 157.000
47.30082 179.000
47.32077 169.000
47.34071 181.000
47.36066 165.000
47.38061 160.000
47.40055 193.000
47.42050 181.000
47.44045 166.000
47.46039 145.000
47.48034 164.000
47.50029 168.000
47.52024 165.000
47.54018 179.000
47.56013 144.000
47.58008 165.000
47.60002 173.000
47.61997 172.000
47.63992 136.000
47.65986 148.000
47.67981 160.000
47.69976 153.000
47.71970 149.000
47.73965 155.000
47.75960 158.000
47.77955 178.000
47.79949 155.000
47.81944 152.000
47.83939 152.000
47.85933 165.000
47.87928 168.000
47.89923 183.000
47.91917 157.000
47.93912 196.000
47.95907 154.000
47.97902 164.000
47.99896 168.000
48.01891 171.000
48.03886 173.000
48.05880 171.000
48.07875 185.000
48.09870 198.000
48.11864 184.000
48.13859 190.000
48.15854 182.000
48.17848 206.000
48.19843 210.000
48.21838 191.000
48.23833 210.000
48.25827 198.000
48.27822 259.000
48.29817 238.000
48.31811 274.000
48.33806 261.000
48.35801 311.000
48.37795 346.000
48.39790 382.000
48.41785 465.000
48.43780 548.000
48.45774 607.000
48.47769 789.000
48.49764 804.000
48.51758 952.000
48.53753 1006.000
48.55748 1013.000
48.57742 943.000
48.59737 957.000
48.61732 888.000
48.63726 877.000
48.65721 790.000
48.67716 754.000
48.69711 743.000
48.71705 714.000
48.73700 662.000
48.75695 589.000
48.77689 542.000
48.79684 485.000
48.81679 398.000
48.83673 379.000
48.85668 373.000
48.87663 317.000
48.89658 308.000
48.91652 275.000
48.93647 255.000
48.95642 230.000
48.97636 202.000
48.99631 193.000
49.01626 216.000
49.03620 219.000
49.05615 158.000
49.07610 190.000
49.09605 180.000
49.11599 150.000
49.13594 130.000
49.15589 162.000
49.17583 192.000
49.19578 161.000
49.21573 146.000
49.23567 157.000
49.25562 172.000
49.27557 154.000
49.29551 164.000
49.31546 159.000
49.33541 175.000
49.35536 202.000
49.37530 144.000
49.39525 142.000
49.41520 163.000
49.43514 171.000
49.45509 167.000
49.47504 179.000
49.49498 154.000
49.51493 165.000
49.53488 156.000
49.55483 143.000
49.57477 140.000
49.59472 161.000
49.61467 166.000
49.63461 150.000
49.65456 184.000
49.67451 147.000
49.69445 155.000
49.71440 158.000
49.73435 138.000
49.75429 141.000
49.77424 165.000
49.79419 178.000
49.81414 154.000
49.83408 151.000
49.85403 176.000
49.87398 139.000
49.89392 136.000
49.91387 148.000
49.93382 161.000
49.95376 172.000
49.97371 173.000
49.99366 149.000
50.01361 158.000
50.03355 132.000
50.05350 172.000
50.07345 153.000
50.09339 157.000
50.11334 160.000
50.13329 163.000
50.15323 155.000
50.17318 152.000
50.19313 150.000
50.21307 160.000
50.23302 156.000
50.25297 161.000
50.27292 138.000
50.29286 144.000
50.31281 151.000
50.33276 147.000
50.35270 160.000
50.37265 145.000
50.39260 148.000
50.41254 158.000
50.43249 158.000
50.45244 143.000
50.47239 140.000
50.49233 163.000
50.51228 125.000
50.53223 135.000
50.55217 139.000
50.57212 142.000
50.59207 137.000
50.61201 136.000
50.63196 153.000
50.65191 147.000
50.67186 145.000
50.69180 147.000
50.71175 153.000
50.73170 140.000
50.75164 138.000
50.77159 119.000
50.79154 161.000
50.81148 136.000
50.83143 178.000
50.85138 136.000
50.87132 152.000
50.89127 153.000
50.91122 136.000
50.93117 163.000
50.95111 154.000
50.97106 163.000
50.99101 128.000
51.01095 162.000
51.03090 144.000
51.05085 148.000
51.07079 140.000
51.09074 131.000
51.11069 164.000
51.13064 145.000
51.15058 159.000
51.17053 154.000
51.19048 153.000
51.21042 153.000
51.23037 158.000
51.25032 173.000
51.27026 166.000
51.29021 136.000
51.31016 146.000
51.33010 175.000
51.35005 149.000
51.37000 176.000
51.38995 144.000
51.40989 159.000
51.42984 160.000
51.44979 146.000
51.46973 158.000
51.48968 135.000
51.50963 162.000
51.52957 165.000
51.54952 167.000
51.56947 143.000
51.58942 159.000
51.60936 157.000
51.62931 126.000
51.64926 161.000
51.66920 163.000
51.68915 166.000
51.70910 186.000
51.72904 162.000
51.74899 162.000
51.76894 144.000
51.78888 139.000
51.80883 142.000
51.82878 153.000
51.84873 156.000
51.86867 159.000
51.88862 156.000
51.90857 149.000
51.92851 160.000
51.94846 149.000
51.96841 150.000
51.98835 160.000
52.00830 149.000
52.02825 170.000
52.04820 146.000
52.06814 161.000
52.08809 163.000
52.10804 149.000
52.12798 165.000
52.14793 149.000
52.16788 158.000
52.18782 139.000
52.20777 139.000
52.22772 137.000
52.24767 157.000
52.26761 142.000
52.28756 164.000
52.30751 139.000
52.32745 155.000
52.34740 146.000
52.36735 151.000
52.38729 150.000
52.40724 161.000
52.42719 167.000
52.44713 144.000
52.46708 164.000
52.48703 154.000
52.50698 161.000
52.52692 153.000
52.54687 163.000
52.56682 137.000
52.58676 145.000
52.60671 144.000
52.62666 162.000
52.64660 172.000
52.66655 116.000
52.68650 163.000
52.70645 159.000
52.72639 157.000
52.74634 161.000
52.76629 162.000
52.78623 157.000
52.80618 143.000
52.82613 179.000
52.84607 140.000
52.86602 138.000
52.88597 166.000
52.90591 164.000
52.92586 148.000
52.94581 138.000
52.96576 182.000
52.98570 145.000
53.00565 139.000
53.02560 147.000
53.04554 141.000
53.06549 131.000
53.08544 137.000
53.10538 150.000
53.12533 177.000
53.14528 169.000
53.16523 159.000
53.18517 169.000
53.20512 164.000
53.22507 160.000
53.24501 184.000
53.26496 197.000
53.28491 161.000
53.30485 198.000
53.32480 195.000
53.34475 176.000
53.36469 177.000
53.38464 200.000
53.40459 194.000
53.42454 204.000
53.44448 219.000
53.46443 200.000
53.48438 213.000
53.50432 225.000
53.52427 243.000
53.54422 257.000
53.56416 255.000
53.58411 234.000
53.60406 270.000
53.62401 292.000
53.64395 286.000
53.66390 240.000
53.68385 240.000
53.70379 280.000
53.72374 265.000
53.74369 251.000
53.76363 223.000
53.78358 235.000
53.80353 212.000
53.82348 216.000
53.84342 183.000
53.86337 202.000
53.88332 175.000
53.90326 175.000
53.92321 167.000
53.94316 168.000
53.96310 152.000
53.98305 145.000
54.00300 168.000
54.02294 158.000
54.04289 152.000
54.06284 138.000
54.08279 153.000
54.10273 134.000
54.12268 166.000
54.14263 145.000
54.16257 170.000
54.18252 159.000
54.20247 155.000
54.22241 166.000
54.24236 134.000
54.26231 170.000
54.28226 153.000
54.30220 163.000
54.32215 158.000
54.34210 154.000
54.36204 161.000
54.38199 162.000
54.40194 141.000
54.42188 149.000
54.44183 160.000
54.46178 156.000
54.48172 169.000
54.50167 149.000
54.52162 167.000
54.54157 164.000
54.56151 181.000
54.58146 155.000
54.60141 145.000
54.62135 152.000
54.64130 155.000
54.66125 141.000
54.68119 171.000
54.70114 138.000
54.72109 149.000
54.74104 168.000
54.76098 143.000
54.78093 135.000
54.80088 159.000
54.82082 133.000
54.84077 151.000
54.86072 158.000
54.88066 148.000
54.90061 148.000
54.92056 120.000
54.94050 166.000
54.96045 143.000
54.98040 155.000
55.00035 155.000
55.02029 175.000
55.04024 161.000
55.06019 150.000
55.08013 144.000
55.10008 138.000
55.12003 143.000
55.13997 137.000
55.15992 164.000
55.17987 179.000
55.19982 148.000
55.21976 165.000
55.23971 163.000
55.25966 174.000
55.27960 149.000
55.29955 167.000
55.31950 141.000
55.33944 149.000
55.35939 156.000
55.37934 159.000
55.39929 155.000
55.41923 159.000
55.43918 174.000
55.45913 150.000
55.47907 164.000
55.49902 167.000
55.51897 157.000
55.53891 140.000
55.55886 149.000
55.57881 155.000
55.59875 157.000
55.61870 142.000
55.63865 173.000
55.65860 153.000
55.67854 150.000
55.69849 158.000
55.71844 143.000
55.73838 160.000
55.75833 173.000
55.77828 167.000
55.79822 131.000
55.81817 148.000
55.83812 154.000
55.85807 151.000
55.87801 159.000
55.89796 145.000
55.91791 169.000
55.93785 165.000
55.95780 149.000
55.97775 153.000
55.99769 134.000
56.01764 150.000
56.03759 148.000
56.05753 147.000
56.07748 140.000
56.09743 133.000
56.11738 153.000
56.13732 145.000
56.15727 143.000
56.17722 150.000
56.19716 150.000
56.21711 163.000
56.23706 168.000
56.25700 137.000
56.27695 150.000
56.29690 140.000
56.31685 131.000
56.33679 164.000
56.35674 169.000
56.37669 155.000
56.39663 169.000
56.41658 179.000
56.43653 149.000
56.45647 176.000
56.47642 163.000
56.49637 164.000
56.51631 169.000
56.53626 167.000
56.55621 149.000
56.57616 172.000
56.59610 190.000
56.61605 142.000
56.63600 146.000
56.65594 167.000
56.67589 164.000
56.69584 182.000
56.71578 168.000
56.73573 169.000
56.75568 148.000
56.77563 173.000
56.79557 150.000
56.81552 177.000
56.83547 178.000
56.85541 175.000
56.87536 194.000
56.89531 178.000
56.91525 202.000
56.93520 187.000
56.95515 207.000
56.97510 216.000
56.99504 260.000
57.01499 214.000
57.03494 279.000
57.05488 274.000
57.07483 301.000
57.09478 312.000
57.11472 368.000
57.13467 409.000
57.15462 454.000
57.17456 437.000
57.19451 483.000
57.21446 490.000
57.23441 475.000
57.25435 454.000
57.27430 438.000
57.29425 390.000
57.31419 347.000
57.33414 354.000
57.35409 383.000
57.37403 334.000
57.39398 304.000
57.41393 286.000
57.43388 263.000
57.45382 228.000
57.47377 192.000
57.49372 193.000
57.51366 188.000
57.53361 181.000
57.55356 186.000
57.57350 183.000
57.59345 158.000
57.61340 156.000
57.63334 156.000
57.65329 156.000
57.67324 162.000
57.69319 145.000
57.71313 167.000
57.73308 135.000
57.75303 155.000
57.77297 164.000
57.79292 178.000
57.81287 164.000
57.83281 160.000
57.85276 149.000
57.87271 172.000
57.89266 173.000
57.91260 149.000
57.93255 172.000
57.95250 165.000
57.97244 168.000
57.99239 152.000
58.01234 177.000
58.03228 177.000
58.05223 163.000
58.07218 187.000
58.09212 171.000
58.11207 187.000
58.13202 211.000
58.15197 195.000
58.17191 223.000
58.19186 248.000
58.21181 220.000
58.23175 256.000
58.25170 229.000
58.27165 246.000
58.29159 220.000
58.31154 222.000
58.33149 213.000
58.35144 224.000
58.37138 214.000
58.39133 227.000
58.41128 202.000
58.43122 193.000
58.45117 180.000
58.47112 161.000
58.49106 165.000
58.51101 185.000
58.53096 163.000
58.55090 147.000
58.57085 156.000
58.59080 174.000
58.61075 196.000
58.63069 187.000
58.65064 167.000
58.67059 160.000
58.69053 146.000
58.71048 168.000
58.73043 149.000
58.75037 155.000
58.77032 146.000
58.79027 174.000
58.81022 132.000
58.83016 153.000
58.85011 165.000
58.87006 142.000
58.89000 160.000
58.90995 162.000
58.92990 139.000
58.94984 167.000
58.96979 141.000
58.98974 150.000
59.00969 172.000
59.02963 147.000
59.04958 181.000
59.06953 161.000
59.08947 147.000
59.10942 145.000
59.12937 157.000
59.14931 175.000
59.16926 155.000
59.18921 167.000
59.20915 151.000
59.22910 172.000
59.24905 155.000
59.26900 163.000
59.28894 177.000
59.30889 157.000
59.32884 147.000
59.34878 184.000
59.36873 154.000
59.38868 158.000
59.40862 166.000
59.42857 147.000
59.44852 165.000
59.46847 167.000
59.48841 176.000
59.50836 139.000
59.52831 168.000
59.54825 159.000
59.56820 147.000
59.58815 166.000
59.60809 158.000
59.62804 151.000
59.64799 163.000
59.66793 150.000
59.68788 153.000
59.70783 152.000
59.72778 149.000
59.74772 133.000
59.76767 164.000
59.78762 160.000
59.80756 147.000
59.82751 152.000
59.84746 172.000
59.86740 166.000
59.88735 171.000
59.90730 188.000
59.92725 154.000
59.94719 177.000
59.96714 153.000
59.98709 162.000
60.00703 147.000
60.02698 130.000
60.04693 180.000
60.06687 150.000
60.08682 146.000
60.10677 143.000
60.12671 144.000
60.14666 138.000
60.16661 136.000
60.18656 154.000
60.20650 162.000
60.22645 153.000
60.24640 163.000
60.26634 164.000
60.28629 173.000
60.30624 139.000
60.32618 154.000
60.34613 151.000
60.36608 164.000
60.38603 179.000
60.40597 162.000
60.42592 148.000
60.44587 168.000
60.46581 177.000
60.48576 138.000
60.50571 163.000
60.52565 135.000
60.54560 155.000
60.56555 159.000
60.58550 165.000
60.60544 152.000
60.62539 156.000
60.64534 199.000
60.66528 155.000
60.68523 150.000
60.70518 143.000
60.72512 145.000
60.74507 149.000
60.76502 143.000
60.78496 147.000
60.80491 160.000
60.82486 156.000
60.84481 161.000
60.86475 167.000
60.88470 166.000
60.90465 169.000
60.92459 144.000
60.94454 151.000
60.96449 162.000
60.98443 173.000
61.00438 153.000
61.02433 152.000
61.04428 149.000
61.06422 174.000
61.08417 177.000
61.10412 175.000
61.12406 147.000
61.14401 186.000
61.16396 202.000
61.18390 172.000
61.20385 190.000
61.22380 180.000
61.24374 182.000
61.26369 181.000
61.28364 166.000
61.30359 175.000
61.32353 191.000
61.34348 207.000
61.36343 200.000
61.38337 208.000
61.40332 226.000
61.42327 240.000
61.44321 255.000
61.46316 267.000
61.48311 326.000
61.50306 305.000
61.52300 323.000
61.54295 329.000
61.56290 368.000
61.58284 386.000
61.60279 379.000
61.62274 423.000
61.64268 410.000
61.66263 478.000
61.68258 487.000
61.70252 485.000
61.72247 523.000
61.74242 551.000
61.76237 520.000
61.78231 482.000
61.80226 444.000
61.82221 435.000
61.84215 437.000
61.86210 435.000
61.88205 409.000
61.90199 365.000
61.92194 372.000
61.94189 350.000
61.96184 325.000
61.98178 283.000
62.00173 280.000
62.02168 291.000
62.04162 232.000
62.06157 202.000
62.08152 220.000
62.10146 198.000
62.12141 192.000
62.14136 228.000
62.16131 219.000
62.18125 207.000
62.20120 169.000
62.22115 181.000
62.24109 177.000
62.26104 169.000
62.28099 171.000
62.30093 172.000
62.32088 188.000
62.34083 211.000
62.36077 191.000
62.38072 205.000
62.40067 188.000
62.42062 175.000
62.44056 215.000
62.46051 193.000
62.48046 215.000
62.50040 187.000
62.52035 232.000
62.54030 225.000
62.56024 238.000
62.58019 254.000
62.60014 255.000
62.62009 263.000
62.64003 321.000
62.65998 349.000
62.67993 340.000
62.69987 370.000
62.71982 404.000
62.73977 394.000
62.75971 433.000
62.77966 534.000
62.79961 564.000
62.81955 537.000
62.83950 555.000
62.85945 561.000
62.87940 511.000
62.89934 458.000
62.91929 443.000
62.93924 410.000
62.95918 401.000
62.97913 412.000
62.99908 353.000
63.01902 352.000
63.03897 351.000
63.05892 265.000
63.07887 282.000
63.09881 250.000
63.11876 232.000
63.13871 189.000
63.15865 208.000
63.17860 200.000
63.19855 203.000
63.21849 183.000
63.23844 208.000
63.25839 161.000
63.27833 161.000
63.29828 182.000
63.31823 152.000
63.33818 148.000
63.35812 173.000
63.37807 179.000
63.39802 140.000
63.41796 188.000
63.43791 163.000
63.45786 169.000
63.47780 190.000
63.49775 164.000
63.51770 186.000
63.53765 183.000
63.55759 180.000
63.57754 158.000
63.59749 167.000
63.61743 197.000
63.63738 170.000
63.65733 186.000
63.67727 170.000
63.69722 214.000
63.71717 203.000
63.73712 219.000
63.75706 213.000
63.77701 243.000
63.79696 218.000
63.81690 249.000
63.83685 242.000
63.85680 279.000
63.87674 277.000
63.89669 311.000
63.91664 312.000
63.93658 303.000
63.95653 326.000
63.97648 334.000
63.99643 397.000
64.01637 345.000
64.03632 390.000
64.05627 386.000
64.07621 345.000
64.09616 321.000
64.11611 353.000
64.13605 318.000
64.15600 319.000
64.17595 328.000
64.19590 293.000
64.21584 296.000
64.23579 274.000
64.25574 303.000
64.27568 276.000
64.29563 257.000
64.31558 248.000
64.33552 224.000
64.35547 225.000
64.37542 196.000
64.39536 196.000
64.41531 196.000
64.43526 204.000
64.45521 205.000
64.47515 204.000
64.49510 175.000
64.51505 196.000
64.53499 169.000
64.55494 166.000
64.57489 196.000
64.59483 193.000
64.61478 159.000
64.63473 168.000
64.65468 139.000
64.67462 160.000
64.69457 160.000
64.71452 182.000
64.73446 159.000
64.75441 179.000
64.77436 156.000
64.79430 162.000
64.81425 162.000
64.83420 167.000
64.85414 169.000
64.87409 163.000
64.89404 167.000
64.91399 168.000
64.93393 158.000
64.95388 154.000
64.97383 167.000
64.99377 156.000
65.01372 149.000
65.03367 146.000
65.05361 135.000
65.07356 140.000
65.09351 182.000
65.11346 169.000
65.13340 157.000
65.15335 163.000
65.17330 143.000
65.19324 172.000
65.21319 137.000
65.23314 151.000
65.25308 201.000
65.27303 171.000
65.29298 156.000
65.31293 139.000
65.33287 172.000
65.35282 160.000
65.37277 160.000
65.39271 172.000
65.41266 153.000
65.43261 177.000
65.45255 190.000
65.47250 196.000
65.49245 164.000
65.51239 181.000
65.53234 186.000
65.55229 180.000
65.57224 197.000
65.59218 227.000
65.61213 184.000
65.63208 192.000
65.65202 197.000
65.67197 183.000
65.69192 217.000
65.71186 203.000
65.73181 214.000
65.75176 225.000
65.77171 205.000
65.79165 187.000
65.81160 202.000
65.83155 223.000
65.85149 201.000
65.87144 198.000
65.89139 240.000
65.91133 212.000
65.93128 207.000
65.95123 246.000
65.97117 221.000
65.99112 206.000
66.01107 222.000
66.03102 241.000
66.05096 241.000
66.07091 230.000
66.09086 239.000
66.11080 247.000
66.13075 267.000
66.15070 306.000
66.17064 296.000
66.19059 297.000
66.21054 314.000
66.23049 360.000
66.25043 313.000
66.27038 336.000
66.29033 371.000
66.31027 366.000
66.33022 359.000
66.35017 346.000
66.37011 362.000
66.39006 364.000
66.41001 392.000
66.42995 383.000
66.44990 398.000
66.46985 347.000
66.48980 334.000
66.50974 337.000
66.52969 317.000
66.54964 311.000
66.56958 291.000
66.58953 308.000
66.60948 294.000
66.62942 263.000
66.64937 278.000
66.66932 242.000
66.68927 256.000
66.70921 264.000
66.72916 226.000
66.74911 248.000
66.76905 228.000
66.78900 230.000
66.80895 190.000
66.82889 223.000
66.84884 192.000
66.86879 184.000
66.88874 187.000
66.90868 206.000
66.92863 194.000
66.94858 178.000
66.96852 152.000
66.98847 150.000
67.00842 187.000
67.02836 175.000
67.04831 153.000
67.06826 157.000
67.08820 180.000
67.10815 165.000
67.12810 163.000
67.14805 177.000
67.16799 172.000
67.18794 137.000
67.20789 163.000
67.22783 174.000
67.24778 154.000
67.26773 158.000
67.28767 135.000
67.30762 171.000
67.32757 172.000
67.34752 157.000
67.36746 169.000
67.38741 154.000
67.40736 195.000
67.42730 165.000
67.44725 150.000
67.46720 158.000
67.48714 172.000
67.50709 160.000
67.52704 182.000
67.54698 169.000
67.56693 168.000
67.58688 192.000
67.60683 184.000
67.62677 169.000
67.64672 176.000
67.66667 153.000
67.68661 171.000
67.70656 155.000
67.72651 214.000
67.74645 184.000
67.76640 225.000
67.78635 197.000
67.80630 191.000
67.82624 226.000
67.84619 206.000
67.86614 220.000
67.88608 184.000
67.90603 244.000
67.92598 218.000
67.94592 218.000
67.96587 248.000
67.98582 249.000
68.00576 232.000
68.02571 243.000
68.04566 260.000
68.06561 241.000
68.08555 238.000
68.10550 238.000
68.12545 206.000
68.14539 223.000
68.16534 213.000
68.18529 201.000
68.20523 228.000
68.22518 197.000
68.24513 215.000
68.26508 200.000
68.28502 212.000
68.30497 202.000
68.32492 205.000
68.34486 189.000
68.36481 165.000
68.38476 188.000
68.40470 212.000
68.42465 165.000
68.44460 158.000
68.46455 171.000
68.48449 191.000
68.50444 167.000
68.52439 164.000
68.54433 158.000
68.56428 151.000
68.58423 159.000
68.60417 146.000
68.62412 183.000
68.64407 144.000
68.66401 124.000
68.68396 156.000
68.70391 154.000
68.72386 158.000
68.74380 160.000
68.76375 154.000
68.78370 158.000
68.80364 178.000
68.82359 157.000
68.84354 132.000
68.86348 167.000
68.88343 140.000
68.90338 149.000
68.92333 149.000
68.94327 146.000
68.96322 143.000
68.98317 172.000
69.00311 171.000
69.02306 157.000
69.04301 150.000
69.06295 143.000
69.08290 161.000
69.10285 161.000
69.12279 185.000
69.14274 160.000
69.16269 146.000
69.18264 181.000
69.20258 163.000
69.22253 134.000
69.24248 148.000
69.26242 147.000
69.28237 158.000
69.30232 170.000
69.32226 148.000
69.34221 158.000
69.36216 145.000
69.38211 146.000
69.40205 151.000
69.42200 151.000
69.44195 175.000
69.46189 157.000
69.48184 144.000
69.50179 181.000
69.52173 175.000
69.54168 164.000
69.56163 173.000
69.58157 159.000
69.60152 155.000
69.62147 156.000
69.64142 149.000
69.66136 149.000
69.68131 121.000
69.70126 152.000
69.72120 146.000
69.74115 161.000
69.76110 143.000
69.78104 145.000
69.80099 148.000
69.82094 162.000
69.84089 133.000
69.86083 157.000
69.88078 161.000
69.90073 154.000
69.92067 160.000
69.94062 156.000
69.96057 127.000
69.98051 174.000
70.00046 152.000
70.02041 155.000
70.04035 143.000
70.06030 146.000
70.08025 144.000
70.10020 157.000
70.12014 176.000
70.14009 156.000
70.16004 160.000
70.17998 144.000
70.19993 158.000
70.21988 162.000
70.23982 153.000
70.25977 134.000
70.27972 133.000
70.29967 142.000
70.31961 128.000
70.33956 167.000
70.35951 166.000
70.37945 171.000
70.39940 169.000
70.41935 149.000
70.43929 168.000
70.45924 155.000
70.47919 164.000
70.49914 142.000
70.51908 153.000
70.53903 159.000
70.55898 146.000
70.57892 146.000
70.59887 154.000
70.61882 159.000
70.63876 139.000
70.65871 154.000
70.67866 137.000
70.69860 156.000
70.71855 120.000
70.73850 152.000
70.75845 155.000
70.77839 159.000
70.79834 168.000
70.81829 168.000
70.83823 158.000
70.85818 143.000
70.87813 143.000
70.89807 157.000
70.91802 140.000
70.93797 148.000
70.95792 154.000
70.97786 161.000
70.99781 162.000
71.01776 176.000
71.03770 136.000
71.05765 188.000
71.07760 181.000
71.09754 169.000
71.11749 179.000
71.13744 150.000
71.15738 149.000
71.17733 158.000
71.19728 169.000
71.21723 167.000
71.23717 187.000
71.25712 182.000
71.27707 186.000
71.29701 189.000
71.31696 181.000
71.33691 186.000
71.35685 207.000
71.37680 205.000
71.39675 154.000
71.41670 163.000
71.43664 160.000
71.45659 167.000
71.47654 185.000
71.49648 160.000
71.51643 170.000
71.53638 160.000
71.55632 172.000
71.57627 167.000
71.59622 170.000
71.61616 163.000
71.63611 140.000
71.65606 158.000
71.67601 174.000
71.69595 170.000
71.71590 164.000
71.73585 149.000
71.75579 146.000
71.77574 169.000
71.79569 156.000
71.81563 156.000
71.83558 141.000
71.85553 161.000
71.87548 153.000
71.89542 170.000
71.91537 150.000
71.93532 147.000
71.95526 133.000
71.97521 153.000
71.99516 164.000
72.01510 158.000
72.03505 133.000
72.05500 161.000
72.07495 157.000
72.09489 166.000
72.11484 151.000
72.13479 169.000
72.15473 147.000
72.17468 175.000
72.19463 208.000
72.21457 167.000
72.23452 170.000
72.25447 171.000
72.27441 170.000
72.29436 184.000
72.31431 196.000
72.33426 200.000
72.35420 196.000
72.37415 216.000
72.39410 186.000
72.41404 191.000
72.43399 177.000
72.45394 167.000
72.47388 188.000
72.49383 170.000
72.51378 179.000
72.53373 178.000
72.55367 155.000
72.57362 177.000
72.59357 172.000
72.61351 182.000
72.63346 197.000
72.65341 170.000
72.67335 169.000
72.69330 153.000
72.71325 143.000
72.73319 149.000
72.75314 156.000
72.77309 163.000
72.79304 142.000
72.81298 155.000
72.83293 162.000
72.85288 156.000
72.87282 157.000
72.89277 137.000
72.91272 167.000
72.93266 148.000
72.95261 182.000
72.97256 162.000
72.99251 168.000
73.01245 170.000
73.03240 174.000
73.05235 161.000
73.07229 176.000
73.09224 176.000
73.11219 170.000
73.13213 209.000
73.15208 184.000
73.17203 210.000
73.19197 199.000
73.21192 204.000
73.23187 228.000
73.25182 211.000
73.27176 210.000
73.29171 222.000
73.31166 234.000
73.33160 226.000
73.35155 223.000
73.37150 190.000
73.39144 200.000
73.41139 210.000
73.43134 221.000
73.45129 203.000
73.47123 202.000
73.49118 220.000
73.51113 223.000
73.53107 187.000
73.55102 205.000
73.57097 176.000
73.59091 174.000
73.61086 180.000
73.63081 154.000
73.65076 160.000
73.67070 159.000
73.69065 148.000
73.71060 165.000
73.73054 153.000
73.75049 165.000
73.77044 137.000
73.79038 158.000
73.81033 179.000
73.83028 178.000
73.85022 168.000
73.87017 164.000
73.89012 169.000
73.91007 166.000
73.93001 178.000
73.94996 161.000
73.96991 144.000
73.98985 155.000
74.00980 142.000
74.02975 172.000
74.04969 176.000
74.06964 186.000
74.08959 164.000
74.10954 165.000
74.12948 168.000
74.14943 184.000
74.16938 211.000
74.18932 182.000
74.20927 191.000
74.22922 199.000
74.24916 198.000
74.26911 193.000
74.28906 216.000
74.30900 227.000
74.32895 207.000
74.34890 213.000
74.36885 207.000
74.38879 238.000
74.40874 206.000
74.42869 200.000
74.44863 196.000
74.46858 212.000
74.48853 203.000
74.50847 198.000
74.52842 194.000
74.54837 193.000
74.56832 185.000
74.58826 214.000
74.60821 186.000
74.62816 194.000
74.64810 173.000
74.66805 171.000
74.68800 168.000
74.70794 174.000
74.72789 181.000
74.74784 174.000
74.76778 168.000
74.78773 159.000
74.80768 157.000
74.82763 153.000
74.84757 179.000
74.86752 207.000
74.88747 188.000
74.90741 206.000
74.92736 205.000
74.94731 205.000
74.96725 217.000
74.98720 202.000
75.00715 191.000
75.02710 201.000
75.04704 182.000
75.06699 198.000
75.08694 228.000
75.10688 208.000
75.12683 217.000
75.14678 229.000
75.16672 250.000
75.18667 243.000
75.20662 209.000
75.22657 214.000
75.24651 235.000
75.26646 232.000
75.28641 251.000
75.30635 231.000
75.32630 203.000
75.34625 202.000
75.36619 246.000
75.38614 233.000
75.40609 202.000
75.42603 212.000
75.44598 217.000
75.46593 199.000
75.48588 203.000
75.50582 197.000
75.52577 221.000
75.54572 209.000
75.56566 221.000
75.58561 208.000
75.60556 216.000
75.62550 194.000
75.64545 205.000
75.66540 168.000
75.68535 201.000
75.70529 184.000
75.72524 176.000
75.74519 178.000
75.76513 166.000
75.78508 186.000
75.80503 162.000
75.82497 168.000
75.84492 172.000
75.86487 138.000
75.88481 171.000
75.90476 152.000
75.92471 169.000
75.94466 148.000
75.96460 139.000
75.98455 140.000
76.00450 158.000
76.02444 152.000
76.04439 156.000
76.06434 142.000
76.08428 172.000
76.10423 152.000
76.12418 141.000
76.14413 157.000
76.16407 158.000
76.18402 153.000
76.20397 142.000
76.22391 162.000
76.24386 149.000
76.26381 156.000
76.28375 164.000
76.30370 165.000
76.32365 157.000
76.34359 163.000
76.36354 155.000
76.38349 125.000
76.40344 154.000
76.42338 146.000
76.44333 138.000
76.46328 144.000
76.48322 176.000
76.50317 168.000
76.52312 125.000
76.54306 147.000
76.56301 156.000
76.58296 166.000
76.60291 140.000
76.62285 146.000
76.64280 158.000
76.66275 160.000
76.68269 164.000
76.70264 159.000
76.72259 151.000
76.74253 162.000
76.76248 144.000
76.78243 159.000
76.80238 140.000
76.82232 161.000
76.84227 151.000
76.86222 151.000
76.88216 143.000
76.90211 167.000
76.92206 173.000
76.94200 135.000
76.96195 201.000
76.98190 140.000
77.00184 156.000
77.02179 148.000
77.04174 161.000
77.06169 159.000
77.08163 158.000
77.10158 155.000
77.12153 163.000
77.14147 172.000
77.16142 153.000
77.18137 167.000
77.20131 172.000
77.22126 155.000
77.24121 150.000
77.26116 154.000
77.28110 168.000
77.30105 183.000
77.32100 163.000
77.34094 177.000
77.36089 175.000
77.38084 164.000
77.40078 167.000
77.42073 164.000
77.44068 180.000
77.46062 179.000
77.48057 170.000
77.50052 160.000
77.52047 178.000
77.54041 212.000
77.56036 191.000
77.58031 214.000
77.60025 222.000
77.62020 222.000
77.64015 212.000
77.66009 209.000
77.68004 230.000
77.69999 209.000
77.71994 250.000
77.73988 224.000
77.75983 229.000
77.77978 235.000
77.79972 253.000
77.81967 238.000
77.83962 254.000
77.85956 240.000
77.87951 269.000
77.89946 281.000
77.91940 234.000
77.93935 224.000
77.95930 263.000
77.97925 243.000
77.99919 240.000
78.01914 222.000
78.03909 219.000
78.05903 244.000
78.07898 222.000
78.09893 233.000
78.11887 203.000
78.13882 223.000
78.15877 226.000
78.17872 213.000
78.19866 192.000
78.21861 190.000
78.23856 215.000
78.25850 194.000
78.27845 193.000
78.29840 171.000
78.31834 156.000
78.33829 168.000
78.35824 181.000
78.37819 175.000
78.39813 170.000
78.41808 156.000
78.43803 178.000
78.45797 169.000
78.47792 140.000
78.49787 158.000
78.51781 161.000
78.53776 152.000
78.55771 144.000
78.57765 148.000
78.59760 151.000
78.61755 161.000
78.63750 168.000
78.65744 156.000
78.67739 167.000
78.69734 143.000
78.71728 160.000
78.73723 175.000
78.75718 132.000
78.77712 153.000
78.79707 131.000
78.81702 156.000
78.83697 148.000
78.85691 156.000
78.87686 156.000
78.89681 131.000
78.91675 159.000
78.93670 151.000
78.95665 177.000
78.97659 158.000
78.99654 171.000
79.01649 169.000
79.03643 165.000
79.05638 159.000
79.07633 169.000
79.09628 173.000
79.11622 151.000
79.13617 173.000
79.15612 176.000
79.17606 172.000
79.19601 162.000
79.21596 158.000
79.23590 185.000
79.25585 163.000
79.27580 179.000
79.29575 180.000
79.31569 172.000
79.33564 169.000
79.35559 184.000
79.37553 173.000
79.39548 196.000
79.41543 156.000
79.43537 154.000
79.45532 169.000
79.47527 170.000
79.49521 158.000
79.51516 159.000
79.53511 148.000
79.55506 170.000
79.57500 179.000
79.59495 171.000
79.61490 138.000
79.63484 149.000
79.65479 144.000
79.67474 174.000
79.69468 151.000
79.71463 180.000
79.73458 172.000
79.75453 154.000
79.77447 157.000
79.79442 154.000
79.81437 163.000
79.83431 140.000
79.85426 141.000
79.87421 159.000
79.89415 159.000
79.91410 153.000
79.93405 164.000
79.95399 166.000
79.97394 154.000
79.99389 147.000
80.01384 175.000
80.03378 143.000
80.05373 160.000
80.07368 138.000
80.09362 175.000
80.11357 165.000
80.13352 158.000
80.15346 188.000
80.17341 167.000
80.19336 165.000
80.21331 184.000
80.23325 181.000
80.25320 148.000
80.27315 162.000
80.29309 157.000
80.31304 176.000
80.33299 162.000
80.35293 162.000
80.37288 171.000
80.39283 180.000
80.41278 155.000
80.43272 177.000
80.45267 185.000
80.47262 168.000
80.49256 168.000
80.51251 165.000
80.53246 137.000
80.55240 160.000
80.57235 165.000
80.59230 163.000
80.61224 151.000
80.63219 151.000
80.65214 151.000
80.67209 158.000
80.69203 133.000
80.71198 136.000
80.73193 160.000
80.75187 157.000
80.77182 133.000
80.79177 182.000
80.81171 187.000
80.83166 158.000
80.85161 131.000
80.87156 169.000
80.89150 163.000
80.91145 154.000
80.93140 132.000
80.95134 149.000
80.97129 142.000
80.99124 164.000
81.01118 152.000
81.03113 149.000
81.05108 156.000
81.07102 132.000
81.09097 151.000
81.11092 158.000
81.13087 175.000
81.15081 156.000
81.17076 150.000
81.19071 139.000
81.21065 168.000
81.23060 171.000
81.25055 154.000
81.27049 170.000
81.29044 133.000
81.31039 156.000
81.33034 137.000
81.35028 179.000
81.37023 162.000
81.39018 143.000
81.41012 167.000
81.43007 131.000
81.45002 148.000
81.46996 126.000
81.48991 153.000
81.50986 148.000
81.52980 145.000
81.54975 151.000
81.56970 142.000
81.58965 152.000
81.60959 151.000
81.62954 133.000
81.64949 148.000
81.66943 155.000
81.68938 148.000
81.70933 142.000
81.72927 154.000
81.74922 141.000
81.76917 161.000
81.78912 137.000
81.80906 169.000
81.82901 156.000
81.84896 164.000
81.86890 145.000
81.88885 142.000
81.90880 146.000
81.92874 159.000
81.94869 166.000
81.96864 162.000
81.98859 143.000
82.00853 149.000
82.02848 178.000
82.04843 164.000
82.06837 144.000
82.08832 155.000
82.10827 168.000
82.12821 147.000
82.14816 163.000
82.16811 156.000
82.18805 163.000
82.20800 151.000
82.22795 169.000
82.24790 158.000
82.26784 164.000
82.28779 202.000
82.30774 175.000
82.32768 178.000
82.34763 169.000
82.36758 208.000
82.38752 194.000
82.40747 192.000
82.42742 194.000
82.44737 188.000
82.46731 181.000
82.48726 173.000
82.50721 198.000
82.52715 153.000
82.54710 182.000
82.56705 167.000
82.58699 150.000
82.60694 137.000
82.62689 161.000
82.64683 190.000
82.66678 165.000
82.68673 195.000
82.70668 160.000
82.72662 139.000
82.74657 166.000
82.76652 153.000
82.78646 151.000
82.80641 174.000
82.82636 171.000
82.84630 175.000
82.86625 164.000
82.88620 157.000
82.90615 168.000
82.92609 170.000
82.94604 169.000
82.96599 168.000
82.98593 162.000
83.00588 144.000
83.02583 158.000
83.04577 172.000
83.06572 155.000
83.08567 152.000
83.10561 155.000
83.12556 148.000
83.14551 151.000
83.16546 167.000
83.18540 177.000
83.20535 185.000
83.22530 186.000
83.24524 149.000
83.26519 170.000
83.28514 145.000
83.30508 170.000
83.32503 164.000
83.34498 158.000
83.36493 168.000
83.38487 163.000
83.40482 169.000
83.42477 165.000
83.44471 166.000
83.46466 180.000
83.48461 171.000
83.50455 178.000
83.52450 158.000
83.54445 184.000
83.56440 161.000
83.58434 176.000
83.60429 162.000
83.62424 177.000
83.64418 174.000
83.66413 189.000
83.68408 161.000
83.70402 177.000
83.72397 167.000
83.74392 192.000
83.76386 186.000
83.78381 174.000
83.80376 159.000
83.82371 181.000
83.84365 176.000
83.86360 183.000
83.88355 186.000
83.90349 185.000
83.92344 187.000
83.94339 181.000
83.96333 183.000
83.98328 183.000
84.00323 160.000
84.02318 169.000
84.04312 205.000
84.06307 192.000
84.08302 184.000
84.10296 195.000
84.12291 207.000
84.14286 204.000
84.16280 206.000
84.18275 225.000
84.20270 229.000
84.22264 221.000
84.24259 217.000
84.26254 198.000
84.28249 215.000
84.30243 258.000
84.32238 216.000
84.34233 244.000
84.36227 227.000
84.38222 247.000
84.40217 211.000
84.42211 222.000
84.44206 206.000
84.46201 234.000
84.48196 186.000
84.50190 225.000
84.52185 225.000
84.54180 199.000
84.56174 196.000
84.58169 168.000
84.60164 180.000
84.62158 172.000
84.64153 159.000
84.66148 214.000
84.68142 169.000
84.70137 163.000
84.72132 195.000
84.74127 164.000
84.76121 161.000
84.78116 152.000
84.80111 185.000
84.82105 146.000
84.84100 155.000
84.86095 165.000
84.88089 184.000
84.90084 165.000
84.92079 146.000
84.94074 144.000
84.96068 163.000
84.98063 169.000
85.00058 134.000
85.02052 160.000
85.04047 158.000
85.06042 144.000
85.08036 178.000
85.10031 164.000
85.12026 149.000
85.14021 153.000
85.16015 149.000
85.18010 144.000
85.20005 153.000
85.21999 156.000
85.23994 159.000
85.25989 121.000
85.27983 174.000
85.29978 144.000
85.31973 170.000
85.33967 145.000
85.35962 139.000
85.37957 170.000
85.39952 158.000
85.41946 144.000
85.43941 146.000
85.45936 171.000
85.47930 153.000
85.49925 174.000
85.51920 137.000
85.53914 132.000
85.55909 173.000
85.57904 143.000
85.59899 134.000
85.61893 155.000
85.63888 157.000
85.65883 134.000
85.67877 162.000
85.69872 136.000
85.71867 137.000
85.73861 141.000
85.75856 143.000
85.77851 148.000
85.79845 137.000
85.81840 135.000
85.83835 143.000
85.85830 155.000
85.87824 169.000
85.89819 165.000
85.91814 158.000
85.93808 157.000
85.95803 154.000
85.97798 145.000
85.99792 150.000
86.01787 143.000
86.03782 153.000
86.05777 180.000
86.07771 132.000
86.09766 144.000
86.11761 148.000
86.13755 157.000
86.15750 159.000
86.17745 164.000
86.19739 146.000
86.21734 151.000
86.23729 187.000
86.25723 149.000
86.27718 142.000
86.29713 143.000
86.31708 138.000
86.33702 141.000
86.35697 155.000
86.37692 159.000
86.39686 144.000
86.41681 177.000
86.43676 187.000
86.45670 159.000
86.47665 187.000
86.49660 148.000
86.51655 148.000
86.53649 176.000
86.55644 153.000
86.57639 160.000
86.59633 153.000
86.61628 180.000
86.63623 159.000
86.65617 157.000
86.67612 175.000
86.69607 168.000
86.71602 155.000
86.73596 185.000
86.75591 152.000
86.77586 185.000
86.79580 149.000
86.81575 163.000
86.83570 159.000
86.85564 162.000
86.87559 191.000
86.89554 184.000
86.91548 165.000
86.93543 174.000
86.95538 186.000
86.97533 163.000
86.99527 200.000
87.01522 177.000
87.03517 170.000
87.05511 169.000
87.07506 169.000
87.09501 177.000
87.11495 181.000
87.13490 179.000
87.15485 192.000
87.17480 189.000
87.19474 189.000
87.21469 172.000
87.23464 163.000
87.25458 189.000
87.27453 185.000
87.29448 188.000
87.31442 171.000
87.33437 191.000
87.35432 174.000
87.37426 192.000
87.39421 183.000
87.41416 182.000
87.43411 195.000
87.45405 168.000
87.47400 175.000
87.49395 169.000
87.51389 171.000
87.53384 164.000
87.55379 174.000
87.57373 178.000
87.59368 145.000
87.61363 185.000
87.63358 146.000
87.65352 173.000
87.67347 147.000
87.69342 160.000
87.71336 174.000
87.73331 153.000
87.75326 177.000
87.77320 155.000
87.79315 142.000
87.81310 156.000
87.83304 151.000
87.85299 133.000
87.87294 146.000
87.89289 155.000
87.91283 153.000
87.93278 174.000
87.95273 185.000
87.97267 164.000
87.99262 137.000
88.01257 140.000
88.03251 150.000
88.05246 161.000
88.07241 162.000
88.09236 151.000
88.11230 166.000
88.13225 144.000
88.15220 141.000
88.17214 147.000
88.19209 161.000
88.21204 163.000
88.23198 138.000
88.25193 139.000
88.27188 143.000
88.29183 134.000
88.31177 124.000
88.33172 148.000
88.35167 130.000
88.37161 155.000
88.39156 163.000
88.41151 154.000
88.43145 152.000
88.45140 156.000
88.47135 138.000
88.49129 148.000
88.51124 156.000
88.53119 169.000
88.55114 152.000
88.57108 159.000
88.59103 146.000
88.61098 150.000
88.63092 145.000
88.65087 159.000
88.67082 146.000
88.69076 151.000
88.71071 140.000
88.73066 182.000
88.75061 164.000
88.77055 130.000
88.79050 145.000
88.81045 153.000
88.83039 165.000
88.85034 163.000
88.87029 168.000
88.89023 169.000
88.91018 141.000
88.93013 168.000
88.95007 179.000
88.97002 160.000
88.98997 147.000
89.00992 160.000
89.02986 180.000
89.04981 151.000
89.06976 137.000
89.08970 149.000
89.10965 156.000
89.12960 164.000
89.14954 140.000
89.16949 163.000
89.18944 180.000
89.20939 142.000
89.22933 149.000
89.24928 129.000
89.26923 137.000
89.28917 166.000
89.30912 162.000
89.32907 161.000
89.34901 151.000
89.36896 157.000
89.38891 167.000
89.40885 148.000
89.42880 161.000
89.44875 161.000
89.46870 161.000
89.48864 175.000
89.50859 146.000
89.52854 167.000
89.54848 164.000
89.56843 188.000
89.58838 153.000
89.60832 169.000
89.62827 199.000
89.64822 179.000
89.66817 177.000
89.68811 157.000
89.70806 185.000
89.72801 207.000
89.74795 182.000
89.76790 151.000
89.78785 197.000
89.80779 192.000
89.82774 176.000
89.84769 190.000
89.86764 195.000
89.88758 192.000
89.90753 224.000
89.92748 208.000
89.94742 221.000
89.96737 195.000
89.98732 239.000
90.00726 230.000
