10.00000 136.000
10.01995 135.000
10.03989 121.000
10.05984 142.000
10.07979 134.000
10.09973 131.000
10.11968 121.000
10.13963 130.000
10.15958 144.000
10.17952 123.000
10.19947 114.000
10.21942 140.000
10.23936 137.000
10.25931 147.000
10.27926 135.000
10.29920 111.000
10.31915 139.000
10.33910 123.000
10.35905 139.000
10.37899 132.000
10.39894 134.000
10.41889 109.000
10.43883 160.000
10.45878 146.000
10.47873 131.000
10.49867 117.000
10.51862 128.000
10.53857 104.000
10.55851 123.000
10.57846 137.000
10.59841 125.000
10.61836 145.000
10.63830 119.000
10.65825 112.000
10.67820 108.000
10.69814 126.000
10.71809 134.000
10.73804 135.000
10.75798 147.000
10.77793 125.000
10.79788 149.000
10.81783 120.000
10.83777 135.000
10.85772 133.000
10.87767 122.000
10.89761 105.000
10.91756 110.000
10.93751 116.000
10.95745 128.000
10.97740 121.000
10.99735 117.000
11.01730 129.000
11.03724 139.000
11.05719 121.000
11.07714 134.000
11.09708 118.000
11.11703 136.000
11.13698 116.000
11.15692 122.000
11.17687 121.000
11.19682 116.000
11.21676 152.000
11.23671 136.000
11.25666 127.000
11.27661 131.000
11.29655 141.000
11.31650 122.000
11.33645 113.000
11.35639 118.000
11.37634 130.000
11.39629 149.000
11.41623 128.000
11.43618 140.000
11.45613 113.000
11.47608 130.000
11.49602 118.000
11.51597 142.000
11.53592 130.000
11.55586 131.000
11.57581 122.000
11.59576 141.000
11.61570 128.000
11.63565 134.000
11.65560 136.000
11.67554 130.000
11.69549 131.000
11.71544 144.000
11.73539 119.000
11.75533 125.000
11.77528 120.000
11.79523 150.000
11.81517 127.000
11.83512 127.000
11.85507 133.000
11.87501 128.000
11.89496 118.000
11.91491 111.000
11.93486 120.000
11.95480 119.000
11.97475 121.000
11.99470 117.000
12.01464 134.000
12.03459 118.000
12.05454 120.000
12.07448 119.000
12.09443 139.000
12.11438 135.000
12.13432 140.000
12.15427 114.000
12.17422 109.000
12.19417 140.000
12.21411 133.000
12.23406 135.000
12.25401 143.000
12.27395 128.000
12.29390 126.000
12.31385 130.000
12.33379 125.000
12.35374 125.000
12.37369 151.000
12.39364 143.000
12.41358 135.000
12.43353 143.000
12.45348 145.000
12.47342 143.000
12.49337 140.000
12.51332 129.000
12.53326 132.000
12.55321 121.000
12.57316 123.000
12.59311 136.000
12.61305 125.000
12.63300 106.000
12.65295 136.000
12.67289 116.000
12.69284 117.000
12.71279 118.000
12.73273 139.000
12.75268 122.000
12.77263 131.000
12.79257 136.000
12.81252 134.000
12.83247 156.000
12.85242 133.000
12.87236 131.000
12.89231 132.000
12.91226 122.000
12.93220 113.000
12.95215 115.000
12.97210 119.000
12.99204 123.000
13.01199 142.000
13.03194 129.000
13.05189 134.000
13.07183 128.000
13.09178 143.000
13.11173 155.000
13.13167 149.000
13.15162 114.000
13.17157 121.000
13.19151 129.000
13.21146 142.000
13.23141 125.000
13.25135 134.000
13.27130 115.000
13.29125 122.000
13.31120 133.000
13.33114 119.000
13.35109 137.000
13.37104 134.000
13.39098 129.000
13.41093 140.000
13.43088 135.000
13.45082 124.000
13.47077 138.000
13.49072 125.000
13.51067 126.000
13.53061 120.000
13.55056 138.000
13.57051 142.000
13.59045 165.000
13.61040 132.000
13.63035 121.000
13.65029 122.000
13.67024 138.000
13.69019 110.000
13.71013 133.000
13.73008 135.000
13.75003 117.000
13.76998 136.000
13.78992 124.000
13.80987 154.000
13.82982 138.000
13.84976 114.000
13.86971 131.000
13.88966 126.000
13.90960 131.000
13.92955 122.000
13.94950 129.000
13.96945 107.000
13.98939 137.000
14.00934 136.000
14.02929 133.000
14.04923 146.000
14.06918 132.000
14.08913 141.000
14.10907 145.000
14.12902 120.000
14.14897 136.000
14.16892 128.000
14.18886 121.000
14.20881 127.000
14.22876 146.000
14.24870 128.000
14.26865 132.000
14.28860 136.000
14.30854 122.000
14.32849 144.000
14.34844 141.000
14.36838 128.000
14.38833 136.000
14.40828 141.000
14.42823 131.000
14.44817 138.000
14.46812 128.000
14.48807 133.000
14.50801 141.000
14.52796 144.000
14.54791 144.000
14.56785 134.000
14.58780 130.000
14.60775 133.000
14.62770 131.000
14.64764 127.000
14.66759 140.000
14.68754 146.000
14.70748 143.000
14.72743 156.000
14.74738 145.000
14.76732 128.000
14.78727 137.000
14.80722 139.000
14.82716 139.000
14.84711 135.000
14.86706 146.000
14.88701 121.000
14.90695 133.000
14.92690 122.000
14.94685 113.000
14.96679 126.000
14.98674 145.000
15.00669 135.000
15.02663 151.000
15.04658 159.000
15.06653 160.000
15.08648 138.000
15.10642 156.000
15.12637 138.000
15.14632 162.000
15.16626 157.000
15.18621 161.000
15.20616 132.000
15.22610 170.000
15.24605 158.000
15.26600 153.000
15.28594 160.000
15.30589 164.000
15.32584 148.000
15.34579 176.000
15.36573 178.000
15.38568 156.000
15.40563 187.000
15.42557 175.000
15.44552 150.000
15.46547 201.000
15.48541 209.000
15.50536 185.000
15.52531 205.000
15.54526 200.000
15.56520 229.000
15.58515 205.000
15.60510 241.000
15.62504 262.000
15.64499 288.000
15.66494 296.000
15.68488 304.000
15.70483 371.000
15.72478 448.000
15.74472 577.000
15.76467 808.000
15.78462 1072.000
15.80457 1623.000
15.82451 2253.000
15.84446 3225.000
15.86441 4117.000
15.88435 4252.000
15.90430 3420.000
15.92425 2408.000
15.94419 1510.000
15.96414 868.000
15.98409 576.000
16.00404 412.000
16.02398 380.000
16.04393 322.000
16.06388 282.000
16.08382 252.000
16.10377 258.000
16.12372 217.000
16.14366 193.000
16.16361 206.000
16.18356 197.000
16.20351 204.000
16.22345 177.000
16.24340 192.000
16.26335 180.000
16.28329 185.000
16.30324 151.000
16.32319 168.000
16.34313 143.000
16.36308 160.000
16.38303 164.000
16.40297 171.000
16.42292 164.000
16.44287 139.000
16.46282 144.000
16.48276 162.000
16.50271 146.000
16.52266 148.000
16.54260 141.000
16.56255 172.000
16.58250 146.000
16.60244 151.000
16.62239 145.000
16.64234 146.000
16.66229 132.000
16.68223 122.000
16.70218 137.000
16.72213 152.000
16.74207 159.000
16.76202 123.000
16.78197 155.000
16.80191 145.000
16.82186 168.000
16.84181 132.000
16.86175 151.000
16.88170 120.000
16.90165 130.000
16.92160 158.000
16.94154 132.000
16.96149 130.000
16.98144 149.000
17.00138 160.000
17.02133 136.000
17.04128 139.000
17.06122 120.000
17.08117 139.000
17.10112 156.000
17.12107 126.000
17.14101 124.000
17.16096 148.000
17.18091 166.000
17.20085 142.000
17.22080 147.000
17.24075 134.000
17.26069 145.000
17.28064 140.000
17.30059 150.000
17.32053 146.000
17.34048 118.000
17.36043 144.000
17.38038 134.000
17.40032 129.000
17.42027 125.000
17.44022 132.000
17.46016 120.000
17.48011 137.000
17.50006 121.000
17.52000 143.000
17.53995 129.000
17.55990 128.000
17.57985 122.000
17.59979 128.000
17.61974 112.000
17.63969 141.000
17.65963 126.000
17.67958 139.000
17.69953 132.000
17.71947 131.000
17.73942 132.000
17.75937 132.000
17.77932 155.000
17.79926 137.000
17.81921 110.000
17.83916 126.000
17.85910 102.000
17.87905 135.000
17.89900 116.000
17.91894 129.000
17.93889 129.000
17.95884 130.000
17.97878 129.000
17.99873 130.000
18.01868 120.000
18.03863 134.000
18.05857 130.000
18.07852 127.000
18.09847 132.000
18.11841 132.000
18.13836 154.000
18.15831 133.000
18.17825 122.000
18.19820 139.000
18.21815 145.000
18.23810 147.000
18.25804 169.000
18.27799 126.000
18.29794 167.000
18.31788 175.000
18.33783 186.000
18.35778 276.000
18.37772 340.000
18.39767 548.000
18.41762 691.000
18.43756 687.000
18.45751 628.000
18.47746 462.000
18.49741 364.000
18.51735 209.000
18.53730 185.000
18.55725 163.000
18.57719 170.000
18.59714 172.000
18.61709 123.000
18.63703 127.000
18.65698 148.000
18.67693 173.000
18.69688 146.000
18.71682 119.000
18.73677 142.000
18.75672 132.000
18.77666 133.000
18.79661 122.000
18.81656 127.000
18.83650 142.000
18.85645 122.000
18.87640 150.000
18.89634 145.000
18.91629 121.000
18.93624 130.000
18.95619 124.000
18.97613 124.000
18.99608 129.000
19.01603 147.000
19.03597 133.000
19.05592 148.000
19.07587 132.000
19.09581 139.000
19.11576 130.000
19.13571 134.000
19.15566 133.000
19.17560 104.000
19.19555 138.000
19.21550 136.000
19.23544 105.000
19.25539 112.000
19.27534 129.000
19.29528 116.000
19.31523 132.000
19.33518 119.000
19.35513 112.000
19.37507 130.000
19.39502 114.000
19.41497 138.000
19.43491 137.000
19.45486 111.000
19.47481 114.000
19.49475 133.000
19.51470 130.000
19.53465 134.000
19.55459 105.000
19.57454 112.000
19.59449 110.000
19.61444 119.000
19.63438 121.000
19.65433 104.000
19.67428 126.000
19.69422 108.000
19.71417 115.000
19.73412 127.000
19.75406 116.000
19.77401 157.000
19.79396 156.000
19.81391 133.000
19.83385 120.000
19.85380 117.000
19.87375 115.000
19.89369 130.000
19.91364 115.000
19.93359 109.000
19.95353 116.000
19.97348 106.000
19.99343 134.000
20.01337 126.000
20.03332 128.000
20.05327 131.000
20.07322 125.000
20.09316 151.000
20.11311 136.000
20.13306 130.000
20.15300 125.000
20.17295 130.000
20.19290 121.000
20.21284 104.000
20.23279 121.000
20.25274 129.000
20.27269 129.000
20.29263 130.000
20.31258 136.000
20.33253 143.000
20.35247 140.000
20.37242 128.000
20.39237 135.000
20.41231 113.000
20.43226 141.000
20.45221 118.000
20.47215 131.000
20.49210 152.000
20.51205 125.000
20.53200 131.000
20.55194 143.000
20.57189 124.000
20.59184 120.000
20.61178 113.000
20.63173 116.000
20.65168 124.000
20.67162 104.000
20.69157 144.000
20.71152 106.000
20.73147 140.000
20.75141 139.000
20.77136 114.000
20.79131 135.000
20.81125 121.000
20.83120 129.000
20.85115 127.000
20.87109 128.000
20.89104 141.000
20.91099 153.000
20.93094 133.000
20.95088 134.000
20.97083 145.000
20.99078 176.000
21.01072 148.000
21.03067 192.000
21.05062 226.000
21.07056 194.000
21.09051 215.000
21.11046 187.000
21.13040 164.000
21.15035 166.000
21.17030 157.000
21.19025 142.000
21.21019 143.000
21.23014 139.000
21.25009 114.000
21.27003 110.000
21.28998 131.000
21.30993 143.000
21.32987 135.000
21.34982 131.000
21.36977 114.000
21.38972 131.000
21.40966 139.000
21.42961 129.000
21.44956 139.000
21.46950 123.000
21.48945 137.000
21.50940 120.000
21.52934 141.000
21.54929 137.000
21.56924 116.000
21.58918 127.000
21.60913 132.000
21.62908 157.000
21.64903 131.000
21.66897 129.000
21.68892 134.000
21.70887 121.000
21.72881 126.000
21.74876 131.000
21.76871 126.000
21.78865 127.000
21.80860 122.000
21.82855 135.000
21.84850 115.000
21.86844 138.000
21.88839 145.000
21.90834 128.000
21.92828 131.000
21.94823 136.000
21.96818 148.000
21.98812 135.000
22.00807 151.000
22.02802 125.000
22.04796 136.000
22.06791 119.000
22.08786 109.000
22.10781 114.000
22.12775 131.000
22.14770 122.000
22.16765 131.000
22.18759 114.000
22.20754 110.000
22.22749 132.000
22.24743 128.000
22.26738 126.000
22.28733 121.000
22.30728 117.000
22.32722 122.000
22.34717 148.000
22.36712 128.000
22.38706 114.000
22.40701 118.000
22.42696 121.000
22.44690 135.000
22.46685 132.000
22.48680 131.000
22.50675 115.000
22.52669 137.000
22.54664 136.000
22.56659 124.000
22.58653 122.000
22.60648 132.000
22.62643 118.000
22.64637 122.000
22.66632 121.000
22.68627 140.000
22.70621 125.000
22.72616 125.000
22.74611 129.000
22.76606 118.000
22.78600 124.000
22.80595 122.000
22.82590 112.000
22.84584 119.000
22.86579 145.000
22.88574 129.000
22.90568 136.000
22.92563 142.000
22.94558 119.000
22.96553 123.000
22.98547 122.000
23.00542 131.000
23.02537 114.000
23.04531 133.000
23.06526 139.000
23.08521 152.000
23.10515 129.000
23.12510 121.000
23.14505 111.000
23.16499 103.000
23.18494 128.000
23.20489 123.000
23.22484 119.000
23.24478 125.000
23.26473 117.000
23.28468 126.000
23.30462 134.000
23.32457 167.000
23.34452 137.000
23.36446 129.000
23.38441 128.000
23.40436 127.000
23.42431 101.000
23.44425 122.000
23.46420 116.000
23.48415 129.000
23.50409 131.000
23.52404 149.000
23.54399 132.000
23.56393 117.000
23.58388 116.000
23.60383 145.000
23.62377 126.000
23.64372 160.000
23.66367 132.000
23.68362 151.000
23.70356 115.000
23.72351 119.000
23.74346 137.000
23.76340 142.000
23.78335 144.000
23.80330 109.000
23.82324 136.000
23.84319 130.000
23.86314 132.000
23.88309 136.000
23.90303 127.000
23.92298 136.000
23.94293 125.000
23.96287 117.000
23.98282 145.000
24.00277 138.000
24.02271 137.000
24.04266 113.000
24.06261 104.000
24.08256 130.000
24.10250 104.000
24.12245 111.000
24.14240 149.000
24.16234 128.000
24.18229 133.000
24.20224 136.000
24.22218 122.000
24.24213 136.000
24.26208 145.000
24.28202 125.000
24.30197 136.000
24.32192 131.000
24.34187 116.000
24.36181 130.000
24.38176 163.000
24.40171 113.000
24.42165 140.000
24.44160 141.000
24.46155 135.000
24.48149 124.000
24.50144 110.000
24.52139 132.000
24.54134 120.000
24.56128 146.000
24.58123 141.000
24.60118 114.000
24.62112 109.000
24.64107 151.000
24.66102 136.000
24.68096 132.000
24.70091 121.000
24.72086 131.000
24.74080 142.000
24.76075 110.000
24.78070 115.000
24.80065 126.000
24.82059 118.000
24.84054 133.000
24.86049 161.000
24.88043 132.000
24.90038 134.000
24.92033 135.000
24.94027 99.000
24.96022 134.000
24.98017 117.000
25.00012 135.000
25.02006 140.000
25.04001 136.000
25.05996 134.000
25.07990 114.000
25.09985 115.000
25.11980 139.000
25.13974 129.000
25.15969 131.000
25.17964 145.000
25.19958 141.000
25.21953 143.000
25.23948 144.000
25.25943 135.000
25.27937 160.000
25.29932 141.000
25.31927 134.000
25.33921 124.000
25.35916 123.000
25.37911 141.000
25.39905 147.000
25.41900 135.000
25.43895 146.000
25.45890 153.000
25.47884 137.000
25.49879 139.000
25.51874 136.000
25.53868 121.000
25.55863 115.000
25.57858 130.000
25.59852 137.000
25.61847 141.000
25.63842 120.000
25.65837 115.000
25.67831 117.000
25.69826 141.000
25.71821 163.000
25.73815 132.000
25.75810 127.000
25.77805 142.000
25.79799 132.000
25.81794 125.000
25.83789 134.000
25.85783 133.000
25.87778 142.000
25.89773 149.000
25.91768 130.000
25.93762 145.000
25.95757 131.000
25.97752 142.000
25.99746 130.000
26.01741 150.000
26.03736 139.000
26.05730 154.000
26.07725 136.000
26.09720 145.000
26.11715 137.000
26.13709 150.000
26.15704 124.000
26.17699 123.000
26.19693 136.000
26.21688 139.000
26.23683 121.000
26.25677 132.000
26.27672 128.000
26.29667 115.000
26.31661 116.000
26.33656 140.000
26.35651 111.000
26.37646 144.000
26.39640 144.000
26.41635 152.000
26.43630 129.000
26.45624 147.000
26.47619 139.000
26.49614 121.000
26.51608 122.000
26.53603 153.000
26.55598 142.000
26.57593 143.000
26.59587 159.000
26.61582 119.000
26.63577 142.000
26.65571 132.000
26.67566 145.000
26.69561 144.000
26.71555 133.000
26.73550 141.000
26.75545 126.000
26.77539 141.000
26.79534 135.000
26.81529 152.000
26.83524 131.000
26.85518 134.000
26.87513 133.000
26.89508 124.000
26.91502 146.000
26.93497 144.000
26.95492 140.000
26.97486 142.000
26.99481 131.000
27.01476 155.000
27.03471 130.000
27.05465 128.000
27.07460 138.000
27.09455 153.000
27.11449 141.000
27.13444 127.000
27.15439 146.000
27.17433 157.000
27.19428 148.000
27.21423 163.000
27.23417 137.000
27.25412 168.000
27.27407 123.000
27.29402 152.000
27.31396 159.000
27.33391 153.000
27.35386 117.000
27.37380 133.000
27.39375 151.000
27.41370 147.000
27.43364 140.000
27.45359 117.000
27.47354 151.000
27.49349 143.000
27.51343 164.000
27.53338 149.000
27.55333 142.000
27.57327 124.000
27.59322 144.000
27.61317 146.000
27.63311 149.000
27.65306 139.000
27.67301 164.000
27.69296 150.000
27.71290 150.000
27.73285 138.000
27.75280 142.000
27.77274 146.000
27.79269 140.000
27.81264 142.000
27.83258 162.000
27.85253 141.000
27.87248 139.000
27.89242 134.000
27.91237 124.000
27.93232 140.000
27.95227 124.000
27.97221 153.000
27.99216 125.000
28.01211 143.000
28.03205 138.000
28.05200 144.000
28.07195 156.000
28.09189 146.000
28.11184 147.000
28.13179 151.000
28.15174 154.000
28.17168 119.000
28.19163 144.000
28.21158 132.000
28.23152 140.000
28.25147 128.000
28.27142 135.000
28.29136 146.000
28.31131 170.000
28.33126 149.000
28.35120 154.000
28.37115 147.000
28.39110 137.000
28.41105 167.000
28.43099 135.000
28.45094 164.000
28.47089 140.000
28.49083 148.000
28.51078 135.000
28.53073 150.000
28.55067 142.000
28.57062 128.000
28.59057 143.000
28.61052 129.000
28.63046 147.000
28.65041 136.000
28.67036 128.000
28.69030 143.000
28.71025 135.000
28.73020 166.000
28.75014 114.000
28.77009 129.000
28.79004 142.000
28.80998 144.000
28.82993 140.000
28.84988 135.000
28.86983 164.000
28.88977 136.000
28.90972 130.000
28.92967 120.000
28.94961 147.000
28.96956 135.000
28.98951 137.000
29.00945 131.000
29.02940 158.000
29.04935 148.000
29.06930 152.000
29.08924 141.000
29.10919 152.000
29.12914 135.000
29.14908 135.000
29.16903 143.000
29.18898 155.000
29.20892 133.000
29.22887 129.000
29.24882 147.000
29.26877 152.000
29.28871 140.000
29.30866 126.000
29.32861 166.000
29.34855 162.000
29.36850 146.000
29.38845 157.000
29.40839 146.000
29.42834 170.000
29.44829 145.000
29.46823 159.000
29.48818 162.000
29.50813 159.000
29.52808 135.000
29.54802 150.000
29.56797 142.000
29.58792 144.000
29.60786 155.000
29.62781 154.000
29.64776 130.000
29.66770 146.000
29.68765 162.000
29.70760 139.000
29.72755 146.000
29.74749 122.000
29.76744 168.000
29.78739 152.000
29.80733 168.000
29.82728 159.000
29.84723 143.000
29.86717 175.000
29.88712 160.000
29.90707 136.000
29.92701 130.000
29.94696 140.000
29.96691 179.000
29.98686 160.000
30.00680 165.000
30.02675 154.000
30.04670 155.000
30.06664 171.000
30.08659 205.000
30.10654 190.000
30.12648 177.000
30.14643 210.000
30.16638 209.000
30.18633 261.000
30.20627 352.000
30.22622 444.000
30.24617 630.000
30.26611 980.000
30.28606 1298.000
30.30601 1296.000
30.32595 1215.000
30.34590 1065.000
30.36585 1013.000
30.38579 840.000
30.40574 629.000
30.42569 491.000
30.44564 359.000
30.46558 282.000
30.48553 219.000
30.50548 221.000
30.52542 199.000
30.54537 177.000
30.56532 167.000
30.58526 171.000
30.60521 158.000
30.62516 173.000
30.64511 148.000
30.66505 173.000
30.68500 148.000
30.70495 129.000
30.72489 163.000
30.74484 165.000
30.76479 143.000
30.78473 156.000
30.80468 129.000
30.82463 156.000
30.84458 144.000
30.86452 155.000
30.88447 144.000
30.90442 142.000
30.92436 134.000
30.94431 176.000
30.96426 132.000
30.98420 150.000
31.00415 127.000
31.02410 135.000
31.04404 153.000
31.06399 144.000
31.08394 161.000
31.10389 147.000
31.12383 162.000
31.14378 153.000
31.16373 148.000
31.18367 146.000
31.20362 145.000
31.22357 146.000
31.24351 147.000
31.26346 127.000
31.28341 149.000
31.30336 174.000
31.32330 155.000
31.34325 156.000
31.36320 135.000
31.38314 136.000
31.40309 139.000
31.42304 143.000
31.44298 131.000
31.46293 140.000
31.48288 153.000
31.50282 163.000
31.52277 182.000
31.54272 179.000
31.56267 169.000
31.58261 165.000
31.60256 134.000
31.62251 155.000
31.64245 139.000
31.66240 191.000
31.68235 163.000
31.70229 170.000
31.72224 194.000
31.74219 147.000
31.76214 183.000
31.78208 168.000
31.80203 177.000
31.82198 178.000
31.84192 166.000
31.86187 166.000
31.88182 208.000
31.90176 189.000
31.92171 217.000
31.94166 257.000
31.96160 255.000
31.98155 312.000
32.00150 357.000
32.02145 439.000
32.04139 491.000
32.06134 450.000
32.08129 455.000
32.10123 389.000
32.12118 376.000
32.14113 338.000
32.16107 306.000
32.18102 233.000
32.20097 222.000
32.22092 175.000
32.24086 172.000
32.26081 152.000
32.28076 158.000
32.30070 166.000
32.32065 144.000
32.34060 140.000
32.36054 160.000
32.38049 131.000
32.40044 157.000
32.42039 170.000
32.44033 166.000
32.46028 172.000
32.48023 170.000
32.50017 150.000
32.52012 182.000
32.54007 147.000
32.56001 177.000
32.57996 164.000
32.59991 168.000
32.61985 156.000
32.63980 168.000
32.65975 133.000
32.67970 141.000
32.69964 167.000
32.71959 138.000
32.73954 136.000
32.75948 137.000
32.77943 142.000
32.79938 154.000
32.81932 128.000
32.83927 130.000
32.85922 150.000
32.87917 119.000
32.89911 149.000
32.91906 142.000
32.93901 120.000
32.95895 147.000
32.97890 144.000
32.99885 135.000
33.01879 131.000
33.03874 129.000
33.05869 144.000
33.07863 134.000
33.09858 133.000
33.11853 157.000
33.13848 143.000
33.15842 169.000
33.17837 138.000
33.19832 139.000
33.21826 166.000
33.23821 131.000
33.25816 137.000
33.27810 129.000
33.29805 135.000
33.31800 167.000
33.33795 144.000
33.35789 150.000
33.37784 126.000
33.39779 151.000
33.41773 118.000
33.43768 143.000
33.45763 133.000
33.47757 163.000
33.49752 135.000
33.51747 142.000
33.53741 144.000
33.55736 137.000
33.57731 138.000
33.59726 149.000
33.61720 156.000
33.63715 149.000
33.65710 144.000
33.67704 120.000
33.69699 141.000
33.71694 133.000
33.73688 154.000
33.75683 143.000
33.77678 139.000
33.79673 139.000
33.81667 134.000
33.83662 136.000
33.85657 131.000
33.87651 138.000
33.89646 109.000
33.91641 132.000
33.93635 149.000
33.95630 159.000
33.97625 152.000
33.99620 162.000
34.01614 144.000
34.03609 147.000
34.05604 156.000
34.07598 132.000
34.09593 145.000
34.11588 159.000
34.13582 172.000
34.15577 166.000
34.17572 142.000
34.19566 139.000
34.21561 130.000
34.23556 169.000
34.25551 153.000
34.27545 158.000
34.29540 154.000
34.31535 163.000
34.33529 145.000
34.35524 166.000
34.37519 155.000
34.39513 168.000
34.41508 171.000
34.43503 149.000
34.45498 172.000
34.47492 158.000
34.49487 167.000
34.51482 179.000
34.53476 173.000
34.55471 190.000
34.57466 189.000
34.59460 202.000
34.61455 185.000
34.63450 225.000
34.65444 190.000
34.67439 200.000
34.69434 205.000
34.71429 218.000
34.73423 219.000
34.75418 224.000
34.77413 226.000
34.79407 201.000
34.81402 231.000
34.83397 202.000
34.85391 218.000
34.87386 181.000
34.89381 192.000
34.91376 168.000
34.93370 181.000
34.95365 175.000
34.97360 165.000
34.99354 196.000
35.01349 186.000
35.03344 177.000
35.05338 182.000
35.07333 164.000
35.09328 205.000
35.11322 182.000
35.13317 213.000
35.15312 186.000
35.17307 195.000
35.19301 220.000
35.21296 163.000
35.23291 205.000
35.25285 238.000
35.27280 209.000
35.29275 230.000
35.31269 256.000
35.33264 233.000
35.35259 271.000
35.37254 282.000
35.39248 318.000
35.41243 315.000
35.43238 364.000
35.45232 395.000
35.47227 415.000
35.49222 504.000
35.51216 550.000
35.53211 609.000
35.55206 701.000
35.57201 851.000
35.59195 1071.000
35.61190 1452.000
35.63185 2083.000
35.65179 2872.000
35.67174 3623.000
35.69169 4143.000
35.71163 3787.000
35.73158 3317.000
35.75153 3089.000
35.77147 2981.000
35.79142 2661.000
35.81137 2163.000
35.83132 1584.000
35.85126 1271.000
35.87121 983.000
35.89116 733.000
35.91110 604.000
35.93105 469.000
35.95100 428.000
35.97094 340.000
35.99089 294.000
36.01084 300.000
36.03079 231.000
36.05073 259.000
36.07068 244.000
36.09063 211.000
36.11057 210.000
36.13052 208.000
36.15047 205.000
36.17041 199.000
36.19036 203.000
36.21031 184.000
36.23025 161.000
36.25020 174.000
36.27015 196.000
36.29010 191.000
36.31004 189.000
36.32999 198.000
36.34994 193.000
36.36988 175.000
36.38983 177.000
36.40978 193.000
36.42972 183.000
36.44967 191.000
36.46962 174.000
36.48957 202.000
36.50951 170.000
36.52946 151.000
36.54941 180.000
36.56935 171.000
36.58930 188.000
36.60925 195.000
36.62919 194.000
36.64914 202.000
36.66909 184.000
36.68903 206.000
36.70898 191.000
36.72893 188.000
36.74888 182.000
36.76882 178.000
36.78877 212.000
36.80872 186.000
36.82866 163.000
36.84861 173.000
36.86856 177.000
36.88850 174.000
36.90845 188.000
36.92840 206.000
36.94835 159.000
36.96829 194.000
36.98824 230.000
37.00819 216.000
37.02813 249.000
37.04808 288.000
37.06803 340.000
37.08797 408.000
37.10792 452.000
37.12787 508.000
37.14781 520.000
37.16776 498.000
37.18771 525.000
37.20766 457.000
37.22760 431.000
37.24755 422.000
37.26750 425.000
37.28744 428.000
37.30739 451.000
37.32734 448.000
37.34728 466.000
37.36723 402.000
37.38718 348.000
37.40713 351.000
37.42707 331.000
37.44702 330.000
37.46697 260.000
37.48691 218.000
37.50686 205.000
37.52681 187.000
37.54675 177.000
37.56670 154.000
37.58665 170.000
37.60660 175.000
37.62654 176.000
37.64649 154.000
37.66644 157.000
37.68638 180.000
37.70633 174.000
37.72628 146.000
37.74622 143.000
37.76617 144.000
37.78612 173.000
37.80606 154.000
37.82601 151.000
37.84596 154.000
37.86591 129.000
37.88585 152.000
37.90580 167.000
37.92575 157.000
37.94569 138.000
37.96564 154.000
37.98559 145.000
38.00553 174.000
38.02548 162.000
38.04543 152.000
38.06538 151.000
38.08532 157.000
38.10527 169.000
38.12522 161.000
38.14516 120.000
38.16511 177.000
38.18506 159.000
38.20500 147.000
38.22495 151.000
38.24490 164.000
38.26484 164.000
38.28479 134.000
38.30474 152.000
38.32469 146.000
38.34463 160.000
38.36458 155.000
38.38453 168.000
38.40447 192.000
38.42442 172.000
38.44437 179.000
38.46431 170.000
38.48426 151.000
38.50421 165.000
38.52416 193.000
38.54410 198.000
38.56405 180.000
38.58400 202.000
38.60394 250.000
38.62389 243.000
38.64384 251.000
38.66378 260.000
38.68373 259.000
38.70368 267.000
38.72362 266.000
38.74357 285.000
38.76352 286.000
38.78347 288.000
38.80341 304.000
38.82336 243.000
38.84331 282.000
38.86325 250.000
38.88320 269.000
38.90315 295.000
38.92309 251.000
38.94304 273.000
38.96299 236.000
38.98294 216.000
39.00288 237.000
39.02283 225.000
39.04278 264.000
39.06272 249.000
39.08267 234.000
39.10262 247.000
39.12256 248.000
39.14251 266.000
39.16246 295.000
39.18241 308.000
39.20235 353.000
39.22230 467.000
39.24225 464.000
39.26219 593.000
39.28214 667.000
39.30209 738.000
39.32203 787.000
39.34198 868.000
39.36193 858.000
39.38187 811.000
39.40182 781.000
39.42177 812.000
39.44172 706.000
39.46166 635.000
39.48161 553.000
39.50156 491.000
39.52150 401.000
39.54145 381.000
39.56140 328.000
39.58134 290.000
39.60129 268.000
39.62124 244.000
39.64119 208.000
39.66113 192.000
39.68108 171.000
39.70103 195.000
39.72097 205.000
39.74092 185.000
39.76087 166.000
39.78081 202.000
39.80076 150.000
39.82071 174.000
39.84065 174.000
39.86060 173.000
39.88055 163.000
39.90050 147.000
39.92044 131.000
39.94039 146.000
39.96034 152.000
39.98028 162.000
40.00023 135.000
40.02018 173.000
40.04012 163.000
40.06007 168.000
40.08002 144.000
40.09997 143.000
40.11991 158.000
40.13986 150.000
40.15981 139.000
40.17975 148.000
40.19970 148.000
40.21965 138.000
40.23959 141.000
40.25954 149.000
40.27949 151.000
40.29943 130.000
40.31938 164.000
40.33933 144.000
40.35928 127.000
40.37922 137.000
40.39917 155.000
40.41912 139.000
40.43906 131.000
40.45901 153.000
40.47896 126.000
40.49890 108.000
40.51885 123.000
40.53880 131.000
40.55875 145.000
40.57869 146.000
40.59864 163.000
40.61859 143.000
40.63853 170.000
40.65848 146.000
40.67843 152.000
40.69837 115.000
40.71832 140.000
40.73827 138.000
40.75822 140.000
40.77816 143.000
40.79811 124.000
40.81806 153.000
40.83800 144.000
40.85795 135.000
40.87790 137.000
40.89784 143.000
40.91779 141.000
40.93774 140.000
40.95768 144.000
40.97763 126.000
40.99758 144.000
41.01753 129.000
41.03747 141.000
41.05742 120.000
41.07737 151.000
41.09731 135.000
41.11726 137.000
41.13721 143.000
41.15715 137.000
41.17710 140.000
41.19705 128.000
41.21700 119.000
41.23694 140.000
41.25689 148.000
41.27684 141.000
41.29678 123.000
41.31673 125.000
41.33668 151.000
41.35662 122.000
41.37657 140.000
41.39652 135.000
41.41646 140.000
41.43641 155.000
41.45636 140.000
41.47631 164.000
41.49625 148.000
41.51620 140.000
41.53615 136.000
41.55609 129.000
41.57604 133.000
41.59599 134.000
41.61593 171.000
41.63588 128.000
41.65583 145.000
41.67578 123.000
41.69572 145.000
41.71567 148.000
41.73562 138.000
41.75556 138.000
41.77551 145.000
41.79546 150.000
41.81540 156.000
41.83535 120.000
41.85530 133.000
41.87524 124.000
41.89519 134.000
41.91514 142.000
41.93509 135.000
41.95503 120.000
41.97498 161.000
41.99493 144.000
42.01487 146.000
42.03482 151.000
42.05477 161.000
42.07471 157.000
42.09466 161.000
42.11461 137.000
42.13456 118.000
42.15450 157.000
42.17445 123.000
42.19440 142.000
42.21434 139.000
42.23429 112.000
42.25424 150.000
42.27418 146.000
42.29413 160.000
42.31408 156.000
42.33403 156.000
42.35397 145.000
42.37392 159.000
42.39387 164.000
42.41381 165.000
42.43376 157.000
42.45371 136.000
42.47365 123.000
42.49360 161.000
42.51355 153.000
42.53349 160.000
42.55344 142.000
42.57339 155.000
42.59334 164.000
42.61328 167.000
42.63323 162.000
42.65318 155.000
42.67312 183.000
42.69307 169.000
42.71302 152.000
42.73296 146.000
42.75291 170.000
42.77286 192.000
42.79281 151.000
42.81275 186.000
42.83270 172.000
42.85265 181.000
42.87259 189.000
42.89254 226.000
42.91249 228.000
42.93243 246.000
42.95238 253.000
42.97233 290.000
42.99227 288.000
43.01222 323.000
43.03217 347.000
43.05212 399.000
43.07206 378.000
43.09201 440.000
43.11196 523.000
43.13190 545.000
43.15185 588.000
43.17180 590.000
43.19174 602.000
43.21169 625.000
43.23164 656.000
43.25159 632.000
43.27153 640.000
43.29148 715.000
43.31143 746.000
43.33137 900.000
43.35132 1017.000
43.37127 1087.000
43.39121 1072.000
43.41116 988.000
43.43111 919.000
43.45105 894.000
43.47100 953.000
43.49095 896.000
43.51090 783.000
43.53084 693.000
43.55079 593.000
43.57074 554.000
43.59068 474.000
43.61063 381.000
43.63058 348.000
43.65052 328.000
43.67047 304.000
43.69042 259.000
43.71037 208.000
43.73031 212.000
43.75026 183.000
43.77021 210.000
43.79015 187.000
43.81010 186.000
43.83005 184.000
43.84999 183.000
43.86994 172.000
43.88989 176.000
43.90984 180.000
43.92978 178.000
43.94973 156.000
43.96968 172.000
43.98962 166.000
44.00957 160.000
44.02952 154.000
44.04946 143.000
44.06941 138.000
44.08936 157.000
44.10930 162.000
44.12925 164.000
44.14920 150.000
44.16915 161.000
44.18909 140.000
44.20904 136.000
44.22899 144.000
44.24893 154.000
44.26888 143.000
44.28883 141.000
44.30877 137.000
44.32872 150.000
44.34867 156.000
44.36862 137.000
44.38856 151.000
44.40851 152.000
44.42846 144.000
44.44840 148.000
44.46835 132.000
44.48830 155.000
44.50824 138.000
44.52819 148.000
44.54814 133.000
44.56808 153.000
44.58803 150.000
44.60798 133.000
44.62793 158.000
44.64787 143.000
44.66782 129.000
44.68777 147.000
44.70771 143.000
44.72766 153.000
44.74761 157.000
44.76755 160.000
44.78750 155.000
44.80745 126.000
44.82740 133.000
44.84734 162.000
44.86729 126.000
44.88724 146.000
44.90718 161.000
44.92713 132.000
44.94708 151.000
44.96702 126.000
44.98697 144.000
45.00692 145.000
45.02686 125.000
45.04681 161.000
45.06676 126.000
45.08671 168.000
45.10665 151.000
45.12660 138.000
45.14655 155.000
45.16649 124.000
45.18644 129.000
45.20639 162.000
45.22633 139.000
45.24628 126.000
45.26623 141.000
45.28618 150.000
45.30612 136.000
45.32607 151.000
45.34602 148.000
45.36596 118.000
45.38591 141.000
45.40586 144.000
45.42580 146.000
45.44575 134.000
45.46570 141.000
45.48565 122.000
45.50559 139.000
45.52554 138.000
45.54549 130.000
45.56543 152.000
45.58538 120.000
45.60533 142.000
45.62527 125.000
45.64522 131.000
45.66517 139.000
45.68511 126.000
45.70506 122.000
45.72501 149.000
45.74496 133.000
45.76490 139.000
45.78485 139.000
45.80480 117.000
45.82474 158.000
45.84469 130.000
45.86464 124.000
45.88458 132.000
45.90453 137.000
45.92448 133.000
45.94443 118.000
45.96437 127.000
45.98432 139.000
46.00427 137.000
46.02421 146.000
46.04416 110.000
46.06411 141.000
46.08405 131.000
46.10400 149.000
46.12395 132.000
46.14389 130.000
46.16384 138.000
46.18379 123.000
46.20374 130.000
46.22368 143.000
46.24363 135.000
46.26358 135.000
46.28352 147.000
46.30347 136.000
46.32342 124.000
46.34336 146.000
46.36331 132.000
46.38326 135.000
46.40321 127.000
46.42315 145.000
46.44310 143.000
46.46305 122.000
46.48299 126.000
46.50294 168.000
46.52289 137.000
46.54283 142.000
46.56278 124.000
46.58273 126.000
46.60267 158.000
46.62262 130.000
46.64257 128.000
46.66252 142.000
46.68246 150.000
46.70241 115.000
46.72236 130.000
46.74230 156.000
46.76225 139.000
46.78220 149.000
46.80214 145.000
46.82209 134.000
46.84204 131.000
46.86199 160.000
46.88193 118.000
46.90188 140.000
46.92183 116.000
46.94177 129.000
46.96172 119.000
46.98167 117.000
47.00161 110.000
47.02156 155.000
47.04151 121.000
47.06146 143.000
47.08140 151.000
47.10135 154.000
47.12130 144.000
47.14124 129.000
47.16119 150.000
47.18114 127.000
47.20108 133.000
47.22103 123.000
47.24098 123.000
47.26092 135.000
47.28087 128.000
47.30082 127.000
47.32077 132.000
47.34071 139.000
47.36066 146.000
47.38061 163.000
47.40055 142.000
47.42050 147.000
47.44045 149.000
47.46039 153.000
47.48034 157.000
47.50029 151.000
47.52024 150.000
47.54018 159.000
47.56013 155.000
47.58008 159.000
47.60002 181.000
47.61997 148.000
47.63992 148.000
47.65986 149.000
47.67981 153.000
47.69976 137.000
47.71970 134.000
47.73965 140.000
47.75960 135.000
47.77955 127.000
47.79949 154.000
47.81944 146.000
47.83939 164.000
47.85933 148.000
47.87928 160.000
47.89923 144.000
47.91917 131.000
47.93912 161.000
47.95907 140.000
47.97902 148.000
47.99896 141.000
48.01891 154.000
48.03886 171.000
48.05880 162.000
48.07875 171.000
48.09870 138.000
48.11864 162.000
48.13859 150.000
48.15854 149.000
48.17848 154.000
48.19843 151.000
48.21838 156.000
48.23833 141.000
48.25827 183.000
48.27822 145.000
48.29817 159.000
48.31811 165.000
48.33806 170.000
48.35801 149.000
48.37795 186.000
48.39790 186.000
48.41785 184.000
48.43780 199.000
48.45774 198.000
48.47769 181.000
48.49764 196.000
48.51758 237.000
48.53753 212.000
48.55748 254.000
48.57742 292.000
48.59737 272.000
48.61732 327.000
48.63726 375.000
48.65721 407.000
48.67716 449.000
48.69711 513.000
48.71705 630.000
48.73700 679.000
48.75695 710.000
48.77689 790.000
48.79684 730.000
48.81679 682.000
48.83673 649.000
48.85668 612.000
48.87663 641.000
48.89658 572.000
48.91652 552.000
48.93647 469.000
48.95642 395.000
48.97636 360.000
48.99631 305.000
49.01626 323.000
49.03620 274.000
49.05615 246.000
49.07610 225.000
49.09605 236.000
49.11599 238.000
49.13594 208.000
49.15589 203.000
49.17583 191.000
49.19578 174.000
49.21573 169.000
49.23567 149.000
49.25562 195.000
49.27557 163.000
49.29551 168.000
49.31546 170.000
49.33541 158.000
49.35536 156.000
49.37530 134.000
49.39525 144.000
49.41520 138.000
49.43514 148.000
49.45509 142.000
49.47504 149.000
49.49498 142.000
49.51493 160.000
49.53488 134.000
49.55483 140.000
49.57477 134.000
49.59472 148.000
49.61467 166.000
49.63461 141.000
49.65456 149.000
49.67451 154.000
49.69445 151.000
49.71440 146.000
49.73435 155.000
49.75429 142.000
49.77424 139.000
49.79419 125.000
49.81414 129.000
49.83408 163.000
49.85403 112.000
49.87398 134.000
49.89392 133.000
49.91387 142.000
49.93382 137.000
49.95376 130.000
49.97371 153.000
49.99366 148.000
50.01361 138.000
50.03355 122.000
50.05350 141.000
50.07345 149.000
50.09339 135.000
50.11334 127.000
50.13329 134.000
50.15323 116.000
50.17318 137.000
50.19313 152.000
50.21307 160.000
50.23302 142.000
50.25297 147.000
50.27292 139.000
50.29286 151.000
50.31281 136.000
50.33276 132.000
50.35270 124.000
50.37265 154.000
50.39260 117.000
50.41254 159.000
50.43249 146.000
50.45244 133.000
50.47239 141.000
50.49233 132.000
50.51228 135.000
50.53223 147.000
50.55217 131.000
50.57212 146.000
50.59207 150.000
50.61201 136.000
50.63196 126.000
50.65191 158.000
50.67186 134.000
50.69180 116.000
50.71175 144.000
50.73170 142.000
50.75164 123.000
50.77159 136.000
50.79154 129.000
50.81148 117.000
50.83143 128.000
50.85138 149.000
50.87132 120.000
50.89127 141.000
50.91122 111.000
50.93117 136.000
50.95111 140.000
50.97106 148.000
50.99101 135.000
51.01095 131.000
51.03090 140.000
51.05085 141.000
51.07079 127.000
51.09074 132.000
51.11069 123.000
51.13064 137.000
51.15058 137.000
51.17053 146.000
51.19048 140.000
51.21042 125.000
51.23037 132.000
51.25032 138.000
51.27026 132.000
51.29021 133.000
51.31016 150.000
51.33010 122.000
51.35005 142.000
51.37000 147.000
51.38995 152.000
51.40989 154.000
51.42984 122.000
51.44979 122.000
51.46973 139.000
51.48968 138.000
51.50963 130.000
51.52957 143.000
51.54952 121.000
51.56947 151.000
51.58942 138.000
51.60936 146.000
51.62931 124.000
51.64926 122.000
51.66920 131.000
51.68915 131.000
51.70910 125.000
51.72904 123.000
51.74899 127.000
51.76894 134.000
51.78888 131.000
51.80883 122.000
51.82878 149.000
51.84873 142.000
51.86867 146.000
51.88862 129.000
51.90857 133.000
51.92851 110.000
51.94846 160.000
51.96841 124.000
51.98835 147.000
52.00830 137.000
52.02825 139.000
52.04820 131.000
52.06814 131.000
52.08809 146.000
52.10804 122.000
52.12798 107.000
52.14793 148.000
52.16788 152.000
52.18782 150.000
52.20777 133.000
52.22772 133.000
52.24767 139.000
52.26761 121.000
52.28756 133.000
52.30751 144.000
52.32745 134.000
52.34740 134.000
52.36735 140.000
52.38729 121.000
52.40724 144.000
52.42719 135.000
52.44713 136.000
52.46708 122.000
52.48703 133.000
52.50698 142.000
52.52692 131.000
52.54687 131.000
52.56682 145.000
52.58676 150.000
52.60671 123.000
52.62666 125.000
52.64660 146.000
52.66655 137.000
52.68650 133.000
52.70645 134.000
52.72639 106.000
52.74634 129.000
52.76629 123.000
52.78623 146.000
52.80618 145.000
52.82613 120.000
52.84607 130.000
52.86602 131.000
52.88597 152.000
52.90591 137.000
52.92586 142.000
52.94581 130.000
52.96576 110.000
52.98570 120.000
53.00565 114.000
53.02560 134.000
53.04554 125.000
53.06549 140.000
53.08544 134.000
53.10538 130.000
53.12533 142.000
53.14528 140.000
53.16523 149.000
53.18517 141.000
53.20512 150.000
53.22507 134.000
53.24501 138.000
53.26496 125.000
53.28491 145.000
53.30485 124.000
53.32480 134.000
53.34475 156.000
53.36469 124.000
53.38464 130.000
53.40459 147.000
53.42454 150.000
53.44448 163.000
53.46443 148.000
53.48438 141.000
53.50432 136.000
53.52427 174.000
53.54422 143.000
53.56416 158.000
53.58411 175.000
53.60406 147.000
53.62401 176.000
53.64395 182.000
53.66390 193.000
53.68385 187.000
53.70379 193.000
53.72374 224.000
53.74369 275.000
53.76363 323.000
53.78358 365.000
53.80353 421.000
53.82348 421.000
53.84342 380.000
53.86337 330.000
53.88332 263.000
53.90326 339.000
53.92321 283.000
53.94316 301.000
53.96310 304.000
53.98305 266.000
54.00300 226.000
54.02294 219.000
54.04289 207.000
54.06284 175.000
54.08279 162.000
54.10273 142.000
54.12268 142.000
54.14263 157.000
54.16257 158.000
54.18252 143.000
54.20247 140.000
54.22241 141.000
54.24236 132.000
54.26231 138.000
54.28226 140.000
54.30220 147.000
54.32215 121.000
54.34210 152.000
54.36204 141.000
54.38199 121.000
54.40194 130.000
54.42188 126.000
54.44183 154.000
54.46178 137.000
54.48172 148.000
54.50167 158.000
54.52162 130.000
54.54157 136.000
54.56151 150.000
54.58146 132.000
54.60141 136.000
54.62135 139.000
54.64130 135.000
54.66125 163.000
54.68119 130.000
54.70114 153.000
54.72109 130.000
54.74104 123.000
54.76098 131.000
54.78093 145.000
54.80088 141.000
54.82082 119.000
54.84077 139.000
54.86072 130.000
54.88066 134.000
54.90061 125.000
54.92056 144.000
54.94050 142.000
54.96045 129.000
54.98040 161.000
55.00035 129.000
55.02029 137.000
55.04024 152.000
55.06019 123.000
55.08013 133.000
55.10008 141.000
55.12003 134.000
55.13997 134.000
55.15992 125.000
55.17987 132.000
55.19982 114.000
55.21976 135.000
55.23971 117.000
55.25966 129.000
55.27960 151.000
55.29955 141.000
55.31950 138.000
55.33944 152.000
55.35939 137.000
55.37934 135.000
55.39929 142.000
55.41923 115.000
55.43918 129.000
55.45913 139.000
55.47907 124.000
55.49902 141.000
55.51897 129.000
55.53891 113.000
55.55886 131.000
55.57881 150.000
55.59875 157.000
55.61870 134.000
55.63865 139.000
55.65860 120.000
55.67854 130.000
55.69849 139.000
55.71844 132.000
55.73838 148.000
55.75833 155.000
55.77828 136.000
55.79822 142.000
55.81817 148.000
55.83812 133.000
55.85807 132.000
55.87801 134.000
55.89796 128.000
55.91791 131.000
55.93785 128.000
55.95780 133.000
55.97775 140.000
55.99769 131.000
56.01764 136.000
56.03759 117.000
56.05753 129.000
56.07748 141.000
56.09743 131.000
56.11738 118.000
56.13732 128.000
56.15727 157.000
56.17722 148.000
56.19716 117.000
56.21711 149.000
56.23706 140.000
56.25700 161.000
56.27695 121.000
56.29690 146.000
56.31685 126.000
56.33679 137.000
56.35674 132.000
56.37669 149.000
56.39663 136.000
56.41658 147.000
56.43653 150.000
56.45647 139.000
56.47642 143.000
56.49637 144.000
56.51631 138.000
56.53626 134.000
56.55621 133.000
56.57616 152.000
56.59610 133.000
56.61605 142.000
56.63600 127.000
56.65594 114.000
56.67589 152.000
56.69584 147.000
56.71578 131.000
56.73573 145.000
56.75568 154.000
56.77563 157.000
56.79557 133.000
56.81552 140.000
56.83547 141.000
56.85541 144.000
56.87536 165.000
56.89531 146.000
56.91525 142.000
56.93520 181.000
56.95515 155.000
56.97510 164.000
56.99504 156.000
57.01499 167.000
57.03494 154.000
57.05488 164.000
57.07483 216.000
57.09478 191.000
57.11472 208.000
57.13467 188.000
57.15462 209.000
57.17456 199.000
57.19451 241.000
57.21446 268.000
57.23441 302.000
57.25435 385.000
57.27430 413.000
57.29425 453.000
57.31419 637.000
57.33414 760.000
57.35409 864.000
57.37403 917.000
57.39398 812.000
57.41393 786.000
57.43388 709.000
57.45382 658.000
57.47377 724.000
57.49372 677.000
57.51366 665.000
57.53361 642.000
57.55356 576.000
57.57350 506.000
57.59345 442.000
57.61340 320.000
57.63334 318.000
57.65329 294.000
57.67324 241.000
57.69319 240.000
57.71313 181.000
57.73308 186.000
57.75303 199.000
57.77297 220.000
57.79292 184.000
57.81287 172.000
57.83281 153.000
57.85276 159.000
57.87271 160.000
57.89266 171.000
57.91260 154.000
57.93255 144.000
57.95250 162.000
57.97244 160.000
57.99239 144.000
58.01234 173.000
58.03228 157.000
58.05223 131.000
58.07218 143.000
58.09212 160.000
58.11207 158.000
58.13202 159.000
58.15197 147.000
58.17191 180.000
58.19186 144.000
58.21181 165.000
58.23175 169.000
58.25170 170.000
58.27165 146.000
58.29159 150.000
58.31154 147.000
58.33149 144.000
58.35144 172.000
58.37138 134.000
58.39133 157.000
58.41128 162.000
58.43122 132.000
58.45117 133.000
58.47112 176.000
58.49106 159.000
58.51101 167.000
58.53096 149.000
58.55090 137.000
58.57085 131.000
58.59080 140.000
58.61075 137.000
58.63069 134.000
58.65064 140.000
58.67059 134.000
58.69053 129.000
58.71048 163.000
58.73043 151.000
58.75037 132.000
58.77032 138.000
58.79027 133.000
58.81022 153.000
58.83016 128.000
58.85011 132.000
58.87006 126.000
58.89000 138.000
58.90995 144.000
58.92990 134.000
58.94984 135.000
58.96979 128.000
58.98974 148.000
59.00969 144.000
59.02963 123.000
59.04958 131.000
59.06953 133.000
59.08947 134.000
59.10942 127.000
59.12937 139.000
59.14931 142.000
59.16926 129.000
59.18921 111.000
59.20915 149.000
59.22910 142.000
59.24905 123.000
59.26900 136.000
59.28894 153.000
59.30889 144.000
59.32884 130.000
59.34878 133.000
59.36873 132.000
59.38868 136.000
59.40862 144.000
59.42857 127.000
59.44852 153.000
59.46847 133.000
59.48841 141.000
59.50836 124.000
59.52831 136.000
59.54825 146.000
59.56820 133.000
59.58815 123.000
59.60809 148.000
59.62804 155.000
59.64799 133.000
59.66793 136.000
59.68788 135.000
59.70783 143.000
59.72778 134.000
59.74772 120.000
59.76767 142.000
59.78762 141.000
59.80756 144.000
59.82751 133.000
59.84746 137.000
59.86740 150.000
59.88735 143.000
59.90730 121.000
59.92725 130.000
59.94719 133.000
59.96714 159.000
59.98709 132.000
60.00703 114.000
60.02698 125.000
60.04693 117.000
60.06687 123.000
60.08682 153.000
60.10677 148.000
60.12671 133.000
60.14666 132.000
60.16661 123.000
60.18656 133.000
60.20650 147.000
60.22645 130.000
60.24640 136.000
60.26634 143.000
60.28629 136.000
60.30624 121.000
60.32618 126.000
60.34613 123.000
60.36608 152.000
60.38603 132.000
60.40597 152.000
60.42592 133.000
60.44587 128.000
60.46581 133.000
60.48576 156.000
60.50571 133.000
60.52565 124.000
60.54560 142.000
60.56555 137.000
60.58550 148.000
60.60544 121.000
60.62539 139.000
60.64534 150.000
60.66528 116.000
60.68523 146.000
60.70518 141.000
60.72512 149.000
60.74507 150.000
60.76502 140.000
60.78496 143.000
60.80491 166.000
60.82486 148.000
60.84481 147.000
60.86475 152.000
60.88470 136.000
60.90465 123.000
60.92459 130.000
60.94454 144.000
60.96449 137.000
60.98443 165.000
61.00438 145.000
61.02433 136.000
61.04428 136.000
61.06422 137.000
61.08417 146.000
61.10412 151.000
61.12406 130.000
61.14401 150.000
61.16396 134.000
61.18390 159.000
61.20385 156.000
61.22380 156.000
61.24374 139.000
61.26369 140.000
61.28364 166.000
61.30359 147.000
61.32353 148.000
61.34348 149.000
61.36343 158.000
61.38337 163.000
61.40332 151.000
61.42327 156.000
61.44321 159.000
61.46316 138.000
61.48311 156.000
61.50306 174.000
61.52300 166.000
61.54295 165.000
61.56290 168.000
61.58284 177.000
61.60279 175.000
61.62274 161.000
61.64268 171.000
61.66263 207.000
61.68258 215.000
61.70252 178.000
61.72247 195.000
61.74242 196.000
61.76237 184.000
61.78231 185.000
61.80226 181.000
61.82221 213.000
61.84215 231.000
61.86210 250.000
61.88205 246.000
61.90199 258.000
61.92194 258.000
61.94189 270.000
61.96184 284.000
61.98178 302.000
62.00173 387.000
62.02168 337.000
62.04162 375.000
62.06157 334.000
62.08152 370.000
62.10146 333.000
62.12141 346.000
62.14136 317.000
62.16131 330.000
62.18125 302.000
62.20120 326.000
62.22115 324.000
62.24109 318.000
62.26104 248.000
62.28099 248.000
62.30093 258.000
62.32088 267.000
62.34083 241.000
62.36077 261.000
62.38072 217.000
62.40067 247.000
62.42062 220.000
62.44056 231.000
62.46051 244.000
62.48046 262.000
62.50040 238.000
62.52035 235.000
62.54030 245.000
62.56024 272.000
62.58019 330.000
62.60014 294.000
62.62009 336.000
62.64003 328.000
62.65998 328.000
62.67993 347.000
62.69987 358.000
62.71982 369.000
62.73977 374.000
62.75971 372.000
62.77966 360.000
62.79961 326.000
62.81955 363.000
62.83950 425.000
62.85945 430.000
62.87940 470.000
62.89934 569.000
62.91929 648.000
62.93924 801.000
62.95918 946.000
62.97913 1088.000
62.99908 1174.000
63.01902 1207.000
63.03897 973.000
63.05892 945.000
63.07887 827.000
63.09881 793.000
63.11876 801.000
63.13871 798.000
63.15865 834.000
63.17860 774.000
63.19855 698.000
63.21849 674.000
63.23844 572.000
63.25839 470.000
63.27833 386.000
63.29828 367.000
63.31823 320.000
63.33818 262.000
63.35812 271.000
63.37807 225.000
63.39802 218.000
63.41796 185.000
63.43791 221.000
63.45786 204.000
63.47780 179.000
63.49775 151.000
63.51770 173.000
63.53765 182.000
63.55759 166.000
63.57754 157.000
63.59749 160.000
63.61743 140.000
63.63738 141.000
63.65733 166.000
63.67727 142.000
63.69722 162.000
63.71717 162.000
63.73712 170.000
63.75706 158.000
63.77701 150.000
63.79696 151.000
63.81690 164.000
63.83685 167.000
63.85680 168.000
63.87674 171.000
63.89669 155.000
63.91664 171.000
63.93658 163.000
63.95653 152.000
63.97648 201.000
63.99643 171.000
64.01637 209.000
64.03632 195.000
64.05627 223.000
64.07621 205.000
64.09616 262.000
64.11611 215.000
64.13605 239.000
64.15600 260.000
64.17595 286.000
64.19590 285.000
64.21584 268.000
64.23579 289.000
64.25574 307.000
64.27568 292.000
64.29563 310.000
64.31558 298.000
64.33552 318.000
64.35547 310.000
64.37542 309.000
64.39536 277.000
64.41531 268.000
64.43526 252.000
64.45521 280.000
64.47515 241.000
64.49510 252.000
64.51505 217.000
64.53499 218.000
64.55494 191.000
64.57489 202.000
64.59483 199.000
64.61478 197.000
64.63473 163.000
64.65468 186.000
64.67462 179.000
64.69457 160.000
64.71452 182.000
64.73446 156.000
64.75441 161.000
64.77436 145.000
64.79430 155.000
64.81425 165.000
64.83420 151.000
64.85414 140.000
64.87409 149.000
64.89404 137.000
64.91399 156.000
64.93393 145.000
64.95388 138.000
64.97383 148.000
64.99377 158.000
65.01372 146.000
65.03367 145.000
65.05361 111.000
65.07356 155.000
65.09351 132.000
65.11346 168.000
65.13340 152.000
65.15335 162.000
65.17330 131.000
65.19324 137.000
65.21319 135.000
65.23314 148.000
65.25308 135.000
65.27303 140.000
65.29298 139.000
65.31293 136.000
65.33287 120.000
65.35282 154.000
65.37277 159.000
65.39271 115.000
65.41266 150.000
65.43261 153.000
65.45255 146.000
65.47250 133.000
65.49245 122.000
65.51239 152.000
65.53234 161.000
65.55229 153.000
65.57224 145.000
65.59218 141.000
65.61213 142.000
65.63208 146.000
65.65202 125.000
65.67197 146.000
65.69192 169.000
65.71186 146.000
65.73181 132.000
65.75176 138.000
65.77171 140.000
65.79165 157.000
65.81160 140.000
65.83155 158.000
65.85149 135.000
65.87144 152.000
65.89139 135.000
65.91133 164.000
65.93128 160.000
65.95123 148.000
65.97117 137.000
65.99112 147.000
66.01107 138.000
66.03102 143.000
66.05096 175.000
66.07091 154.000
66.09086 154.000
66.11080 163.000
66.13075 175.000
66.15070 169.000
66.17064 208.000
66.19059 173.000
66.21054 170.000
66.23049 186.000
66.25043 190.000
66.27038 218.000
66.29033 210.000
66.31027 177.000
66.33022 191.000
66.35017 192.000
66.37011 186.000
66.39006 214.000
66.41001 209.000
66.42995 194.000
66.44990 224.000
66.46985 196.000
66.48980 225.000
66.50974 218.000
66.52969 236.000
66.54964 223.000
66.56958 236.000
66.58953 249.000
66.60948 222.000
66.62942 254.000
66.64937 224.000
66.66932 227.000
66.68927 258.000
66.70921 249.000
66.72916 246.000
66.74911 208.000
66.76905 236.000
66.78900 243.000
66.80895 259.000
66.82889 236.000
66.84884 232.000
66.86879 215.000
66.88874 206.000
66.90868 233.000
66.92863 201.000
66.94858 228.000
66.96852 192.000
66.98847 214.000
67.00842 189.000
67.02836 196.000
67.04831 203.000
67.06826 204.000
67.08820 194.000
67.10815 188.000
67.12810 192.000
67.14805 178.000
67.16799 166.000
67.18794 158.000
67.20789 162.000
67.22783 148.000
67.24778 146.000
67.26773 150.000
67.28767 170.000
67.30762 146.000
67.32757 137.000
67.34752 142.000
67.36746 166.000
67.38741 149.000
67.40736 155.000
67.42730 155.000
67.44725 149.000
67.46720 123.000
67.48714 133.000
67.50709 138.000
67.52704 133.000
67.54698 132.000
67.56693 131.000
67.58688 142.000
67.60683 150.000
67.62677 158.000
67.64672 136.000
67.66667 147.000
67.68661 164.000
67.70656 144.000
67.72651 154.000
67.74645 152.000
67.76640 155.000
67.78635 165.000
67.80630 138.000
67.82624 154.000
67.84619 135.000
67.86614 167.000
67.88608 137.000
67.90603 144.000
67.92598 145.000
67.94592 159.000
67.96587 141.000
67.98582 153.000
68.00576 145.000
68.02571 159.000
68.04566 127.000
68.06561 130.000
68.08555 127.000
68.10550 153.000
68.12545 124.000
68.14539 136.000
68.16534 175.000
68.18529 156.000
68.20523 130.000
68.22518 155.000
68.24513 156.000
68.26508 169.000
68.28502 147.000
68.30497 116.000
68.32492 126.000
68.34486 167.000
68.36481 156.000
68.38476 150.000
68.40470 143.000
68.42465 137.000
68.44460 152.000
68.46455 149.000
68.48449 128.000
68.50444 125.000
68.52439 136.000
68.54433 147.000
68.56428 146.000
68.58423 150.000
68.60417 148.000
68.62412 129.000
68.64407 147.000
68.66401 140.000
68.68396 125.000
68.70391 142.000
68.72386 137.000
68.74380 136.000
68.76375 153.000
68.78370 121.000
68.80364 146.000
68.82359 123.000
68.84354 133.000
68.86348 125.000
68.88343 126.000
68.90338 136.000
68.92333 133.000
68.94327 146.000
68.96322 134.000
68.98317 125.000
69.00311 150.000
69.02306 138.000
69.04301 127.000
69.06295 109.000
69.08290 141.000
69.10285 136.000
69.12279 133.000
69.14274 143.000
69.16269 119.000
69.18264 132.000
69.20258 125.000
69.22253 136.000
69.24248 140.000
69.26242 132.000
69.28237 160.000
69.30232 131.000
69.32226 131.000
69.34221 138.000
69.36216 108.000
69.38211 157.000
69.40205 128.000
69.42200 123.000
69.44195 114.000
69.46189 134.000
69.48184 142.000
69.50179 125.000
69.52173 127.000
69.54168 131.000
69.56163 135.000
69.58157 142.000
69.60152 126.000
69.62147 148.000
69.64142 150.000
69.66136 128.000
69.68131 141.000
69.70126 125.000
69.72120 119.000
69.74115 147.000
69.76110 134.000
69.78104 122.000
69.80099 134.000
69.82094 124.000
69.84089 136.000
69.86083 115.000
69.88078 140.000
69.90073 137.000
69.92067 120.000
69.94062 161.000
69.96057 150.000
69.98051 126.000
70.00046 145.000
70.02041 139.000
70.04035 119.000
70.06030 124.000
70.08025 127.000
70.10020 144.000
70.12014 129.000
70.14009 138.000
70.16004 125.000
70.17998 130.000
70.19993 129.000
70.21988 144.000
70.23982 146.000
70.25977 148.000
70.27972 125.000
70.29967 112.000
70.31961 127.000
70.33956 144.000
70.35951 128.000
70.37945 133.000
70.39940 122.000
70.41935 145.000
70.43929 104.000
70.45924 122.000
70.47919 147.000
70.49914 130.000
70.51908 133.000
70.53903 144.000
70.55898 128.000
70.57892 145.000
70.59887 136.000
70.61882 107.000
70.63876 120.000
70.65871 138.000
70.67866 152.000
70.69860 136.000
70.71855 107.000
70.73850 124.000
70.75845 120.000
70.77839 144.000
70.79834 150.000
70.81829 133.000
70.83823 139.000
70.85818 127.000
70.87813 129.000
70.89807 123.000
70.91802 152.000
70.93797 157.000
70.95792 134.000
70.97786 143.000
70.99781 125.000
71.01776 133.000
71.03770 138.000
71.05765 151.000
71.07760 141.000
71.09754 122.000
71.11749 129.000
71.13744 117.000
71.15738 130.000
71.17733 136.000
71.19728 136.000
71.21723 126.000
71.23717 138.000
71.25712 139.000
71.27707 130.000
71.29701 136.000
71.31696 154.000
71.33691 138.000
71.35685 177.000
71.37680 142.000
71.39675 153.000
71.41670 175.000
71.43664 177.000
71.45659 190.000
71.47654 190.000
71.49648 195.000
71.51643 172.000
71.53638 186.000
71.55632 176.000
71.57627 169.000
71.59622 170.000
71.61616 186.000
71.63611 178.000
71.65606 175.000
71.67601 161.000
71.69595 174.000
71.71590 185.000
71.73585 168.000
71.75579 167.000
71.77574 154.000
71.79569 141.000
71.81563 130.000
71.83558 134.000
71.85553 126.000
71.87548 128.000
71.89542 130.000
71.91537 140.000
71.93532 150.000
71.95526 155.000
71.97521 126.000
71.99516 144.000
72.01510 126.000
72.03505 144.000
72.05500 125.000
72.07495 141.000
72.09489 152.000
72.11484 127.000
72.13479 134.000
72.15473 133.000
72.17468 129.000
72.19463 139.000
72.21457 126.000
72.23452 136.000
72.25447 136.000
72.27441 148.000
72.29436 160.000
72.31431 160.000
72.33426 139.000
72.35420 152.000
72.37415 136.000
72.39410 131.000
72.41404 151.000
72.43399 139.000
72.45394 140.000
72.47388 125.000
72.49383 139.000
72.51378 133.000
72.53373 152.000
72.55367 129.000
72.57362 130.000
72.59357 135.000
72.61351 133.000
72.63346 110.000
72.65341 128.000
72.67335 148.000
72.69330 138.000
72.71325 138.000
72.73319 137.000
72.75314 120.000
72.77309 142.000
72.79304 147.000
72.81298 123.000
72.83293 155.000
72.85288 128.000
72.87282 149.000
72.89277 119.000
72.91272 129.000
72.93266 125.000
72.95261 123.000
72.97256 147.000
72.99251 125.000
73.01245 141.000
73.03240 104.000
73.05235 156.000
73.07229 132.000
73.09224 139.000
73.11219 144.000
73.13213 138.000
73.15208 119.000
73.17203 120.000
73.19197 129.000
73.21192 123.000
73.23187 142.000
73.25182 147.000
73.27176 141.000
73.29171 167.000
73.31166 144.000
73.33160 172.000
73.35155 140.000
73.37150 131.000
73.39144 165.000
73.41139 159.000
73.43134 158.000
73.45129 145.000
73.47123 170.000
73.49118 183.000
73.51113 146.000
73.53107 157.000
73.55102 157.000
73.57097 171.000
73.59091 163.000
73.61086 185.000
73.63081 172.000
73.65076 202.000
73.67070 166.000
73.69065 193.000
73.71060 152.000
73.73054 183.000
73.75049 165.000
73.77044 158.000
73.79038 164.000
73.81033 168.000
73.83028 169.000
73.85022 148.000
73.87017 171.000
73.89012 144.000
73.91007 145.000
73.93001 134.000
73.94996 186.000
73.96991 171.000
73.98985 137.000
74.00980 157.000
74.02975 119.000
74.04969 160.000
74.06964 153.000
74.08959 133.000
74.10954 138.000
74.12948 157.000
74.14943 156.000
74.16938 136.000
74.18932 136.000
74.20927 148.000
74.22922 140.000
74.24916 159.000
74.26911 158.000
74.28906 145.000
74.30900 155.000
74.32895 149.000
74.34890 140.000
74.36885 156.000
74.38879 157.000
74.40874 162.000
74.42869 197.000
74.44863 179.000
74.46858 200.000
74.48853 231.000
74.50847 260.000
74.52842 264.000
74.54837 319.000
74.56832 324.000
74.58826 312.000
74.60821 272.000
74.62816 304.000
74.64810 253.000
74.66805 276.000
74.68800 229.000
74.70794 256.000
74.72789 249.000
74.74784 231.000
74.76778 227.000
74.78773 232.000
74.80768 244.000
74.82763 243.000
74.84757 226.000
74.86752 204.000
74.88747 206.000
74.90741 213.000
74.92736 192.000
74.94731 196.000
74.96725 189.000
74.98720 186.000
75.00715 189.000
75.02710 227.000
75.04704 204.000
75.06699 196.000
75.08694 155.000
75.10688 185.000
75.12683 196.000
75.14678 171.000
75.16672 185.000
75.18667 175.000
75.20662 162.000
75.22657 184.000
75.24651 210.000
75.26646 197.000
75.28641 147.000
75.30635 178.000
75.32630 190.000
75.34625 184.000
75.36619 202.000
75.38614 160.000
75.40609 211.000
75.42603 190.000
75.44598 196.000
75.46593 223.000
75.48588 210.000
75.50582 233.000
75.52577 191.000
75.54572 235.000
75.56566 197.000
75.58561 251.000
75.60556 248.000
75.62550 236.000
75.64545 216.000
75.66540 198.000
75.68535 197.000
75.70529 213.000
75.72524 205.000
75.74519 235.000
75.76513 184.000
75.78508 200.000
75.80503 186.000
75.82497 192.000
75.84492 177.000
75.86487 167.000
75.88481 167.000
75.90476 170.000
75.92471 151.000
75.94466 162.000
75.96460 168.000
75.98455 142.000
76.00450 145.000
76.02444 149.000
76.04439 161.000
76.06434 143.000
76.08428 129.000
76.10423 151.000
76.12418 158.000
76.14413 142.000
76.16407 173.000
76.18402 141.000
76.20397 134.000
76.22391 145.000
76.24386 123.000
76.26381 148.000
76.28375 171.000
76.30370 139.000
76.32365 138.000
76.34359 135.000
76.36354 138.000
76.38349 127.000
76.40344 150.000
76.42338 142.000
76.44333 139.000
76.46328 143.000
76.48322 125.000
76.50317 124.000
76.52312 148.000
76.54306 136.000
76.56301 127.000
76.58296 137.000
76.60291 135.000
76.62285 136.000
76.64280 133.000
76.66275 145.000
76.68269 140.000
76.70264 136.000
76.72259 127.000
76.74253 134.000
76.76248 121.000
76.78243 136.000
76.80238 151.000
76.82232 137.000
76.84227 146.000
76.86222 146.000
76.88216 134.000
76.90211 117.000
76.92206 144.000
76.94200 142.000
76.96195 115.000
76.98190 133.000
77.00184 138.000
77.02179 113.000
77.04174 129.000
77.06169 139.000
77.08163 132.000
77.10158 156.000
77.12153 129.000
77.14147 169.000
77.16142 140.000
77.18137 117.000
77.20131 121.000
77.22126 142.000
77.24121 126.000
77.26116 129.000
77.28110 135.000
77.30105 125.000
77.32100 128.000
77.34094 155.000
77.36089 139.000
77.38084 129.000
77.40078 140.000
77.42073 123.000
77.44068 138.000
77.46062 139.000
77.48057 132.000
77.50052 125.000
77.52047 126.000
77.54041 116.000
77.56036 146.000
77.58031 135.000
77.60025 135.000
77.62020 127.000
77.64015 134.000
77.66009 156.000
77.68004 147.000
77.69999 134.000
77.71994 165.000
77.73988 135.000
77.75983 158.000
77.77978 165.000
77.79972 170.000
77.81967 162.000
77.83962 151.000
77.85956 155.000
77.87951 157.000
77.89946 189.000
77.91940 154.000
77.93935 183.000
77.95930 170.000
77.97925 165.000
77.99919 175.000
78.01914 180.000
78.03909 177.000
78.05903 180.000
78.07898 181.000
78.09893 211.000
78.11887 200.000
78.13882 171.000
78.15877 194.000
78.17872 203.000
78.19866 165.000
78.21861 190.000
78.23856 169.000
78.25850 201.000
78.27845 214.000
78.29840 196.000
78.31834 187.000
78.33829 208.000
78.35824 191.000
78.37819 193.000
78.39813 204.000
78.41808 193.000
78.43803 194.000
78.45797 190.000
78.47792 180.000
78.49787 163.000
78.51781 197.000
78.53776 181.000
78.55771 163.000
78.57765 176.000
78.59760 183.000
78.61755 159.000
78.63750 158.000
78.65744 171.000
78.67739 172.000
78.69734 138.000
78.71728 117.000
78.73723 148.000
78.75718 156.000
78.77712 165.000
78.79707 147.000
78.81702 140.000
78.83697 161.000
78.85691 149.000
78.87686 148.000
78.89681 158.000
78.91675 152.000
78.93670 174.000
78.95665 158.000
78.97659 137.000
78.99654 169.000
79.01649 147.000
79.03643 146.000
79.05638 170.000
79.07633 187.000
79.09628 173.000
79.11622 155.000
79.13617 157.000
79.15612 160.000
79.17606 174.000
79.19601 160.000
79.21596 175.000
79.23590 156.000
79.25585 154.000
79.27580 177.000
79.29575 177.000
79.31569 175.000
79.33564 143.000
79.35559 185.000
79.37553 172.000
79.39548 145.000
79.41543 172.000
79.43537 160.000
79.45532 144.000
79.47527 156.000
79.49521 189.000
79.51516 185.000
79.53511 172.000
79.55506 183.000
79.57500 198.000
79.59495 202.000
79.61490 200.000
79.63484 192.000
79.65479 160.000
79.67474 176.000
79.69468 140.000
79.71463 180.000
79.73458 141.000
79.75453 154.000
79.77447 158.000
79.79442 160.000
79.81437 178.000
79.83431 155.000
79.85426 173.000
79.87421 155.000
79.89415 155.000
79.91410 151.000
79.93405 130.000
79.95399 148.000
79.97394 137.000
79.99389 119.000
80.01384 146.000
80.03378 149.000
80.05373 133.000
80.07368 145.000
80.09362 137.000
80.11357 143.000
80.13352 124.000
80.15346 121.000
80.17341 134.000
80.19336 130.000
80.21331 119.000
80.23325 120.000
80.25320 147.000
80.27315 132.000
80.29309 133.000
80.31304 130.000
80.33299 117.000
80.35293 133.000
80.37288 134.000
80.39283 138.000
80.41278 120.000
80.43272 133.000
80.45267 131.000
80.47262 120.000
80.49256 127.000
80.51251 144.000
80.53246 126.000
80.55240 156.000
80.57235 108.000
80.59230 139.000
80.61224 105.000
80.63219 151.000
80.65214 117.000
80.67209 122.000
80.69203 138.000
80.71198 133.000
80.73193 140.000
80.75187 117.000
80.77182 161.000
80.79177 158.000
80.81171 141.000
80.83166 143.000
80.85161 149.000
80.87156 131.000
80.89150 164.000
80.91145 149.000
80.93140 123.000
80.95134 127.000
80.97129 153.000
80.99124 125.000
81.01118 144.000
81.03113 133.000
81.05108 149.000
81.07102 122.000
81.09097 120.000
81.11092 138.000
81.13087 135.000
81.15081 130.000
81.17076 124.000
81.19071 146.000
81.21065 132.000
81.23060 137.000
81.25055 123.000
81.27049 131.000
81.29044 147.000
81.31039 139.000
81.33034 122.000
81.35028 135.000
81.37023 129.000
81.39018 126.000
81.41012 140.000
81.43007 126.000
81.45002 118.000
81.46996 128.000
81.48991 142.000
81.50986 156.000
81.52980 117.000
81.54975 110.000
81.56970 116.000
81.58965 134.000
81.60959 135.000
81.62954 128.000
81.64949 125.000
81.66943 130.000
81.68938 139.000
81.70933 125.000
81.72927 138.000
81.74922 124.000
81.76917 120.000
81.78912 137.000
81.80906 125.000
81.82901 118.000
81.84896 128.000
81.86890 123.000
81.88885 149.000
81.90880 132.000
81.92874 128.000
81.94869 149.000
81.96864 130.000
81.98859 130.000
82.00853 143.000
82.02848 127.000
82.04843 140.000
82.06837 129.000
82.08832 112.000
82.10827 115.000
82.12821 149.000
82.14816 132.000
82.16811 125.000
82.18805 127.000
82.20800 111.000
82.22795 135.000
82.24790 122.000
82.26784 132.000
82.28779 141.000
82.30774 144.000
82.32768 131.000
82.34763 136.000
82.36758 130.000
82.38752 124.000
82.40747 165.000
82.42742 143.000
82.44737 147.000
82.46731 149.000
82.48726 119.000
82.50721 160.000
82.52715 148.000
82.54710 150.000
82.56705 122.000
82.58699 136.000
82.60694 141.000
82.62689 160.000
82.64683 135.000
82.66678 148.000
82.68673 149.000
82.70668 144.000
82.72662 149.000
82.74657 126.000
82.76652 142.000
82.78646 140.000
82.80641 118.000
82.82636 148.000
82.84630 149.000
82.86625 129.000
82.88620 151.000
82.90615 128.000
82.92609 132.000
82.94604 131.000
82.96599 121.000
82.98593 143.000
83.00588 131.000
83.02583 119.000
83.04577 141.000
83.06572 145.000
83.08567 136.000
83.10561 126.000
83.12556 135.000
83.14551 140.000
83.16546 125.000
83.18540 137.000
83.20535 142.000
83.22530 125.000
83.24524 142.000
83.26519 137.000
83.28514 131.000
83.30508 109.000
83.32503 136.000
83.34498 141.000
83.36493 129.000
83.38487 126.000
83.40482 152.000
83.42477 123.000
83.44471 129.000
83.46466 135.000
83.48461 141.000
83.50455 110.000
83.52450 133.000
83.54445 136.000
83.56440 147.000
83.58434 132.000
83.60429 140.000
83.62424 139.000
83.64418 150.000
83.66413 137.000
83.68408 134.000
83.70402 138.000
83.72397 125.000
83.74392 129.000
83.76386 132.000
83.78381 131.000
83.80376 125.000
83.82371 126.000
83.84365 158.000
83.86360 146.000
83.88355 140.000
83.90349 163.000
83.92344 155.000
83.94339 127.000
83.96333 131.000
83.98328 143.000
84.00323 144.000
84.02318 137.000
84.04312 118.000
84.06307 139.000
84.08302 138.000
84.10296 142.000
84.12291 136.000
84.14286 140.000
84.16280 136.000
84.18275 134.000
84.20270 121.000
84.22264 134.000
84.24259 111.000
84.26254 169.000
84.28249 155.000
84.30243 152.000
84.32238 171.000
84.34233 171.000
84.36227 150.000
84.38222 159.000
84.40217 163.000
84.42211 151.000
84.44206 150.000
84.46201 172.000
84.48196 165.000
84.50190 162.000
84.52185 188.000
84.54180 192.000
84.56174 179.000
84.58169 170.000
84.60164 167.000
84.62158 178.000
84.64153 181.000
84.66148 170.000
84.68142 176.000
84.70137 185.000
84.72132 187.000
84.74127 146.000
84.76121 176.000
84.78116 153.000
84.80111 151.000
84.82105 166.000
84.84100 180.000
84.86095 169.000
84.88089 155.000
84.90084 144.000
84.92079 162.000
84.94074 166.000
84.96068 161.000
84.98063 130.000
85.00058 156.000
85.02052 158.000
85.04047 171.000
85.06042 147.000
85.08036 142.000
85.10031 144.000
85.12026 179.000
85.14021 146.000
85.16015 132.000
85.18010 146.000
85.20005 161.000
85.21999 134.000
85.23994 128.000
85.25989 147.000
85.27983 134.000
85.29978 135.000
85.31973 132.000
85.33967 124.000
85.35962 134.000
85.37957 120.000
85.39952 123.000
85.41946 139.000
85.43941 139.000
85.45936 143.000
85.47930 134.000
85.49925 133.000
85.51920 127.000
85.53914 129.000
85.55909 136.000
85.57904 127.000
85.59899 136.000
85.61893 130.000
85.63888 125.000
85.65883 134.000
85.67877 145.000
85.69872 128.000
85.71867 142.000
85.73861 112.000
85.75856 135.000
85.77851 132.000
85.79845 152.000
85.81840 135.000
85.83835 126.000
85.85830 109.000
85.87824 142.000
85.89819 132.000
85.91814 154.000
85.93808 116.000
85.95803 128.000
85.97798 131.000
85.99792 142.000
86.01787 126.000
86.03782 142.000
86.05777 126.000
86.07771 122.000
86.09766 119.000
86.11761 147.000
86.13755 131.000
86.15750 123.000
86.17745 111.000
86.19739 130.000
86.21734 131.000
86.23729 137.000
86.25723 125.000
86.27718 131.000
86.29713 135.000
86.31708 129.000
86.33702 131.000
86.35697 128.000
86.37692 127.000
86.39686 134.000
86.41681 138.000
86.43676 124.000
86.45670 109.000
86.47665 146.000
86.49660 120.000
86.51655 120.000
86.53649 137.000
86.55644 138.000
86.57639 149.000
86.59633 140.000
86.61628 128.000
86.63623 121.000
86.65617 122.000
86.67612 141.000
86.69607 141.000
86.71602 140.000
86.73596 152.000
86.75591 131.000
86.77586 140.000
86.79580 136.000
86.81575 129.000
86.83570 123.000
86.85564 123.000
86.87559 130.000
86.89554 140.000
86.91548 152.000
86.93543 156.000
86.95538 136.000
86.97533 140.000
86.99527 162.000
87.01522 141.000
87.03517 155.000
87.05511 142.000
87.07506 136.000
87.09501 145.000
87.11495 145.000
87.13490 162.000
87.15485 139.000
87.17480 136.000
87.19474 133.000
87.21469 135.000
87.23464 151.000
87.25458 163.000
87.27453 169.000
87.29448 176.000
87.31442 169.000
87.33437 150.000
87.35432 170.000
87.37426 156.000
87.39421 194.000
87.41416 210.000
87.43411 185.000
87.45405 225.000
87.47400 218.000
87.49395 218.000
87.51389 188.000
87.53384 182.000
87.55379 182.000
87.57373 188.000
87.59368 176.000
87.61363 185.000
87.63358 185.000
87.65352 193.000
87.67347 184.000
87.69342 166.000
87.71336 159.000
87.73331 167.000
87.75326 167.000
87.77320 165.000
87.79315 161.000
87.81310 183.000
87.83304 144.000
87.85299 168.000
87.87294 156.000
87.89289 162.000
87.91283 164.000
87.93278 137.000
87.95273 138.000
87.97267 155.000
87.99262 135.000
88.01257 123.000
88.03251 160.000
88.05246 128.000
88.07241 136.000
88.09236 124.000
88.11230 129.000
88.13225 148.000
88.15220 140.000
88.17214 135.000
88.19209 134.000
88.21204 132.000
88.23198 147.000
88.25193 121.000
88.27188 134.000
88.29183 150.000
88.31177 125.000
88.33172 129.000
88.35167 129.000
88.37161 137.000
88.39156 136.000
88.41151 138.000
88.43145 139.000
88.45140 136.000
88.47135 133.000
88.49129 142.000
88.51124 139.000
88.53119 126.000
88.55114 114.000
88.57108 153.000
88.59103 133.000
88.61098 131.000
88.63092 139.000
88.65087 136.000
88.67082 133.000
88.69076 143.000
88.71071 138.000
88.73066 119.000
88.75061 132.000
88.77055 129.000
88.79050 130.000
88.81045 121.000
88.83039 174.000
88.85034 143.000
88.87029 129.000
88.89023 113.000
88.91018 112.000
88.93013 134.000
88.95007 148.000
88.97002 135.000
88.98997 118.000
89.00992 139.000
89.02986 150.000
89.04981 145.000
89.06976 127.000
89.08970 138.000
89.10965 114.000
89.12960 122.000
89.14954 129.000
89.16949 127.000
89.18944 134.000
89.20939 119.000
89.22933 143.000
89.24928 123.000
89.26923 131.000
89.28917 139.000
89.30912 127.000
89.32907 127.000
89.34901 127.000
89.36896 137.000
89.38891 152.000
89.40885 119.000
89.42880 139.000
89.44875 114.000
89.46870 135.000
89.48864 137.000
89.50859 168.000
89.52854 110.000
89.54848 127.000
89.56843 130.000
89.58838 136.000
89.60832 128.000
89.62827 128.000
89.64822 129.000
89.66817 136.000
89.68811 148.000
89.70806 113.000
89.72801 142.000
89.74795 144.000
89.76790 130.000
89.78785 127.000
89.80779 144.000
89.82774 132.000
89.84769 138.000
89.86764 143.000
89.88758 144.000
89.90753 139.000
89.92748 142.000
89.94742 141.000
89.96737 145.000
89.98732 131.000
90.00726 131.000
