10.00000 60.000
10.01995 54.000
10.03989 54.000
10.05984 62.000
10.07979 39.000
10.09973 65.000
10.11968 65.000
10.13963 55.000
10.15958 54.000
10.17952 58.000
10.19947 61.000
10.21942 57.000
10.23936 61.000
10.25931 53.000
10.27926 58.000
10.29920 53.000
10.31915 53.000
10.33910 44.000
10.35905 57.000
10.37899 51.000
10.39894 58.000
10.41889 55.000
10.43883 46.000
10.45878 69.000
10.47873 59.000
10.49867 56.000
10.51862 66.000
10.53857 58.000
10.55851 51.000
10.57846 49.000
10.59841 49.000
10.61836 63.000
10.63830 60.000
10.65825 49.000
10.67820 68.000
10.69814 57.000
10.71809 46.000
10.73804 58.000
10.75798 54.000
10.77793 44.000
10.79788 50.000
10.81783 54.000
10.83777 46.000
10.85772 38.000
10.87767 45.000
10.89761 44.000
10.91756 40.000
10.93751 49.000
10.95745 66.000
10.97740 58.000
10.99735 50.000
11.01730 54.000
11.03724 62.000
11.05719 45.000
11.07714 65.000
11.09708 56.000
11.11703 54.000
11.13698 54.000
11.15692 66.000
11.17687 55.000
11.19682 54.000
11.21676 58.000
11.23671 47.000
11.25666 43.000
11.27661 54.000
11.29655 55.000
11.31650 45.000
11.33645 51.000
11.35639 53.000
11.37634 58.000
11.39629 37.000
11.41623 54.000
11.43618 51.000
11.45613 58.000
11.47608 46.000
11.49602 53.000
11.51597 51.000
11.53592 49.000
11.55586 59.000
11.57581 72.000
11.59576 65.000
11.61570 72.000
11.63565 54.000
11.65560 40.000
11.67554 40.000
11.69549 64.000
11.71544 44.000
11.73539 52.000
11.75533 51.000
11.77528 50.000
11.79523 52.000
11.81517 54.000
11.83512 56.000
11.85507 53.000
11.87501 73.000
11.89496 44.000
11.91491 52.000
11.93486 53.000
11.95480 55.000
11.97475 64.000
11.99470 51.000
12.01464 60.000
12.03459 54.000
12.05454 51.000
12.07448 46.000
12.09443 43.000
12.11438 59.000
12.13432 62.000
12.15427 40.000
12.17422 54.000
12.19417 60.000
12.21411 52.000
12.23406 54.000
12.25401 52.000
12.27395 55.000
12.29390 50.000
12.31385 60.000
12.33379 48.000
12.35374 56.000
12.37369 52.000
12.39364 48.000
12.41358 56.000
12.43353 56.000
12.45348 51.000
12.47342 48.000
12.49337 42.000
12.51332 49.000
12.53326 54.000
12.55321 52.000
12.57316 54.000
12.59311 46.000
12.61305 61.000
12.63300 49.000
12.65295 47.000
12.67289 64.000
12.69284 43.000
12.71279 56.000
12.73273 54.000
12.75268 52.000
12.77263 59.000
12.79257 49.000
12.81252 52.000
12.83247 57.000
12.85242 55.000
12.87236 47.000
12.89231 48.000
12.91226 57.000
12.93220 43.000
12.95215 58.000
12.97210 54.000
12.99204 62.000
13.01199 48.000
13.03194 51.000
13.05189 42.000
13.07183 57.000
13.09178 63.000
13.11173 41.000
13.13167 45.000
13.15162 45.000
13.17157 45.000
13.19151 39.000
13.21146 66.000
13.23141 49.000
13.25135 42.000
13.27130 71.000
13.29125 49.000
13.31120 49.000
13.33114 49.000
13.35109 48.000
13.37104 59.000
13.39098 58.000
13.41093 56.000
13.43088 38.000
13.45082 56.000
13.47077 53.000
13.49072 61.000
13.51067 55.000
13.53061 73.000
13.55056 56.000
13.57051 51.000
13.59045 49.000
13.61040 59.000
13.63035 59.000
13.65029 43.000
13.67024 35.000
13.69019 60.000
13.71013 56.000
13.73008 61.000
13.75003 53.000
13.76998 58.000
13.78992 51.000
13.80987 60.000
13.82982 47.000
13.84976 54.000
13.86971 49.000
13.88966 58.000
13.90960 53.000
13.92955 65.000
13.94950 63.000
13.96945 45.000
13.98939 58.000
14.00934 60.000
14.02929 43.000
14.04923 54.000
14.06918 48.000
14.08913 52.000
14.10907 56.000
14.12902 52.000
14.14897 48.000
14.16892 39.000
14.18886 47.000
14.20881 49.000
14.22876 59.000
14.24870 46.000
14.26865 58.000
14.28860 57.000
14.30854 59.000
14.32849 52.000
14.34844 41.000
14.36838 54.000
14.38833 57.000
14.40828 72.000
14.42823 68.000
14.44817 43.000
14.46812 59.000
14.48807 71.000
14.50801 44.000
14.52796 39.000
14.54791 56.000
14.56785 51.000
14.58780 68.000
14.60775 41.000
14.62770 41.000
14.64764 63.000
14.66759 61.000
14.68754 55.000
14.70748 55.000
14.72743 46.000
14.74738 59.000
14.76732 48.000
14.78727 60.000
14.80722 57.000
14.82716 63.000
14.84711 54.000
14.86706 74.000
14.88701 41.000
14.90695 67.000
14.92690 56.000
14.94685 52.000
14.96679 63.000
14.98674 49.000
15.00669 58.000
15.02663 53.000
15.04658 56.000
15.06653 62.000
15.08648 55.000
15.10642 69.000
15.12637 49.000
15.14632 61.000
15.16626 69.000
15.18621 43.000
15.20616 69.000
15.22610 57.000
15.24605 60.000
15.26600 43.000
15.28594 62.000
15.30589 64.000
15.32584 68.000
15.34579 58.000
15.36573 69.000
15.38568 52.000
15.40563 70.000
15.42557 56.000
15.44552 60.000
15.46547 60.000
15.48541 73.000
15.50536 67.000
15.52531 74.000
15.54526 75.000
15.56520 79.000
15.58515 85.000
15.60510 89.000
15.62504 91.000
15.64499 94.000
15.66494 98.000
15.68488 110.000
15.70483 97.000
15.72478 118.000
15.74472 142.000
15.76467 160.000
15.78462 151.000
15.80457 190.000
15.82451 200.000
15.84446 217.000
15.86441 211.000
15.88435 186.000
15.90430 163.000
15.92425 167.000
15.94419 164.000
15.96414 210.000
15.98409 210.000
16.00404 238.000
16.02398 256.000
16.04393 291.000
16.06388 366.000
16.08382 355.000
16.10377 410.000
16.12372 492.000
16.14366 581.000
16.16361 688.000
16.18356 860.000
16.20351 1016.000
16.22345 1214.000
16.24340 1336.000
16.26335 1565.000
16.28329 1604.000
16.30324 1739.000
16.32319 1694.000
16.34313 1746.000
16.36308 1596.000
16.38303 1488.000
16.40297 1165.000
16.42292 954.000
16.44287 703.000
16.46282 545.000
16.48276 428.000
16.50271 385.000
16.52266 257.000
16.54260 240.000
16.56255 219.000
16.58250 192.000
16.60244 181.000
16.62239 165.000
16.64234 157.000
16.66229 139.000
16.68223 142.000
16.70218 134.000
16.72213 124.000
16.74207 118.000
16.76202 113.000
16.78197 122.000
16.80191 98.000
16.82186 117.000
16.84181 90.000
16.86175 99.000
16.88170 92.000
16.90165 89.000
16.92160 95.000
16.94154 94.000
16.96149 96.000
16.98144 81.000
17.00138 90.000
17.02133 80.000
17.04128 94.000
17.06122 92.000
17.08117 73.000
17.10112 80.000
17.12107 79.000
17.14101 93.000
17.16096 68.000
17.18091 72.000
17.20085 75.000
17.22080 86.000
17.24075 63.000
17.26069 79.000
17.28064 70.000
17.30059 65.000
17.32053 69.000
17.34048 65.000
17.36043 74.000
17.38038 72.000
17.40032 60.000
17.42027 65.000
17.44022 51.000
17.46016 56.000
17.48011 61.000
17.50006 60.000
17.52000 72.000
17.53995 72.000
17.55990 66.000
17.57985 60.000
17.59979 62.000
17.61974 61.000
17.63969 56.000
17.65963 58.000
17.67958 76.000
17.69953 57.000
17.71947 51.000
17.73942 51.000
17.75937 80.000
17.77932 66.000
17.79926 53.000
17.81921 64.000
17.83916 45.000
17.85910 59.000
17.87905 68.000
17.89900 62.000
17.91894 46.000
17.93889 73.000
17.95884 61.000
17.97878 68.000
17.99873 60.000
18.01868 57.000
18.03863 57.000
18.05857 61.000
18.07852 64.000
18.09847 57.000
18.11841 72.000
18.13836 45.000
18.15831 63.000
18.17825 67.000
18.19820 70.000
18.21815 53.000
18.23810 65.000
18.25804 69.000
18.27799 94.000
18.29794 74.000
18.31788 93.000
18.33783 131.000
18.35778 161.000
18.37772 195.000
18.39767 248.000
18.41762 282.000
18.43756 274.000
18.45751 209.000
18.47746 208.000
18.49741 153.000
18.51735 124.000
18.53730 89.000
18.55725 86.000
18.57719 67.000
18.59714 66.000
18.61709 84.000
18.63703 60.000
18.65698 60.000
18.67693 54.000
18.69688 64.000
18.71682 57.000
18.73677 55.000
18.75672 55.000
18.77666 51.000
18.79661 59.000
18.81656 60.000
18.83650 46.000
18.85645 52.000
18.87640 62.000
18.89634 66.000
18.91629 44.000
18.93624 47.000
18.95619 49.000
18.97613 46.000
18.99608 44.000
19.01603 61.000
19.03597 41.000
19.05592 42.000
19.07587 45.000
19.09581 51.000
19.11576 38.000
19.13571 50.000
19.15566 56.000
19.17560 48.000
19.19555 53.000
19.21550 54.000
19.23544 39.000
19.25539 45.000
19.27534 41.000
19.29528 46.000
19.31523 54.000
19.33518 48.000
19.35513 55.000
19.37507 45.000
19.39502 53.000
19.41497 56.000
19.43491 31.000
19.45486 52.000
19.47481 55.000
19.49475 54.000
19.51470 55.000
19.53465 61.000
19.55459 54.000
19.57454 52.000
19.59449 40.000
19.61444 42.000
19.63438 47.000
19.65433 72.000
19.67428 50.000
19.69422 54.000
19.71417 50.000
19.73412 48.000
19.75406 41.000
19.77401 58.000
19.79396 49.000
19.81391 44.000
19.83385 47.000
19.85380 46.000
19.87375 43.000
19.89369 40.000
19.91364 44.000
19.93359 45.000
19.95353 52.000
19.97348 42.000
19.99343 36.000
20.01337 50.000
20.03332 44.000
20.05327 47.000
20.07322 64.000
20.09316 57.000
20.11311 36.000
20.13306 59.000
20.15300 47.000
20.17295 51.000
20.19290 58.000
20.21284 49.000
20.23279 43.000
20.25274 55.000
20.27269 51.000
20.29263 37.000
20.31258 34.000
20.33253 53.000
20.35247 52.000
20.37242 39.000
20.39237 48.000
20.41231 41.000
20.43226 46.000
20.45221 52.000
20.47215 52.000
20.49210 60.000
20.51205 71.000
20.53200 73.000
20.55194 84.000
20.57189 67.000
20.59184 65.000
20.61178 89.000
20.63173 77.000
20.65168 103.000
20.67162 84.000
20.69157 78.000
20.71152 88.000
20.73147 112.000
20.75141 98.000
20.77136 109.000
20.79131 122.000
20.81125 93.000
20.83120 104.000
20.85115 111.000
20.87109 96.000
20.89104 85.000
20.91099 94.000
20.93094 59.000
20.95088 50.000
20.97083 68.000
20.99078 63.000
21.01072 49.000
21.03067 57.000
21.05062 60.000
21.07056 42.000
21.09051 51.000
21.11046 43.000
21.13040 52.000
21.15035 47.000
21.17030 62.000
21.19025 59.000
21.21019 57.000
21.23014 42.000
21.25009 46.000
21.27003 53.000
21.28998 55.000
21.30993 62.000
21.32987 47.000
21.34982 50.000
21.36977 50.000
21.38972 38.000
21.40966 51.000
21.42961 51.000
21.44956 45.000
21.46950 37.000
21.48945 41.000
21.50940 45.000
21.52934 53.000
21.54929 47.000
21.56924 41.000
21.58918 61.000
21.60913 36.000
21.62908 46.000
21.64903 42.000
21.66897 37.000
21.68892 43.000
21.70887 50.000
21.72881 44.000
21.74876 52.000
21.76871 42.000
21.78865 53.000
21.80860 48.000
21.82855 56.000
21.84850 45.000
21.86844 43.000
21.88839 46.000
21.90834 48.000
21.92828 45.000
21.94823 45.000
21.96818 37.000
21.98812 47.000
22.00807 33.000
22.02802 63.000
22.04796 51.000
22.06791 47.000
22.08786 53.000
22.10781 49.000
22.12775 53.000
22.14770 30.000
22.16765 55.000
22.18759 42.000
22.20754 70.000
22.22749 37.000
22.24743 45.000
22.26738 54.000
22.28733 43.000
22.30728 41.000
22.32722 41.000
22.34717 56.000
22.36712 41.000
22.38706 36.000
22.40701 49.000
22.42696 43.000
22.44690 50.000
22.46685 55.000
22.48680 35.000
22.50675 44.000
22.52669 38.000
22.54664 50.000
22.56659 43.000
22.58653 52.000
22.60648 45.000
22.62643 52.000
22.64637 55.000
22.66632 49.000
22.68627 57.000
22.70621 40.000
22.72616 50.000
22.74611 44.000
22.76606 69.000
22.78600 54.000
22.80595 39.000
22.82590 46.000
22.84584 63.000
22.86579 38.000
22.88574 40.000
22.90568 44.000
22.92563 49.000
22.94558 54.000
22.96553 40.000
22.98547 33.000
23.00542 54.000
23.02537 43.000
23.04531 49.000
23.06526 34.000
23.08521 36.000
23.10515 42.000
23.12510 38.000
23.14505 50.000
23.16499 42.000
23.18494 34.000
23.20489 46.000
23.22484 43.000
23.24478 46.000
23.26473 46.000
23.28468 59.000
23.30462 40.000
23.32457 45.000
23.34452 51.000
23.36446 51.000
23.38441 61.000
23.40436 34.000
23.42431 47.000
23.44425 48.000
23.46420 46.000
23.48415 37.000
23.50409 54.000
23.52404 43.000
23.54399 44.000
23.56393 62.000
23.58388 46.000
23.60383 33.000
23.62377 40.000
23.64372 51.000
23.66367 36.000
23.68362 57.000
23.70356 46.000
23.72351 54.000
23.74346 50.000
23.76340 43.000
23.78335 52.000
23.80330 41.000
23.82324 44.000
23.84319 35.000
23.86314 38.000
23.88309 46.000
23.90303 45.000
23.92298 52.000
23.94293 41.000
23.96287 45.000
23.98282 55.000
24.00277 42.000
24.02271 55.000
24.04266 57.000
24.06261 41.000
24.08256 47.000
24.10250 42.000
24.12245 51.000
24.14240 48.000
24.16234 47.000
24.18229 35.000
24.20224 45.000
24.22218 55.000
24.24213 46.000
24.26208 51.000
24.28202 46.000
24.30197 63.000
24.32192 45.000
24.34187 41.000
24.36181 39.000
24.38176 59.000
24.40171 50.000
24.42165 48.000
24.44160 40.000
24.46155 52.000
24.48149 57.000
24.50144 43.000
24.52139 53.000
24.54134 47.000
24.56128 33.000
24.58123 41.000
24.60118 51.000
24.62112 45.000
24.64107 40.000
24.66102 47.000
24.68096 51.000
24.70091 49.000
24.72086 47.000
24.74080 43.000
24.76075 47.000
24.78070 46.000
24.80065 37.000
24.82059 50.000
24.84054 54.000
24.86049 45.000
24.88043 41.000
24.90038 45.000
24.92033 50.000
24.94027 51.000
24.96022 45.000
24.98017 58.000
25.00012 38.000
25.02006 51.000
25.04001 42.000
25.05996 33.000
25.07990 42.000
25.09985 41.000
25.11980 46.000
25.13974 42.000
25.15969 56.000
25.17964 42.000
25.19958 39.000
25.21953 47.000
25.23948 43.000
25.25943 44.000
25.27937 44.000
25.29932 51.000
25.31927 32.000
25.33921 57.000
25.35916 35.000
25.37911 48.000
25.39905 43.000
25.41900 47.000
25.43895 42.000
25.45890 52.000
25.47884 40.000
25.49879 43.000
25.51874 39.000
25.53868 38.000
25.55863 48.000
25.57858 56.000
25.59852 52.000
25.61847 37.000
25.63842 48.000
25.65837 48.000
25.67831 58.000
25.69826 57.000
25.71821 43.000
25.73815 56.000
25.75810 51.000
25.77805 39.000
25.79799 48.000
25.81794 54.000
25.83789 35.000
25.85783 38.000
25.87778 52.000
25.89773 55.000
25.91768 47.000
25.93762 42.000
25.95757 51.000
25.97752 57.000
25.99746 54.000
26.01741 44.000
26.03736 47.000
26.05730 49.000
26.07725 44.000
26.09720 47.000
26.11715 43.000
26.13709 51.000
26.15704 42.000
26.17699 39.000
26.19693 52.000
26.21688 59.000
26.23683 45.000
26.25677 32.000
26.27672 47.000
26.29667 47.000
26.31661 62.000
26.33656 63.000
26.35651 48.000
26.37646 55.000
26.39640 46.000
26.41635 46.000
26.43630 40.000
26.45624 41.000
26.47619 54.000
26.49614 50.000
26.51608 58.000
26.53603 63.000
26.55598 55.000
26.57593 48.000
26.59587 37.000
26.61582 40.000
26.63577 44.000
26.65571 36.000
26.67566 51.000
26.69561 47.000
26.71555 51.000
26.73550 48.000
26.75545 57.000
26.77539 39.000
26.79534 38.000
26.81529 45.000
26.83524 49.000
26.85518 49.000
26.87513 54.000
26.89508 44.000
26.91502 39.000
26.93497 40.000
26.95492 42.000
26.97486 49.000
26.99481 51.000
27.01476 59.000
27.03471 57.000
27.05465 50.000
27.07460 60.000
27.09455 42.000
27.11449 38.000
27.13444 49.000
27.15439 47.000
27.17433 53.000
27.19428 37.000
27.21423 51.000
27.23417 48.000
27.25412 54.000
27.27407 42.000
27.29402 48.000
27.31396 65.000
27.33391 48.000
27.35386 52.000
27.37380 53.000
27.39375 50.000
27.41370 56.000
27.43364 54.000
27.45359 41.000
27.47354 54.000
27.49349 52.000
27.51343 47.000
27.53338 46.000
27.55333 41.000
27.57327 43.000
27.59322 58.000
27.61317 58.000
27.63311 61.000
27.65306 49.000
27.67301 45.000
27.69296 54.000
27.71290 49.000
27.73285 56.000
27.75280 48.000
27.77274 63.000
27.79269 47.000
27.81264 58.000
27.83258 48.000
27.85253 50.000
27.87248 47.000
27.89242 51.000
27.91237 49.000
27.93232 41.000
27.95227 52.000
27.97221 51.000
27.99216 57.000
28.01211 37.000
28.03205 58.000
28.05200 48.000
28.07195 37.000
28.09189 61.000
28.11184 49.000
28.13179 49.000
28.15174 34.000
28.17168 51.000
28.19163 49.000
28.21158 47.000
28.23152 49.000
28.25147 41.000
28.27142 47.000
28.29136 53.000
28.31131 45.000
28.33126 52.000
28.35120 53.000
28.37115 37.000
28.39110 51.000
28.41105 46.000
28.43099 54.000
28.45094 46.000
28.47089 56.000
28.49083 48.000
28.51078 39.000
28.53073 57.000
28.55067 55.000
28.57062 37.000
28.59057 45.000
28.61052 51.000
28.63046 48.000
28.65041 42.000
28.67036 42.000
28.69030 47.000
28.71025 49.000
28.73020 54.000
28.75014 52.000
28.77009 48.000
28.79004 48.000
28.80998 53.000
28.82993 56.000
28.84988 41.000
28.86983 56.000
28.88977 42.000
28.90972 55.000
28.92967 56.000
28.94961 77.000
28.96956 41.000
28.98951 53.000
29.00945 51.000
29.02940 67.000
29.04935 61.000
29.06930 55.000
29.08924 61.000
29.10919 62.000
29.12914 41.000
29.14908 50.000
29.16903 49.000
29.18898 47.000
29.20892 66.000
29.22887 56.000
29.24882 49.000
29.26877 39.000
29.28871 63.000
29.30866 47.000
29.32861 59.000
29.34855 71.000
29.36850 53.000
29.38845 51.000
29.40839 58.000
29.42834 54.000
29.44829 71.000
29.46823 55.000
29.48818 55.000
29.50813 51.000
29.52808 55.000
29.54802 60.000
29.56797 63.000
29.58792 62.000
29.60786 64.000
29.62781 64.000
29.64776 63.000
29.66770 52.000
29.68765 58.000
29.70760 47.000
29.72755 56.000
29.74749 58.000
29.76744 74.000
29.78739 57.000
29.80733 71.000
29.82728 63.000
29.84723 78.000
29.86717 71.000
29.88712 62.000
29.90707 65.000
29.92701 83.000
29.94696 67.000
29.96691 58.000
29.98686 81.000
30.00680 85.000
30.02675 95.000
30.04670 98.000
30.06664 114.000
30.08659 99.000
30.10654 98.000
30.12648 133.000
30.14643 149.000
30.16638 186.000
30.18633 203.000
30.20627 255.000
30.22622 331.000
30.24617 416.000
30.26611 490.000
30.28606 629.000
30.30601 580.000
30.32595 564.000
30.34590 551.000
30.36585 511.000
30.38579 427.000
30.40574 336.000
30.42569 229.000
30.44564 222.000
30.46558 185.000
30.48553 116.000
30.50548 125.000
30.52542 102.000
30.54537 81.000
30.56532 77.000
30.58526 93.000
30.60521 95.000
30.62516 60.000
30.64511 69.000
30.66505 69.000
30.68500 78.000
30.70495 67.000
30.72489 56.000
30.74484 72.000
30.76479 67.000
30.78473 55.000
30.80468 67.000
30.82463 64.000
30.84458 56.000
30.86452 60.000
30.88447 58.000
30.90442 50.000
30.92436 57.000
30.94431 51.000
30.96426 42.000
30.98420 67.000
31.00415 65.000
31.02410 66.000
31.04404 56.000
31.06399 55.000
31.08394 46.000
31.10389 66.000
31.12383 56.000
31.14378 53.000
31.16373 63.000
31.18367 65.000
31.20362 53.000
31.22357 54.000
31.24351 50.000
31.26346 50.000
31.28341 49.000
31.30336 68.000
31.32330 51.000
31.34325 63.000
31.36320 57.000
31.38314 62.000
31.40309 54.000
31.42304 51.000
31.44298 58.000
31.46293 53.000
31.48288 49.000
31.50282 59.000
31.52277 51.000
31.54272 53.000
31.56267 60.000
31.58261 53.000
31.60256 46.000
31.62251 49.000
31.64245 47.000
31.66240 65.000
31.68235 62.000
31.70229 62.000
31.72224 57.000
31.74219 56.000
31.76214 58.000
31.78208 57.000
31.80203 68.000
31.82198 54.000
31.84192 66.000
31.86187 58.000
31.88182 57.000
31.90176 63.000
31.92171 55.000
31.94166 62.000
31.96160 41.000
31.98155 61.000
32.00150 57.000
32.02145 51.000
32.04139 61.000
32.06134 61.000
32.08129 63.000
32.10123 61.000
32.12118 77.000
32.14113 60.000
32.16107 54.000
32.18102 66.000
32.20097 79.000
32.22092 49.000
32.24086 66.000
32.26081 58.000
32.28076 49.000
32.30070 52.000
32.32065 61.000
32.34060 73.000
32.36054 60.000
32.38049 58.000
32.40044 64.000
32.42039 80.000
32.44033 70.000
32.46028 85.000
32.48023 69.000
32.50017 74.000
32.52012 67.000
32.54007 63.000
32.56001 80.000
32.57996 61.000
32.59991 68.000
32.61985 89.000
32.63980 87.000
32.65975 98.000
32.67970 82.000
32.69964 105.000
32.71959 97.000
32.73954 109.000
32.75948 121.000
32.77943 148.000
32.79938 148.000
32.81932 130.000
32.83927 158.000
32.85922 202.000
32.87917 166.000
32.89911 186.000
32.91906 168.000
32.93901 199.000
32.95895 172.000
32.97890 181.000
32.99885 191.000
33.01879 188.000
33.03874 213.000
33.05869 204.000
33.07863 226.000
33.09858 216.000
33.11853 193.000
33.13848 164.000
33.15842 163.000
33.17837 151.000
33.19832 144.000
33.21826 123.000
33.23821 121.000
33.25816 95.000
33.27810 105.000
33.29805 82.000
33.31800 84.000
33.33795 81.000
33.35789 76.000
33.37784 66.000
33.39779 76.000
33.41773 70.000
33.43768 83.000
33.45763 65.000
33.47757 66.000
33.49752 67.000
33.51747 52.000
33.53741 74.000
33.55736 55.000
33.57731 72.000
33.59726 62.000
33.61720 54.000
33.63715 56.000
33.65710 67.000
33.67704 74.000
33.69699 62.000
33.71694 71.000
33.73688 63.000
33.75683 54.000
33.77678 69.000
33.79673 61.000
33.81667 75.000
33.83662 65.000
33.85657 83.000
33.87651 82.000
33.89646 87.000
33.91641 94.000
33.93635 92.000
33.95630 111.000
33.97625 83.000
33.99620 92.000
34.01614 97.000
34.03609 111.000
34.05604 108.000
34.07598 92.000
34.09593 95.000
34.11588 106.000
34.13582 101.000
34.15577 109.000
34.17572 112.000
34.19566 119.000
34.21561 120.000
34.23556 118.000
34.25551 137.000
34.27545 125.000
34.29540 136.000
34.31535 130.000
34.33529 153.000
34.35524 124.000
34.37519 131.000
34.39513 116.000
34.41508 95.000
34.43503 115.000
34.45498 123.000
34.47492 112.000
34.49487 102.000
34.51482 87.000
34.53476 101.000
34.55471 87.000
34.57466 86.000
34.59460 84.000
34.61455 96.000
34.63450 70.000
34.65444 102.000
34.67439 66.000
34.69434 66.000
34.71429 67.000
34.73423 83.000
34.75418 83.000
34.77413 82.000
34.79407 84.000
34.81402 71.000
34.83397 68.000
34.85391 78.000
34.87386 70.000
34.89381 86.000
34.91376 99.000
34.93370 88.000
34.95365 84.000
34.97360 97.000
34.99354 116.000
35.01349 128.000
35.03344 154.000
35.05338 120.000
35.07333 162.000
35.09328 181.000
35.11322 205.000
35.13317 248.000
35.15312 281.000
35.17307 314.000
35.19301 333.000
35.21296 388.000
35.23291 400.000
35.25285 380.000
35.27280 394.000
35.29275 382.000
35.31269 345.000
35.33264 392.000
35.35259 381.000
35.37254 358.000
35.39248 326.000
35.41243 335.000
35.43238 344.000
35.45232 304.000
35.47227 345.000
35.49222 364.000
35.51216 373.000
35.53211 412.000
35.55206 512.000
35.57201 620.000
35.59195 764.000
35.61190 967.000
35.63185 1230.000
35.65179 1553.000
35.67174 1824.000
35.69169 1951.000
35.71163 1739.000
35.73158 1701.000
35.75153 1497.000
35.77147 1405.000
35.79142 1176.000
35.81137 977.000
35.83132 827.000
35.85126 600.000
35.87121 473.000
35.89116 384.000
35.91110 346.000
35.93105 282.000
35.95100 211.000
35.97094 169.000
35.99089 228.000
36.01084 165.000
36.03079 150.000
36.05073 153.000
36.07068 149.000
36.09063 150.000
36.11057 155.000
36.13052 125.000
36.15047 118.000
36.17041 120.000
36.19036 124.000
36.21031 129.000
36.23025 123.000
36.25020 96.000
36.27015 100.000
36.29010 122.000
36.31004 116.000
36.32999 111.000
36.34994 136.000
36.36988 146.000
36.38983 168.000
36.40978 220.000
36.42972 215.000
36.44967 300.000
36.46962 346.000
36.48957 405.000
36.50951 423.000
36.52946 469.000
36.54941 459.000
36.56935 428.000
36.58930 451.000
36.60925 443.000
36.62919 372.000
36.64914 307.000
36.66909 323.000
36.68903 264.000
36.70898 242.000
36.72893 184.000
36.74888 177.000
36.76882 171.000
36.78877 150.000
36.80872 132.000
36.82866 116.000
36.84861 124.000
36.86856 137.000
36.88850 100.000
36.90845 113.000
36.92840 97.000
36.94835 88.000
36.96829 92.000
36.98824 83.000
37.00819 92.000
37.02813 77.000
37.04808 76.000
37.06803 90.000
37.08797 116.000
37.10792 76.000
37.12787 101.000
37.14781 116.000
37.16776 90.000
37.18771 95.000
37.20766 99.000
37.22760 96.000
37.24755 116.000
37.26750 145.000
37.28744 160.000
37.30739 206.000
37.32734 180.000
37.34728 181.000
37.36723 181.000
37.38718 165.000
37.40713 150.000
37.42707 118.000
37.44702 138.000
37.46697 130.000
37.48691 102.000
37.50686 92.000
37.52681 79.000
37.54675 73.000
37.56670 79.000
37.58665 77.000
37.60660 63.000
37.62654 55.000
37.64649 80.000
37.66644 74.000
37.68638 69.000
37.70633 65.000
37.72628 47.000
37.74622 64.000
37.76617 56.000
37.78612 67.000
37.80606 74.000
37.82601 67.000
37.84596 50.000
37.86591 66.000
37.88585 62.000
37.90580 76.000
37.92575 53.000
37.94569 55.000
37.96564 75.000
37.98559 64.000
38.00553 69.000
38.02548 62.000
38.04543 61.000
38.06538 49.000
38.08532 57.000
38.10527 69.000
38.12522 55.000
38.14516 51.000
38.16511 54.000
38.18506 57.000
38.20500 68.000
38.22495 66.000
38.24490 55.000
38.26484 55.000
38.28479 66.000
38.30474 69.000
38.32469 66.000
38.34463 61.000
38.36458 51.000
38.38453 62.000
38.40447 57.000
38.42442 57.000
38.44437 61.000
38.46431 47.000
38.48426 53.000
38.50421 53.000
38.52416 45.000
38.54410 53.000
38.56405 61.000
38.58400 57.000
38.60394 52.000
38.62389 68.000
38.64384 49.000
38.66378 58.000
38.68373 47.000
38.70368 51.000
38.72362 54.000
38.74357 45.000
38.76352 52.000
38.78347 55.000
38.80341 49.000
38.82336 49.000
38.84331 49.000
38.86325 50.000
38.88320 59.000
38.90315 52.000
38.92309 60.000
38.94304 71.000
38.96299 47.000
38.98294 63.000
39.00288 47.000
39.02283 63.000
39.04278 45.000
39.06272 69.000
39.08267 64.000
39.10262 58.000
39.12256 64.000
39.14251 66.000
39.16246 67.000
39.18241 56.000
39.20235 57.000
39.22230 63.000
39.24225 51.000
39.26219 56.000
39.28214 52.000
39.30209 65.000
39.32203 70.000
39.34198 58.000
39.36193 65.000
39.38187 54.000
39.40182 52.000
39.42177 59.000
39.44172 51.000
39.46166 57.000
39.48161 50.000
39.50156 51.000
39.52150 52.000
39.54145 53.000
39.56140 63.000
39.58134 62.000
39.60129 47.000
39.62124 70.000
39.64119 67.000
39.66113 55.000
39.68108 45.000
39.70103 51.000
39.72097 60.000
39.74092 58.000
39.76087 58.000
39.78081 56.000
39.80076 65.000
39.82071 62.000
39.84065 57.000
39.86060 43.000
39.88055 70.000
39.90050 51.000
39.92044 60.000
39.94039 71.000
39.96034 67.000
39.98028 63.000
40.00023 58.000
40.02018 59.000
40.04012 62.000
40.06007 74.000
40.08002 54.000
40.09997 55.000
40.11991 55.000
40.13986 46.000
40.15981 51.000
40.17975 64.000
40.19970 57.000
40.21965 67.000
40.23959 63.000
40.25954 55.000
40.27949 51.000
40.29943 52.000
40.31938 58.000
40.33933 59.000
40.35928 59.000
40.37922 64.000
40.39917 54.000
40.41912 83.000
40.43906 69.000
40.45901 53.000
40.47896 51.000
40.49890 67.000
40.51885 71.000
40.53880 76.000
40.55875 52.000
40.57869 66.000
40.59864 69.000
40.61859 63.000
40.63853 80.000
40.65848 64.000
40.67843 77.000
40.69837 66.000
40.71832 58.000
40.73827 64.000
40.75822 75.000
40.77816 64.000
40.79811 80.000
40.81806 75.000
40.83800 86.000
40.85795 76.000
40.87790 72.000
40.89784 85.000
40.91779 76.000
40.93774 92.000
40.95768 68.000
40.97763 92.000
40.99758 98.000
41.01753 108.000
41.03747 101.000
41.05742 109.000
41.07737 123.000
41.09731 119.000
41.11726 129.000
41.13721 140.000
41.15715 152.000
41.17710 179.000
41.19705 199.000
41.21700 213.000
41.23694 279.000
41.25689 333.000
41.27684 376.000
41.29678 494.000
41.31673 567.000
41.33668 760.000
41.35662 1077.000
41.37657 1285.000
41.39652 1544.000
41.41646 1779.000
41.43641 1742.000
41.45636 1803.000
41.47631 1724.000
41.49625 1640.000
41.51620 1495.000
41.53615 1375.000
41.55609 1282.000
41.57604 1049.000
41.59599 940.000
41.61593 747.000
41.63588 676.000
41.65583 504.000
41.67578 409.000
41.69572 359.000
41.71567 304.000
41.73562 299.000
41.75556 247.000
41.77551 255.000
41.79546 223.000
41.81540 184.000
41.83535 153.000
41.85530 150.000
41.87524 157.000
41.89519 116.000
41.91514 142.000
41.93509 117.000
41.95503 118.000
41.97498 129.000
41.99493 113.000
42.01487 97.000
42.03482 109.000
42.05477 119.000
42.07471 97.000
42.09466 92.000
42.11461 94.000
42.13456 89.000
42.15450 97.000
42.17445 87.000
42.19440 94.000
42.21434 105.000
42.23429 76.000
42.25424 93.000
42.27418 79.000
42.29413 88.000
42.31408 83.000
42.33403 84.000
42.35397 75.000
42.37392 67.000
42.39387 63.000
42.41381 70.000
42.43376 79.000
42.45371 79.000
42.47365 81.000
42.49360 66.000
42.51355 75.000
42.53349 66.000
42.55344 76.000
42.57339 67.000
42.59334 59.000
42.61328 89.000
42.63323 63.000
42.65318 58.000
42.67312 77.000
42.69307 71.000
42.71302 64.000
42.73296 63.000
42.75291 66.000
42.77286 58.000
42.79281 75.000
42.81275 80.000
42.83270 58.000
42.85265 79.000
42.87259 71.000
42.89254 76.000
42.91249 84.000
42.93243 79.000
42.95238 75.000
42.97233 85.000
42.99227 70.000
43.01222 60.000
43.03217 86.000
43.05212 77.000
43.07206 107.000
43.09201 96.000
43.11196 83.000
43.13190 91.000
43.15185 101.000
43.17180 113.000
43.19174 130.000
43.21169 138.000
43.23164 170.000
43.25159 180.000
43.27153 192.000
43.29148 227.000
43.31143 255.000
43.33137 366.000
43.35132 384.000
43.37127 390.000
43.39121 378.000
43.41116 403.000
43.43111 343.000
43.45105 324.000
43.47100 337.000
43.49095 288.000
43.51090 246.000
43.53084 227.000
43.55079 179.000
43.57074 156.000
43.59068 126.000
43.61063 108.000
43.63058 105.000
43.65052 91.000
43.67047 90.000
43.69042 98.000
43.71037 90.000
43.73031 76.000
43.75026 66.000
43.77021 71.000
43.79015 61.000
43.81010 54.000
43.83005 68.000
43.84999 70.000
43.86994 40.000
43.88989 56.000
43.90984 57.000
43.92978 69.000
43.94973 47.000
43.96968 53.000
43.98962 59.000
44.00957 50.000
44.02952 41.000
44.04946 52.000
44.06941 37.000
44.08936 57.000
44.10930 57.000
44.12925 47.000
44.14920 60.000
44.16915 43.000
44.18909 48.000
44.20904 43.000
44.22899 58.000
44.24893 48.000
44.26888 47.000
44.28883 68.000
44.30877 45.000
44.32872 64.000
44.34867 65.000
44.36862 60.000
44.38856 49.000
44.40851 53.000
44.42846 54.000
44.44840 56.000
44.46835 33.000
44.48830 48.000
44.50824 59.000
44.52819 60.000
44.54814 62.000
44.56808 52.000
44.58803 46.000
44.60798 65.000
44.62793 74.000
44.64787 69.000
44.66782 45.000
44.68777 77.000
44.70771 80.000
44.72766 73.000
44.74761 80.000
44.76755 104.000
44.78750 89.000
44.80745 88.000
44.82740 94.000
44.84734 89.000
44.86729 90.000
44.88724 79.000
44.90718 87.000
44.92713 85.000
44.94708 76.000
44.96702 76.000
44.98697 71.000
45.00692 49.000
45.02686 66.000
45.04681 67.000
45.06676 55.000
45.08671 46.000
45.10665 56.000
45.12660 43.000
45.14655 57.000
45.16649 59.000
45.18644 54.000
45.20639 49.000
45.22633 58.000
45.24628 51.000
45.26623 45.000
45.28618 57.000
45.30612 44.000
45.32607 51.000
45.34602 41.000
45.36596 51.000
45.38591 51.000
45.40586 59.000
45.42580 48.000
45.44575 48.000
45.46570 33.000
45.48565 58.000
45.50559 32.000
45.52554 58.000
45.54549 47.000
45.56543 54.000
45.58538 39.000
45.60533 42.000
45.62527 41.000
45.64522 52.000
45.66517 40.000
45.68511 42.000
45.70506 49.000
45.72501 39.000
45.74496 48.000
45.76490 46.000
45.78485 42.000
45.80480 50.000
45.82474 51.000
45.84469 47.000
45.86464 32.000
45.88458 46.000
45.90453 44.000
45.92448 45.000
45.94443 48.000
45.96437 60.000
45.98432 32.000
46.00427 51.000
46.02421 48.000
46.04416 47.000
46.06411 51.000
46.08405 35.000
46.10400 46.000
46.12395 45.000
46.14389 46.000
46.16384 45.000
46.18379 39.000
46.20374 50.000
46.22368 52.000
46.24363 33.000
46.26358 41.000
46.28352 57.000
46.30347 53.000
46.32342 51.000
46.34336 46.000
46.36331 51.000
46.38326 49.000
46.40321 50.000
46.42315 45.000
46.44310 44.000
46.46305 49.000
46.48299 54.000
46.50294 45.000
46.52289 54.000
46.54283 49.000
46.56278 55.000
46.58273 54.000
46.60267 54.000
46.62262 54.000
46.64257 60.000
46.66252 56.000
46.68246 49.000
46.70241 53.000
46.72236 51.000
46.74230 58.000
46.76225 47.000
46.78220 42.000
46.80214 46.000
46.82209 50.000
46.84204 52.000
46.86199 41.000
46.88193 41.000
46.90188 45.000
46.92183 53.000
46.94177 44.000
46.96172 49.000
46.98167 36.000
47.00161 40.000
47.02156 37.000
47.04151 55.000
47.06146 46.000
47.08140 55.000
47.10135 46.000
47.12130 44.000
47.14124 43.000
47.16119 44.000
47.18114 50.000
47.20108 37.000
47.22103 42.000
47.24098 45.000
47.26092 49.000
47.28087 47.000
47.30082 52.000
47.32077 42.000
47.34071 61.000
47.36066 52.000
47.38061 46.000
47.40055 53.000
47.42050 55.000
47.44045 58.000
47.46039 48.000
47.48034 39.000
47.50029 62.000
47.52024 57.000
47.54018 47.000
47.56013 57.000
47.58008 58.000
47.60002 49.000
47.61997 60.000
47.63992 45.000
47.65986 48.000
47.67981 47.000
47.69976 45.000
47.71970 57.000
47.73965 39.000
47.75960 48.000
47.77955 55.000
47.79949 58.000
47.81944 41.000
47.83939 43.000
47.85933 42.000
47.87928 41.000
47.89923 48.000
47.91917 44.000
47.93912 43.000
47.95907 39.000
47.97902 49.000
47.99896 49.000
48.01891 44.000
48.03886 54.000
48.05880 49.000
48.07875 51.000
48.09870 45.000
48.11864 59.000
48.13859 51.000
48.15854 58.000
48.17848 59.000
48.19843 41.000
48.21838 51.000
48.23833 35.000
48.25827 48.000
48.27822 46.000
48.29817 56.000
48.31811 50.000
48.33806 51.000
48.35801 65.000
48.37795 55.000
48.39790 58.000
48.41785 50.000
48.43780 60.000
48.45774 60.000
48.47769 53.000
48.49764 50.000
48.51758 51.000
48.53753 44.000
48.55748 36.000
48.57742 62.000
48.59737 54.000
48.61732 53.000
48.63726 46.000
48.65721 50.000
48.67716 37.000
48.69711 48.000
48.71705 55.000
48.73700 55.000
48.75695 46.000
48.77689 47.000
48.79684 60.000
48.81679 45.000
48.83673 49.000
48.85668 51.000
48.87663 56.000
48.89658 52.000
48.91652 42.000
48.93647 56.000
48.95642 49.000
48.97636 32.000
48.99631 51.000
49.01626 46.000
49.03620 60.000
49.05615 49.000
49.07610 56.000
49.09605 55.000
49.11599 63.000
49.13594 62.000
49.15589 44.000
49.17583 50.000
49.19578 41.000
49.21573 46.000
49.23567 43.000
49.25562 48.000
49.27557 58.000
49.29551 64.000
49.31546 47.000
49.33541 51.000
49.35536 56.000
49.37530 46.000
49.39525 45.000
49.41520 57.000
49.43514 57.000
49.45509 65.000
49.47504 47.000
49.49498 42.000
49.51493 55.000
49.53488 42.000
49.55483 39.000
49.57477 51.000
49.59472 48.000
49.61467 51.000
49.63461 40.000
49.65456 41.000
49.67451 43.000
49.69445 51.000
49.71440 47.000
49.73435 42.000
49.75429 53.000
49.77424 48.000
49.79419 38.000
49.81414 63.000
49.83408 46.000
49.85403 46.000
49.87398 40.000
49.89392 40.000
49.91387 36.000
49.93382 41.000
49.95376 50.000
49.97371 39.000
49.99366 44.000
50.01361 45.000
50.03355 47.000
50.05350 37.000
50.07345 31.000
50.09339 48.000
50.11334 37.000
50.13329 43.000
50.15323 54.000
50.17318 50.000
50.19313 45.000
50.21307 41.000
50.23302 54.000
50.25297 39.000
50.27292 52.000
50.29286 40.000
50.31281 55.000
50.33276 52.000
50.35270 42.000
50.37265 53.000
50.39260 40.000
50.41254 57.000
50.43249 40.000
50.45244 43.000
50.47239 49.000
50.49233 46.000
50.51228 49.000
50.53223 53.000
50.55217 36.000
50.57212 53.000
50.59207 40.000
50.61201 70.000
50.63196 56.000
50.65191 39.000
50.67186 49.000
50.69180 46.000
50.71175 45.000
50.73170 41.000
50.75164 49.000
50.77159 34.000
50.79154 50.000
50.81148 41.000
50.83143 53.000
50.85138 53.000
50.87132 56.000
50.89127 47.000
50.91122 44.000
50.93117 53.000
50.95111 50.000
50.97106 50.000
50.99101 40.000
51.01095 42.000
51.03090 44.000
51.05085 39.000
51.07079 46.000
51.09074 47.000
51.11069 40.000
51.13064 34.000
51.15058 62.000
51.17053 53.000
51.19048 38.000
51.21042 50.000
51.23037 57.000
51.25032 45.000
51.27026 41.000
51.29021 50.000
51.31016 43.000
51.33010 41.000
51.35005 48.000
51.37000 36.000
51.38995 46.000
51.40989 42.000
51.42984 43.000
51.44979 41.000
51.46973 43.000
51.48968 49.000
51.50963 46.000
51.52957 42.000
51.54952 37.000
51.56947 44.000
51.58942 48.000
51.60936 51.000
51.62931 54.000
51.64926 65.000
51.66920 48.000
51.68915 44.000
51.70910 56.000
51.72904 42.000
51.74899 43.000
51.76894 40.000
51.78888 54.000
51.80883 52.000
51.82878 47.000
51.84873 59.000
51.86867 50.000
51.88862 41.000
51.90857 40.000
51.92851 41.000
51.94846 54.000
51.96841 37.000
51.98835 41.000
52.00830 51.000
52.02825 43.000
52.04820 51.000
52.06814 51.000
52.08809 40.000
52.10804 44.000
52.12798 48.000
52.14793 55.000
52.16788 40.000
52.18782 59.000
52.20777 46.000
52.22772 42.000
52.24767 47.000
52.26761 50.000
52.28756 64.000
52.30751 47.000
52.32745 52.000
52.34740 57.000
52.36735 51.000
52.38729 54.000
52.40724 59.000
52.42719 63.000
52.44713 50.000
52.46708 47.000
52.48703 57.000
52.50698 49.000
52.52692 51.000
52.54687 57.000
52.56682 58.000
52.58676 59.000
52.60671 63.000
52.62666 66.000
52.64660 74.000
52.66655 68.000
52.68650 95.000
52.70645 89.000
52.72639 82.000
52.74634 91.000
52.76629 100.000
52.78623 121.000
52.80618 140.000
52.82613 140.000
52.84607 157.000
52.86602 158.000
52.88597 155.000
52.90591 173.000
52.92586 175.000
52.94581 206.000
52.96576 188.000
52.98570 243.000
53.00565 252.000
53.02560 206.000
53.04554 230.000
53.06549 200.000
53.08544 214.000
53.10538 204.000
53.12533 175.000
53.14528 172.000
53.16523 154.000
53.18517 127.000
53.20512 120.000
53.22507 119.000
53.24501 101.000
53.26496 86.000
53.28491 96.000
53.30485 92.000
53.32480 73.000
53.34475 70.000
53.36469 68.000
53.38464 75.000
53.40459 73.000
53.42454 73.000
53.44448 75.000
53.46443 63.000
53.48438 57.000
53.50432 68.000
53.52427 75.000
53.54422 79.000
53.56416 73.000
53.58411 70.000
53.60406 89.000
53.62401 86.000
53.64395 86.000
53.66390 75.000
53.68385 101.000
53.70379 111.000
53.72374 126.000
53.74369 133.000
53.76363 130.000
53.78358 153.000
53.80353 194.000
53.82348 202.000
53.84342 189.000
53.86337 159.000
53.88332 172.000
53.90326 143.000
53.92321 148.000
53.94316 143.000
53.96310 125.000
53.98305 139.000
54.00300 116.000
54.02294 106.000
54.04289 96.000
54.06284 83.000
54.08279 83.000
54.10273 70.000
54.12268 79.000
54.14263 63.000
54.16257 68.000
54.18252 59.000
54.20247 56.000
54.22241 64.000
54.24236 57.000
54.26231 55.000
54.28226 48.000
54.30220 49.000
54.32215 42.000
54.34210 53.000
54.36204 68.000
54.38199 51.000
54.40194 46.000
54.42188 46.000
54.44183 55.000
54.46178 54.000
54.48172 44.000
54.50167 61.000
54.52162 44.000
54.54157 55.000
54.56151 41.000
54.58146 49.000
54.60141 41.000
54.62135 42.000
54.64130 46.000
54.66125 54.000
54.68119 36.000
54.70114 57.000
54.72109 49.000
54.74104 57.000
54.76098 41.000
54.78093 56.000
54.80088 59.000
54.82082 57.000
54.84077 53.000
54.86072 44.000
54.88066 50.000
54.90061 46.000
54.92056 55.000
54.94050 51.000
54.96045 52.000
54.98040 47.000
55.00035 60.000
55.02029 51.000
55.04024 43.000
55.06019 57.000
55.08013 47.000
55.10008 55.000
55.12003 49.000
55.13997 49.000
55.15992 55.000
55.17987 50.000
55.19982 44.000
55.21976 48.000
55.23971 54.000
55.25966 38.000
55.27960 55.000
55.29955 42.000
55.31950 35.000
55.33944 43.000
55.35939 43.000
55.37934 55.000
55.39929 49.000
55.41923 43.000
55.43918 42.000
55.45913 67.000
55.47907 53.000
55.49902 28.000
55.51897 58.000
55.53891 44.000
55.55886 45.000
55.57881 44.000
55.59875 56.000
55.61870 44.000
55.63865 50.000
55.65860 39.000
55.67854 53.000
55.69849 53.000
55.71844 48.000
55.73838 49.000
55.75833 44.000
55.77828 36.000
55.79822 42.000
55.81817 46.000
55.83812 44.000
55.85807 45.000
55.87801 45.000
55.89796 36.000
55.91791 40.000
55.93785 59.000
55.95780 50.000
55.97775 48.000
55.99769 55.000
56.01764 48.000
56.03759 48.000
56.05753 46.000
56.07748 53.000
56.09743 46.000
56.11738 48.000
56.13732 54.000
56.15727 71.000
56.17722 63.000
56.19716 55.000
56.21711 48.000
56.23706 46.000
56.25700 60.000
56.27695 50.000
56.29690 62.000
56.31685 44.000
56.33679 56.000
56.35674 49.000
56.37669 48.000
56.39663 61.000
56.41658 63.000
56.43653 72.000
56.45647 57.000
56.47642 49.000
56.49637 58.000
56.51631 62.000
56.53626 58.000
56.55621 64.000
56.57616 65.000
56.59610 62.000
56.61605 66.000
56.63600 61.000
56.65594 58.000
56.67589 61.000
56.69584 63.000
56.71578 56.000
56.73573 55.000
56.75568 67.000
56.77563 63.000
56.79557 73.000
56.81552 67.000
56.83547 54.000
56.85541 53.000
56.87536 54.000
56.89531 57.000
56.91525 68.000
56.93520 78.000
56.95515 78.000
56.97510 92.000
56.99504 79.000
57.01499 79.000
57.03494 84.000
57.05488 83.000
57.07483 101.000
57.09478 118.000
57.11472 109.000
57.13467 127.000
57.15462 120.000
57.17456 141.000
57.19451 143.000
57.21446 179.000
57.23441 217.000
57.25435 245.000
57.27430 279.000
57.29425 353.000
57.31419 384.000
57.33414 434.000
57.35409 508.000
57.37403 507.000
57.39398 484.000
57.41393 502.000
57.43388 488.000
57.45382 486.000
57.47377 477.000
57.49372 478.000
57.51366 497.000
57.53361 452.000
57.55356 460.000
57.57350 445.000
57.59345 401.000
57.61340 415.000
57.63334 406.000
57.65329 372.000
57.67324 344.000
57.69319 390.000
57.71313 379.000
57.73308 324.000
57.75303 290.000
57.77297 330.000
57.79292 297.000
57.81287 266.000
57.83281 270.000
57.85276 262.000
57.87271 257.000
57.89266 228.000
57.91260 200.000
57.93255 170.000
57.95250 151.000
57.97244 141.000
57.99239 140.000
58.01234 113.000
58.03228 130.000
58.05223 143.000
58.07218 102.000
58.09212 85.000
58.11207 93.000
58.13202 94.000
58.15197 87.000
58.17191 67.000
58.19186 70.000
58.21181 79.000
58.23175 72.000
58.25170 65.000
58.27165 82.000
58.29159 92.000
58.31154 78.000
58.33149 65.000
58.35144 59.000
58.37138 72.000
58.39133 71.000
58.41128 73.000
58.43122 62.000
58.45117 61.000
58.47112 64.000
58.49106 62.000
58.51101 49.000
58.53096 58.000
58.55090 44.000
58.57085 53.000
58.59080 51.000
58.61075 50.000
58.63069 47.000
58.65064 66.000
58.67059 62.000
58.69053 41.000
58.71048 44.000
58.73043 53.000
58.75037 59.000
58.77032 73.000
58.79027 58.000
58.81022 48.000
58.83016 55.000
58.85011 73.000
58.87006 56.000
58.89000 48.000
58.90995 43.000
58.92990 63.000
58.94984 59.000
58.96979 57.000
58.98974 60.000
59.00969 51.000
59.02963 56.000
59.04958 67.000
59.06953 59.000
59.08947 41.000
59.10942 63.000
59.12937 62.000
59.14931 63.000
59.16926 54.000
59.18921 48.000
59.20915 51.000
59.22910 39.000
59.24905 47.000
59.26900 40.000
59.28894 54.000
59.30889 50.000
59.32884 56.000
59.34878 56.000
59.36873 65.000
59.38868 64.000
59.40862 59.000
59.42857 55.000
59.44852 65.000
59.46847 35.000
59.48841 46.000
59.50836 41.000
59.52831 46.000
59.54825 54.000
59.56820 60.000
59.58815 46.000
59.60809 51.000
59.62804 55.000
59.64799 42.000
59.66793 38.000
59.68788 55.000
59.70783 53.000
59.72778 45.000
59.74772 47.000
59.76767 55.000
59.78762 48.000
59.80756 38.000
59.82751 50.000
59.84746 54.000
59.86740 48.000
59.88735 55.000
59.90730 50.000
59.92725 44.000
59.94719 47.000
59.96714 61.000
59.98709 55.000
60.00703 65.000
60.02698 56.000
60.04693 49.000
60.06687 65.000
60.08682 62.000
60.10677 52.000
60.12671 49.000
60.14666 64.000
60.16661 52.000
60.18656 48.000
60.20650 55.000
60.22645 45.000
60.24640 52.000
60.26634 47.000
60.28629 59.000
60.30624 50.000
60.32618 52.000
60.34613 53.000
60.36608 71.000
60.38603 46.000
60.40597 55.000
60.42592 55.000
60.44587 54.000
60.46581 39.000
60.48576 44.000
60.50571 44.000
60.52565 51.000
60.54560 49.000
60.56555 49.000
60.58550 56.000
60.60544 57.000
60.62539 55.000
60.64534 57.000
60.66528 66.000
60.68523 49.000
60.70518 56.000
60.72512 57.000
60.74507 60.000
60.76502 63.000
60.78496 59.000
60.80491 59.000
60.82486 60.000
60.84481 67.000
60.86475 55.000
60.88470 62.000
60.90465 57.000
60.92459 50.000
60.94454 59.000
60.96449 61.000
60.98443 54.000
61.00438 59.000
61.02433 71.000
61.04428 55.000
61.06422 52.000
61.08417 59.000
61.10412 60.000
61.12406 63.000
61.14401 61.000
61.16396 63.000
61.18390 70.000
61.20385 49.000
61.22380 48.000
61.24374 53.000
61.26369 64.000
61.28364 54.000
61.30359 72.000
61.32353 54.000
61.34348 59.000
61.36343 68.000
61.38337 59.000
61.40332 61.000
61.42327 43.000
61.44321 55.000
61.46316 66.000
61.48311 68.000
61.50306 64.000
61.52300 67.000
61.54295 62.000
61.56290 64.000
61.58284 55.000
61.60279 60.000
61.62274 50.000
61.64268 58.000
61.66263 94.000
61.68258 55.000
61.70252 68.000
61.72247 73.000
61.74242 55.000
61.76237 80.000
61.78231 63.000
61.80226 68.000
61.82221 79.000
61.84215 54.000
61.86210 82.000
61.88205 69.000
61.90199 82.000
61.92194 76.000
61.94189 79.000
61.96184 68.000
61.98178 80.000
62.00173 94.000
62.02168 109.000
62.04162 99.000
62.06157 94.000
62.08152 113.000
62.10146 137.000
62.12141 128.000
62.14136 152.000
62.16131 204.000
62.18125 208.000
62.20120 214.000
62.22115 203.000
62.24109 216.000
62.26104 245.000
62.28099 282.000
62.30093 259.000
62.32088 286.000
62.34083 268.000
62.36077 300.000
62.38072 308.000
62.40067 296.000
62.42062 279.000
62.44056 258.000
62.46051 288.000
62.48046 259.000
62.50040 276.000
62.52035 288.000
62.54030 243.000
62.56024 239.000
62.58019 225.000
62.60014 224.000
62.62009 223.000
62.64003 210.000
62.65998 213.000
62.67993 175.000
62.69987 175.000
62.71982 180.000
62.73977 182.000
62.75971 178.000
62.77966 192.000
62.79961 201.000
62.81955 217.000
62.83950 226.000
62.85945 268.000
62.87940 263.000
62.89934 307.000
62.91929 358.000
62.93924 467.000
62.95918 516.000
62.97913 566.000
62.99908 616.000
63.01902 574.000
63.03897 572.000
63.05892 530.000
63.07887 499.000
63.09881 501.000
63.11876 495.000
63.13871 422.000
63.15865 495.000
63.17860 438.000
63.19855 424.000
63.21849 389.000
63.23844 326.000
63.25839 283.000
63.27833 233.000
63.29828 210.000
63.31823 181.000
63.33818 158.000
63.35812 153.000
63.37807 121.000
63.39802 122.000
63.41796 97.000
63.43791 102.000
63.45786 84.000
63.47780 94.000
63.49775 88.000
63.51770 68.000
63.53765 67.000
63.55759 73.000
63.57754 78.000
63.59749 68.000
63.61743 53.000
63.63738 62.000
63.65733 75.000
63.67727 74.000
63.69722 65.000
63.71717 63.000
63.73712 66.000
63.75706 59.000
63.77701 72.000
63.79696 67.000
63.81690 72.000
63.83685 62.000
63.85680 51.000
63.87674 58.000
63.89669 60.000
63.91664 56.000
63.93658 51.000
63.95653 60.000
63.97648 61.000
63.99643 54.000
64.01637 56.000
64.03632 64.000
64.05627 65.000
64.07621 54.000
64.09616 55.000
64.11611 58.000
64.13605 43.000
64.15600 56.000
64.17595 57.000
64.19590 43.000
64.21584 53.000
64.23579 52.000
64.25574 48.000
64.27568 57.000
64.29563 41.000
64.31558 55.000
64.33552 60.000
64.35547 54.000
64.37542 49.000
64.39536 53.000
64.41531 59.000
64.43526 48.000
64.45521 60.000
64.47515 48.000
64.49510 55.000
64.51505 41.000
64.53499 76.000
64.55494 58.000
64.57489 59.000
64.59483 60.000
64.61478 69.000
64.63473 62.000
64.65468 73.000
64.67462 75.000
64.69457 78.000
64.71452 100.000
64.73446 93.000
64.75441 96.000
64.77436 87.000
64.79430 117.000
64.81425 120.000
64.83420 114.000
64.85414 141.000
64.87409 133.000
64.89404 146.000
64.91399 134.000
64.93393 123.000
64.95388 135.000
64.97383 147.000
64.99377 140.000
65.01372 154.000
65.03367 118.000
65.05361 123.000
65.07356 144.000
65.09351 129.000
65.11346 117.000
65.13340 113.000
65.15335 113.000
65.17330 107.000
65.19324 92.000
65.21319 111.000
65.23314 98.000
65.25308 92.000
65.27303 118.000
65.29298 87.000
65.31293 87.000
65.33287 84.000
65.35282 88.000
65.37277 78.000
65.39271 64.000
65.41266 66.000
65.43261 71.000
65.45255 63.000
65.47250 61.000
65.49245 58.000
65.51239 55.000
65.53234 66.000
65.55229 56.000
65.57224 65.000
65.59218 76.000
65.61213 69.000
65.63208 51.000
65.65202 61.000
65.67197 79.000
65.69192 51.000
65.71186 70.000
65.73181 49.000
65.75176 63.000
65.77171 54.000
65.79165 65.000
65.81160 54.000
65.83155 47.000
65.85149 54.000
65.87144 67.000
65.89139 51.000
65.91133 59.000
65.93128 55.000
65.95123 47.000
65.97117 78.000
65.99112 56.000
66.01107 57.000
66.03102 42.000
66.05096 45.000
66.07091 52.000
66.09086 51.000
66.11080 60.000
66.13075 59.000
66.15070 71.000
66.17064 66.000
66.19059 55.000
66.21054 59.000
66.23049 59.000
66.25043 62.000
66.27038 58.000
66.29033 50.000
66.31027 54.000
66.33022 53.000
66.35017 44.000
66.37011 59.000
66.39006 54.000
66.41001 45.000
66.42995 47.000
66.44990 49.000
66.46985 48.000
66.48980 55.000
66.50974 55.000
66.52969 50.000
66.54964 52.000
66.56958 29.000
66.58953 47.000
66.60948 43.000
66.62942 54.000
66.64937 50.000
66.66932 60.000
66.68927 57.000
66.70921 50.000
66.72916 53.000
66.74911 42.000
66.76905 58.000
66.78900 61.000
66.80895 53.000
66.82889 37.000
66.84884 52.000
66.86879 43.000
66.88874 57.000
66.90868 46.000
66.92863 66.000
66.94858 50.000
66.96852 50.000
66.98847 51.000
67.00842 48.000
67.02836 48.000
67.04831 54.000
67.06826 41.000
67.08820 36.000
67.10815 45.000
67.12810 42.000
67.14805 53.000
67.16799 53.000
67.18794 63.000
67.20789 39.000
67.22783 43.000
67.24778 47.000
67.26773 47.000
67.28767 59.000
67.30762 64.000
67.32757 50.000
67.34752 41.000
67.36746 54.000
67.38741 56.000
67.40736 40.000
67.42730 51.000
67.44725 63.000
67.46720 52.000
67.48714 60.000
67.50709 48.000
67.52704 53.000
67.54698 53.000
67.56693 55.000
67.58688 47.000
67.60683 60.000
67.62677 61.000
67.64672 54.000
67.66667 62.000
67.68661 64.000
67.70656 76.000
67.72651 74.000
67.74645 68.000
67.76640 76.000
67.78635 63.000
67.80630 77.000
67.82624 63.000
67.84619 74.000
67.86614 89.000
67.88608 77.000
67.90603 90.000
67.92598 82.000
67.94592 93.000
67.96587 89.000
67.98582 78.000
68.00576 88.000
68.02571 91.000
68.04566 90.000
68.06561 94.000
68.08555 90.000
68.10550 93.000
68.12545 90.000
68.14539 92.000
68.16534 84.000
68.18529 96.000
68.20523 83.000
68.22518 88.000
68.24513 89.000
68.26508 108.000
68.28502 89.000
68.30497 99.000
68.32492 75.000
68.34486 79.000
68.36481 75.000
68.38476 66.000
68.40470 84.000
68.42465 74.000
68.44460 48.000
68.46455 71.000
68.48449 65.000
68.50444 72.000
68.52439 42.000
68.54433 72.000
68.56428 59.000
68.58423 59.000
68.60417 65.000
68.62412 45.000
68.64407 72.000
68.66401 52.000
68.68396 59.000
68.70391 45.000
68.72386 51.000
68.74380 44.000
68.76375 37.000
68.78370 59.000
68.80364 56.000
68.82359 57.000
68.84354 47.000
68.86348 62.000
68.88343 57.000
68.90338 60.000
68.92333 65.000
68.94327 57.000
68.96322 52.000
68.98317 51.000
69.00311 59.000
69.02306 64.000
69.04301 63.000
69.06295 61.000
69.08290 59.000
69.10285 57.000
69.12279 56.000
69.14274 62.000
69.16269 62.000
69.18264 62.000
69.20258 56.000
69.22253 66.000
69.24248 56.000
69.26242 55.000
69.28237 56.000
69.30232 53.000
69.32226 69.000
69.34221 50.000
69.36216 62.000
69.38211 57.000
69.40205 49.000
69.42200 60.000
69.44195 58.000
69.46189 64.000
69.48184 59.000
69.50179 69.000
69.52173 54.000
69.54168 50.000
69.56163 53.000
69.58157 62.000
69.60152 58.000
69.62147 49.000
69.64142 42.000
69.66136 47.000
69.68131 43.000
69.70126 56.000
69.72120 62.000
69.74115 57.000
69.76110 37.000
69.78104 39.000
69.80099 46.000
69.82094 46.000
69.84089 50.000
69.86083 43.000
69.88078 48.000
69.90073 40.000
69.92067 49.000
69.94062 54.000
69.96057 45.000
69.98051 43.000
70.00046 36.000
70.02041 55.000
70.04035 48.000
70.06030 46.000
70.08025 45.000
70.10020 38.000
70.12014 47.000
70.14009 55.000
70.16004 42.000
70.17998 42.000
70.19993 36.000
70.21988 37.000
70.23982 41.000
70.25977 32.000
70.27972 44.000
70.29967 40.000
70.31961 46.000
70.33956 38.000
70.35951 43.000
70.37945 46.000
70.39940 47.000
70.41935 43.000
70.43929 38.000
70.45924 51.000
70.47919 51.000
70.49914 45.000
70.51908 42.000
70.53903 43.000
70.55898 36.000
70.57892 40.000
70.59887 46.000
70.61882 38.000
70.63876 41.000
70.65871 50.000
70.67866 44.000
70.69860 53.000
70.71855 45.000
70.73850 42.000
70.75845 57.000
70.77839 47.000
70.79834 37.000
70.81829 41.000
70.83823 51.000
70.85818 43.000
70.87813 35.000
70.89807 34.000
70.91802 41.000
70.93797 48.000
70.95792 48.000
70.97786 50.000
70.99781 34.000
71.01776 51.000
71.03770 54.000
71.05765 49.000
71.07760 47.000
71.09754 54.000
71.11749 38.000
71.13744 63.000
71.15738 52.000
71.17733 44.000
71.19728 50.000
71.21723 51.000
71.23717 58.000
71.25712 50.000
71.27707 48.000
71.29701 57.000
71.31696 55.000
71.33691 56.000
71.35685 62.000
71.37680 64.000
71.39675 61.000
71.41670 75.000
71.43664 64.000
71.45659 88.000
71.47654 57.000
71.49648 77.000
71.51643 88.000
71.53638 79.000
71.55632 70.000
71.57627 81.000
71.59622 80.000
71.61616 63.000
71.63611 82.000
71.65606 71.000
71.67601 66.000
71.69595 77.000
71.71590 65.000
71.73585 58.000
71.75579 82.000
71.77574 66.000
71.79569 61.000
71.81563 61.000
71.83558 60.000
71.85553 54.000
71.87548 52.000
71.89542 56.000
71.91537 54.000
71.93532 39.000
71.95526 58.000
71.97521 55.000
71.99516 64.000
72.01510 58.000
72.03505 62.000
72.05500 64.000
72.07495 79.000
72.09489 63.000
72.11484 55.000
72.13479 66.000
72.15473 52.000
72.17468 91.000
72.19463 73.000
72.21457 88.000
72.23452 89.000
72.25447 99.000
72.27441 109.000
72.29436 128.000
72.31431 146.000
72.33426 95.000
72.35420 112.000
72.37415 121.000
72.39410 124.000
72.41404 104.000
72.43399 98.000
72.45394 113.000
72.47388 134.000
72.49383 115.000
72.51378 103.000
72.53373 93.000
72.55367 102.000
72.57362 94.000
72.59357 110.000
72.61351 97.000
72.63346 98.000
72.65341 95.000
72.67335 82.000
72.69330 81.000
72.71325 72.000
72.73319 65.000
72.75314 84.000
72.77309 68.000
72.79304 72.000
72.81298 69.000
72.83293 60.000
72.85288 59.000
72.87282 56.000
72.89277 72.000
72.91272 65.000
72.93266 64.000
72.95261 51.000
72.97256 53.000
72.99251 59.000
73.01245 51.000
73.03240 49.000
73.05235 48.000
73.07229 46.000
73.09224 59.000
73.11219 71.000
73.13213 58.000
73.15208 72.000
73.17203 39.000
73.19197 70.000
73.21192 74.000
73.23187 53.000
73.25182 48.000
73.27176 61.000
73.29171 62.000
73.31166 51.000
73.33160 67.000
73.35155 56.000
73.37150 62.000
73.39144 64.000
73.41139 55.000
73.43134 54.000
73.45129 66.000
73.47123 89.000
73.49118 59.000
73.51113 90.000
73.53107 73.000
73.55102 81.000
73.57097 86.000
73.59091 61.000
73.61086 77.000
73.63081 94.000
73.65076 82.000
73.67070 90.000
73.69065 83.000
73.71060 95.000
73.73054 91.000
73.75049 101.000
73.77044 99.000
73.79038 83.000
73.81033 94.000
73.83028 95.000
73.85022 89.000
73.87017 94.000
73.89012 104.000
73.91007 83.000
73.93001 88.000
73.94996 92.000
73.96991 93.000
73.98985 76.000
74.00980 82.000
74.02975 78.000
74.04969 84.000
74.06964 80.000
74.08959 87.000
74.10954 79.000
74.12948 91.000
74.14943 70.000
74.16938 94.000
74.18932 73.000
74.20927 69.000
74.22922 85.000
74.24916 68.000
74.26911 95.000
74.28906 83.000
74.30900 66.000
74.32895 100.000
74.34890 92.000
74.36885 89.000
74.38879 95.000
74.40874 104.000
74.42869 97.000
74.44863 118.000
74.46858 127.000
74.48853 136.000
74.50847 135.000
74.52842 158.000
74.54837 139.000
74.56832 153.000
74.58826 150.000
74.60821 149.000
74.62816 136.000
74.64810 117.000
74.66805 138.000
74.68800 133.000
74.70794 119.000
74.72789 125.000
74.74784 112.000
74.76778 118.000
74.78773 130.000
74.80768 124.000
74.82763 82.000
74.84757 101.000
74.86752 89.000
74.88747 73.000
74.90741 87.000
74.92736 95.000
74.94731 72.000
74.96725 83.000
74.98720 70.000
75.00715 84.000
75.02710 46.000
75.04704 74.000
75.06699 55.000
75.08694 57.000
75.10688 54.000
75.12683 68.000
75.14678 54.000
75.16672 48.000
75.18667 57.000
75.20662 44.000
75.22657 63.000
75.24651 65.000
75.26646 53.000
75.28641 47.000
75.30635 58.000
75.32630 50.000
75.34625 59.000
75.36619 48.000
75.38614 51.000
75.40609 63.000
75.42603 62.000
75.44598 68.000
75.46593 70.000
75.48588 52.000
75.50582 63.000
75.52577 69.000
75.54572 62.000
75.56566 83.000
75.58561 73.000
75.60556 96.000
75.62550 76.000
75.64545 65.000
75.66540 82.000
75.68535 61.000
75.70529 79.000
75.72524 74.000
75.74519 60.000
75.76513 53.000
75.78508 71.000
75.80503 59.000
75.82497 64.000
75.84492 56.000
75.86487 56.000
75.88481 63.000
75.90476 64.000
75.92471 55.000
75.94466 38.000
75.96460 54.000
75.98455 38.000
76.00450 49.000
76.02444 50.000
76.04439 45.000
76.06434 51.000
76.08428 40.000
76.10423 41.000
76.12418 50.000
76.14413 39.000
76.16407 51.000
76.18402 38.000
76.20397 37.000
76.22391 42.000
76.24386 44.000
76.26381 47.000
76.28375 50.000
76.30370 43.000
76.32365 43.000
76.34359 41.000
76.36354 46.000
76.38349 33.000
76.40344 39.000
76.42338 37.000
76.44333 48.000
76.46328 47.000
76.48322 41.000
76.50317 49.000
76.52312 49.000
76.54306 47.000
76.56301 41.000
76.58296 42.000
76.60291 44.000
76.62285 27.000
76.64280 44.000
76.66275 42.000
76.68269 54.000
76.70264 39.000
76.72259 34.000
76.74253 47.000
76.76248 51.000
76.78243 47.000
76.80238 44.000
76.82232 44.000
76.84227 42.000
76.86222 50.000
76.88216 46.000
76.90211 39.000
76.92206 45.000
76.94200 51.000
76.96195 43.000
76.98190 45.000
77.00184 53.000
77.02179 45.000
77.04174 52.000
77.06169 60.000
77.08163 38.000
77.10158 47.000
77.12153 67.000
77.14147 45.000
77.16142 54.000
77.18137 47.000
77.20131 56.000
77.22126 53.000
77.24121 46.000
77.26116 53.000
77.28110 67.000
77.30105 50.000
77.32100 70.000
77.34094 68.000
77.36089 74.000
77.38084 77.000
77.40078 76.000
77.42073 89.000
77.44068 73.000
77.46062 85.000
77.48057 86.000
77.50052 106.000
77.52047 100.000
77.54041 87.000
77.56036 106.000
77.58031 104.000
77.60025 104.000
77.62020 111.000
77.64015 123.000
77.66009 108.000
77.68004 119.000
77.69999 109.000
77.71994 108.000
77.73988 132.000
77.75983 121.000
77.77978 116.000
77.79972 104.000
77.81967 126.000
77.83962 116.000
77.85956 104.000
77.87951 121.000
77.89946 109.000
77.91940 97.000
77.93935 86.000
77.95930 97.000
77.97925 88.000
77.99919 73.000
78.01914 83.000
78.03909 82.000
78.05903 87.000
78.07898 61.000
78.09893 61.000
78.11887 75.000
78.13882 63.000
78.15877 47.000
78.17872 71.000
78.19866 67.000
78.21861 58.000
78.23856 54.000
78.25850 50.000
78.27845 58.000
78.29840 68.000
78.31834 69.000
78.33829 51.000
78.35824 55.000
78.37819 55.000
78.39813 48.000
78.41808 55.000
78.43803 47.000
78.45797 25.000
78.47792 48.000
78.49787 30.000
78.51781 44.000
78.53776 47.000
78.55771 43.000
78.57765 39.000
78.59760 41.000
78.61755 36.000
78.63750 49.000
78.65744 37.000
78.67739 44.000
78.69734 52.000
78.71728 46.000
78.73723 40.000
78.75718 45.000
78.77712 30.000
78.79707 50.000
78.81702 41.000
78.83697 50.000
78.85691 55.000
78.87686 44.000
78.89681 38.000
78.91675 54.000
78.93670 47.000
78.95665 36.000
78.97659 33.000
78.99654 39.000
79.01649 38.000
79.03643 45.000
79.05638 35.000
79.07633 39.000
79.09628 31.000
79.11622 41.000
79.13617 46.000
79.15612 42.000
79.17606 48.000
79.19601 33.000
79.21596 54.000
79.23590 35.000
79.25585 37.000
79.27580 49.000
79.29575 61.000
79.31569 33.000
79.33564 51.000
79.35559 33.000
79.37553 42.000
79.39548 46.000
79.41543 47.000
79.43537 59.000
79.45532 50.000
79.47527 64.000
79.49521 59.000
79.51516 59.000
79.53511 64.000
79.55506 69.000
79.57500 69.000
79.59495 72.000
79.61490 62.000
79.63484 75.000
79.65479 49.000
79.67474 58.000
79.69468 54.000
79.71463 54.000
79.73458 67.000
79.75453 80.000
79.77447 64.000
79.79442 72.000
79.81437 52.000
79.83431 59.000
79.85426 65.000
79.87421 53.000
79.89415 63.000
79.91410 54.000
79.93405 52.000
79.95399 58.000
79.97394 64.000
79.99389 45.000
80.01384 63.000
80.03378 48.000
80.05373 54.000
80.07368 54.000
80.09362 51.000
80.11357 56.000
80.13352 54.000
80.15346 48.000
80.17341 50.000
80.19336 40.000
80.21331 58.000
80.23325 48.000
80.25320 36.000
80.27315 45.000
80.29309 46.000
80.31304 47.000
80.33299 43.000
80.35293 43.000
80.37288 57.000
80.39283 48.000
80.41278 54.000
80.43272 40.000
80.45267 53.000
80.47262 41.000
80.49256 22.000
80.51251 41.000
80.53246 32.000
80.55240 46.000
80.57235 48.000
80.59230 46.000
80.61224 43.000
80.63219 52.000
80.65214 46.000
80.67209 47.000
80.69203 38.000
80.71198 36.000
80.73193 58.000
80.75187 41.000
80.77182 39.000
80.79177 39.000
80.81171 34.000
80.83166 49.000
80.85161 38.000
80.87156 40.000
80.89150 39.000
80.91145 38.000
80.93140 52.000
80.95134 45.000
80.97129 42.000
80.99124 40.000
81.01118 44.000
81.03113 37.000
81.05108 42.000
81.07102 45.000
81.09097 37.000
81.11092 51.000
81.13087 29.000
81.15081 40.000
81.17076 28.000
81.19071 44.000
81.21065 40.000
81.23060 48.000
81.25055 43.000
81.27049 43.000
81.29044 29.000
81.31039 41.000
81.33034 50.000
81.35028 36.000
81.37023 42.000
81.39018 36.000
81.41012 32.000
81.43007 39.000
81.45002 39.000
81.46996 43.000
81.48991 40.000
81.50986 49.000
81.52980 49.000
81.54975 37.000
81.56970 48.000
81.58965 48.000
81.60959 49.000
81.62954 41.000
81.64949 44.000
81.66943 53.000
81.68938 40.000
81.70933 29.000
81.72927 38.000
81.74922 53.000
81.76917 38.000
81.78912 55.000
81.80906 54.000
81.82901 38.000
81.84896 52.000
81.86890 39.000
81.88885 37.000
81.90880 41.000
81.92874 31.000
81.94869 47.000
81.96864 41.000
81.98859 46.000
82.00853 40.000
82.02848 41.000
82.04843 58.000
82.06837 40.000
82.08832 43.000
82.10827 33.000
82.12821 34.000
82.14816 37.000
82.16811 42.000
82.18805 46.000
82.20800 44.000
82.22795 37.000
82.24790 47.000
82.26784 39.000
82.28779 55.000
82.30774 31.000
82.32768 58.000
82.34763 42.000
82.36758 38.000
82.38752 37.000
82.40747 38.000
82.42742 51.000
82.44737 40.000
82.46731 51.000
82.48726 47.000
82.50721 45.000
82.52715 44.000
82.54710 46.000
82.56705 48.000
82.58699 48.000
82.60694 39.000
82.62689 47.000
82.64683 34.000
82.66678 39.000
82.68673 37.000
82.70668 31.000
82.72662 39.000
82.74657 50.000
82.76652 44.000
82.78646 37.000
82.80641 34.000
82.82636 42.000
82.84630 41.000
82.86625 36.000
82.88620 33.000
82.90615 33.000
82.92609 35.000
82.94604 39.000
82.96599 38.000
82.98593 47.000
83.00588 45.000
83.02583 41.000
83.04577 43.000
83.06572 44.000
83.08567 39.000
83.10561 37.000
83.12556 43.000
83.14551 44.000
83.16546 42.000
83.18540 36.000
83.20535 42.000
83.22530 43.000
83.24524 44.000
83.26519 31.000
83.28514 50.000
83.30508 33.000
83.32503 32.000
83.34498 33.000
83.36493 28.000
83.38487 32.000
83.40482 37.000
83.42477 30.000
83.44471 40.000
83.46466 47.000
83.48461 38.000
83.50455 34.000
83.52450 40.000
83.54445 41.000
83.56440 41.000
83.58434 37.000
83.60429 45.000
83.62424 33.000
83.64418 43.000
83.66413 45.000
83.68408 43.000
83.70402 38.000
83.72397 40.000
83.74392 36.000
83.76386 33.000
83.78381 53.000
83.80376 36.000
83.82371 36.000
83.84365 44.000
83.86360 33.000
83.88355 36.000
83.90349 39.000
83.92344 38.000
83.94339 46.000
83.96333 38.000
83.98328 41.000
84.00323 39.000
84.02318 25.000
84.04312 52.000
84.06307 31.000
84.08302 48.000
84.10296 58.000
84.12291 52.000
84.14286 54.000
84.16280 51.000
84.18275 47.000
84.20270 53.000
84.22264 51.000
84.24259 46.000
84.26254 39.000
84.28249 51.000
84.30243 45.000
84.32238 42.000
84.34233 40.000
84.36227 36.000
84.38222 43.000
84.40217 37.000
84.42211 43.000
84.44206 44.000
84.46201 40.000
84.48196 31.000
84.50190 43.000
84.52185 51.000
84.54180 49.000
84.56174 35.000
84.58169 39.000
84.60164 48.000
84.62158 39.000
84.64153 45.000
84.66148 49.000
84.68142 43.000
84.70137 37.000
84.72132 32.000
84.74127 35.000
84.76121 39.000
84.78116 41.000
84.80111 38.000
84.82105 49.000
84.84100 34.000
84.86095 52.000
84.88089 40.000
84.90084 29.000
84.92079 45.000
84.94074 40.000
84.96068 40.000
84.98063 28.000
85.00058 38.000
85.02052 52.000
85.04047 37.000
85.06042 31.000
85.08036 51.000
85.10031 50.000
85.12026 44.000
85.14021 47.000
85.16015 46.000
85.18010 46.000
85.20005 42.000
85.21999 42.000
85.23994 44.000
85.25989 44.000
85.27983 37.000
85.29978 41.000
85.31973 41.000
85.33967 38.000
85.35962 38.000
85.37957 34.000
85.39952 47.000
85.41946 41.000
85.43941 37.000
85.45936 47.000
85.47930 34.000
85.49925 44.000
85.51920 50.000
85.53914 45.000
85.55909 40.000
85.57904 38.000
85.59899 47.000
85.61893 43.000
85.63888 42.000
85.65883 39.000
85.67877 48.000
85.69872 38.000
85.71867 44.000
85.73861 32.000
85.75856 48.000
85.77851 36.000
85.79845 32.000
85.81840 51.000
85.83835 44.000
85.85830 36.000
85.87824 44.000
85.89819 46.000
85.91814 45.000
85.93808 47.000
85.95803 43.000
85.97798 45.000
85.99792 41.000
86.01787 54.000
86.03782 52.000
86.05777 51.000
86.07771 52.000
86.09766 62.000
86.11761 56.000
86.13755 60.000
86.15750 63.000
86.17745 75.000
86.19739 61.000
86.21734 67.000
86.23729 76.000
86.25723 60.000
86.27718 74.000
86.29713 63.000
86.31708 60.000
86.33702 55.000
86.35697 62.000
86.37692 59.000
86.39686 65.000
86.41681 63.000
86.43676 57.000
86.45670 47.000
86.47665 65.000
86.49660 63.000
86.51655 51.000
86.53649 62.000
86.55644 39.000
86.57639 62.000
86.59633 51.000
86.61628 58.000
86.63623 49.000
86.65617 55.000
86.67612 49.000
86.69607 45.000
86.71602 45.000
86.73596 40.000
86.75591 51.000
86.77586 38.000
86.79580 35.000
86.81575 47.000
86.83570 52.000
86.85564 43.000
86.87559 52.000
86.89554 46.000
86.91548 47.000
86.93543 39.000
86.95538 48.000
86.97533 48.000
86.99527 47.000
87.01522 44.000
87.03517 44.000
87.05511 45.000
87.07506 58.000
87.09501 56.000
87.11495 41.000
87.13490 43.000
87.15485 42.000
87.17480 46.000
87.19474 58.000
87.21469 62.000
87.23464 49.000
87.25458 51.000
87.27453 54.000
87.29448 59.000
87.31442 59.000
87.33437 87.000
87.35432 64.000
87.37426 68.000
87.39421 74.000
87.41416 82.000
87.43411 79.000
87.45405 73.000
87.47400 82.000
87.49395 69.000
87.51389 57.000
87.53384 67.000
87.55379 75.000
87.57373 79.000
87.59368 65.000
87.61363 89.000
87.63358 59.000
87.65352 69.000
87.67347 64.000
87.69342 69.000
87.71336 60.000
87.73331 71.000
87.75326 69.000
87.77320 66.000
87.79315 63.000
87.81310 52.000
87.83304 66.000
87.85299 67.000
87.87294 54.000
87.89289 56.000
87.91283 43.000
87.93278 53.000
87.95273 50.000
87.97267 38.000
87.99262 43.000
88.01257 47.000
88.03251 47.000
88.05246 44.000
88.07241 40.000
88.09236 48.000
88.11230 58.000
88.13225 48.000
88.15220 35.000
88.17214 47.000
88.19209 48.000
88.21204 39.000
88.23198 42.000
88.25193 50.000
88.27188 37.000
88.29183 44.000
88.31177 48.000
88.33172 33.000
88.35167 37.000
88.37161 52.000
88.39156 40.000
88.41151 32.000
88.43145 28.000
88.45140 44.000
88.47135 41.000
88.49129 30.000
88.51124 50.000
88.53119 37.000
88.55114 43.000
88.57108 42.000
88.59103 32.000
88.61098 31.000
88.63092 41.000
88.65087 31.000
88.67082 48.000
88.69076 43.000
88.71071 49.000
88.73066 31.000
88.75061 44.000
88.77055 42.000
88.79050 41.000
88.81045 55.000
88.83039 41.000
88.85034 35.000
88.87029 25.000
88.89023 42.000
88.91018 59.000
88.93013 45.000
88.95007 33.000
88.97002 44.000
88.98997 48.000
89.00992 55.000
89.02986 45.000
89.04981 42.000
89.06976 47.000
89.08970 32.000
89.10965 47.000
89.12960 33.000
89.14954 45.000
89.16949 41.000
89.18944 39.000
89.20939 44.000
89.22933 27.000
89.24928 48.000
89.26923 54.000
89.28917 46.000
89.30912 43.000
89.32907 34.000
89.34901 44.000
89.36896 25.000
89.38891 34.000
89.40885 47.000
89.42880 43.000
89.44875 38.000
89.46870 44.000
89.48864 45.000
89.50859 43.000
89.52854 45.000
89.54848 41.000
89.56843 41.000
89.58838 55.000
89.60832 48.000
89.62827 48.000
89.64822 52.000
89.66817 56.000
89.68811 53.000
89.70806 59.000
89.72801 55.000
89.74795 59.000
89.76790 60.000
89.78785 51.000
89.80779 67.000
89.82774 70.000
89.84769 66.000
89.86764 77.000
89.88758 82.000
89.90753 76.000
89.92748 92.000
89.94742 92.000
89.96737 92.000
89.98732 86.000
90.00726 80.000
