10.00000 133.000
10.01995 125.000
10.03989 143.000
10.05984 137.000
10.07979 148.000
10.09973 124.000
10.11968 147.000
10.13963 133.000
10.15958 152.000
10.17952 133.000
10.19947 151.000
10.21942 155.000
10.23936 142.000
10.25931 126.000
10.27926 130.000
10.29920 141.000
10.31915 113.000
10.33910 143.000
10.35905 145.000
10.37899 136.000
10.39894 139.000
10.41889 131.000
10.43883 124.000
10.45878 133.000
10.47873 144.000
10.49867 136.000
10.51862 151.000
10.53857 133.000
10.55851 139.000
10.57846 151.000
10.59841 144.000
10.61836 155.000
10.63830 158.000
10.65825 137.000
10.67820 138.000
10.69814 148.000
10.71809 153.000
10.73804 143.000
10.75798 136.000
10.77793 113.000
10.79788 137.000
10.81783 136.000
10.83777 141.000
10.85772 143.000
10.87767 150.000
10.89761 125.000
10.91756 153.000
10.93751 164.000
10.95745 140.000
10.97740 135.000
10.99735 155.000
11.01730 141.000
11.03724 143.000
11.05719 125.000
11.07714 158.000
11.09708 135.000
11.11703 134.000
11.13698 151.000
11.15692 148.000
11.17687 148.000
11.19682 154.000
11.21676 145.000
11.23671 152.000
11.25666 135.000
11.27661 170.000
11.29655 143.000
11.31650 138.000
11.33645 148.000
11.35639 155.000
11.37634 143.000
11.39629 143.000
11.41623 124.000
11.43618 144.000
11.45613 152.000
11.47608 133.000
11.49602 166.000
11.51597 129.000
11.53592 158.000
11.55586 141.000
11.57581 172.000
11.59576 155.000
11.61570 164.000
11.63565 137.000
11.65560 139.000
11.67554 155.000
11.69549 147.000
11.71544 144.000
11.73539 156.000
11.75533 149.000
11.77528 136.000
11.79523 149.000
11.81517 143.000
11.83512 170.000
11.85507 146.000
11.87501 127.000
11.89496 148.000
11.91491 151.000
11.93486 144.000
11.95480 157.000
11.97475 166.000
11.99470 159.000
12.01464 173.000
12.03459 145.000
12.05454 188.000
12.07448 151.000
12.09443 131.000
12.11438 152.000
12.13432 156.000
12.15427 159.000
12.17422 149.000
12.19417 170.000
12.21411 181.000
12.23406 161.000
12.25401 154.000
12.27395 151.000
12.29390 144.000
12.31385 168.000
12.33379 160.000
12.35374 149.000
12.37369 147.000
12.39364 148.000
12.41358 156.000
12.43353 161.000
12.45348 161.000
12.47342 154.000
12.49337 149.000
12.51332 170.000
12.53326 157.000
12.55321 160.000
12.57316 185.000
12.59311 159.000
12.61305 146.000
12.63300 172.000
12.65295 163.000
12.67289 170.000
12.69284 177.000
12.71279 137.000
12.73273 167.000
12.75268 132.000
12.77263 145.000
12.79257 141.000
12.81252 180.000
12.83247 169.000
12.85242 158.000
12.87236 166.000
12.89231 166.000
12.91226 167.000
12.93220 191.000
12.95215 148.000
12.97210 180.000
12.99204 163.000
13.01199 152.000
13.03194 158.000
13.05189 141.000
13.07183 198.000
13.09178 193.000
13.11173 154.000
13.13167 164.000
13.15162 170.000
13.17157 152.000
13.19151 159.000
13.21146 160.000
13.23141 169.000
13.25135 188.000
13.27130 164.000
13.29125 183.000
13.31120 169.000
13.33114 190.000
13.35109 151.000
13.37104 158.000
13.39098 177.000
13.41093 183.000
13.43088 179.000
13.45082 152.000
13.47077 165.000
13.49072 177.000
13.51067 183.000
13.53061 180.000
13.55056 183.000
13.57051 185.000
13.59045 177.000
13.61040 193.000
13.63035 179.000
13.65029 180.000
13.67024 162.000
13.69019 169.000
13.71013 190.000
13.73008 178.000
13.75003 192.000
13.76998 172.000
13.78992 178.000
13.80987 199.000
13.82982 191.000
13.84976 183.000
13.86971 170.000
13.88966 196.000
13.90960 170.000
13.92955 194.000
13.94950 176.000
13.96945 200.000
13.98939 175.000
14.00934 199.000
14.02929 182.000
14.04923 200.000
14.06918 209.000
14.08913 202.000
14.10907 213.000
14.12902 180.000
14.14897 200.000
14.16892 227.000
14.18886 185.000
14.20881 200.000
14.22876 187.000
14.24870 191.000
14.26865 172.000
14.28860 201.000
14.30854 184.000
14.32849 198.000
14.34844 195.000
14.36838 193.000
14.38833 181.000
14.40828 203.000
14.42823 177.000
14.44817 191.000
14.46812 207.000
14.48807 177.000
14.50801 187.000
14.52796 183.000
14.54791 200.000
14.56785 228.000
14.58780 198.000
14.60775 182.000
14.62770 212.000
14.64764 209.000
14.66759 180.000
14.68754 172.000
14.70748 208.000
14.72743 174.000
14.74738 215.000
14.76732 188.000
14.78727 189.000
14.80722 166.000
14.82716 191.000
14.84711 164.000
14.86706 176.000
14.88701 226.000
14.90695 192.000
14.92690 206.000
14.94685 204.000
14.96679 232.000
14.98674 174.000
15.00669 217.000
15.02663 185.000
15.04658 193.000
15.06653 191.000
15.08648 208.000
15.10642 181.000
15.12637 191.000
15.14632 166.000
15.16626 214.000
15.18621 201.000
15.20616 184.000
15.22610 207.000
15.24605 191.000
15.26600 234.000
15.28594 182.000
15.30589 203.000
15.32584 183.000
15.34579 199.000
15.36573 211.000
15.38568 214.000
15.40563 233.000
15.42557 221.000
15.44552 232.000
15.46547 216.000
15.48541 191.000
15.50536 216.000
15.52531 208.000
15.54526 245.000
15.56520 217.000
15.58515 205.000
15.60510 223.000
15.62504 247.000
15.64499 250.000
15.66494 284.000
15.68488 275.000
15.70483 274.000
15.72478 306.000
15.74472 314.000
15.76467 388.000
15.78462 425.000
15.80457 432.000
15.82451 514.000
15.84446 607.000
15.86441 685.000
15.88435 762.000
15.90430 990.000
15.92425 1086.000
15.94419 1081.000
15.96414 1064.000
15.98409 1111.000
16.00404 962.000
16.02398 806.000
16.04393 719.000
16.06388 624.000
16.08382 506.000
16.10377 514.000
16.12372 489.000
16.14366 549.000
16.16361 542.000
16.18356 587.000
16.20351 576.000
16.22345 619.000
16.24340 627.000
16.26335 603.000
16.28329 586.000
16.30324 512.000
16.32319 484.000
16.34313 456.000
16.36308 381.000
16.38303 342.000
16.40297 318.000
16.42292 299.000
16.44287 267.000
16.46282 264.000
16.48276 239.000
16.50271 240.000
16.52266 238.000
16.54260 224.000
16.56255 235.000
16.58250 210.000
16.60244 222.000
16.62239 202.000
16.64234 232.000
16.66229 228.000
16.68223 241.000
16.70218 219.000
16.72213 238.000
16.74207 212.000
16.76202 231.000
16.78197 217.000
16.80191 251.000
16.82186 216.000
16.84181 244.000
16.86175 229.000
16.88170 210.000
16.90165 253.000
16.92160 228.000
16.94154 203.000
16.96149 244.000
16.98144 245.000
17.00138 226.000
17.02133 219.000
17.04128 221.000
17.06122 222.000
17.08117 250.000
17.10112 220.000
17.12107 213.000
17.14101 189.000
17.16096 224.000
17.18091 225.000
17.20085 222.000
17.22080 251.000
17.24075 216.000
17.26069 226.000
17.28064 227.000
17.30059 197.000
17.32053 224.000
17.34048 210.000
17.36043 209.000
17.38038 197.000
17.40032 209.000
17.42027 193.000
17.44022 208.000
17.46016 171.000
17.48011 193.000
17.50006 216.000
17.52000 202.000
17.53995 199.000
17.55990 208.000
17.57985 220.000
17.59979 233.000
17.61974 218.000
17.63969 218.000
17.65963 176.000
17.67958 194.000
17.69953 181.000
17.71947 204.000
17.73942 189.000
17.75937 205.000
17.77932 212.000
17.79926 202.000
17.81921 195.000
17.83916 208.000
17.85910 190.000
17.87905 190.000
17.89900 200.000
17.91894 217.000
17.93889 217.000
17.95884 177.000
17.97878 188.000
17.99873 212.000
18.01868 227.000
18.03863 217.000
18.05857 201.000
18.07852 177.000
18.09847 226.000
18.11841 223.000
18.13836 204.000
18.15831 216.000
18.17825 193.000
18.19820 237.000
18.21815 204.000
18.23810 217.000
18.25804 211.000
18.27799 230.000
18.29794 235.000
18.31788 224.000
18.33783 214.000
18.35778 236.000
18.37772 263.000
18.39767 254.000
18.41762 267.000
18.43756 295.000
18.45751 311.000
18.47746 265.000
18.49741 276.000
18.51735 300.000
18.53730 278.000
18.55725 302.000
18.57719 317.000
18.59714 255.000
18.61709 242.000
18.63703 255.000
18.65698 206.000
18.67693 223.000
18.69688 212.000
18.71682 221.000
18.73677 220.000
18.75672 198.000
18.77666 200.000
18.79661 227.000
18.81656 207.000
18.83650 224.000
18.85645 207.000
18.87640 183.000
18.89634 185.000
18.91629 198.000
18.93624 208.000
18.95619 195.000
18.97613 183.000
18.99608 212.000
19.01603 232.000
19.03597 213.000
19.05592 211.000
19.07587 203.000
19.09581 218.000
19.11576 195.000
19.13571 223.000
19.15566 190.000
19.17560 229.000
19.19555 191.000
19.21550 223.000
19.23544 210.000
19.25539 206.000
19.27534 204.000
19.29528 193.000
19.31523 241.000
19.33518 233.000
19.35513 226.000
19.37507 200.000
19.39502 214.000
19.41497 197.000
19.43491 202.000
19.45486 213.000
19.47481 210.000
19.49475 194.000
19.51470 192.000
19.53465 227.000
19.55459 197.000
19.57454 184.000
19.59449 229.000
19.61444 212.000
19.63438 229.000
19.65433 186.000
19.67428 204.000
19.69422 206.000
19.71417 214.000
19.73412 208.000
19.75406 194.000
19.77401 209.000
19.79396 233.000
19.81391 223.000
19.83385 211.000
19.85380 221.000
19.87375 205.000
19.89369 183.000
19.91364 215.000
19.93359 223.000
19.95353 199.000
19.97348 199.000
19.99343 171.000
20.01337 244.000
20.03332 203.000
20.05327 225.000
20.07322 214.000
20.09316 193.000
20.11311 191.000
20.13306 198.000
20.15300 195.000
20.17295 200.000
20.19290 223.000
20.21284 216.000
20.23279 184.000
20.25274 182.000
20.27269 208.000
20.29263 195.000
20.31258 219.000
20.33253 220.000
20.35247 207.000
20.37242 217.000
20.39237 205.000
20.41231 220.000
20.43226 215.000
20.45221 196.000
20.47215 205.000
20.49210 204.000
20.51205 201.000
20.53200 208.000
20.55194 199.000
20.57189 209.000
20.59184 198.000
20.61178 213.000
20.63173 205.000
20.65168 201.000
20.67162 180.000
20.69157 231.000
20.71152 214.000
20.73147 219.000
20.75141 225.000
20.77136 211.000
20.79131 248.000
20.81125 243.000
20.83120 229.000
20.85115 201.000
20.87109 258.000
20.89104 231.000
20.91099 244.000
20.93094 243.000
20.95088 200.000
20.97083 268.000
20.99078 244.000
21.01072 216.000
21.03067 264.000
21.05062 297.000
21.07056 281.000
21.09051 266.000
21.11046 249.000
21.13040 243.000
21.15035 236.000
21.17030 233.000
21.19025 252.000
21.21019 220.000
21.23014 239.000
21.25009 214.000
21.27003 244.000
21.28998 226.000
21.30993 227.000
21.32987 257.000
21.34982 220.000
21.36977 238.000
21.38972 246.000
21.40966 226.000
21.42961 221.000
21.44956 221.000
21.46950 234.000
21.48945 241.000
21.50940 217.000
21.52934 236.000
21.54929 222.000
21.56924 236.000
21.58918 233.000
21.60913 203.000
21.62908 246.000
21.64903 238.000
21.66897 235.000
21.68892 235.000
21.70887 222.000
21.72881 242.000
21.74876 218.000
21.76871 216.000
21.78865 232.000
21.80860 235.000
21.82855 232.000
21.84850 251.000
21.86844 246.000
21.88839 209.000
21.90834 218.000
21.92828 254.000
21.94823 226.000
21.96818 255.000
21.98812 226.000
22.00807 214.000
22.02802 218.000
22.04796 209.000
22.06791 213.000
22.08786 235.000
22.10781 182.000
22.12775 239.000
22.14770 220.000
22.16765 212.000
22.18759 265.000
22.20754 237.000
22.22749 233.000
22.24743 233.000
22.26738 223.000
22.28733 201.000
22.30728 237.000
22.32722 207.000
22.34717 193.000
22.36712 209.000
22.38706 221.000
22.40701 209.000
22.42696 233.000
22.44690 202.000
22.46685 196.000
22.48680 206.000
22.50675 223.000
22.52669 206.000
22.54664 196.000
22.56659 219.000
22.58653 232.000
22.60648 212.000
22.62643 216.000
22.64637 208.000
22.66632 210.000
22.68627 238.000
22.70621 224.000
22.72616 202.000
22.74611 225.000
22.76606 226.000
22.78600 229.000
22.80595 221.000
22.82590 210.000
22.84584 243.000
22.86579 226.000
22.88574 209.000
22.90568 227.000
22.92563 222.000
22.94558 206.000
22.96553 219.000
22.98547 243.000
23.00542 222.000
23.02537 208.000
23.04531 196.000
23.06526 221.000
23.08521 249.000
23.10515 209.000
23.12510 197.000
23.14505 238.000
23.16499 206.000
23.18494 181.000
23.20489 206.000
23.22484 189.000
23.24478 225.000
23.26473 210.000
23.28468 253.000
23.30462 233.000
23.32457 197.000
23.34452 230.000
23.36446 217.000
23.38441 236.000
23.40436 215.000
23.42431 238.000
23.44425 192.000
23.46420 213.000
23.48415 217.000
23.50409 227.000
23.52404 221.000
23.54399 212.000
23.56393 216.000
23.58388 219.000
23.60383 228.000
23.62377 234.000
23.64372 231.000
23.66367 247.000
23.68362 239.000
23.70356 226.000
23.72351 216.000
23.74346 221.000
23.76340 223.000
23.78335 191.000
23.80330 219.000
23.82324 196.000
23.84319 223.000
23.86314 223.000
23.88309 221.000
23.90303 221.000
23.92298 241.000
23.94293 222.000
23.96287 218.000
23.98282 236.000
24.00277 229.000
24.02271 203.000
24.04266 226.000
24.06261 240.000
24.08256 228.000
24.10250 214.000
24.12245 229.000
24.14240 230.000
24.16234 192.000
24.18229 226.000
24.20224 233.000
24.22218 225.000
24.24213 205.000
24.26208 239.000
24.28202 248.000
24.30197 225.000
24.32192 213.000
24.34187 231.000
24.36181 247.000
24.38176 234.000
24.40171 209.000
24.42165 226.000
24.44160 230.000
24.46155 217.000
24.48149 227.000
24.50144 221.000
24.52139 249.000
24.54134 222.000
24.56128 239.000
24.58123 220.000
24.60118 216.000
24.62112 211.000
24.64107 198.000
24.66102 204.000
24.68096 224.000
24.70091 219.000
24.72086 229.000
24.74080 212.000
24.76075 208.000
24.78070 214.000
24.80065 229.000
24.82059 221.000
24.84054 254.000
24.86049 225.000
24.88043 229.000
24.90038 229.000
24.92033 258.000
24.94027 253.000
24.96022 213.000
24.98017 269.000
25.00012 215.000
25.02006 244.000
25.04001 246.000
25.05996 228.000
25.07990 244.000
25.09985 219.000
25.11980 236.000
25.13974 224.000
25.15969 256.000
25.17964 237.000
25.19958 246.000
25.21953 220.000
25.23948 233.000
25.25943 228.000
25.27937 251.000
25.29932 235.000
25.31927 224.000
25.33921 225.000
25.35916 257.000
25.37911 244.000
25.39905 243.000
25.41900 229.000
25.43895 241.000
25.45890 223.000
25.47884 218.000
25.49879 202.000
25.51874 190.000
25.53868 243.000
25.55863 238.000
25.57858 227.000
25.59852 235.000
25.61847 228.000
25.63842 230.000
25.65837 203.000
25.67831 235.000
25.69826 250.000
25.71821 232.000
25.73815 209.000
25.75810 256.000
25.77805 248.000
25.79799 247.000
25.81794 235.000
25.83789 238.000
25.85783 250.000
25.87778 233.000
25.89773 243.000
25.91768 256.000
25.93762 241.000
25.95757 228.000
25.97752 226.000
25.99746 230.000
26.01741 253.000
26.03736 227.000
26.05730 239.000
26.07725 209.000
26.09720 233.000
26.11715 219.000
26.13709 230.000
26.15704 210.000
26.17699 254.000
26.19693 245.000
26.21688 254.000
26.23683 241.000
26.25677 252.000
26.27672 240.000
26.29667 225.000
26.31661 223.000
26.33656 245.000
26.35651 213.000
26.37646 238.000
26.39640 249.000
26.41635 251.000
26.43630 227.000
26.45624 231.000
26.47619 248.000
26.49614 248.000
26.51608 275.000
26.53603 217.000
26.55598 259.000
26.57593 229.000
26.59587 241.000
26.61582 232.000
26.63577 254.000
26.65571 215.000
26.67566 248.000
26.69561 233.000
26.71555 241.000
26.73550 252.000
26.75545 217.000
26.77539 245.000
26.79534 233.000
26.81529 264.000
26.83524 225.000
26.85518 238.000
26.87513 247.000
26.89508 246.000
26.91502 251.000
26.93497 233.000
26.95492 245.000
26.97486 260.000
26.99481 246.000
27.01476 236.000
27.03471 241.000
27.05465 261.000
27.07460 253.000
27.09455 225.000
27.11449 247.000
27.13444 213.000
27.15439 250.000
27.17433 264.000
27.19428 252.000
27.21423 263.000
27.23417 265.000
27.25412 259.000
27.27407 222.000
27.29402 280.000
27.31396 232.000
27.33391 258.000
27.35386 240.000
27.37380 229.000
27.39375 238.000
27.41370 230.000
27.43364 261.000
27.45359 246.000
27.47354 236.000
27.49349 244.000
27.51343 264.000
27.53338 245.000
27.55333 264.000
27.57327 271.000
27.59322 258.000
27.61317 273.000
27.63311 253.000
27.65306 218.000
27.67301 262.000
27.69296 265.000
27.71290 230.000
27.73285 246.000
27.75280 230.000
27.77274 257.000
27.79269 286.000
27.81264 234.000
27.83258 260.000
27.85253 258.000
27.87248 285.000
27.89242 233.000
27.91237 261.000
27.93232 261.000
27.95227 254.000
27.97221 254.000
27.99216 241.000
28.01211 290.000
28.03205 229.000
28.05200 254.000
28.07195 265.000
28.09189 251.000
28.11184 252.000
28.13179 260.000
28.15174 251.000
28.17168 258.000
28.19163 258.000
28.21158 245.000
28.23152 273.000
28.25147 243.000
28.27142 262.000
28.29136 266.000
28.31131 251.000
28.33126 253.000
28.35120 282.000
28.37115 254.000
28.39110 217.000
28.41105 240.000
28.43099 247.000
28.45094 254.000
28.47089 277.000
28.49083 286.000
28.51078 261.000
28.53073 253.000
28.55067 239.000
28.57062 233.000
28.59057 246.000
28.61052 210.000
28.63046 247.000
28.65041 273.000
28.67036 235.000
28.69030 243.000
28.71025 279.000
28.73020 271.000
28.75014 264.000
28.77009 249.000
28.79004 257.000
28.80998 233.000
28.82993 254.000
28.84988 278.000
28.86983 246.000
28.88977 252.000
28.90972 271.000
28.92967 250.000
28.94961 270.000
28.96956 274.000
28.98951 224.000
29.00945 294.000
29.02940 303.000
29.04935 251.000
29.06930 279.000
29.08924 257.000
29.10919 252.000
29.12914 262.000
29.14908 248.000
29.16903 265.000
29.18898 276.000
29.20892 242.000
29.22887 253.000
29.24882 262.000
29.26877 254.000
29.28871 260.000
29.30866 296.000
29.32861 280.000
29.34855 277.000
29.36850 261.000
29.38845 290.000
29.40839 280.000
29.42834 276.000
29.44829 262.000
29.46823 290.000
29.48818 289.000
29.50813 255.000
29.52808 268.000
29.54802 260.000
29.56797 280.000
29.58792 272.000
29.60786 277.000
29.62781 253.000
29.64776 261.000
29.66770 266.000
29.68765 266.000
29.70760 275.000
29.72755 240.000
29.74749 265.000
29.76744 261.000
29.78739 261.000
29.80733 268.000
29.82728 260.000
29.84723 273.000
29.86717 299.000
29.88712 270.000
29.90707 272.000
29.92701 252.000
29.94696 311.000
29.96691 250.000
29.98686 246.000
30.00680 267.000
30.02675 287.000
30.04670 259.000
30.06664 280.000
30.08659 308.000
30.10654 288.000
30.12648 284.000
30.14643 293.000
30.16638 291.000
30.18633 293.000
30.20627 316.000
30.22622 311.000
30.24617 369.000
30.26611 394.000
30.28606 405.000
30.30601 411.000
30.32595 447.000
30.34590 453.000
30.36585 510.000
30.38579 506.000
30.40574 518.000
30.42569 473.000
30.44564 451.000
30.46558 449.000
30.48553 401.000
30.50548 342.000
30.52542 356.000
30.54537 330.000
30.56532 292.000
30.58526 299.000
30.60521 306.000
30.62516 279.000
30.64511 265.000
30.66505 284.000
30.68500 284.000
30.70495 296.000
30.72489 275.000
30.74484 262.000
30.76479 292.000
30.78473 272.000
30.80468 281.000
30.82463 259.000
30.84458 266.000
30.86452 276.000
30.88447 281.000
30.90442 280.000
30.92436 238.000
30.94431 262.000
30.96426 270.000
30.98420 252.000
31.00415 263.000
31.02410 288.000
31.04404 278.000
31.06399 299.000
31.08394 280.000
31.10389 258.000
31.12383 275.000
31.14378 271.000
31.16373 259.000
31.18367 287.000
31.20362 268.000
31.22357 244.000
31.24351 282.000
31.26346 281.000
31.28341 272.000
31.30336 252.000
31.32330 259.000
31.34325 264.000
31.36320 280.000
31.38314 270.000
31.40309 269.000
31.42304 266.000
31.44298 282.000
31.46293 260.000
31.48288 266.000
31.50282 261.000
31.52277 272.000
31.54272 236.000
31.56267 250.000
31.58261 257.000
31.60256 284.000
31.62251 256.000
31.64245 271.000
31.66240 289.000
31.68235 259.000
31.70229 234.000
31.72224 260.000
31.74219 257.000
31.76214 271.000
31.78208 269.000
31.80203 298.000
31.82198 246.000
31.84192 235.000
31.86187 258.000
31.88182 284.000
31.90176 312.000
31.92171 300.000
31.94166 279.000
31.96160 285.000
31.98155 321.000
32.00150 294.000
32.02145 289.000
32.04139 329.000
32.06134 337.000
32.08129 349.000
32.10123 334.000
32.12118 337.000
32.14113 396.000
32.16107 344.000
32.18102 376.000
32.20097 364.000
32.22092 367.000
32.24086 338.000
32.26081 361.000
32.28076 325.000
32.30070 330.000
32.32065 333.000
32.34060 273.000
32.36054 288.000
32.38049 276.000
32.40044 319.000
32.42039 330.000
32.44033 293.000
32.46028 252.000
32.48023 291.000
32.50017 304.000
32.52012 267.000
32.54007 283.000
32.56001 256.000
32.57996 228.000
32.59991 273.000
32.61985 275.000
32.63980 302.000
32.65975 326.000
32.67970 307.000
32.69964 293.000
32.71959 297.000
32.73954 318.000
32.75948 290.000
32.77943 307.000
32.79938 303.000
32.81932 307.000
32.83927 291.000
32.85922 280.000
32.87917 312.000
32.89911 302.000
32.91906 290.000
32.93901 268.000
32.95895 276.000
32.97890 278.000
32.99885 293.000
33.01879 293.000
33.03874 280.000
33.05869 298.000
33.07863 269.000
33.09858 264.000
33.11853 242.000
33.13848 282.000
33.15842 269.000
33.17837 274.000
33.19832 247.000
33.21826 246.000
33.23821 274.000
33.25816 277.000
33.27810 261.000
33.29805 282.000
33.31800 250.000
33.33795 269.000
33.35789 290.000
33.37784 270.000
33.39779 281.000
33.41773 277.000
33.43768 252.000
33.45763 266.000
33.47757 286.000
33.49752 253.000
33.51747 286.000
33.53741 269.000
33.55736 271.000
33.57731 288.000
33.59726 280.000
33.61720 291.000
33.63715 301.000
33.65710 280.000
33.67704 294.000
33.69699 299.000
33.71694 269.000
33.73688 259.000
33.75683 270.000
33.77678 275.000
33.79673 298.000
33.81667 283.000
33.83662 279.000
33.85657 264.000
33.87651 278.000
33.89646 275.000
33.91641 262.000
33.93635 287.000
33.95630 271.000
33.97625 276.000
33.99620 300.000
34.01614 269.000
34.03609 273.000
34.05604 295.000
34.07598 274.000
34.09593 259.000
34.11588 306.000
34.13582 234.000
34.15577 280.000
34.17572 258.000
34.19566 259.000
34.21561 267.000
34.23556 288.000
34.25551 258.000
34.27545 256.000
34.29540 271.000
34.31535 264.000
34.33529 286.000
34.35524 272.000
34.37519 273.000
34.39513 283.000
34.41508 259.000
34.43503 296.000
34.45498 265.000
34.47492 315.000
34.49487 278.000
34.51482 309.000
34.53476 276.000
34.55471 275.000
34.57466 301.000
34.59460 347.000
34.61455 306.000
34.63450 322.000
34.65444 312.000
34.67439 312.000
34.69434 342.000
34.71429 315.000
34.73423 312.000
34.75418 287.000
34.77413 303.000
34.79407 352.000
34.81402 347.000
34.83397 307.000
34.85391 292.000
34.87386 306.000
34.89381 278.000
34.91376 288.000
34.93370 294.000
34.95365 285.000
34.97360 291.000
34.99354 319.000
35.01349 343.000
35.03344 263.000
35.05338 288.000
35.07333 293.000
35.09328 320.000
35.11322 296.000
35.13317 293.000
35.15312 297.000
35.17307 351.000
35.19301 315.000
35.21296 293.000
35.23291 310.000
35.25285 356.000
35.27280 337.000
35.29275 324.000
35.31269 314.000
35.33264 353.000
35.35259 290.000
35.37254 318.000
35.39248 348.000
35.41243 313.000
35.43238 393.000
35.45232 381.000
35.47227 403.000
35.49222 374.000
35.51216 419.000
35.53211 446.000
35.55206 457.000
35.57201 469.000
35.59195 551.000
35.61190 564.000
35.63185 729.000
35.65179 743.000
35.67174 831.000
35.69169 916.000
35.71163 1017.000
35.73158 1132.000
35.75153 1144.000
35.77147 1223.000
35.79142 1194.000
35.81137 1125.000
35.83132 998.000
35.85126 980.000
35.87121 867.000
35.89116 883.000
35.91110 762.000
35.93105 694.000
35.95100 590.000
35.97094 522.000
35.99089 515.000
36.01084 436.000
36.03079 450.000
36.05073 415.000
36.07068 407.000
36.09063 377.000
36.11057 421.000
36.13052 412.000
36.15047 357.000
36.17041 369.000
36.19036 350.000
36.21031 338.000
36.23025 356.000
36.25020 364.000
36.27015 377.000
36.29010 357.000
36.31004 358.000
36.32999 349.000
36.34994 344.000
36.36988 339.000
36.38983 360.000
36.40978 387.000
36.42972 342.000
36.44967 391.000
36.46962 361.000
36.48957 319.000
36.50951 349.000
36.52946 370.000
36.54941 419.000
36.56935 407.000
36.58930 363.000
36.60925 362.000
36.62919 378.000
36.64914 410.000
36.66909 415.000
36.68903 404.000
36.70898 393.000
36.72893 412.000
36.74888 414.000
36.76882 410.000
36.78877 483.000
36.80872 476.000
36.82866 466.000
36.84861 489.000
36.86856 513.000
36.88850 540.000
36.90845 617.000
36.92840 670.000
36.94835 706.000
36.96829 790.000
36.98824 896.000
37.00819 959.000
37.02813 1127.000
37.04808 1295.000
37.06803 1567.000
37.08797 1842.000
37.10792 2350.000
37.12787 2684.000
37.14781 3061.000
37.16776 3386.000
37.18771 3733.000
37.20766 3840.000
37.22760 3921.000
37.24755 3685.000
37.26750 3545.000
37.28744 3088.000
37.30739 2756.000
37.32734 2400.000
37.34728 2001.000
37.36723 1617.000
37.38718 1372.000
37.40713 1135.000
37.42707 946.000
37.44702 844.000
37.46697 759.000
37.48691 657.000
37.50686 579.000
37.52681 577.000
37.54675 480.000
37.56670 497.000
37.58665 478.000
37.60660 453.000
37.62654 431.000
37.64649 395.000
37.66644 384.000
37.68638 379.000
37.70633 350.000
37.72628 361.000
37.74622 366.000
37.76617 329.000
37.78612 346.000
37.80606 332.000
37.82601 340.000
37.84596 325.000
37.86591 358.000
37.88585 294.000
37.90580 355.000
37.92575 317.000
37.94569 310.000
37.96564 320.000
37.98559 342.000
38.00553 295.000
38.02548 300.000
38.04543 294.000
38.06538 307.000
38.08532 313.000
38.10527 293.000
38.12522 291.000
38.14516 304.000
38.16511 303.000
38.18506 318.000
38.20500 316.000
38.22495 301.000
38.24490 277.000
38.26484 302.000
38.28479 325.000
38.30474 301.000
38.32469 290.000
38.34463 295.000
38.36458 291.000
38.38453 326.000
38.40447 314.000
38.42442 289.000
38.44437 311.000
38.46431 281.000
38.48426 331.000
38.50421 330.000
38.52416 286.000
38.54410 326.000
38.56405 303.000
38.58400 309.000
38.60394 311.000
38.62389 319.000
38.64384 302.000
38.66378 302.000
38.68373 273.000
38.70368 272.000
38.72362 265.000
38.74357 272.000
38.76352 274.000
38.78347 291.000
38.80341 277.000
38.82336 336.000
38.84331 291.000
38.86325 294.000
38.88320 285.000
38.90315 312.000
38.92309 329.000
38.94304 281.000
38.96299 312.000
38.98294 300.000
39.00288 312.000
39.02283 351.000
39.04278 299.000
39.06272 304.000
39.08267 319.000
39.10262 291.000
39.12256 344.000
39.14251 334.000
39.16246 377.000
39.18241 344.000
39.20235 373.000
39.22230 418.000
39.24225 408.000
39.26219 426.000
39.28214 453.000
39.30209 472.000
39.32203 480.000
39.34198 469.000
39.36193 508.000
39.38187 532.000
39.40182 537.000
39.42177 482.000
39.44172 468.000
39.46166 470.000
39.48161 466.000
39.50156 413.000
39.52150 412.000
39.54145 416.000
39.56140 401.000
39.58134 390.000
39.60129 368.000
39.62124 345.000
39.64119 345.000
39.66113 324.000
39.68108 296.000
39.70103 298.000
39.72097 317.000
39.74092 305.000
39.76087 284.000
39.78081 282.000
39.80076 282.000
39.82071 278.000
39.84065 294.000
39.86060 297.000
39.88055 261.000
39.90050 285.000
39.92044 266.000
39.94039 284.000
39.96034 323.000
39.98028 272.000
40.00023 260.000
40.02018 287.000
40.04012 307.000
40.06007 316.000
40.08002 305.000
40.09997 263.000
40.11991 277.000
40.13986 249.000
40.15981 279.000
40.17975 282.000
40.19970 267.000
40.21965 309.000
40.23959 288.000
40.25954 288.000
40.27949 269.000
40.29943 283.000
40.31938 272.000
40.33933 286.000
40.35928 274.000
40.37922 290.000
40.39917 254.000
40.41912 290.000
40.43906 275.000
40.45901 276.000
40.47896 265.000
40.49890 297.000
40.51885 302.000
40.53880 264.000
40.55875 290.000
40.57869 304.000
40.59864 288.000
40.61859 295.000
40.63853 273.000
40.65848 294.000
40.67843 264.000
40.69837 266.000
40.71832 292.000
40.73827 285.000
40.75822 256.000
40.77816 270.000
40.79811 302.000
40.81806 259.000
40.83800 254.000
40.85795 275.000
40.87790 286.000
40.89784 261.000
40.91779 276.000
40.93774 256.000
40.95768 298.000
40.97763 284.000
40.99758 306.000
41.01753 274.000
41.03747 272.000
41.05742 326.000
41.07737 279.000
41.09731 282.000
41.11726 289.000
41.13721 282.000
41.15715 306.000
41.17710 296.000
41.19705 288.000
41.21700 289.000
41.23694 281.000
41.25689 292.000
41.27684 286.000
41.29678 279.000
41.31673 287.000
41.33668 298.000
41.35662 307.000
41.37657 283.000
41.39652 284.000
41.41646 288.000
41.43641 300.000
41.45636 295.000
41.47631 335.000
41.49625 308.000
41.51620 292.000
41.53615 292.000
41.55609 321.000
41.57604 336.000
41.59599 333.000
41.61593 365.000
41.63588 378.000
41.65583 379.000
41.67578 399.000
41.69572 416.000
41.71567 406.000
41.73562 525.000
41.75556 549.000
41.77551 545.000
41.79546 574.000
41.81540 577.000
41.83535 578.000
41.85530 575.000
41.87524 597.000
41.89519 543.000
41.91514 525.000
41.93509 522.000
41.95503 471.000
41.97498 480.000
41.99493 460.000
42.01487 415.000
42.03482 353.000
42.05477 357.000
42.07471 395.000
42.09466 372.000
42.11461 378.000
42.13456 394.000
42.15450 349.000
42.17445 371.000
42.19440 350.000
42.21434 359.000
42.23429 337.000
42.25424 321.000
42.27418 356.000
42.29413 355.000
42.31408 388.000
42.33403 364.000
42.35397 369.000
42.37392 370.000
42.39387 398.000
42.41381 394.000
42.43376 427.000
42.45371 384.000
42.47365 385.000
42.49360 407.000
42.51355 400.000
42.53349 461.000
42.55344 454.000
42.57339 421.000
42.59334 449.000
42.61328 472.000
42.63323 504.000
42.65318 507.000
42.67312 476.000
42.69307 516.000
42.71302 547.000
42.73296 568.000
42.75291 569.000
42.77286 580.000
42.79281 629.000
42.81275 644.000
42.83270 688.000
42.85265 716.000
42.87259 766.000
42.89254 769.000
42.91249 859.000
42.93243 960.000
42.95238 1064.000
42.97233 1123.000
42.99227 1306.000
43.01222 1409.000
43.03217 1576.000
43.05212 1937.000
43.07206 2371.000
43.09201 2604.000
43.11196 3188.000
43.13190 3478.000
43.15185 4022.000
43.17180 4300.000
43.19174 4984.000
43.21169 4983.000
43.23164 5169.000
43.25159 4951.000
43.27153 4883.000
43.29148 4532.000
43.31143 4188.000
43.33137 3777.000
43.35132 3354.000
43.37127 3067.000
43.39121 2521.000
43.41116 2269.000
43.43111 2078.000
43.45105 1682.000
43.47100 1586.000
43.49095 1343.000
43.51090 1222.000
43.53084 1103.000
43.55079 935.000
43.57074 951.000
43.59068 878.000
43.61063 770.000
43.63058 748.000
43.65052 687.000
43.67047 583.000
43.69042 614.000
43.71037 555.000
43.73031 544.000
43.75026 471.000
43.77021 516.000
43.79015 480.000
43.81010 418.000
43.83005 426.000
43.84999 426.000
43.86994 422.000
43.88989 400.000
43.90984 375.000
43.92978 374.000
43.94973 404.000
43.96968 418.000
43.98962 375.000
44.00957 352.000
44.02952 332.000
44.04946 374.000
44.06941 357.000
44.08936 343.000
44.10930 329.000
44.12925 357.000
44.14920 329.000
44.16915 327.000
44.18909 324.000
44.20904 314.000
44.22899 368.000
44.24893 311.000
44.26888 358.000
44.28883 304.000
44.30877 293.000
44.32872 287.000
44.34867 332.000
44.36862 333.000
44.38856 318.000
44.40851 290.000
44.42846 304.000
44.44840 305.000
44.46835 306.000
44.48830 313.000
44.50824 311.000
44.52819 296.000
44.54814 338.000
44.56808 317.000
44.58803 271.000
44.60798 327.000
44.62793 326.000
44.64787 277.000
44.66782 283.000
44.68777 320.000
44.70771 304.000
44.72766 315.000
44.74761 303.000
44.76755 296.000
44.78750 289.000
44.80745 297.000
44.82740 320.000
44.84734 295.000
44.86729 315.000
44.88724 276.000
44.90718 285.000
44.92713 293.000
44.94708 291.000
44.96702 334.000
44.98697 293.000
45.00692 293.000
45.02686 310.000
45.04681 304.000
45.06676 297.000
45.08671 291.000
45.10665 309.000
45.12660 289.000
45.14655 291.000
45.16649 334.000
45.18644 318.000
45.20639 304.000
45.22633 316.000
45.24628 295.000
45.26623 281.000
45.28618 312.000
45.30612 302.000
45.32607 301.000
45.34602 317.000
45.36596 288.000
45.38591 293.000
45.40586 281.000
45.42580 271.000
45.44575 281.000
45.46570 260.000
45.48565 258.000
45.50559 291.000
45.52554 291.000
45.54549 283.000
45.56543 264.000
45.58538 266.000
45.60533 285.000
45.62527 312.000
45.64522 273.000
45.66517 282.000
45.68511 310.000
45.70506 288.000
45.72501 256.000
45.74496 290.000
45.76490 268.000
45.78485 264.000
45.80480 273.000
45.82474 292.000
45.84469 249.000
45.86464 309.000
45.88458 265.000
45.90453 259.000
45.92448 300.000
45.94443 255.000
45.96437 293.000
45.98432 265.000
46.00427 272.000
46.02421 265.000
46.04416 283.000
46.06411 290.000
46.08405 277.000
46.10400 261.000
46.12395 265.000
46.14389 286.000
46.16384 284.000
46.18379 261.000
46.20374 248.000
46.22368 239.000
46.24363 278.000
46.26358 251.000
46.28352 252.000
46.30347 262.000
46.32342 268.000
46.34336 274.000
46.36331 269.000
46.38326 293.000
46.40321 258.000
46.42315 267.000
46.44310 251.000
46.46305 242.000
46.48299 253.000
46.50294 262.000
46.52289 287.000
46.54283 271.000
46.56278 268.000
46.58273 245.000
46.60267 264.000
46.62262 280.000
46.64257 247.000
46.66252 276.000
46.68246 295.000
46.70241 276.000
46.72236 256.000
46.74230 269.000
46.76225 263.000
46.78220 292.000
46.80214 279.000
46.82209 259.000
46.84204 253.000
46.86199 251.000
46.88193 257.000
46.90188 283.000
46.92183 283.000
46.94177 261.000
46.96172 251.000
46.98167 268.000
47.00161 253.000
47.02156 269.000
47.04151 265.000
47.06146 230.000
47.08140 248.000
47.10135 237.000
47.12130 261.000
47.14124 253.000
47.16119 277.000
47.18114 277.000
47.20108 271.000
47.22103 267.000
47.24098 265.000
47.26092 253.000
47.28087 258.000
47.30082 247.000
47.32077 284.000
47.34071 298.000
47.36066 259.000
47.38061 286.000
47.40055 254.000
47.42050 251.000
47.44045 230.000
47.46039 263.000
47.48034 263.000
47.50029 254.000
47.52024 261.000
47.54018 267.000
47.56013 264.000
47.58008 293.000
47.60002 263.000
47.61997 260.000
47.63992 258.000
47.65986 264.000
47.67981 284.000
47.69976 246.000
47.71970 314.000
47.73965 238.000
47.75960 293.000
47.77955 274.000
47.79949 258.000
47.81944 262.000
47.83939 260.000
47.85933 265.000
47.87928 248.000
47.89923 285.000
47.91917 294.000
47.93912 259.000
47.95907 287.000
47.97902 288.000
47.99896 266.000
48.01891 295.000
48.03886 280.000
48.05880 289.000
48.07875 291.000
48.09870 270.000
48.11864 287.000
48.13859 264.000
48.15854 264.000
48.17848 288.000
48.19843 259.000
48.21838 290.000
48.23833 287.000
48.25827 277.000
48.27822 278.000
48.29817 278.000
48.31811 273.000
48.33806 266.000
48.35801 251.000
48.37795 264.000
48.39790 278.000
48.41785 259.000
48.43780 280.000
48.45774 315.000
48.47769 256.000
48.49764 280.000
48.51758 319.000
48.53753 281.000
48.55748 300.000
48.57742 345.000
48.59737 335.000
48.61732 330.000
48.63726 344.000
48.65721 341.000
48.67716 370.000
48.69711 375.000
48.71705 388.000
48.73700 381.000
48.75695 459.000
48.77689 428.000
48.79684 429.000
48.81679 479.000
48.83673 486.000
48.85668 439.000
48.87663 454.000
48.89658 452.000
48.91652 440.000
48.93647 416.000
48.95642 397.000
48.97636 381.000
48.99631 380.000
49.01626 348.000
49.03620 315.000
49.05615 308.000
49.07610 346.000
49.09605 320.000
49.11599 285.000
49.13594 318.000
49.15589 290.000
49.17583 287.000
49.19578 276.000
49.21573 293.000
49.23567 267.000
49.25562 305.000
49.27557 255.000
49.29551 271.000
49.31546 290.000
49.33541 263.000
49.35536 274.000
49.37530 315.000
49.39525 262.000
49.41520 280.000
49.43514 257.000
49.45509 256.000
49.47504 286.000
49.49498 283.000
49.51493 277.000
49.53488 254.000
49.55483 254.000
49.57477 268.000
49.59472 252.000
49.61467 302.000
49.63461 257.000
49.65456 297.000
49.67451 265.000
49.69445 268.000
49.71440 255.000
49.73435 258.000
49.75429 256.000
49.77424 270.000
49.79419 265.000
49.81414 267.000
49.83408 275.000
49.85403 243.000
49.87398 267.000
49.89392 244.000
49.91387 249.000
49.93382 265.000
49.95376 273.000
49.97371 246.000
49.99366 258.000
50.01361 273.000
50.03355 258.000
50.05350 232.000
50.07345 262.000
50.09339 277.000
50.11334 287.000
50.13329 244.000
50.15323 217.000
50.17318 289.000
50.19313 286.000
50.21307 247.000
50.23302 256.000
50.25297 292.000
50.27292 235.000
50.29286 264.000
50.31281 268.000
50.33276 245.000
50.35270 279.000
50.37265 242.000
50.39260 271.000
50.41254 274.000
50.43249 296.000
50.45244 270.000
50.47239 270.000
50.49233 258.000
50.51228 260.000
50.53223 276.000
50.55217 291.000
50.57212 250.000
50.59207 269.000
50.61201 289.000
50.63196 278.000
50.65191 271.000
50.67186 255.000
50.69180 248.000
50.71175 257.000
50.73170 261.000
50.75164 250.000
50.77159 256.000
50.79154 269.000
50.81148 267.000
50.83143 247.000
50.85138 253.000
50.87132 249.000
50.89127 241.000
50.91122 254.000
50.93117 244.000
50.95111 303.000
50.97106 281.000
50.99101 253.000
51.01095 266.000
51.03090 249.000
51.05085 246.000
51.07079 268.000
51.09074 245.000
51.11069 242.000
51.13064 239.000
51.15058 288.000
51.17053 278.000
51.19048 266.000
51.21042 243.000
51.23037 247.000
51.25032 256.000
51.27026 284.000
51.29021 259.000
51.31016 238.000
51.33010 243.000
51.35005 254.000
51.37000 250.000
51.38995 276.000
51.40989 228.000
51.42984 276.000
51.44979 257.000
51.46973 250.000
51.48968 285.000
51.50963 259.000
51.52957 265.000
51.54952 238.000
51.56947 259.000
51.58942 251.000
51.60936 256.000
51.62931 229.000
51.64926 269.000
51.66920 268.000
51.68915 258.000
51.70910 222.000
51.72904 256.000
51.74899 254.000
51.76894 278.000
51.78888 261.000
51.80883 277.000
51.82878 277.000
51.84873 248.000
51.86867 256.000
51.88862 252.000
51.90857 277.000
51.92851 231.000
51.94846 243.000
51.96841 229.000
51.98835 298.000
52.00830 272.000
52.02825 246.000
52.04820 273.000
52.06814 274.000
52.08809 271.000
52.10804 263.000
52.12798 267.000
52.14793 283.000
52.16788 258.000
52.18782 262.000
52.20777 239.000
52.22772 254.000
52.24767 262.000
52.26761 280.000
52.28756 270.000
52.30751 294.000
52.32745 266.000
52.34740 286.000
52.36735 265.000
52.38729 268.000
52.40724 253.000
52.42719 262.000
52.44713 261.000
52.46708 247.000
52.48703 300.000
52.50698 279.000
52.52692 243.000
52.54687 263.000
52.56682 249.000
52.58676 281.000
52.60671 234.000
52.62666 278.000
52.64660 285.000
52.66655 238.000
52.68650 279.000
52.70645 269.000
52.72639 250.000
52.74634 253.000
52.76629 288.000
52.78623 240.000
52.80618 263.000
52.82613 282.000
52.84607 276.000
52.86602 274.000
52.88597 291.000
52.90591 270.000
52.92586 290.000
52.94581 297.000
52.96576 276.000
52.98570 279.000
53.00565 254.000
53.02560 315.000
53.04554 315.000
53.06549 316.000
53.08544 307.000
53.10538 274.000
53.12533 314.000
53.14528 307.000
53.16523 295.000
53.18517 308.000
53.20512 283.000
53.22507 312.000
53.24501 289.000
53.26496 319.000
53.28491 290.000
53.30485 283.000
53.32480 293.000
53.34475 268.000
53.36469 287.000
53.38464 252.000
53.40459 291.000
53.42454 291.000
53.44448 262.000
53.46443 245.000
53.48438 299.000
53.50432 289.000
53.52427 302.000
53.54422 285.000
53.56416 288.000
53.58411 279.000
53.60406 288.000
53.62401 248.000
53.64395 274.000
53.66390 281.000
53.68385 256.000
53.70379 326.000
53.72374 266.000
53.74369 248.000
53.76363 263.000
53.78358 300.000
53.80353 272.000
53.82348 307.000
53.84342 299.000
53.86337 290.000
53.88332 291.000
53.90326 322.000
53.92321 306.000
53.94316 319.000
53.96310 289.000
53.98305 257.000
54.00300 315.000
54.02294 289.000
54.04289 300.000
54.06284 280.000
54.08279 298.000
54.10273 285.000
54.12268 276.000
54.14263 271.000
54.16257 301.000
54.18252 269.000
54.20247 250.000
54.22241 283.000
54.24236 258.000
54.26231 249.000
54.28226 263.000
54.30220 257.000
54.32215 274.000
54.34210 272.000
54.36204 240.000
54.38199 252.000
54.40194 271.000
54.42188 266.000
54.44183 288.000
54.46178 281.000
54.48172 275.000
54.50167 259.000
54.52162 266.000
54.54157 258.000
54.56151 275.000
54.58146 235.000
54.60141 268.000
54.62135 260.000
54.64130 247.000
54.66125 261.000
54.68119 264.000
54.70114 274.000
54.72109 273.000
54.74104 272.000
54.76098 261.000
54.78093 236.000
54.80088 276.000
54.82082 271.000
54.84077 286.000
54.86072 234.000
54.88066 247.000
54.90061 266.000
54.92056 281.000
54.94050 241.000
54.96045 270.000
54.98040 283.000
55.00035 263.000
55.02029 253.000
55.04024 240.000
55.06019 243.000
55.08013 248.000
55.10008 254.000
55.12003 259.000
55.13997 282.000
55.15992 228.000
55.17987 262.000
55.19982 265.000
55.21976 277.000
55.23971 268.000
55.25966 285.000
55.27960 292.000
55.29955 253.000
55.31950 267.000
55.33944 235.000
55.35939 255.000
55.37934 259.000
55.39929 252.000
55.41923 264.000
55.43918 227.000
55.45913 293.000
55.47907 277.000
55.49902 236.000
55.51897 249.000
55.53891 221.000
55.55886 250.000
55.57881 270.000
55.59875 296.000
55.61870 283.000
55.63865 282.000
55.65860 237.000
55.67854 268.000
55.69849 254.000
55.71844 253.000
55.73838 262.000
55.75833 288.000
55.77828 229.000
55.79822 285.000
55.81817 275.000
55.83812 294.000
55.85807 251.000
55.87801 280.000
55.89796 277.000
55.91791 263.000
55.93785 249.000
55.95780 276.000
55.97775 234.000
55.99769 278.000
56.01764 245.000
56.03759 281.000
56.05753 257.000
56.07748 274.000
56.09743 287.000
56.11738 237.000
56.13732 253.000
56.15727 257.000
56.17722 278.000
56.19716 269.000
56.21711 255.000
56.23706 249.000
56.25700 260.000
56.27695 280.000
56.29690 258.000
56.31685 265.000
56.33679 249.000
56.35674 274.000
56.37669 243.000
56.39663 261.000
56.41658 287.000
56.43653 259.000
56.45647 277.000
56.47642 283.000
56.49637 287.000
56.51631 259.000
56.53626 275.000
56.55621 248.000
56.57616 256.000
56.59610 256.000
56.61605 252.000
56.63600 248.000
56.65594 278.000
56.67589 285.000
56.69584 284.000
56.71578 259.000
56.73573 266.000
56.75568 272.000
56.77563 287.000
56.79557 304.000
56.81552 263.000
56.83547 295.000
56.85541 252.000
56.87536 261.000
56.89531 261.000
56.91525 239.000
56.93520 290.000
56.95515 275.000
56.97510 280.000
56.99504 280.000
57.01499 329.000
57.03494 305.000
57.05488 307.000
57.07483 299.000
57.09478 301.000
57.11472 299.000
57.13467 319.000
57.15462 301.000
57.17456 298.000
57.19451 310.000
57.21446 298.000
57.23441 350.000
57.25435 317.000
57.27430 313.000
57.29425 331.000
57.31419 378.000
57.33414 369.000
57.35409 391.000
57.37403 423.000
57.39398 394.000
57.41393 381.000
57.43388 406.000
57.45382 459.000
57.47377 460.000
57.49372 465.000
57.51366 443.000
57.53361 454.000
57.55356 424.000
57.57350 413.000
57.59345 423.000
57.61340 419.000
57.63334 382.000
57.65329 401.000
57.67324 363.000
57.69319 362.000
57.71313 363.000
57.73308 377.000
57.75303 375.000
57.77297 375.000
57.79292 350.000
57.81287 337.000
57.83281 330.000
57.85276 307.000
57.87271 307.000
57.89266 309.000
57.91260 267.000
57.93255 289.000
57.95250 269.000
57.97244 275.000
57.99239 307.000
58.01234 273.000
58.03228 286.000
58.05223 316.000
58.07218 277.000
58.09212 263.000
58.11207 279.000
58.13202 277.000
58.15197 240.000
58.17191 270.000
58.19186 275.000
58.21181 247.000
58.23175 283.000
58.25170 273.000
58.27165 269.000
58.29159 259.000
58.31154 280.000
58.33149 278.000
58.35144 273.000
58.37138 281.000
58.39133 252.000
58.41128 281.000
58.43122 273.000
58.45117 264.000
58.47112 288.000
58.49106 261.000
58.51101 284.000
58.53096 251.000
58.55090 326.000
58.57085 260.000
58.59080 260.000
58.61075 249.000
58.63069 265.000
58.65064 263.000
58.67059 243.000
58.69053 249.000
58.71048 241.000
58.73043 273.000
58.75037 261.000
58.77032 275.000
58.79027 298.000
58.81022 266.000
58.83016 271.000
58.85011 268.000
58.87006 249.000
58.89000 286.000
58.90995 257.000
58.92990 280.000
58.94984 285.000
58.96979 273.000
58.98974 291.000
59.00969 260.000
59.02963 252.000
59.04958 263.000
59.06953 263.000
59.08947 252.000
59.10942 280.000
59.12937 242.000
59.14931 291.000
59.16926 239.000
59.18921 244.000
59.20915 285.000
59.22910 277.000
59.24905 261.000
59.26900 274.000
59.28894 284.000
59.30889 254.000
59.32884 262.000
59.34878 271.000
59.36873 277.000
59.38868 247.000
59.40862 277.000
59.42857 271.000
59.44852 252.000
59.46847 244.000
59.48841 282.000
59.50836 283.000
59.52831 280.000
59.54825 280.000
59.56820 285.000
59.58815 244.000
59.60809 277.000
59.62804 232.000
59.64799 296.000
59.66793 253.000
59.68788 249.000
59.70783 279.000
59.72778 243.000
59.74772 266.000
59.76767 254.000
59.78762 240.000
59.80756 247.000
59.82751 242.000
59.84746 246.000
59.86740 255.000
59.88735 243.000
59.90730 299.000
59.92725 270.000
59.94719 258.000
59.96714 270.000
59.98709 281.000
60.00703 267.000
60.02698 301.000
60.04693 272.000
60.06687 267.000
60.08682 240.000
60.10677 275.000
60.12671 289.000
60.14666 275.000
60.16661 262.000
60.18656 251.000
60.20650 272.000
60.22645 237.000
60.24640 267.000
60.26634 281.000
60.28629 270.000
60.30624 259.000
60.32618 279.000
60.34613 269.000
60.36608 284.000
60.38603 241.000
60.40597 283.000
60.42592 259.000
60.44587 268.000
60.46581 277.000
60.48576 257.000
60.50571 281.000
60.52565 278.000
60.54560 266.000
60.56555 274.000
60.58550 242.000
60.60544 292.000
60.62539 269.000
60.64534 259.000
60.66528 295.000
60.68523 260.000
60.70518 248.000
60.72512 266.000
60.74507 289.000
60.76502 288.000
60.78496 265.000
60.80491 265.000
60.82486 292.000
60.84481 253.000
60.86475 273.000
60.88470 282.000
60.90465 271.000
60.92459 275.000
60.94454 286.000
60.96449 263.000
60.98443 268.000
61.00438 275.000
61.02433 263.000
61.04428 284.000
61.06422 277.000
61.08417 272.000
61.10412 274.000
61.12406 313.000
61.14401 297.000
61.16396 313.000
61.18390 280.000
61.20385 253.000
61.22380 285.000
61.24374 288.000
61.26369 293.000
61.28364 287.000
61.30359 284.000
61.32353 286.000
61.34348 279.000
61.36343 278.000
61.38337 307.000
61.40332 301.000
61.42327 333.000
61.44321 304.000
61.46316 280.000
61.48311 288.000
61.50306 299.000
61.52300 256.000
61.54295 295.000
61.56290 301.000
61.58284 275.000
61.60279 303.000
61.62274 299.000
61.64268 294.000
61.66263 305.000
61.68258 319.000
61.70252 338.000
61.72247 287.000
61.74242 311.000
61.76237 319.000
61.78231 320.000
61.80226 325.000
61.82221 308.000
61.84215 328.000
61.86210 324.000
61.88205 339.000
61.90199 319.000
61.92194 382.000
61.94189 395.000
61.96184 383.000
61.98178 390.000
62.00173 388.000
62.02168 402.000
62.04162 383.000
62.06157 390.000
62.08152 422.000
62.10146 470.000
62.12141 471.000
62.14136 455.000
62.16131 481.000
62.18125 484.000
62.20120 505.000
62.22115 496.000
62.24109 474.000
62.26104 524.000
62.28099 549.000
62.30093 533.000
62.32088 546.000
62.34083 557.000
62.36077 609.000
62.38072 587.000
62.40067 634.000
62.42062 713.000
62.44056 676.000
62.46051 756.000
62.48046 798.000
62.50040 939.000
62.52035 1016.000
62.54030 1141.000
62.56024 1238.000
62.58019 1350.000
62.60014 1619.000
62.62009 1640.000
62.64003 1964.000
62.65998 2094.000
62.67993 2101.000
62.69987 2141.000
62.71982 2267.000
62.73977 2224.000
62.75971 2175.000
62.77966 2154.000
62.79961 2061.000
62.81955 2058.000
62.83950 1904.000
62.85945 1833.000
62.87940 1757.000
62.89934 1654.000
62.91929 1495.000
62.93924 1450.000
62.95918 1283.000
62.97913 1232.000
62.99908 1148.000
63.01902 1059.000
63.03897 1062.000
63.05892 971.000
63.07887 928.000
63.09881 872.000
63.11876 830.000
63.13871 773.000
63.15865 705.000
63.17860 649.000
63.19855 666.000
63.21849 610.000
63.23844 589.000
63.25839 581.000
63.27833 573.000
63.29828 572.000
63.31823 541.000
63.33818 499.000
63.35812 483.000
63.37807 454.000
63.39802 468.000
63.41796 409.000
63.43791 464.000
63.45786 399.000
63.47780 430.000
63.49775 368.000
63.51770 406.000
63.53765 382.000
63.55759 370.000
63.57754 359.000
63.59749 341.000
63.61743 361.000
63.63738 367.000
63.65733 342.000
63.67727 349.000
63.69722 319.000
63.71717 312.000
63.73712 332.000
63.75706 302.000
63.77701 320.000
63.79696 332.000
63.81690 325.000
63.83685 317.000
63.85680 343.000
63.87674 333.000
63.89669 316.000
63.91664 341.000
63.93658 315.000
63.95653 311.000
63.97648 339.000
63.99643 317.000
64.01637 345.000
64.03632 305.000
64.05627 332.000
64.07621 331.000
64.09616 356.000
64.11611 353.000
64.13605 336.000
64.15600 335.000
64.17595 349.000
64.19590 351.000
64.21584 366.000
64.23579 378.000
64.25574 342.000
64.27568 354.000
64.29563 346.000
64.31558 311.000
64.33552 313.000
64.35547 319.000
64.37542 314.000
64.39536 345.000
64.41531 318.000
64.43526 345.000
64.45521 282.000
64.47515 302.000
64.49510 301.000
64.51505 285.000
64.53499 295.000
64.55494 326.000
64.57489 292.000
64.59483 323.000
64.61478 308.000
64.63473 312.000
64.65468 299.000
64.67462 284.000
64.69457 267.000
64.71452 318.000
64.73446 295.000
64.75441 261.000
64.77436 302.000
64.79430 319.000
64.81425 296.000
64.83420 290.000
64.85414 258.000
64.87409 285.000
64.89404 257.000
64.91399 317.000
64.93393 272.000
64.95388 282.000
64.97383 300.000
64.99377 283.000
65.01372 260.000
65.03367 269.000
65.05361 260.000
65.07356 270.000
65.09351 246.000
65.11346 285.000
65.13340 270.000
65.15335 274.000
65.17330 265.000
65.19324 265.000
65.21319 261.000
65.23314 289.000
65.25308 278.000
65.27303 256.000
65.29298 269.000
65.31293 274.000
65.33287 264.000
65.35282 262.000
65.37277 299.000
65.39271 285.000
65.41266 253.000
65.43261 237.000
65.45255 270.000
65.47250 262.000
65.49245 276.000
65.51239 286.000
65.53234 250.000
65.55229 257.000
65.57224 298.000
65.59218 269.000
65.61213 304.000
65.63208 278.000
65.65202 287.000
65.67197 289.000
65.69192 287.000
65.71186 320.000
65.73181 288.000
65.75176 296.000
65.77171 296.000
65.79165 285.000
65.81160 306.000
65.83155 279.000
65.85149 302.000
65.87144 304.000
65.89139 293.000
65.91133 310.000
65.93128 310.000
65.95123 295.000
65.97117 301.000
65.99112 283.000
66.01107 308.000
66.03102 283.000
66.05096 308.000
66.07091 296.000
66.09086 272.000
66.11080 276.000
66.13075 289.000
66.15070 280.000
66.17064 286.000
66.19059 269.000
66.21054 280.000
66.23049 279.000
66.25043 282.000
66.27038 319.000
66.29033 315.000
66.31027 266.000
66.33022 293.000
66.35017 291.000
66.37011 333.000
66.39006 281.000
66.41001 271.000
66.42995 312.000
66.44990 316.000
66.46985 303.000
66.48980 290.000
66.50974 285.000
66.52969 309.000
66.54964 332.000
66.56958 290.000
66.58953 327.000
66.60948 309.000
66.62942 324.000
66.64937 272.000
66.66932 305.000
66.68927 310.000
66.70921 304.000
66.72916 308.000
66.74911 266.000
66.76905 290.000
66.78900 324.000
66.80895 289.000
66.82889 329.000
66.84884 293.000
66.86879 262.000
66.88874 273.000
66.90868 278.000
66.92863 278.000
66.94858 300.000
66.96852 306.000
66.98847 313.000
67.00842 277.000
67.02836 277.000
67.04831 300.000
67.06826 308.000
67.08820 268.000
67.10815 311.000
67.12810 291.000
67.14805 314.000
67.16799 269.000
67.18794 266.000
67.20789 288.000
67.22783 275.000
67.24778 301.000
67.26773 291.000
67.28767 254.000
67.30762 265.000
67.32757 278.000
67.34752 286.000
67.36746 229.000
67.38741 270.000
67.40736 274.000
67.42730 271.000
67.44725 318.000
67.46720 286.000
67.48714 257.000
67.50709 309.000
67.52704 273.000
67.54698 284.000
67.56693 271.000
67.58688 275.000
67.60683 265.000
67.62677 256.000
67.64672 289.000
67.66667 302.000
67.68661 238.000
67.70656 244.000
67.72651 260.000
67.74645 267.000
67.76640 275.000
67.78635 269.000
67.80630 277.000
67.82624 251.000
67.84619 270.000
67.86614 263.000
67.88608 280.000
67.90603 277.000
67.92598 271.000
67.94592 285.000
67.96587 277.000
67.98582 274.000
68.00576 276.000
68.02571 265.000
68.04566 287.000
68.06561 276.000
68.08555 249.000
68.10550 273.000
68.12545 276.000
68.14539 292.000
68.16534 291.000
68.18529 259.000
68.20523 292.000
68.22518 260.000
68.24513 251.000
68.26508 269.000
68.28502 265.000
68.30497 249.000
68.32492 260.000
68.34486 242.000
68.36481 277.000
68.38476 275.000
68.40470 274.000
68.42465 266.000
68.44460 278.000
68.46455 292.000
68.48449 255.000
68.50444 268.000
68.52439 262.000
68.54433 259.000
68.56428 268.000
68.58423 262.000
68.60417 271.000
68.62412 282.000
68.64407 292.000
68.66401 264.000
68.68396 267.000
68.70391 241.000
68.72386 266.000
68.74380 300.000
68.76375 255.000
68.78370 281.000
68.80364 279.000
68.82359 249.000
68.84354 266.000
68.86348 222.000
68.88343 297.000
68.90338 254.000
68.92333 263.000
68.94327 249.000
68.96322 270.000
68.98317 263.000
69.00311 231.000
69.02306 277.000
69.04301 241.000
69.06295 278.000
69.08290 262.000
69.10285 278.000
69.12279 268.000
69.14274 285.000
69.16269 232.000
69.18264 250.000
69.20258 264.000
69.22253 270.000
69.24248 246.000
69.26242 248.000
69.28237 259.000
69.30232 258.000
69.32226 255.000
69.34221 264.000
69.36216 260.000
69.38211 256.000
69.40205 269.000
69.42200 258.000
69.44195 241.000
69.46189 277.000
69.48184 249.000
69.50179 294.000
69.52173 272.000
69.54168 242.000
69.56163 271.000
69.58157 261.000
69.60152 235.000
69.62147 240.000
69.64142 252.000
69.66136 260.000
69.68131 247.000
69.70126 263.000
69.72120 274.000
69.74115 248.000
69.76110 228.000
69.78104 255.000
69.80099 295.000
69.82094 266.000
69.84089 268.000
69.86083 261.000
69.88078 276.000
69.90073 243.000
69.92067 242.000
69.94062 235.000
69.96057 280.000
69.98051 279.000
70.00046 288.000
70.02041 246.000
70.04035 291.000
70.06030 257.000
70.08025 254.000
70.10020 266.000
70.12014 268.000
70.14009 260.000
70.16004 230.000
70.17998 266.000
70.19993 298.000
70.21988 265.000
70.23982 265.000
70.25977 260.000
70.27972 281.000
70.29967 264.000
70.31961 242.000
70.33956 248.000
70.35951 232.000
70.37945 283.000
70.39940 248.000
70.41935 232.000
70.43929 254.000
70.45924 254.000
70.47919 265.000
70.49914 265.000
70.51908 263.000
70.53903 238.000
70.55898 263.000
70.57892 250.000
70.59887 264.000
70.61882 287.000
70.63876 265.000
70.65871 251.000
70.67866 254.000
70.69860 257.000
70.71855 270.000
70.73850 231.000
70.75845 239.000
70.77839 251.000
70.79834 231.000
70.81829 263.000
70.83823 273.000
70.85818 246.000
70.87813 233.000
70.89807 276.000
70.91802 256.000
70.93797 281.000
70.95792 293.000
70.97786 236.000
70.99781 276.000
71.01776 231.000
71.03770 248.000
71.05765 277.000
71.07760 256.000
71.09754 269.000
71.11749 278.000
71.13744 273.000
71.15738 261.000
71.17733 270.000
71.19728 252.000
71.21723 253.000
71.23717 270.000
71.25712 243.000
71.27707 258.000
71.29701 275.000
71.31696 256.000
71.33691 267.000
71.35685 262.000
71.37680 258.000
71.39675 265.000
71.41670 273.000
71.43664 268.000
71.45659 297.000
71.47654 275.000
71.49648 285.000
71.51643 272.000
71.53638 281.000
71.55632 289.000
71.57627 275.000
71.59622 262.000
71.61616 275.000
71.63611 266.000
71.65606 284.000
71.67601 277.000
71.69595 264.000
71.71590 286.000
71.73585 271.000
71.75579 268.000
71.77574 259.000
71.79569 280.000
71.81563 278.000
71.83558 235.000
71.85553 232.000
71.87548 258.000
71.89542 282.000
71.91537 262.000
71.93532 257.000
71.95526 268.000
71.97521 259.000
71.99516 261.000
72.01510 280.000
72.03505 273.000
72.05500 264.000
72.07495 278.000
72.09489 276.000
72.11484 254.000
72.13479 266.000
72.15473 243.000
72.17468 239.000
72.19463 238.000
72.21457 280.000
72.23452 284.000
72.25447 247.000
72.27441 242.000
72.29436 225.000
72.31431 277.000
72.33426 249.000
72.35420 268.000
72.37415 252.000
72.39410 260.000
72.41404 287.000
72.43399 258.000
72.45394 281.000
72.47388 273.000
72.49383 263.000
72.51378 267.000
72.53373 244.000
72.55367 291.000
72.57362 273.000
72.59357 269.000
72.61351 274.000
72.63346 276.000
72.65341 258.000
72.67335 274.000
72.69330 266.000
72.71325 258.000
72.73319 271.000
72.75314 251.000
72.77309 277.000
72.79304 231.000
72.81298 293.000
72.83293 275.000
72.85288 264.000
72.87282 274.000
72.89277 276.000
72.91272 279.000
72.93266 274.000
72.95261 286.000
72.97256 269.000
72.99251 274.000
73.01245 285.000
73.03240 245.000
73.05235 256.000
73.07229 303.000
73.09224 266.000
73.11219 269.000
73.13213 278.000
73.15208 284.000
73.17203 294.000
73.19197 280.000
73.21192 299.000
73.23187 292.000
73.25182 279.000
73.27176 272.000
73.29171 295.000
73.31166 263.000
73.33160 290.000
73.35155 306.000
73.37150 327.000
73.39144 290.000
73.41139 304.000
73.43134 285.000
73.45129 303.000
73.47123 297.000
73.49118 255.000
73.51113 267.000
73.53107 272.000
73.55102 306.000
73.57097 273.000
73.59091 324.000
73.61086 302.000
73.63081 312.000
73.65076 267.000
73.67070 280.000
73.69065 329.000
73.71060 303.000
73.73054 260.000
73.75049 285.000
73.77044 311.000
73.79038 296.000
73.81033 302.000
73.83028 269.000
73.85022 295.000
73.87017 291.000
73.89012 274.000
73.91007 269.000
73.93001 278.000
73.94996 273.000
73.96991 247.000
73.98985 275.000
74.00980 271.000
74.02975 267.000
74.04969 273.000
74.06964 276.000
74.08959 262.000
74.10954 270.000
74.12948 266.000
74.14943 254.000
74.16938 272.000
74.18932 263.000
74.20927 307.000
74.22922 288.000
74.24916 302.000
74.26911 291.000
74.28906 306.000
74.30900 297.000
74.32895 275.000
74.34890 302.000
74.36885 325.000
74.38879 294.000
74.40874 308.000
74.42869 316.000
74.44863 309.000
74.46858 323.000
74.48853 299.000
74.50847 348.000
74.52842 334.000
74.54837 304.000
74.56832 354.000
74.58826 318.000
74.60821 358.000
74.62816 331.000
74.64810 363.000
74.66805 359.000
74.68800 369.000
74.70794 371.000
74.72789 361.000
74.74784 357.000
74.76778 368.000
74.78773 388.000
74.80768 389.000
74.82763 394.000
74.84757 435.000
74.86752 421.000
74.88747 480.000
74.90741 475.000
74.92736 493.000
74.94731 512.000
74.96725 552.000
74.98720 560.000
75.00715 621.000
75.02710 663.000
75.04704 672.000
75.06699 692.000
75.08694 786.000
75.10688 790.000
75.12683 868.000
75.14678 846.000
75.16672 886.000
75.18667 921.000
75.20662 802.000
75.22657 867.000
75.24651 899.000
75.26646 869.000
75.28641 811.000
75.30635 826.000
75.32630 805.000
75.34625 733.000
75.36619 814.000
75.38614 711.000
75.40609 724.000
75.42603 664.000
75.44598 676.000
75.46593 572.000
75.48588 617.000
75.50582 509.000
75.52577 573.000
75.54572 521.000
75.56566 467.000
75.58561 466.000
75.60556 482.000
75.62550 441.000
75.64545 361.000
75.66540 404.000
75.68535 411.000
75.70529 356.000
75.72524 356.000
75.74519 322.000
75.76513 387.000
75.78508 333.000
75.80503 353.000
75.82497 333.000
75.84492 319.000
75.86487 292.000
75.88481 321.000
75.90476 310.000
75.92471 305.000
75.94466 332.000
75.96460 316.000
75.98455 320.000
76.00450 327.000
76.02444 307.000
76.04439 291.000
76.06434 313.000
76.08428 281.000
76.10423 307.000
76.12418 292.000
76.14413 283.000
76.16407 280.000
76.18402 269.000
76.20397 293.000
76.22391 288.000
76.24386 302.000
76.26381 288.000
76.28375 237.000
76.30370 255.000
76.32365 263.000
76.34359 295.000
76.36354 260.000
76.38349 274.000
76.40344 280.000
76.42338 302.000
76.44333 243.000
76.46328 259.000
76.48322 300.000
76.50317 269.000
76.52312 287.000
76.54306 282.000
76.56301 242.000
76.58296 252.000
76.60291 296.000
76.62285 274.000
76.64280 261.000
76.66275 267.000
76.68269 280.000
76.70264 281.000
76.72259 270.000
76.74253 304.000
76.76248 277.000
76.78243 280.000
76.80238 274.000
76.82232 269.000
76.84227 278.000
76.86222 271.000
76.88216 265.000
76.90211 234.000
76.92206 270.000
76.94200 261.000
76.96195 270.000
76.98190 293.000
77.00184 253.000
77.02179 307.000
77.04174 270.000
77.06169 257.000
77.08163 261.000
77.10158 303.000
77.12153 278.000
77.14147 295.000
77.16142 276.000
77.18137 276.000
77.20131 298.000
77.22126 242.000
77.24121 250.000
77.26116 280.000
77.28110 280.000
77.30105 284.000
77.32100 309.000
77.34094 264.000
77.36089 260.000
77.38084 272.000
77.40078 301.000
77.42073 250.000
77.44068 259.000
77.46062 261.000
77.48057 279.000
77.50052 268.000
77.52047 261.000
77.54041 239.000
77.56036 274.000
77.58031 260.000
77.60025 273.000
77.62020 274.000
77.64015 262.000
77.66009 276.000
77.68004 263.000
77.69999 284.000
77.71994 253.000
77.73988 275.000
77.75983 265.000
77.77978 276.000
77.79972 297.000
77.81967 267.000
77.83962 277.000
77.85956 271.000
77.87951 308.000
77.89946 284.000
77.91940 293.000
77.93935 313.000
77.95930 308.000
77.97925 319.000
77.99919 320.000
78.01914 329.000
78.03909 267.000
78.05903 300.000
78.07898 286.000
78.09893 317.000
78.11887 271.000
78.13882 272.000
78.15877 299.000
78.17872 305.000
78.19866 305.000
78.21861 279.000
78.23856 299.000
78.25850 281.000
78.27845 318.000
78.29840 308.000
78.31834 306.000
78.33829 315.000
78.35824 316.000
78.37819 305.000
78.39813 323.000
78.41808 298.000
78.43803 291.000
78.45797 321.000
78.47792 340.000
78.49787 323.000
78.51781 335.000
78.53776 325.000
78.55771 312.000
78.57765 291.000
78.59760 322.000
78.61755 353.000
78.63750 293.000
78.65744 344.000
78.67739 315.000
78.69734 318.000
78.71728 347.000
78.73723 339.000
78.75718 352.000
78.77712 351.000
78.79707 349.000
78.81702 362.000
78.83697 377.000
78.85691 423.000
78.87686 441.000
78.89681 464.000
78.91675 440.000
78.93670 449.000
78.95665 473.000
78.97659 488.000
78.99654 561.000
79.01649 567.000
79.03643 563.000
79.05638 635.000
79.07633 653.000
79.09628 656.000
79.11622 667.000
79.13617 712.000
79.15612 757.000
79.17606 669.000
79.19601 679.000
79.21596 645.000
79.23590 688.000
79.25585 625.000
79.27580 638.000
79.29575 670.000
79.31569 612.000
79.33564 636.000
79.35559 600.000
79.37553 606.000
79.39548 557.000
79.41543 532.000
79.43537 537.000
79.45532 521.000
79.47527 457.000
79.49521 454.000
79.51516 430.000
79.53511 419.000
79.55506 407.000
79.57500 396.000
79.59495 367.000
79.61490 358.000
79.63484 365.000
79.65479 366.000
79.67474 320.000
79.69468 332.000
79.71463 338.000
79.73458 350.000
79.75453 303.000
79.77447 318.000
79.79442 277.000
79.81437 301.000
79.83431 288.000
79.85426 320.000
79.87421 286.000
79.89415 321.000
79.91410 284.000
79.93405 291.000
79.95399 281.000
79.97394 329.000
79.99389 281.000
80.01384 271.000
80.03378 275.000
80.05373 251.000
80.07368 283.000
80.09362 297.000
80.11357 262.000
80.13352 301.000
80.15346 247.000
80.17341 303.000
80.19336 276.000
80.21331 249.000
80.23325 269.000
80.25320 276.000
80.27315 268.000
80.29309 280.000
80.31304 293.000
80.33299 290.000
80.35293 292.000
80.37288 242.000
80.39283 268.000
80.41278 277.000
80.43272 231.000
80.45267 291.000
80.47262 277.000
80.49256 296.000
80.51251 274.000
80.53246 258.000
80.55240 251.000
80.57235 275.000
80.59230 293.000
80.61224 271.000
80.63219 295.000
80.65214 294.000
80.67209 261.000
80.69203 275.000
80.71198 282.000
80.73193 286.000
80.75187 257.000
80.77182 279.000
80.79177 271.000
80.81171 291.000
80.83166 246.000
80.85161 249.000
80.87156 259.000
80.89150 247.000
80.91145 270.000
80.93140 223.000
80.95134 251.000
80.97129 251.000
80.99124 279.000
81.01118 285.000
81.03113 258.000
81.05108 281.000
81.07102 263.000
81.09097 234.000
81.11092 270.000
81.13087 250.000
81.15081 254.000
81.17076 253.000
81.19071 277.000
81.21065 273.000
81.23060 273.000
81.25055 246.000
81.27049 207.000
81.29044 252.000
81.31039 284.000
81.33034 291.000
81.35028 283.000
81.37023 290.000
81.39018 276.000
81.41012 261.000
81.43007 276.000
81.45002 243.000
81.46996 242.000
81.48991 244.000
81.50986 260.000
81.52980 280.000
81.54975 261.000
81.56970 231.000
81.58965 260.000
81.60959 258.000
81.62954 280.000
81.64949 274.000
81.66943 265.000
81.68938 251.000
81.70933 240.000
81.72927 260.000
81.74922 266.000
81.76917 266.000
81.78912 232.000
81.80906 266.000
81.82901 246.000
81.84896 240.000
81.86890 264.000
81.88885 243.000
81.90880 244.000
81.92874 270.000
81.94869 259.000
81.96864 271.000
81.98859 256.000
82.00853 275.000
82.02848 254.000
82.04843 276.000
82.06837 263.000
82.08832 267.000
82.10827 261.000
82.12821 264.000
82.14816 242.000
82.16811 274.000
82.18805 257.000
82.20800 269.000
82.22795 243.000
82.24790 234.000
82.26784 252.000
82.28779 236.000
82.30774 268.000
82.32768 246.000
82.34763 250.000
82.36758 281.000
82.38752 265.000
82.40747 282.000
82.42742 241.000
82.44737 266.000
82.46731 274.000
82.48726 274.000
82.50721 252.000
82.52715 255.000
82.54710 254.000
82.56705 256.000
82.58699 261.000
82.60694 274.000
82.62689 226.000
82.64683 284.000
82.66678 275.000
82.68673 279.000
82.70668 264.000
82.72662 227.000
82.74657 253.000
82.76652 251.000
82.78646 251.000
82.80641 251.000
82.82636 271.000
82.84630 272.000
82.86625 283.000
82.88620 276.000
82.90615 280.000
82.92609 273.000
82.94604 247.000
82.96599 299.000
82.98593 291.000
83.00588 238.000
83.02583 236.000
83.04577 267.000
83.06572 255.000
83.08567 264.000
83.10561 255.000
83.12556 268.000
83.14551 280.000
83.16546 254.000
83.18540 271.000
83.20535 260.000
83.22530 268.000
83.24524 253.000
83.26519 236.000
83.28514 248.000
83.30508 251.000
83.32503 271.000
83.34498 262.000
83.36493 242.000
83.38487 236.000
83.40482 241.000
83.42477 286.000
83.44471 247.000
83.46466 271.000
83.48461 245.000
83.50455 286.000
83.52450 288.000
83.54445 268.000
83.56440 253.000
83.58434 267.000
83.60429 232.000
83.62424 248.000
83.64418 269.000
83.66413 261.000
83.68408 265.000
83.70402 239.000
83.72397 255.000
83.74392 266.000
83.76386 272.000
83.78381 247.000
83.80376 248.000
83.82371 279.000
83.84365 270.000
83.86360 269.000
83.88355 248.000
83.90349 215.000
83.92344 231.000
83.94339 247.000
83.96333 267.000
83.98328 260.000
84.00323 270.000
84.02318 255.000
84.04312 260.000
84.06307 308.000
84.08302 248.000
84.10296 238.000
84.12291 261.000
84.14286 266.000
84.16280 254.000
84.18275 247.000
84.20270 254.000
84.22264 244.000
84.24259 275.000
84.26254 265.000
84.28249 283.000
84.30243 269.000
84.32238 294.000
84.34233 241.000
84.36227 255.000
84.38222 241.000
84.40217 293.000
84.42211 275.000
84.44206 281.000
84.46201 274.000
84.48196 285.000
84.50190 269.000
84.52185 273.000
84.54180 251.000
84.56174 284.000
84.58169 274.000
84.60164 279.000
84.62158 286.000
84.64153 285.000
84.66148 254.000
84.68142 284.000
84.70137 290.000
84.72132 254.000
84.74127 290.000
84.76121 261.000
84.78116 257.000
84.80111 261.000
84.82105 269.000
84.84100 251.000
84.86095 242.000
84.88089 286.000
84.90084 262.000
84.92079 298.000
84.94074 286.000
84.96068 248.000
84.98063 243.000
85.00058 284.000
85.02052 299.000
85.04047 255.000
85.06042 277.000
85.08036 282.000
85.10031 244.000
85.12026 275.000
85.14021 241.000
85.16015 263.000
85.18010 264.000
85.20005 286.000
85.21999 243.000
85.23994 246.000
85.25989 232.000
85.27983 252.000
85.29978 277.000
85.31973 260.000
85.33967 253.000
85.35962 280.000
85.37957 255.000
85.39952 274.000
85.41946 235.000
85.43941 257.000
85.45936 275.000
85.47930 241.000
85.49925 260.000
85.51920 260.000
85.53914 265.000
85.55909 263.000
85.57904 275.000
85.59899 266.000
85.61893 282.000
85.63888 242.000
85.65883 272.000
85.67877 263.000
85.69872 242.000
85.71867 278.000
85.73861 273.000
85.75856 249.000
85.77851 279.000
85.79845 257.000
85.81840 246.000
85.83835 276.000
85.85830 267.000
85.87824 268.000
85.89819 272.000
85.91814 282.000
85.93808 254.000
85.95803 267.000
85.97798 282.000
85.99792 267.000
86.01787 250.000
86.03782 262.000
86.05777 233.000
86.07771 250.000
86.09766 272.000
86.11761 261.000
86.13755 253.000
86.15750 249.000
86.17745 278.000
86.19739 259.000
86.21734 256.000
86.23729 287.000
86.25723 253.000
86.27718 241.000
86.29713 239.000
86.31708 267.000
86.33702 274.000
86.35697 269.000
86.37692 277.000
86.39686 268.000
86.41681 220.000
86.43676 266.000
86.45670 259.000
86.47665 244.000
86.49660 268.000
86.51655 261.000
86.53649 249.000
86.55644 269.000
86.57639 259.000
86.59633 238.000
86.61628 250.000
86.63623 248.000
86.65617 269.000
86.67612 278.000
86.69607 274.000
86.71602 289.000
86.73596 293.000
86.75591 254.000
86.77586 258.000
86.79580 239.000
86.81575 258.000
86.83570 248.000
86.85564 264.000
86.87559 285.000
86.89554 257.000
86.91548 251.000
86.93543 266.000
86.95538 282.000
86.97533 247.000
86.99527 253.000
87.01522 278.000
87.03517 254.000
87.05511 246.000
87.07506 271.000
87.09501 268.000
87.11495 277.000
87.13490 264.000
87.15485 265.000
87.17480 243.000
87.19474 280.000
87.21469 261.000
87.23464 252.000
87.25458 295.000
87.27453 249.000
87.29448 267.000
87.31442 283.000
87.33437 298.000
87.35432 295.000
87.37426 291.000
87.39421 270.000
87.41416 296.000
87.43411 269.000
87.45405 282.000
87.47400 278.000
87.49395 288.000
87.51389 285.000
87.53384 293.000
87.55379 255.000
87.57373 280.000
87.59368 261.000
87.61363 253.000
87.63358 281.000
87.65352 270.000
87.67347 299.000
87.69342 285.000
87.71336 219.000
87.73331 260.000
87.75326 258.000
87.77320 255.000
87.79315 265.000
87.81310 263.000
87.83304 318.000
87.85299 268.000
87.87294 258.000
87.89289 274.000
87.91283 263.000
87.93278 293.000
87.95273 266.000
87.97267 249.000
87.99262 278.000
88.01257 273.000
88.03251 270.000
88.05246 250.000
88.07241 249.000
88.09236 252.000
88.11230 271.000
88.13225 236.000
88.15220 284.000
88.17214 241.000
88.19209 279.000
88.21204 273.000
88.23198 263.000
88.25193 258.000
88.27188 260.000
88.29183 249.000
88.31177 269.000
88.33172 284.000
88.35167 290.000
88.37161 273.000
88.39156 258.000
88.41151 263.000
88.43145 258.000
88.45140 276.000
88.47135 257.000
88.49129 268.000
88.51124 281.000
88.53119 250.000
88.55114 263.000
88.57108 286.000
88.59103 236.000
88.61098 240.000
88.63092 249.000
88.65087 240.000
88.67082 265.000
88.69076 268.000
88.71071 245.000
88.73066 268.000
88.75061 252.000
88.77055 283.000
88.79050 260.000
88.81045 242.000
88.83039 268.000
88.85034 265.000
88.87029 266.000
88.89023 235.000
88.91018 265.000
88.93013 248.000
88.95007 267.000
88.97002 254.000
88.98997 274.000
89.00992 253.000
89.02986 290.000
89.04981 252.000
89.06976 273.000
89.08970 276.000
89.10965 261.000
89.12960 232.000
89.14954 266.000
89.16949 254.000
89.18944 269.000
89.20939 279.000
89.22933 257.000
89.24928 236.000
89.26923 253.000
89.28917 254.000
89.30912 259.000
89.32907 261.000
89.34901 278.000
89.36896 316.000
89.38891 260.000
89.40885 261.000
89.42880 296.000
89.44875 239.000
89.46870 269.000
89.48864 265.000
89.50859 245.000
89.52854 255.000
89.54848 243.000
89.56843 246.000
89.58838 258.000
89.60832 271.000
89.62827 255.000
89.64822 273.000
89.66817 244.000
89.68811 270.000
89.70806 256.000
89.72801 266.000
89.74795 254.000
89.76790 256.000
89.78785 264.000
89.80779 258.000
89.82774 265.000
89.84769 262.000
89.86764 249.000
89.88758 258.000
89.90753 254.000
89.92748 259.000
89.94742 278.000
89.96737 246.000
89.98732 269.000
90.00726 292.000
