10.00000 157.000
10.01995 143.000
10.03989 137.000
10.05984 144.000
10.07979 144.000
10.09973 141.000
10.11968 140.000
10.13963 140.000
10.15958 131.000
10.17952 144.000
10.19947 148.000
10.21942 136.000
10.23936 138.000
10.25931 144.000
10.27926 147.000
10.29920 156.000
10.31915 136.000
10.33910 135.000
10.35905 145.000
10.37899 134.000
10.39894 137.000
10.41889 127.000
10.43883 154.000
10.45878 134.000
10.47873 131.000
10.49867 128.000
10.51862 139.000
10.53857 137.000
10.55851 134.000
10.57846 141.000
10.59841 120.000
10.61836 156.000
10.63830 141.000
10.65825 134.000
10.67820 137.000
10.69814 140.000
10.71809 120.000
10.73804 154.000
10.75798 137.000
10.77793 160.000
10.79788 148.000
10.81783 130.000
10.83777 136.000
10.85772 151.000
10.87767 136.000
10.89761 149.000
10.91756 137.000
10.93751 131.000
10.95745 141.000
10.97740 132.000
10.99735 122.000
11.01730 138.000
11.03724 131.000
11.05719 147.000
11.07714 130.000
11.09708 135.000
11.11703 120.000
11.13698 159.000
11.15692 119.000
11.17687 142.000
11.19682 150.000
11.21676 134.000
11.23671 139.000
11.25666 138.000
11.27661 125.000
11.29655 152.000
11.31650 131.000
11.33645 124.000
11.35639 135.000
11.37634 135.000
11.39629 156.000
11.41623 155.000
11.43618 136.000
11.45613 142.000
11.47608 138.000
11.49602 140.000
11.51597 143.000
11.53592 125.000
11.55586 126.000
11.57581 121.000
11.59576 139.000
11.61570 144.000
11.63565 149.000
11.65560 137.000
11.67554 152.000
11.69549 135.000
11.71544 147.000
11.73539 133.000
11.75533 126.000
11.77528 113.000
11.79523 151.000
11.81517 136.000
11.83512 143.000
11.85507 136.000
11.87501 131.000
11.89496 129.000
11.91491 135.000
11.93486 138.000
11.95480 138.000
11.97475 132.000
11.99470 138.000
12.01464 126.000
12.03459 147.000
12.05454 154.000
12.07448 152.000
12.09443 142.000
12.11438 140.000
12.13432 151.000
12.15427 119.000
12.17422 124.000
12.19417 150.000
12.21411 134.000
12.23406 137.000
12.25401 128.000
12.27395 141.000
12.29390 140.000
12.31385 131.000
12.33379 119.000
12.35374 140.000
12.37369 130.000
12.39364 140.000
12.41358 141.000
12.43353 150.000
12.45348 128.000
12.47342 133.000
12.49337 132.000
12.51332 134.000
12.53326 135.000
12.55321 127.000
12.57316 146.000
12.59311 148.000
12.61305 122.000
12.63300 132.000
12.65295 141.000
12.67289 158.000
12.69284 138.000
12.71279 147.000
12.73273 138.000
12.75268 147.000
12.77263 139.000
12.79257 135.000
12.81252 131.000
12.83247 118.000
12.85242 157.000
12.87236 136.000
12.89231 136.000
12.91226 155.000
12.93220 129.000
12.95215 127.000
12.97210 139.000
12.99204 143.000
13.01199 124.000
13.03194 154.000
13.05189 128.000
13.07183 126.000
13.09178 156.000
13.11173 131.000
13.13167 124.000
13.15162 144.000
13.17157 154.000
13.19151 142.000
13.21146 138.000
13.23141 132.000
13.25135 136.000
13.27130 146.000
13.29125 151.000
13.31120 150.000
13.33114 157.000
13.35109 143.000
13.37104 132.000
13.39098 147.000
13.41093 142.000
13.43088 128.000
13.45082 138.000
13.47077 147.000
13.49072 133.000
13.51067 126.000
13.53061 136.000
13.55056 127.000
13.57051 137.000
13.59045 144.000
13.61040 119.000
13.63035 138.000
13.65029 130.000
13.67024 139.000
13.69019 144.000
13.71013 151.000
13.73008 129.000
13.75003 150.000
13.76998 153.000
13.78992 145.000
13.80987 159.000
13.82982 136.000
13.84976 167.000
13.86971 142.000
13.88966 145.000
13.90960 142.000
13.92955 141.000
13.94950 135.000
13.96945 162.000
13.98939 138.000
14.00934 144.000
14.02929 122.000
14.04923 138.000
14.06918 152.000
14.08913 164.000
14.10907 123.000
14.12902 140.000
14.14897 132.000
14.16892 127.000
14.18886 132.000
14.20881 129.000
14.22876 126.000
14.24870 129.000
14.26865 168.000
14.28860 153.000
14.30854 147.000
14.32849 145.000
14.34844 140.000
14.36838 148.000
14.38833 139.000
14.40828 162.000
14.42823 145.000
14.44817 140.000
14.46812 139.000
14.48807 142.000
14.50801 137.000
14.52796 133.000
14.54791 178.000
14.56785 147.000
14.58780 148.000
14.60775 153.000
14.62770 150.000
14.64764 153.000
14.66759 156.000
14.68754 138.000
14.70748 141.000
14.72743 149.000
14.74738 156.000
14.76732 138.000
14.78727 148.000
14.80722 137.000
14.82716 172.000
14.84711 151.000
14.86706 168.000
14.88701 157.000
14.90695 153.000
14.92690 156.000
14.94685 133.000
14.96679 158.000
14.98674 158.000
15.00669 181.000
15.02663 173.000
15.04658 183.000
15.06653 182.000
15.08648 167.000
15.10642 162.000
15.12637 180.000
15.14632 165.000
15.16626 199.000
15.18621 200.000
15.20616 186.000
15.22610 190.000
15.24605 209.000
15.26600 189.000
15.28594 217.000
15.30589 209.000
15.32584 199.000
15.34579 222.000
15.36573 214.000
15.38568 209.000
15.40563 226.000
15.42557 240.000
15.44552 238.000
15.46547 264.000
15.48541 261.000
15.50536 269.000
15.52531 301.000
15.54526 267.000
15.56520 319.000
15.58515 337.000
15.60510 358.000
15.62504 382.000
15.64499 460.000
15.66494 511.000
15.68488 575.000
15.70483 635.000
15.72478 817.000
15.74472 1097.000
15.76467 1540.000
15.78462 2133.000
15.80457 3361.000
15.82451 4846.000
15.84446 6687.000
15.86441 6861.000
15.88435 5566.000
15.90430 3959.000
15.92425 2322.000
15.94419 1316.000
15.96414 835.000
15.98409 645.000
16.00404 479.000
16.02398 474.000
16.04393 389.000
16.06388 355.000
16.08382 322.000
16.10377 299.000
16.12372 286.000
16.14366 276.000
16.16361 259.000
16.18356 269.000
16.20351 242.000
16.22345 209.000
16.24340 255.000
16.26335 215.000
16.28329 221.000
16.30324 202.000
16.32319 211.000
16.34313 204.000
16.36308 224.000
16.38303 178.000
16.40297 177.000
16.42292 185.000
16.44287 183.000
16.46282 181.000
16.48276 170.000
16.50271 188.000
16.52266 174.000
16.54260 190.000
16.56255 180.000
16.58250 163.000
16.60244 179.000
16.62239 188.000
16.64234 154.000
16.66229 163.000
16.68223 144.000
16.70218 155.000
16.72213 139.000
16.74207 166.000
16.76202 167.000
16.78197 163.000
16.80191 165.000
16.82186 149.000
16.84181 148.000
16.86175 179.000
16.88170 147.000
16.90165 151.000
16.92160 151.000
16.94154 137.000
16.96149 141.000
16.98144 170.000
17.00138 156.000
17.02133 127.000
17.04128 166.000
17.06122 167.000
17.08117 154.000
17.10112 131.000
17.12107 145.000
17.14101 133.000
17.16096 134.000
17.18091 123.000
17.20085 134.000
17.22080 157.000
17.24075 128.000
17.26069 150.000
17.28064 156.000
17.30059 147.000
17.32053 134.000
17.34048 144.000
17.36043 132.000
17.38038 157.000
17.40032 149.000
17.42027 150.000
17.44022 155.000
17.46016 133.000
17.48011 159.000
17.50006 121.000
17.52000 142.000
17.53995 149.000
17.55990 142.000
17.57985 132.000
17.59979 138.000
17.61974 148.000
17.63969 136.000
17.65963 156.000
17.67958 135.000
17.69953 141.000
17.71947 152.000
17.73942 135.000
17.75937 137.000
17.77932 162.000
17.79926 141.000
17.81921 164.000
17.83916 153.000
17.85910 119.000
17.87905 125.000
17.89900 136.000
17.91894 144.000
17.93889 133.000
17.95884 140.000
17.97878 137.000
17.99873 142.000
18.01868 133.000
18.03863 134.000
18.05857 145.000
18.07852 139.000
18.09847 132.000
18.11841 137.000
18.13836 153.000
18.15831 161.000
18.17825 133.000
18.19820 139.000
18.21815 144.000
18.23810 163.000
18.25804 191.000
18.27799 147.000
18.29794 196.000
18.31788 208.000
18.33783 226.000
18.35778 348.000
18.37772 478.000
18.39767 637.000
18.41762 536.000
18.43756 474.000
18.45751 410.000
18.47746 267.000
18.49741 200.000
18.51735 180.000
18.53730 173.000
18.55725 143.000
18.57719 126.000
18.59714 139.000
18.61709 120.000
18.63703 151.000
18.65698 128.000
18.67693 140.000
18.69688 112.000
18.71682 133.000
18.73677 135.000
18.75672 160.000
18.77666 140.000
18.79661 137.000
18.81656 140.000
18.83650 134.000
18.85645 147.000
18.87640 131.000
18.89634 140.000
18.91629 124.000
18.93624 142.000
18.95619 122.000
18.97613 138.000
18.99608 135.000
19.01603 136.000
19.03597 139.000
19.05592 152.000
19.07587 127.000
19.09581 127.000
19.11576 130.000
19.13571 151.000
19.15566 159.000
19.17560 148.000
19.19555 129.000
19.21550 137.000
19.23544 131.000
19.25539 153.000
19.27534 119.000
19.29528 150.000
19.31523 147.000
19.33518 129.000
19.35513 133.000
19.37507 128.000
19.39502 130.000
19.41497 141.000
19.43491 128.000
19.45486 153.000
19.47481 137.000
19.49475 149.000
19.51470 142.000
19.53465 118.000
19.55459 143.000
19.57454 132.000
19.59449 141.000
19.61444 135.000
19.63438 138.000
19.65433 127.000
19.67428 125.000
19.69422 133.000
19.71417 133.000
19.73412 136.000
19.75406 151.000
19.77401 109.000
19.79396 138.000
19.81391 126.000
19.83385 126.000
19.85380 146.000
19.87375 130.000
19.89369 147.000
19.91364 149.000
19.93359 131.000
19.95353 137.000
19.97348 130.000
19.99343 115.000
20.01337 125.000
20.03332 145.000
20.05327 138.000
20.07322 145.000
20.09316 107.000
20.11311 135.000
20.13306 116.000
20.15300 129.000
20.17295 134.000
20.19290 117.000
20.21284 117.000
20.23279 118.000
20.25274 148.000
20.27269 154.000
20.29263 150.000
20.31258 137.000
20.33253 142.000
20.35247 107.000
20.37242 136.000
20.39237 124.000
20.41231 135.000
20.43226 156.000
20.45221 132.000
20.47215 141.000
20.49210 143.000
20.51205 136.000
20.53200 114.000
20.55194 125.000
20.57189 125.000
20.59184 132.000
20.61178 133.000
20.63173 136.000
20.65168 140.000
20.67162 134.000
20.69157 135.000
20.71152 132.000
20.73147 160.000
20.75141 153.000
20.77136 144.000
20.79131 145.000
20.81125 152.000
20.83120 154.000
20.85115 151.000
20.87109 154.000
20.89104 188.000
20.91099 194.000
20.93094 209.000
20.95088 226.000
20.97083 224.000
20.99078 243.000
21.01072 248.000
21.03067 237.000
21.05062 259.000
21.07056 242.000
21.09051 204.000
21.11046 190.000
21.13040 173.000
21.15035 155.000
21.17030 152.000
21.19025 156.000
21.21019 143.000
21.23014 142.000
21.25009 138.000
21.27003 129.000
21.28998 154.000
21.30993 116.000
21.32987 147.000
21.34982 154.000
21.36977 139.000
21.38972 146.000
21.40966 144.000
21.42961 142.000
21.44956 152.000
21.46950 127.000
21.48945 136.000
21.50940 150.000
21.52934 125.000
21.54929 146.000
21.56924 120.000
21.58918 134.000
21.60913 145.000
21.62908 110.000
21.64903 133.000
21.66897 127.000
21.68892 161.000
21.70887 133.000
21.72881 118.000
21.74876 129.000
21.76871 119.000
21.78865 107.000
21.80860 147.000
21.82855 140.000
21.84850 124.000
21.86844 148.000
21.88839 169.000
21.90834 108.000
21.92828 146.000
21.94823 141.000
21.96818 150.000
21.98812 133.000
22.00807 142.000
22.02802 143.000
22.04796 127.000
22.06791 135.000
22.08786 146.000
22.10781 132.000
22.12775 131.000
22.14770 125.000
22.16765 145.000
22.18759 121.000
22.20754 134.000
22.22749 133.000
22.24743 159.000
22.26738 128.000
22.28733 149.000
22.30728 145.000
22.32722 139.000
22.34717 148.000
22.36712 146.000
22.38706 149.000
22.40701 134.000
22.42696 146.000
22.44690 134.000
22.46685 142.000
22.48680 134.000
22.50675 129.000
22.52669 131.000
22.54664 129.000
22.56659 130.000
22.58653 138.000
22.60648 128.000
22.62643 140.000
22.64637 132.000
22.66632 149.000
22.68627 136.000
22.70621 141.000
22.72616 126.000
22.74611 147.000
22.76606 159.000
22.78600 116.000
22.80595 141.000
22.82590 139.000
22.84584 141.000
22.86579 113.000
22.88574 130.000
22.90568 114.000
22.92563 129.000
22.94558 143.000
22.96553 126.000
22.98547 128.000
23.00542 150.000
23.02537 141.000
23.04531 142.000
23.06526 115.000
23.08521 120.000
23.10515 139.000
23.12510 140.000
23.14505 157.000
23.16499 137.000
23.18494 133.000
23.20489 149.000
23.22484 144.000
23.24478 136.000
23.26473 111.000
23.28468 134.000
23.30462 141.000
23.32457 131.000
23.34452 116.000
23.36446 127.000
23.38441 150.000
23.40436 136.000
23.42431 152.000
23.44425 129.000
23.46420 139.000
23.48415 122.000
23.50409 119.000
23.52404 138.000
23.54399 148.000
23.56393 130.000
23.58388 137.000
23.60383 119.000
23.62377 134.000
23.64372 136.000
23.66367 128.000
23.68362 136.000
23.70356 123.000
23.72351 132.000
23.74346 138.000
23.76340 132.000
23.78335 130.000
23.80330 129.000
23.82324 153.000
23.84319 169.000
23.86314 144.000
23.88309 124.000
23.90303 117.000
23.92298 146.000
23.94293 126.000
23.96287 143.000
23.98282 149.000
24.00277 123.000
24.02271 138.000
24.04266 133.000
24.06261 137.000
24.08256 150.000
24.10250 138.000
24.12245 129.000
24.14240 134.000
24.16234 132.000
24.18229 125.000
24.20224 152.000
24.22218 131.000
24.24213 149.000
24.26208 137.000
24.28202 155.000
24.30197 146.000
24.32192 140.000
24.34187 136.000
24.36181 142.000
24.38176 146.000
24.40171 139.000
24.42165 131.000
24.44160 148.000
24.46155 156.000
24.48149 136.000
24.50144 141.000
24.52139 144.000
24.54134 142.000
24.56128 148.000
24.58123 128.000
24.60118 121.000
24.62112 132.000
24.64107 151.000
24.66102 142.000
24.68096 140.000
24.70091 131.000
24.72086 117.000
24.74080 126.000
24.76075 128.000
24.78070 143.000
24.80065 130.000
24.82059 135.000
24.84054 135.000
24.86049 132.000
24.88043 136.000
24.90038 129.000
24.92033 151.000
24.94027 149.000
24.96022 137.000
24.98017 133.000
25.00012 151.000
25.02006 146.000
25.04001 162.000
25.05996 139.000
25.07990 160.000
25.09985 135.000
25.11980 144.000
25.13974 147.000
25.15969 128.000
25.17964 139.000
25.19958 112.000
25.21953 159.000
25.23948 155.000
25.25943 127.000
25.27937 144.000
25.29932 134.000
25.31927 128.000
25.33921 119.000
25.35916 129.000
25.37911 133.000
25.39905 125.000
25.41900 148.000
25.43895 141.000
25.45890 141.000
25.47884 132.000
25.49879 134.000
25.51874 143.000
25.53868 143.000
25.55863 128.000
25.57858 117.000
25.59852 119.000
25.61847 132.000
25.63842 141.000
25.65837 137.000
25.67831 143.000
25.69826 132.000
25.71821 126.000
25.73815 148.000
25.75810 136.000
25.77805 147.000
25.79799 147.000
25.81794 136.000
25.83789 135.000
25.85783 119.000
25.87778 152.000
25.89773 140.000
25.91768 143.000
25.93762 134.000
25.95757 145.000
25.97752 153.000
25.99746 142.000
26.01741 131.000
26.03736 160.000
26.05730 141.000
26.07725 130.000
26.09720 145.000
26.11715 161.000
26.13709 148.000
26.15704 138.000
26.17699 129.000
26.19693 142.000
26.21688 126.000
26.23683 134.000
26.25677 135.000
26.27672 134.000
26.29667 125.000
26.31661 153.000
26.33656 142.000
26.35651 140.000
26.37646 160.000
26.39640 153.000
26.41635 140.000
26.43630 147.000
26.45624 150.000
26.47619 144.000
26.49614 149.000
26.51608 151.000
26.53603 133.000
26.55598 120.000
26.57593 156.000
26.59587 136.000
26.61582 138.000
26.63577 130.000
26.65571 137.000
26.67566 137.000
26.69561 166.000
26.71555 172.000
26.73550 160.000
26.75545 124.000
26.77539 146.000
26.79534 127.000
26.81529 153.000
26.83524 156.000
26.85518 151.000
26.87513 165.000
26.89508 126.000
26.91502 135.000
26.93497 140.000
26.95492 136.000
26.97486 132.000
26.99481 137.000
27.01476 121.000
27.03471 136.000
27.05465 142.000
27.07460 154.000
27.09455 155.000
27.11449 144.000
27.13444 154.000
27.15439 147.000
27.17433 152.000
27.19428 157.000
27.21423 147.000
27.23417 144.000
27.25412 142.000
27.27407 139.000
27.29402 149.000
27.31396 168.000
27.33391 145.000
27.35386 146.000
27.37380 147.000
27.39375 138.000
27.41370 140.000
27.43364 139.000
27.45359 121.000
27.47354 142.000
27.49349 142.000
27.51343 156.000
27.53338 151.000
27.55333 151.000
27.57327 125.000
27.59322 164.000
27.61317 134.000
27.63311 142.000
27.65306 150.000
27.67301 124.000
27.69296 143.000
27.71290 141.000
27.73285 145.000
27.75280 139.000
27.77274 160.000
27.79269 137.000
27.81264 126.000
27.83258 136.000
27.85253 155.000
27.87248 132.000
27.89242 139.000
27.91237 122.000
27.93232 133.000
27.95227 141.000
27.97221 149.000
27.99216 148.000
28.01211 145.000
28.03205 148.000
28.05200 150.000
28.07195 141.000
28.09189 153.000
28.11184 142.000
28.13179 140.000
28.15174 147.000
28.17168 160.000
28.19163 157.000
28.21158 153.000
28.23152 143.000
28.25147 135.000
28.27142 168.000
28.29136 150.000
28.31131 147.000
28.33126 141.000
28.35120 153.000
28.37115 144.000
28.39110 165.000
28.41105 148.000
28.43099 156.000
28.45094 147.000
28.47089 172.000
28.49083 151.000
28.51078 140.000
28.53073 157.000
28.55067 143.000
28.57062 158.000
28.59057 138.000
28.61052 144.000
28.63046 150.000
28.65041 148.000
28.67036 133.000
28.69030 154.000
28.71025 160.000
28.73020 165.000
28.75014 125.000
28.77009 139.000
28.79004 124.000
28.80998 153.000
28.82993 147.000
28.84988 131.000
28.86983 149.000
28.88977 159.000
28.90972 154.000
28.92967 139.000
28.94961 163.000
28.96956 148.000
28.98951 141.000
29.00945 145.000
29.02940 158.000
29.04935 158.000
29.06930 141.000
29.08924 151.000
29.10919 162.000
29.12914 154.000
29.14908 154.000
29.16903 156.000
29.18898 159.000
29.20892 172.000
29.22887 154.000
29.24882 167.000
29.26877 166.000
29.28871 141.000
29.30866 156.000
29.32861 160.000
29.34855 157.000
29.36850 163.000
29.38845 159.000
29.40839 159.000
29.42834 141.000
29.44829 160.000
29.46823 165.000
29.48818 167.000
29.50813 172.000
29.52808 161.000
29.54802 138.000
29.56797 164.000
29.58792 143.000
29.60786 167.000
29.62781 146.000
29.64776 142.000
29.66770 148.000
29.68765 133.000
29.70760 147.000
29.72755 167.000
29.74749 152.000
29.76744 171.000
29.78739 161.000
29.80733 144.000
29.82728 160.000
29.84723 135.000
29.86717 139.000
29.88712 153.000
29.90707 144.000
29.92701 152.000
29.94696 157.000
29.96691 162.000
29.98686 167.000
30.00680 150.000
30.02675 167.000
30.04670 175.000
30.06664 199.000
30.08659 188.000
30.10654 239.000
30.12648 217.000
30.14643 207.000
30.16638 268.000
30.18633 322.000
30.20627 409.000
30.22622 567.000
30.24617 921.000
30.26611 1172.000
30.28606 1213.000
30.30601 884.000
30.32595 842.000
30.34590 840.000
30.36585 703.000
30.38579 557.000
30.40574 346.000
30.42569 292.000
30.44564 242.000
30.46558 223.000
30.48553 182.000
30.50548 180.000
30.52542 180.000
30.54537 163.000
30.56532 187.000
30.58526 176.000
30.60521 160.000
30.62516 170.000
30.64511 165.000
30.66505 169.000
30.68500 160.000
30.70495 158.000
30.72489 143.000
30.74484 157.000
30.76479 178.000
30.78473 157.000
30.80468 179.000
30.82463 154.000
30.84458 139.000
30.86452 148.000
30.88447 138.000
30.90442 140.000
30.92436 168.000
30.94431 161.000
30.96426 160.000
30.98420 132.000
31.00415 158.000
31.02410 175.000
31.04404 165.000
31.06399 153.000
31.08394 149.000
31.10389 150.000
31.12383 141.000
31.14378 155.000
31.16373 129.000
31.18367 169.000
31.20362 144.000
31.22357 165.000
31.24351 158.000
31.26346 172.000
31.28341 149.000
31.30336 147.000
31.32330 139.000
31.34325 162.000
31.36320 162.000
31.38314 168.000
31.40309 163.000
31.42304 171.000
31.44298 180.000
31.46293 147.000
31.48288 148.000
31.50282 160.000
31.52277 187.000
31.54272 164.000
31.56267 134.000
31.58261 166.000
31.60256 161.000
31.62251 149.000
31.64245 140.000
31.66240 172.000
31.68235 180.000
31.70229 162.000
31.72224 161.000
31.74219 179.000
31.76214 165.000
31.78208 169.000
31.80203 181.000
31.82198 180.000
31.84192 218.000
31.86187 214.000
31.88182 208.000
31.90176 207.000
31.92171 263.000
31.94166 280.000
31.96160 377.000
31.98155 424.000
32.00150 523.000
32.02145 649.000
32.04139 638.000
32.06134 633.000
32.08129 587.000
32.10123 489.000
32.12118 468.000
32.14113 417.000
32.16107 306.000
32.18102 240.000
32.20097 210.000
32.22092 216.000
32.24086 181.000
32.26081 170.000
32.28076 156.000
32.30070 183.000
32.32065 191.000
32.34060 196.000
32.36054 153.000
32.38049 192.000
32.40044 166.000
32.42039 174.000
32.44033 178.000
32.46028 158.000
32.48023 181.000
32.50017 182.000
32.52012 161.000
32.54007 173.000
32.56001 175.000
32.57996 162.000
32.59991 179.000
32.61985 163.000
32.63980 159.000
32.65975 141.000
32.67970 165.000
32.69964 166.000
32.71959 165.000
32.73954 170.000
32.75948 175.000
32.77943 154.000
32.79938 165.000
32.81932 134.000
32.83927 156.000
32.85922 151.000
32.87917 133.000
32.89911 142.000
32.91906 162.000
32.93901 142.000
32.95895 152.000
32.97890 153.000
32.99885 153.000
33.01879 152.000
33.03874 186.000
33.05869 133.000
33.07863 122.000
33.09858 142.000
33.11853 162.000
33.13848 157.000
33.15842 157.000
33.17837 134.000
33.19832 153.000
33.21826 123.000
33.23821 138.000
33.25816 144.000
33.27810 142.000
33.29805 142.000
33.31800 151.000
33.33795 155.000
33.35789 135.000
33.37784 144.000
33.39779 163.000
33.41773 135.000
33.43768 155.000
33.45763 150.000
33.47757 146.000
33.49752 159.000
33.51747 147.000
33.53741 176.000
33.55736 139.000
33.57731 162.000
33.59726 166.000
33.61720 137.000
33.63715 163.000
33.65710 152.000
33.67704 153.000
33.69699 147.000
33.71694 145.000
33.73688 157.000
33.75683 138.000
33.77678 156.000
33.79673 134.000
33.81667 137.000
33.83662 159.000
33.85657 144.000
33.87651 165.000
33.89646 159.000
33.91641 157.000
33.93635 155.000
33.95630 129.000
33.97625 148.000
33.99620 136.000
34.01614 166.000
34.03609 159.000
34.05604 161.000
34.07598 164.000
34.09593 150.000
34.11588 174.000
34.13582 159.000
34.15577 163.000
34.17572 160.000
34.19566 157.000
34.21561 182.000
34.23556 168.000
34.25551 161.000
34.27545 160.000
34.29540 161.000
34.31535 177.000
34.33529 165.000
34.35524 178.000
34.37519 185.000
34.39513 170.000
34.41508 186.000
34.43503 201.000
34.45498 215.000
34.47492 203.000
34.49487 203.000
34.51482 195.000
34.53476 221.000
34.55471 228.000
34.57466 233.000
34.59460 246.000
34.61455 246.000
34.63450 222.000
34.65444 242.000
34.67439 236.000
34.69434 208.000
34.71429 246.000
34.73423 238.000
34.75418 220.000
34.77413 226.000
34.79407 259.000
34.81402 222.000
34.83397 193.000
34.85391 219.000
34.87386 216.000
34.89381 185.000
34.91376 168.000
34.93370 199.000
34.95365 181.000
34.97360 161.000
34.99354 179.000
35.01349 205.000
35.03344 181.000
35.05338 176.000
35.07333 189.000
35.09328 183.000
35.11322 176.000
35.13317 205.000
35.15312 199.000
35.17307 216.000
35.19301 240.000
35.21296 232.000
35.23291 228.000
35.25285 240.000
35.27280 242.000
35.29275 242.000
35.31269 248.000
35.33264 309.000
35.35259 285.000
35.37254 331.000
35.39248 353.000
35.41243 358.000
35.43238 399.000
35.45232 460.000
35.47227 499.000
35.49222 535.000
35.51216 604.000
35.53211 665.000
35.55206 852.000
35.57201 1044.000
35.59195 1349.000
35.61190 1831.000
35.63185 2844.000
35.65179 3740.000
35.67174 3736.000
35.69169 3154.000
35.71163 2761.000
35.73158 2740.000
35.75153 2651.000
35.77147 2240.000
35.79142 1694.000
35.81137 1233.000
35.83132 968.000
35.85126 752.000
35.87121 608.000
35.89116 528.000
35.91110 422.000
35.93105 400.000
35.95100 361.000
35.97094 320.000
35.99089 285.000
36.01084 255.000
36.03079 228.000
36.05073 256.000
36.07068 232.000
36.09063 239.000
36.11057 207.000
36.13052 200.000
36.15047 203.000
36.17041 220.000
36.19036 201.000
36.21031 200.000
36.23025 202.000
36.25020 209.000
36.27015 179.000
36.29010 202.000
36.31004 189.000
36.32999 185.000
36.34994 186.000
36.36988 169.000
36.38983 180.000
36.40978 205.000
36.42972 196.000
36.44967 200.000
36.46962 200.000
36.48957 201.000
36.50951 198.000
36.52946 173.000
36.54941 221.000
36.56935 195.000
36.58930 200.000
36.60925 187.000
36.62919 198.000
36.64914 215.000
36.66909 225.000
36.68903 192.000
36.70898 215.000
36.72893 213.000
36.74888 216.000
36.76882 192.000
36.78877 199.000
36.80872 210.000
36.82866 207.000
36.84861 211.000
36.86856 202.000
36.88850 194.000
36.90845 211.000
36.92840 214.000
36.94835 246.000
36.96829 259.000
36.98824 266.000
37.00819 305.000
37.02813 343.000
37.04808 425.000
37.06803 551.000
37.08797 556.000
37.10792 592.000
37.12787 648.000
37.14781 636.000
37.16776 569.000
37.18771 524.000
37.20766 499.000
37.22760 503.000
37.24755 436.000
37.26750 411.000
37.28744 490.000
37.30739 477.000
37.32734 407.000
37.34728 365.000
37.36723 332.000
37.38718 303.000
37.40713 323.000
37.42707 253.000
37.44702 217.000
37.46697 231.000
37.48691 180.000
37.50686 205.000
37.52681 191.000
37.54675 190.000
37.56670 181.000
37.58665 165.000
37.60660 193.000
37.62654 175.000
37.64649 159.000
37.66644 175.000
37.68638 161.000
37.70633 167.000
37.72628 149.000
37.74622 161.000
37.76617 180.000
37.78612 181.000
37.80606 151.000
37.82601 167.000
37.84596 162.000
37.86591 196.000
37.88585 172.000
37.90580 177.000
37.92575 169.000
37.94569 191.000
37.96564 158.000
37.98559 159.000
38.00553 165.000
38.02548 190.000
38.04543 175.000
38.06538 172.000
38.08532 173.000
38.10527 174.000
38.12522 164.000
38.14516 177.000
38.16511 198.000
38.18506 139.000
38.20500 159.000
38.22495 187.000
38.24490 166.000
38.26484 176.000
38.28479 175.000
38.30474 190.000
38.32469 178.000
38.34463 172.000
38.36458 186.000
38.38453 194.000
38.40447 217.000
38.42442 176.000
38.44437 226.000
38.46431 201.000
38.48426 236.000
38.50421 224.000
38.52416 242.000
38.54410 243.000
38.56405 224.000
38.58400 247.000
38.60394 269.000
38.62389 263.000
38.64384 288.000
38.66378 294.000
38.68373 269.000
38.70368 308.000
38.72362 275.000
38.74357 304.000
38.76352 284.000
38.78347 293.000
38.80341 293.000
38.82336 302.000
38.84331 303.000
38.86325 300.000
38.88320 291.000
38.90315 273.000
38.92309 291.000
38.94304 270.000
38.96299 305.000
38.98294 309.000
39.00288 333.000
39.02283 283.000
39.04278 330.000
39.06272 370.000
39.08267 391.000
39.10262 377.000
39.12256 408.000
39.14251 517.000
39.16246 492.000
39.18241 602.000
39.20235 676.000
39.22230 836.000
39.24225 844.000
39.26219 974.000
39.28214 947.000
39.30209 953.000
39.32203 927.000
39.34198 938.000
39.36193 863.000
39.38187 801.000
39.40182 717.000
39.42177 611.000
39.44172 553.000
39.46166 492.000
39.48161 444.000
39.50156 371.000
39.52150 350.000
39.54145 347.000
39.56140 274.000
39.58134 267.000
39.60129 279.000
39.62124 268.000
39.64119 216.000
39.66113 256.000
39.68108 236.000
39.70103 205.000
39.72097 196.000
39.74092 204.000
39.76087 170.000
39.78081 228.000
39.80076 193.000
39.82071 209.000
39.84065 190.000
39.86060 194.000
39.88055 199.000
39.90050 177.000
39.92044 201.000
39.94039 205.000
39.96034 182.000
39.98028 183.000
40.00023 167.000
40.02018 150.000
40.04012 164.000
40.06007 156.000
40.08002 158.000
40.09997 175.000
40.11991 151.000
40.13986 157.000
40.15981 147.000
40.17975 171.000
40.19970 194.000
40.21965 146.000
40.23959 154.000
40.25954 160.000
40.27949 154.000
40.29943 171.000
40.31938 142.000
40.33933 136.000
40.35928 159.000
40.37922 133.000
40.39917 142.000
40.41912 166.000
40.43906 153.000
40.45901 169.000
40.47896 160.000
40.49890 160.000
40.51885 159.000
40.53880 164.000
40.55875 170.000
40.57869 154.000
40.59864 146.000
40.61859 145.000
40.63853 178.000
40.65848 147.000
40.67843 142.000
40.69837 146.000
40.71832 156.000
40.73827 141.000
40.75822 162.000
40.77816 171.000
40.79811 140.000
40.81806 175.000
40.83800 171.000
40.85795 142.000
40.87790 161.000
40.89784 171.000
40.91779 153.000
40.93774 163.000
40.95768 157.000
40.97763 158.000
40.99758 164.000
41.01753 141.000
41.03747 143.000
41.05742 162.000
41.07737 141.000
41.09731 158.000
41.11726 164.000
41.13721 170.000
41.15715 126.000
41.17710 166.000
41.19705 141.000
41.21700 146.000
41.23694 137.000
41.25689 138.000
41.27684 142.000
41.29678 153.000
41.31673 159.000
41.33668 172.000
41.35662 136.000
41.37657 155.000
41.39652 186.000
41.41646 152.000
41.43641 161.000
41.45636 137.000
41.47631 177.000
41.49625 139.000
41.51620 152.000
41.53615 154.000
41.55609 162.000
41.57604 155.000
41.59599 150.000
41.61593 143.000
41.63588 169.000
41.65583 148.000
41.67578 160.000
41.69572 190.000
41.71567 150.000
41.73562 159.000
41.75556 172.000
41.77551 139.000
41.79546 151.000
41.81540 133.000
41.83535 122.000
41.85530 161.000
41.87524 150.000
41.89519 145.000
41.91514 159.000
41.93509 153.000
41.95503 122.000
41.97498 144.000
41.99493 142.000
42.01487 145.000
42.03482 167.000
42.05477 146.000
42.07471 148.000
42.09466 150.000
42.11461 150.000
42.13456 151.000
42.15450 140.000
42.17445 145.000
42.19440 160.000
42.21434 177.000
42.23429 151.000
42.25424 145.000
42.27418 169.000
42.29413 153.000
42.31408 164.000
42.33403 149.000
42.35397 154.000
42.37392 163.000
42.39387 154.000
42.41381 164.000
42.43376 145.000
42.45371 154.000
42.47365 197.000
42.49360 166.000
42.51355 149.000
42.53349 160.000
42.55344 156.000
42.57339 175.000
42.59334 176.000
42.61328 189.000
42.63323 201.000
42.65318 169.000
42.67312 163.000
42.69307 190.000
42.71302 194.000
42.73296 179.000
42.75291 194.000
42.77286 202.000
42.79281 213.000
42.81275 186.000
42.83270 236.000
42.85265 218.000
42.87259 242.000
42.89254 269.000
42.91249 321.000
42.93243 338.000
42.95238 325.000
42.97233 393.000
42.99227 393.000
43.01222 430.000
43.03217 477.000
43.05212 493.000
43.07206 541.000
43.09201 631.000
43.11196 627.000
43.13190 650.000
43.15185 667.000
43.17180 646.000
43.19174 682.000
43.21169 675.000
43.23164 697.000
43.25159 709.000
43.27153 744.000
43.29148 877.000
43.31143 929.000
43.33137 1039.000
43.35132 1084.000
43.37127 1070.000
43.39121 990.000
43.41116 934.000
43.43111 907.000
43.45105 889.000
43.47100 873.000
43.49095 723.000
43.51090 659.000
43.53084 557.000
43.55079 488.000
43.57074 417.000
43.59068 373.000
43.61063 340.000
43.63058 307.000
43.65052 300.000
43.67047 235.000
43.69042 229.000
43.71037 247.000
43.73031 212.000
43.75026 236.000
43.77021 213.000
43.79015 189.000
43.81010 183.000
43.83005 163.000
43.84999 169.000
43.86994 192.000
43.88989 172.000
43.90984 174.000
43.92978 159.000
43.94973 189.000
43.96968 153.000
43.98962 178.000
44.00957 172.000
44.02952 178.000
44.04946 172.000
44.06941 163.000
44.08936 166.000
44.10930 145.000
44.12925 166.000
44.14920 173.000
44.16915 157.000
44.18909 157.000
44.20904 177.000
44.22899 164.000
44.24893 158.000
44.26888 158.000
44.28883 182.000
44.30877 146.000
44.32872 148.000
44.34867 140.000
44.36862 162.000
44.38856 141.000
44.40851 161.000
44.42846 138.000
44.44840 131.000
44.46835 152.000
44.48830 152.000
44.50824 169.000
44.52819 147.000
44.54814 132.000
44.56808 156.000
44.58803 158.000
44.60798 151.000
44.62793 142.000
44.64787 161.000
44.66782 159.000
44.68777 151.000
44.70771 161.000
44.72766 143.000
44.74761 134.000
44.76755 153.000
44.78750 170.000
44.80745 162.000
44.82740 148.000
44.84734 147.000
44.86729 132.000
44.88724 123.000
44.90718 145.000
44.92713 139.000
44.94708 147.000
44.96702 151.000
44.98697 143.000
45.00692 158.000
45.02686 149.000
45.04681 146.000
45.06676 144.000
45.08671 161.000
45.10665 155.000
45.12660 158.000
45.14655 186.000
45.16649 142.000
45.18644 141.000
45.20639 138.000
45.22633 131.000
45.24628 157.000
45.26623 140.000
45.28618 147.000
45.30612 171.000
45.32607 147.000
45.34602 148.000
45.36596 139.000
45.38591 131.000
45.40586 130.000
45.42580 144.000
45.44575 138.000
45.46570 128.000
45.48565 145.000
45.50559 155.000
45.52554 170.000
45.54549 133.000
45.56543 143.000
45.58538 133.000
45.60533 143.000
45.62527 112.000
45.64522 136.000
45.66517 148.000
45.68511 142.000
45.70506 163.000
45.72501 145.000
45.74496 121.000
45.76490 154.000
45.78485 151.000
45.80480 141.000
45.82474 140.000
45.84469 156.000
45.86464 145.000
45.88458 118.000
45.90453 135.000
45.92448 149.000
45.94443 129.000
45.96437 161.000
45.98432 143.000
46.00427 162.000
46.02421 145.000
46.04416 141.000
46.06411 160.000
46.08405 138.000
46.10400 136.000
46.12395 151.000
46.14389 153.000
46.16384 153.000
46.18379 159.000
46.20374 143.000
46.22368 146.000
46.24363 136.000
46.26358 146.000
46.28352 138.000
46.30347 148.000
46.32342 166.000
46.34336 161.000
46.36331 140.000
46.38326 142.000
46.40321 140.000
46.42315 152.000
46.44310 156.000
46.46305 151.000
46.48299 146.000
46.50294 137.000
46.52289 117.000
46.54283 139.000
46.56278 141.000
46.58273 151.000
46.60267 152.000
46.62262 148.000
46.64257 128.000
46.66252 138.000
46.68246 124.000
46.70241 143.000
46.72236 138.000
46.74230 146.000
46.76225 162.000
46.78220 133.000
46.80214 155.000
46.82209 161.000
46.84204 144.000
46.86199 117.000
46.88193 141.000
46.90188 165.000
46.92183 140.000
46.94177 151.000
46.96172 139.000
46.98167 131.000
47.00161 151.000
47.02156 145.000
47.04151 157.000
47.06146 132.000
47.08140 153.000
47.10135 133.000
47.12130 148.000
47.14124 146.000
47.16119 131.000
47.18114 139.000
47.20108 147.000
47.22103 143.000
47.24098 126.000
47.26092 156.000
47.28087 156.000
47.30082 151.000
47.32077 163.000
47.34071 134.000
47.36066 163.000
47.38061 140.000
47.40055 163.000
47.42050 140.000
47.44045 160.000
47.46039 151.000
47.48034 168.000
47.50029 124.000
47.52024 146.000
47.54018 143.000
47.56013 174.000
47.58008 170.000
47.60002 169.000
47.61997 153.000
47.63992 165.000
47.65986 174.000
47.67981 190.000
47.69976 148.000
47.71970 163.000
47.73965 154.000
47.75960 175.000
47.77955 159.000
47.79949 167.000
47.81944 165.000
47.83939 163.000
47.85933 164.000
47.87928 152.000
47.89923 162.000
47.91917 153.000
47.93912 149.000
47.95907 193.000
47.97902 177.000
47.99896 161.000
48.01891 162.000
48.03886 168.000
48.05880 169.000
48.07875 160.000
48.09870 186.000
48.11864 195.000
48.13859 181.000
48.15854 185.000
48.17848 175.000
48.19843 179.000
48.21838 198.000
48.23833 192.000
48.25827 202.000
48.27822 198.000
48.29817 219.000
48.31811 216.000
48.33806 228.000
48.35801 235.000
48.37795 228.000
48.39790 247.000
48.41785 244.000
48.43780 254.000
48.45774 248.000
48.47769 307.000
48.49764 303.000
48.51758 333.000
48.53753 346.000
48.55748 366.000
48.57742 412.000
48.59737 456.000
48.61732 537.000
48.63726 617.000
48.65721 685.000
48.67716 719.000
48.69711 797.000
48.71705 818.000
48.73700 782.000
48.75695 740.000
48.77689 767.000
48.79684 728.000
48.81679 725.000
48.83673 626.000
48.85668 636.000
48.87663 569.000
48.89658 581.000
48.91652 522.000
48.93647 444.000
48.95642 366.000
48.97636 364.000
48.99631 335.000
49.01626 298.000
49.03620 263.000
49.05615 250.000
49.07610 237.000
49.09605 244.000
49.11599 254.000
49.13594 205.000
49.15589 208.000
49.17583 219.000
49.19578 202.000
49.21573 200.000
49.23567 198.000
49.25562 195.000
49.27557 202.000
49.29551 171.000
49.31546 189.000
49.33541 169.000
49.35536 178.000
49.37530 168.000
49.39525 164.000
49.41520 173.000
49.43514 175.000
49.45509 173.000
49.47504 174.000
49.49498 165.000
49.51493 167.000
49.53488 159.000
49.55483 159.000
49.57477 183.000
49.59472 146.000
49.61467 153.000
49.63461 176.000
49.65456 148.000
49.67451 143.000
49.69445 157.000
49.71440 168.000
49.73435 155.000
49.75429 160.000
49.77424 149.000
49.79419 170.000
49.81414 136.000
49.83408 159.000
49.85403 161.000
49.87398 180.000
49.89392 137.000
49.91387 163.000
49.93382 152.000
49.95376 172.000
49.97371 138.000
49.99366 136.000
50.01361 151.000
50.03355 152.000
50.05350 140.000
50.07345 144.000
50.09339 175.000
50.11334 128.000
50.13329 155.000
50.15323 145.000
50.17318 149.000
50.19313 142.000
50.21307 163.000
50.23302 129.000
50.25297 129.000
50.27292 139.000
50.29286 137.000
50.31281 147.000
50.33276 144.000
50.35270 146.000
50.37265 149.000
50.39260 126.000
50.41254 148.000
50.43249 170.000
50.45244 145.000
50.47239 131.000
50.49233 146.000
50.51228 156.000
50.53223 142.000
50.55217 134.000
50.57212 122.000
50.59207 167.000
50.61201 137.000
50.63196 150.000
50.65191 157.000
50.67186 133.000
50.69180 166.000
50.71175 122.000
50.73170 140.000
50.75164 157.000
50.77159 136.000
50.79154 154.000
50.81148 137.000
50.83143 150.000
50.85138 145.000
50.87132 153.000
50.89127 145.000
50.91122 133.000
50.93117 130.000
50.95111 133.000
50.97106 125.000
50.99101 141.000
51.01095 132.000
51.03090 139.000
51.05085 114.000
51.07079 158.000
51.09074 152.000
51.11069 121.000
51.13064 137.000
51.15058 152.000
51.17053 157.000
51.19048 137.000
51.21042 153.000
51.23037 140.000
51.25032 122.000
51.27026 146.000
51.29021 140.000
51.31016 128.000
51.33010 130.000
51.35005 167.000
51.37000 132.000
51.38995 149.000
51.40989 135.000
51.42984 134.000
51.44979 128.000
51.46973 131.000
51.48968 142.000
51.50963 129.000
51.52957 135.000
51.54952 117.000
51.56947 150.000
51.58942 119.000
51.60936 146.000
51.62931 159.000
51.64926 136.000
51.66920 143.000
51.68915 128.000
51.70910 124.000
51.72904 147.000
51.74899 137.000
51.76894 119.000
51.78888 132.000
51.80883 147.000
51.82878 149.000
51.84873 154.000
51.86867 160.000
51.88862 150.000
51.90857 122.000
51.92851 129.000
51.94846 147.000
51.96841 139.000
51.98835 141.000
52.00830 143.000
52.02825 121.000
52.04820 160.000
52.06814 155.000
52.08809 123.000
52.10804 140.000
52.12798 136.000
52.14793 136.000
52.16788 152.000
52.18782 140.000
52.20777 162.000
52.22772 164.000
52.24767 146.000
52.26761 129.000
52.28756 156.000
52.30751 119.000
52.32745 144.000
52.34740 141.000
52.36735 150.000
52.38729 130.000
52.40724 142.000
52.42719 137.000
52.44713 128.000
52.46708 139.000
52.48703 132.000
52.50698 158.000
52.52692 126.000
52.54687 131.000
52.56682 145.000
52.58676 155.000
52.60671 147.000
52.62666 124.000
52.64660 149.000
52.66655 130.000
52.68650 123.000
52.70645 133.000
52.72639 136.000
52.74634 142.000
52.76629 137.000
52.78623 124.000
52.80618 140.000
52.82613 138.000
52.84607 138.000
52.86602 146.000
52.88597 145.000
52.90591 131.000
52.92586 151.000
52.94581 145.000
52.96576 124.000
52.98570 144.000
53.00565 155.000
53.02560 128.000
53.04554 142.000
53.06549 136.000
53.08544 147.000
53.10538 141.000
53.12533 173.000
53.14528 157.000
53.16523 122.000
53.18517 158.000
53.20512 150.000
53.22507 130.000
53.24501 156.000
53.26496 140.000
53.28491 128.000
53.30485 135.000
53.32480 152.000
53.34475 143.000
53.36469 143.000
53.38464 146.000
53.40459 139.000
53.42454 159.000
53.44448 155.000
53.46443 138.000
53.48438 152.000
53.50432 134.000
53.52427 166.000
53.54422 171.000
53.56416 145.000
53.58411 161.000
53.60406 156.000
53.62401 155.000
53.64395 188.000
53.66390 173.000
53.68385 199.000
53.70379 214.000
53.72374 252.000
53.74369 300.000
53.76363 341.000
53.78358 388.000
53.80353 377.000
53.82348 350.000
53.84342 309.000
53.86337 269.000
53.88332 229.000
53.90326 281.000
53.92321 289.000
53.94316 248.000
53.96310 234.000
53.98305 208.000
54.00300 194.000
54.02294 197.000
54.04289 137.000
54.06284 144.000
54.08279 163.000
54.10273 163.000
54.12268 175.000
54.14263 157.000
54.16257 133.000
54.18252 159.000
54.20247 151.000
54.22241 154.000
54.24236 180.000
54.26231 134.000
54.28226 151.000
54.30220 140.000
54.32215 147.000
54.34210 115.000
54.36204 166.000
54.38199 144.000
54.40194 147.000
54.42188 145.000
54.44183 158.000
54.46178 128.000
54.48172 150.000
54.50167 162.000
54.52162 159.000
54.54157 136.000
54.56151 144.000
54.58146 171.000
54.60141 140.000
54.62135 136.000
54.64130 139.000
54.66125 135.000
54.68119 141.000
54.70114 129.000
54.72109 138.000
54.74104 148.000
54.76098 151.000
54.78093 139.000
54.80088 122.000
54.82082 138.000
54.84077 161.000
54.86072 127.000
54.88066 147.000
54.90061 135.000
54.92056 142.000
54.94050 152.000
54.96045 146.000
54.98040 131.000
55.00035 138.000
55.02029 157.000
55.04024 150.000
55.06019 166.000
55.08013 147.000
55.10008 125.000
55.12003 135.000
55.13997 132.000
55.15992 144.000
55.17987 152.000
55.19982 117.000
55.21976 130.000
55.23971 151.000
55.25966 145.000
55.27960 131.000
55.29955 143.000
55.31950 155.000
55.33944 131.000
55.35939 169.000
55.37934 129.000
55.39929 145.000
55.41923 126.000
55.43918 146.000
55.45913 124.000
55.47907 174.000
55.49902 113.000
55.51897 143.000
55.53891 128.000
55.55886 136.000
55.57881 136.000
55.59875 127.000
55.61870 136.000
55.63865 143.000
55.65860 128.000
55.67854 130.000
55.69849 137.000
55.71844 136.000
55.73838 132.000
55.75833 121.000
55.77828 132.000
55.79822 159.000
55.81817 145.000
55.83812 115.000
55.85807 140.000
55.87801 139.000
55.89796 126.000
55.91791 140.000
55.93785 159.000
55.95780 128.000
55.97775 151.000
55.99769 160.000
56.01764 131.000
56.03759 162.000
56.05753 151.000
56.07748 124.000
56.09743 150.000
56.11738 133.000
56.13732 141.000
56.15727 149.000
56.17722 157.000
56.19716 131.000
56.21711 155.000
56.23706 153.000
56.25700 131.000
56.27695 146.000
56.29690 150.000
56.31685 128.000
56.33679 146.000
56.35674 149.000
56.37669 150.000
56.39663 132.000
56.41658 161.000
56.43653 154.000
56.45647 152.000
56.47642 161.000
56.49637 151.000
56.51631 168.000
56.53626 142.000
56.55621 168.000
56.57616 109.000
56.59610 146.000
56.61605 139.000
56.63600 141.000
56.65594 167.000
56.67589 130.000
56.69584 150.000
56.71578 144.000
56.73573 139.000
56.75568 149.000
56.77563 160.000
56.79557 155.000
56.81552 167.000
56.83547 155.000
56.85541 140.000
56.87536 141.000
56.89531 131.000
56.91525 132.000
56.93520 141.000
56.95515 167.000
56.97510 148.000
56.99504 145.000
57.01499 176.000
57.03494 163.000
57.05488 172.000
57.07483 178.000
57.09478 223.000
57.11472 166.000
57.13467 203.000
57.15462 215.000
57.17456 215.000
57.19451 242.000
57.21446 268.000
57.23441 314.000
57.25435 392.000
57.27430 449.000
57.29425 558.000
57.31419 705.000
57.33414 837.000
57.35409 784.000
57.37403 745.000
57.39398 590.000
57.41393 563.000
57.43388 536.000
57.45382 536.000
57.47377 574.000
57.49372 550.000
57.51366 511.000
57.53361 447.000
57.55356 392.000
57.57350 314.000
57.59345 322.000
57.61340 280.000
57.63334 219.000
57.65329 244.000
57.67324 211.000
57.69319 174.000
57.71313 192.000
57.73308 171.000
57.75303 163.000
57.77297 178.000
57.79292 157.000
57.81287 175.000
57.83281 140.000
57.85276 123.000
57.87271 143.000
57.89266 159.000
57.91260 169.000
57.93255 155.000
57.95250 155.000
57.97244 133.000
57.99239 141.000
58.01234 176.000
58.03228 160.000
58.05223 163.000
58.07218 149.000
58.09212 140.000
58.11207 156.000
58.13202 150.000
58.15197 163.000
58.17191 138.000
58.19186 165.000
58.21181 158.000
58.23175 159.000
58.25170 183.000
58.27165 157.000
58.29159 162.000
58.31154 154.000
58.33149 159.000
58.35144 180.000
58.37138 159.000
58.39133 137.000
58.41128 128.000
58.43122 150.000
58.45117 177.000
58.47112 155.000
58.49106 141.000
58.51101 144.000
58.53096 142.000
58.55090 148.000
58.57085 149.000
58.59080 125.000
58.61075 144.000
58.63069 149.000
58.65064 141.000
58.67059 157.000
58.69053 146.000
58.71048 153.000
58.73043 144.000
58.75037 145.000
58.77032 136.000
58.79027 142.000
58.81022 139.000
58.83016 149.000
58.85011 148.000
58.87006 148.000
58.89000 161.000
58.90995 155.000
58.92990 141.000
58.94984 153.000
58.96979 134.000
58.98974 158.000
59.00969 128.000
59.02963 137.000
59.04958 137.000
59.06953 120.000
59.08947 149.000
59.10942 136.000
59.12937 139.000
59.14931 128.000
59.16926 135.000
59.18921 150.000
59.20915 145.000
59.22910 136.000
59.24905 116.000
59.26900 138.000
59.28894 151.000
59.30889 144.000
59.32884 135.000
59.34878 129.000
59.36873 147.000
59.38868 144.000
59.40862 143.000
59.42857 147.000
59.44852 132.000
59.46847 135.000
59.48841 143.000
59.50836 140.000
59.52831 151.000
59.54825 139.000
59.56820 142.000
59.58815 134.000
59.60809 148.000
59.62804 163.000
59.64799 147.000
59.66793 138.000
59.68788 132.000
59.70783 146.000
59.72778 156.000
59.74772 128.000
59.76767 151.000
59.78762 131.000
59.80756 137.000
59.82751 145.000
59.84746 177.000
59.86740 139.000
59.88735 175.000
59.90730 128.000
59.92725 137.000
59.94719 154.000
59.96714 145.000
59.98709 163.000
60.00703 129.000
60.02698 155.000
60.04693 136.000
60.06687 144.000
60.08682 141.000
60.10677 164.000
60.12671 147.000
60.14666 151.000
60.16661 161.000
60.18656 141.000
60.20650 148.000
60.22645 144.000
60.24640 153.000
60.26634 151.000
60.28629 133.000
60.30624 145.000
60.32618 130.000
60.34613 132.000
60.36608 156.000
60.38603 129.000
60.40597 151.000
60.42592 148.000
60.44587 140.000
60.46581 159.000
60.48576 140.000
60.50571 150.000
60.52565 136.000
60.54560 125.000
60.56555 146.000
60.58550 158.000
60.60544 155.000
60.62539 174.000
60.64534 140.000
60.66528 140.000
60.68523 128.000
60.70518 147.000
60.72512 166.000
60.74507 157.000
60.76502 147.000
60.78496 163.000
60.80491 168.000
60.82486 140.000
60.84481 148.000
60.86475 168.000
60.88470 137.000
60.90465 145.000
60.92459 132.000
60.94454 162.000
60.96449 151.000
60.98443 138.000
61.00438 142.000
61.02433 136.000
61.04428 140.000
61.06422 158.000
61.08417 153.000
61.10412 153.000
61.12406 145.000
61.14401 143.000
61.16396 170.000
61.18390 164.000
61.20385 155.000
61.22380 152.000
61.24374 164.000
61.26369 162.000
61.28364 165.000
61.30359 157.000
61.32353 156.000
61.34348 216.000
61.36343 170.000
61.38337 166.000
61.40332 162.000
61.42327 199.000
61.44321 179.000
61.46316 156.000
61.48311 170.000
61.50306 181.000
61.52300 184.000
61.54295 214.000
61.56290 202.000
61.58284 204.000
61.60279 236.000
61.62274 182.000
61.64268 193.000
61.66263 235.000
61.68258 182.000
61.70252 216.000
61.72247 216.000
61.74242 228.000
61.76237 239.000
61.78231 233.000
61.80226 262.000
61.82221 268.000
61.84215 284.000
61.86210 294.000
61.88205 304.000
61.90199 311.000
61.92194 326.000
61.94189 387.000
61.96184 378.000
61.98178 385.000
62.00173 378.000
62.02168 425.000
62.04162 389.000
62.06157 385.000
62.08152 378.000
62.10146 368.000
62.12141 357.000
62.14136 367.000
62.16131 355.000
62.18125 321.000
62.20120 342.000
62.22115 333.000
62.24109 300.000
62.26104 301.000
62.28099 269.000
62.30093 269.000
62.32088 294.000
62.34083 316.000
62.36077 263.000
62.38072 275.000
62.40067 276.000
62.42062 269.000
62.44056 301.000
62.46051 278.000
62.48046 305.000
62.50040 317.000
62.52035 277.000
62.54030 345.000
62.56024 312.000
62.58019 335.000
62.60014 387.000
62.62009 408.000
62.64003 402.000
62.65998 389.000
62.67993 420.000
62.69987 408.000
62.71982 420.000
62.73977 441.000
62.75971 417.000
62.77966 387.000
62.79961 397.000
62.81955 451.000
62.83950 434.000
62.85945 457.000
62.87940 532.000
62.89934 527.000
62.91929 730.000
62.93924 851.000
62.95918 1086.000
62.97913 1079.000
62.99908 980.000
63.01902 897.000
63.03897 766.000
63.05892 671.000
63.07887 678.000
63.09881 681.000
63.11876 642.000
63.13871 718.000
63.15865 694.000
63.17860 616.000
63.19855 513.000
63.21849 446.000
63.23844 387.000
63.25839 333.000
63.27833 292.000
63.29828 251.000
63.31823 230.000
63.33818 239.000
63.35812 248.000
63.37807 224.000
63.39802 181.000
63.41796 207.000
63.43791 172.000
63.45786 190.000
63.47780 196.000
63.49775 180.000
63.51770 199.000
63.53765 180.000
63.55759 174.000
63.57754 175.000
63.59749 172.000
63.61743 183.000
63.63738 168.000
63.65733 165.000
63.67727 176.000
63.69722 185.000
63.71717 157.000
63.73712 175.000
63.75706 189.000
63.77701 195.000
63.79696 181.000
63.81690 200.000
63.83685 180.000
63.85680 173.000
63.87674 237.000
63.89669 224.000
63.91664 223.000
63.93658 215.000
63.95653 272.000
63.97648 271.000
63.99643 259.000
64.01637 284.000
64.03632 288.000
64.05627 310.000
64.07621 319.000
64.09616 309.000
64.11611 347.000
64.13605 365.000
64.15600 324.000
64.17595 318.000
64.19590 330.000
64.21584 308.000
64.23579 338.000
64.25574 335.000
64.27568 342.000
64.29563 313.000
64.31558 275.000
64.33552 280.000
64.35547 301.000
64.37542 272.000
64.39536 247.000
64.41531 238.000
64.43526 239.000
64.45521 220.000
64.47515 232.000
64.49510 208.000
64.51505 215.000
64.53499 219.000
64.55494 221.000
64.57489 161.000
64.59483 172.000
64.61478 170.000
64.63473 179.000
64.65468 179.000
64.67462 168.000
64.69457 173.000
64.71452 170.000
64.73446 165.000
64.75441 150.000
64.77436 167.000
64.79430 165.000
64.81425 176.000
64.83420 158.000
64.85414 177.000
64.87409 154.000
64.89404 159.000
64.91399 158.000
64.93393 139.000
64.95388 138.000
64.97383 160.000
64.99377 168.000
65.01372 157.000
65.03367 158.000
65.05361 134.000
65.07356 147.000
65.09351 161.000
65.11346 127.000
65.13340 147.000
65.15335 171.000
65.17330 166.000
65.19324 166.000
65.21319 167.000
65.23314 155.000
65.25308 165.000
65.27303 172.000
65.29298 145.000
65.31293 155.000
65.33287 174.000
65.35282 131.000
65.37277 161.000
65.39271 151.000
65.41266 149.000
65.43261 151.000
65.45255 153.000
65.47250 143.000
65.49245 161.000
65.51239 137.000
65.53234 154.000
65.55229 150.000
65.57224 152.000
65.59218 164.000
65.61213 145.000
65.63208 164.000
65.65202 173.000
65.67197 169.000
65.69192 150.000
65.71186 146.000
65.73181 162.000
65.75176 152.000
65.77171 174.000
65.79165 187.000
65.81160 181.000
65.83155 153.000
65.85149 171.000
65.87144 155.000
65.89139 154.000
65.91133 177.000
65.93128 152.000
65.95123 132.000
65.97117 167.000
65.99112 165.000
66.01107 159.000
66.03102 173.000
66.05096 173.000
66.07091 172.000
66.09086 163.000
66.11080 173.000
66.13075 171.000
66.15070 196.000
66.17064 210.000
66.19059 190.000
66.21054 222.000
66.23049 211.000
66.25043 211.000
66.27038 212.000
66.29033 238.000
66.31027 221.000
66.33022 221.000
66.35017 217.000
66.37011 249.000
66.39006 237.000
66.41001 238.000
66.42995 255.000
66.44990 262.000
66.46985 302.000
66.48980 249.000
66.50974 273.000
66.52969 266.000
66.54964 230.000
66.56958 267.000
66.58953 253.000
66.60948 257.000
66.62942 251.000
66.64937 272.000
66.66932 245.000
66.68927 283.000
66.70921 242.000
66.72916 232.000
66.74911 263.000
66.76905 240.000
66.78900 226.000
66.80895 226.000
66.82889 212.000
66.84884 201.000
66.86879 221.000
66.88874 213.000
66.90868 219.000
66.92863 213.000
66.94858 200.000
66.96852 221.000
66.98847 220.000
67.00842 216.000
67.02836 195.000
67.04831 213.000
67.06826 197.000
67.08820 179.000
67.10815 194.000
67.12810 191.000
67.14805 165.000
67.16799 188.000
67.18794 194.000
67.20789 185.000
67.22783 189.000
67.24778 180.000
67.26773 154.000
67.28767 161.000
67.30762 170.000
67.32757 174.000
67.34752 176.000
67.36746 152.000
67.38741 169.000
67.40736 142.000
67.42730 146.000
67.44725 138.000
67.46720 134.000
67.48714 154.000
67.50709 157.000
67.52704 143.000
67.54698 158.000
67.56693 165.000
67.58688 151.000
67.60683 156.000
67.62677 156.000
67.64672 161.000
67.66667 140.000
67.68661 129.000
67.70656 153.000
67.72651 145.000
67.74645 154.000
67.76640 140.000
67.78635 149.000
67.80630 181.000
67.82624 151.000
67.84619 148.000
67.86614 158.000
67.88608 175.000
67.90603 149.000
67.92598 162.000
67.94592 139.000
67.96587 172.000
67.98582 152.000
68.00576 162.000
68.02571 155.000
68.04566 165.000
68.06561 156.000
68.08555 135.000
68.10550 152.000
68.12545 179.000
68.14539 145.000
68.16534 161.000
68.18529 141.000
68.20523 148.000
68.22518 159.000
68.24513 183.000
68.26508 135.000
68.28502 146.000
68.30497 135.000
68.32492 141.000
68.34486 162.000
68.36481 177.000
68.38476 150.000
68.40470 139.000
68.42465 120.000
68.44460 159.000
68.46455 133.000
68.48449 152.000
68.50444 157.000
68.52439 154.000
68.54433 161.000
68.56428 141.000
68.58423 134.000
68.60417 148.000
68.62412 132.000
68.64407 145.000
68.66401 128.000
68.68396 152.000
68.70391 143.000
68.72386 144.000
68.74380 141.000
68.76375 151.000
68.78370 150.000
68.80364 136.000
68.82359 132.000
68.84354 134.000
68.86348 143.000
68.88343 136.000
68.90338 133.000
68.92333 127.000
68.94327 133.000
68.96322 128.000
68.98317 121.000
69.00311 134.000
69.02306 135.000
69.04301 134.000
69.06295 124.000
69.08290 138.000
69.10285 131.000
69.12279 139.000
69.14274 127.000
69.16269 144.000
69.18264 148.000
69.20258 134.000
69.22253 131.000
69.24248 129.000
69.26242 147.000
69.28237 145.000
69.30232 151.000
69.32226 131.000
69.34221 126.000
69.36216 145.000
69.38211 139.000
69.40205 137.000
69.42200 131.000
69.44195 131.000
69.46189 147.000
69.48184 153.000
69.50179 137.000
69.52173 142.000
69.54168 145.000
69.56163 144.000
69.58157 160.000
69.60152 150.000
69.62147 130.000
69.64142 146.000
69.66136 147.000
69.68131 127.000
69.70126 140.000
69.72120 134.000
69.74115 127.000
69.76110 115.000
69.78104 138.000
69.80099 144.000
69.82094 149.000
69.84089 125.000
69.86083 125.000
69.88078 136.000
69.90073 141.000
69.92067 150.000
69.94062 155.000
69.96057 142.000
69.98051 134.000
70.00046 135.000
70.02041 147.000
70.04035 145.000
70.06030 120.000
70.08025 154.000
70.10020 126.000
70.12014 157.000
70.14009 140.000
70.16004 125.000
70.17998 159.000
70.19993 134.000
70.21988 134.000
70.23982 148.000
70.25977 146.000
70.27972 150.000
70.29967 143.000
70.31961 122.000
70.33956 162.000
70.35951 146.000
70.37945 134.000
70.39940 148.000
70.41935 133.000
70.43929 147.000
70.45924 131.000
70.47919 133.000
70.49914 136.000
70.51908 119.000
70.53903 150.000
70.55898 129.000
70.57892 153.000
70.59887 108.000
70.61882 142.000
70.63876 128.000
70.65871 122.000
70.67866 130.000
70.69860 142.000
70.71855 146.000
70.73850 132.000
70.75845 129.000
70.77839 142.000
70.79834 137.000
70.81829 125.000
70.83823 119.000
70.85818 131.000
70.87813 147.000
70.89807 124.000
70.91802 133.000
70.93797 137.000
70.95792 121.000
70.97786 123.000
70.99781 147.000
71.01776 145.000
71.03770 140.000
71.05765 131.000
71.07760 154.000
71.09754 139.000
71.11749 152.000
71.13744 137.000
71.15738 169.000
71.17733 133.000
71.19728 159.000
71.21723 143.000
71.23717 171.000
71.25712 141.000
71.27707 141.000
71.29701 132.000
71.31696 135.000
71.33691 159.000
71.35685 153.000
71.37680 152.000
71.39675 179.000
71.41670 196.000
71.43664 190.000
71.45659 177.000
71.47654 219.000
71.49648 197.000
71.51643 178.000
71.53638 172.000
71.55632 172.000
71.57627 165.000
71.59622 157.000
71.61616 180.000
71.63611 157.000
71.65606 167.000
71.67601 159.000
71.69595 188.000
71.71590 192.000
71.73585 162.000
71.75579 150.000
71.77574 138.000
71.79569 167.000
71.81563 148.000
71.83558 149.000
71.85553 156.000
71.87548 132.000
71.89542 154.000
71.91537 137.000
71.93532 142.000
71.95526 141.000
71.97521 143.000
71.99516 155.000
72.01510 128.000
72.03505 140.000
72.05500 153.000
72.07495 149.000
72.09489 126.000
72.11484 151.000
72.13479 140.000
72.15473 124.000
72.17468 155.000
72.19463 144.000
72.21457 145.000
72.23452 133.000
72.25447 140.000
72.27441 156.000
72.29436 136.000
72.31431 142.000
72.33426 139.000
72.35420 167.000
72.37415 145.000
72.39410 129.000
72.41404 127.000
72.43399 153.000
72.45394 146.000
72.47388 160.000
72.49383 146.000
72.51378 144.000
72.53373 166.000
72.55367 144.000
72.57362 136.000
72.59357 140.000
72.61351 151.000
72.63346 148.000
72.65341 132.000
72.67335 132.000
72.69330 122.000
72.71325 136.000
72.73319 141.000
72.75314 133.000
72.77309 130.000
72.79304 154.000
72.81298 133.000
72.83293 165.000
72.85288 142.000
72.87282 129.000
72.89277 148.000
72.91272 149.000
72.93266 121.000
72.95261 160.000
72.97256 129.000
72.99251 131.000
73.01245 151.000
73.03240 131.000
73.05235 159.000
73.07229 140.000
73.09224 145.000
73.11219 154.000
73.13213 153.000
73.15208 153.000
73.17203 139.000
73.19197 162.000
73.21192 158.000
73.23187 166.000
73.25182 161.000
73.27176 174.000
73.29171 151.000
73.31166 151.000
73.33160 161.000
73.35155 180.000
73.37150 189.000
73.39144 177.000
73.41139 185.000
73.43134 164.000
73.45129 161.000
73.47123 183.000
73.49118 184.000
73.51113 195.000
73.53107 157.000
73.55102 201.000
73.57097 193.000
73.59091 171.000
73.61086 162.000
73.63081 205.000
73.65076 164.000
73.67070 188.000
73.69065 195.000
73.71060 171.000
73.73054 187.000
73.75049 159.000
73.77044 153.000
73.79038 159.000
73.81033 149.000
73.83028 153.000
73.85022 137.000
73.87017 161.000
73.89012 173.000
73.91007 144.000
73.93001 184.000
73.94996 164.000
73.96991 144.000
73.98985 150.000
74.00980 127.000
74.02975 139.000
74.04969 152.000
74.06964 154.000
74.08959 135.000
74.10954 153.000
74.12948 140.000
74.14943 124.000
74.16938 156.000
74.18932 150.000
74.20927 134.000
74.22922 151.000
74.24916 167.000
74.26911 140.000
74.28906 141.000
74.30900 149.000
74.32895 170.000
74.34890 156.000
74.36885 162.000
74.38879 182.000
74.40874 190.000
74.42869 195.000
74.44863 206.000
74.46858 241.000
74.48853 285.000
74.50847 305.000
74.52842 299.000
74.54837 294.000
74.56832 271.000
74.58826 256.000
74.60821 227.000
74.62816 218.000
74.64810 231.000
74.66805 219.000
74.68800 220.000
74.70794 216.000
74.72789 241.000
74.74784 243.000
74.76778 253.000
74.78773 224.000
74.80768 202.000
74.82763 219.000
74.84757 187.000
74.86752 211.000
74.88747 206.000
74.90741 184.000
74.92736 184.000
74.94731 176.000
74.96725 188.000
74.98720 158.000
75.00715 178.000
75.02710 196.000
75.04704 216.000
75.06699 208.000
75.08694 196.000
75.10688 223.000
75.12683 230.000
75.14678 221.000
75.16672 214.000
75.18667 209.000
75.20662 181.000
75.22657 195.000
75.24651 218.000
75.26646 194.000
75.28641 204.000
75.30635 198.000
75.32630 176.000
75.34625 183.000
75.36619 193.000
75.38614 202.000
75.40609 187.000
75.42603 211.000
75.44598 197.000
75.46593 224.000
75.48588 224.000
75.50582 200.000
75.52577 220.000
75.54572 218.000
75.56566 193.000
75.58561 233.000
75.60556 203.000
75.62550 220.000
75.64545 213.000
75.66540 212.000
75.68535 190.000
75.70529 203.000
75.72524 210.000
75.74519 216.000
75.76513 192.000
75.78508 203.000
75.80503 177.000
75.82497 168.000
75.84492 170.000
75.86487 187.000
75.88481 180.000
75.90476 173.000
75.92471 144.000
75.94466 174.000
75.96460 165.000
75.98455 172.000
76.00450 167.000
76.02444 153.000
76.04439 155.000
76.06434 156.000
76.08428 138.000
76.10423 153.000
76.12418 134.000
76.14413 144.000
76.16407 148.000
76.18402 139.000
76.20397 143.000
76.22391 126.000
76.24386 123.000
76.26381 156.000
76.28375 133.000
76.30370 134.000
76.32365 141.000
76.34359 132.000
76.36354 138.000
76.38349 146.000
76.40344 126.000
76.42338 153.000
76.44333 138.000
76.46328 148.000
76.48322 137.000
76.50317 125.000
76.52312 149.000
76.54306 124.000
76.56301 132.000
76.58296 126.000
76.60291 143.000
76.62285 148.000
76.64280 131.000
76.66275 136.000
76.68269 140.000
76.70264 146.000
76.72259 137.000
76.74253 136.000
76.76248 138.000
76.78243 138.000
76.80238 144.000
76.82232 139.000
76.84227 141.000
76.86222 138.000
76.88216 147.000
76.90211 133.000
76.92206 139.000
76.94200 134.000
76.96195 163.000
76.98190 149.000
77.00184 137.000
77.02179 142.000
77.04174 127.000
77.06169 119.000
77.08163 134.000
77.10158 160.000
77.12153 143.000
77.14147 147.000
77.16142 150.000
77.18137 138.000
77.20131 141.000
77.22126 126.000
77.24121 149.000
77.26116 139.000
77.28110 125.000
77.30105 118.000
77.32100 127.000
77.34094 162.000
77.36089 146.000
77.38084 127.000
77.40078 109.000
77.42073 139.000
77.44068 156.000
77.46062 129.000
77.48057 133.000
77.50052 154.000
77.52047 141.000
77.54041 166.000
77.56036 165.000
77.58031 170.000
77.60025 158.000
77.62020 158.000
77.64015 160.000
77.66009 148.000
77.68004 186.000
77.69999 182.000
77.71994 195.000
77.73988 176.000
77.75983 190.000
77.77978 203.000
77.79972 192.000
77.81967 188.000
77.83962 181.000
77.85956 222.000
77.87951 188.000
77.89946 211.000
77.91940 181.000
77.93935 184.000
77.95930 209.000
77.97925 192.000
77.99919 192.000
78.01914 183.000
78.03909 199.000
78.05903 196.000
78.07898 226.000
78.09893 185.000
78.11887 200.000
78.13882 178.000
78.15877 220.000
78.17872 211.000
78.19866 200.000
78.21861 227.000
78.23856 218.000
78.25850 215.000
78.27845 209.000
78.29840 205.000
78.31834 205.000
78.33829 208.000
78.35824 228.000
78.37819 216.000
78.39813 197.000
78.41808 194.000
78.43803 189.000
78.45797 190.000
78.47792 197.000
78.49787 190.000
78.51781 199.000
78.53776 180.000
78.55771 181.000
78.57765 178.000
78.59760 188.000
78.61755 177.000
78.63750 164.000
78.65744 168.000
78.67739 167.000
78.69734 169.000
78.71728 162.000
78.73723 156.000
78.75718 151.000
78.77712 183.000
78.79707 164.000
78.81702 150.000
78.83697 155.000
78.85691 180.000
78.87686 183.000
78.89681 165.000
78.91675 175.000
78.93670 175.000
78.95665 162.000
78.97659 165.000
78.99654 194.000
79.01649 182.000
79.03643 173.000
79.05638 197.000
79.07633 189.000
79.09628 174.000
79.11622 179.000
79.13617 180.000
79.15612 185.000
79.17606 180.000
79.19601 188.000
79.21596 189.000
79.23590 151.000
79.25585 183.000
79.27580 165.000
79.29575 181.000
79.31569 172.000
79.33564 164.000
79.35559 177.000
79.37553 134.000
79.39548 170.000
79.41543 158.000
79.43537 179.000
79.45532 169.000
79.47527 171.000
79.49521 184.000
79.51516 191.000
79.53511 179.000
79.55506 203.000
79.57500 186.000
79.59495 159.000
79.61490 185.000
79.63484 166.000
79.65479 168.000
79.67474 167.000
79.69468 169.000
79.71463 180.000
79.73458 149.000
79.75453 181.000
79.77447 144.000
79.79442 168.000
79.81437 184.000
79.83431 177.000
79.85426 166.000
79.87421 176.000
79.89415 164.000
79.91410 140.000
79.93405 150.000
79.95399 159.000
79.97394 129.000
79.99389 150.000
80.01384 146.000
80.03378 131.000
80.05373 131.000
80.07368 136.000
80.09362 145.000
80.11357 140.000
80.13352 145.000
80.15346 139.000
80.17341 152.000
80.19336 113.000
80.21331 156.000
80.23325 147.000
80.25320 135.000
80.27315 164.000
80.29309 163.000
80.31304 140.000
80.33299 150.000
80.35293 156.000
80.37288 147.000
80.39283 145.000
80.41278 140.000
80.43272 141.000
80.45267 172.000
80.47262 165.000
80.49256 132.000
80.51251 152.000
80.53246 138.000
80.55240 142.000
80.57235 150.000
80.59230 115.000
80.61224 148.000
80.63219 138.000
80.65214 158.000
80.67209 139.000
80.69203 147.000
80.71198 137.000
80.73193 139.000
80.75187 133.000
80.77182 134.000
80.79177 142.000
80.81171 154.000
80.83166 152.000
80.85161 116.000
80.87156 154.000
80.89150 153.000
80.91145 147.000
80.93140 163.000
80.95134 146.000
80.97129 152.000
80.99124 170.000
81.01118 147.000
81.03113 120.000
81.05108 143.000
81.07102 144.000
81.09097 134.000
81.11092 145.000
81.13087 122.000
81.15081 148.000
81.17076 132.000
81.19071 143.000
81.21065 157.000
81.23060 117.000
81.25055 123.000
81.27049 137.000
81.29044 129.000
81.31039 116.000
81.33034 137.000
81.35028 136.000
81.37023 124.000
81.39018 137.000
81.41012 123.000
81.43007 120.000
81.45002 137.000
81.46996 147.000
81.48991 142.000
81.50986 115.000
81.52980 142.000
81.54975 153.000
81.56970 138.000
81.58965 143.000
81.60959 132.000
81.62954 114.000
81.64949 130.000
81.66943 139.000
81.68938 142.000
81.70933 132.000
81.72927 145.000
81.74922 140.000
81.76917 139.000
81.78912 139.000
81.80906 125.000
81.82901 125.000
81.84896 140.000
81.86890 128.000
81.88885 129.000
81.90880 135.000
81.92874 145.000
81.94869 139.000
81.96864 149.000
81.98859 144.000
82.00853 133.000
82.02848 126.000
82.04843 126.000
82.06837 118.000
82.08832 137.000
82.10827 111.000
82.12821 105.000
82.14816 150.000
82.16811 127.000
82.18805 147.000
82.20800 109.000
82.22795 133.000
82.24790 137.000
82.26784 147.000
82.28779 148.000
82.30774 138.000
82.32768 136.000
82.34763 169.000
82.36758 129.000
82.38752 136.000
82.40747 161.000
82.42742 131.000
82.44737 132.000
82.46731 127.000
82.48726 160.000
82.50721 147.000
82.52715 139.000
82.54710 154.000
82.56705 163.000
82.58699 135.000
82.60694 154.000
82.62689 143.000
82.64683 140.000
82.66678 160.000
82.68673 146.000
82.70668 143.000
82.72662 144.000
82.74657 153.000
82.76652 157.000
82.78646 138.000
82.80641 156.000
82.82636 134.000
82.84630 135.000
82.86625 137.000
82.88620 157.000
82.90615 136.000
82.92609 145.000
82.94604 148.000
82.96599 139.000
82.98593 111.000
83.00588 124.000
83.02583 136.000
83.04577 127.000
83.06572 142.000
83.08567 125.000
83.10561 141.000
83.12556 123.000
83.14551 147.000
83.16546 139.000
83.18540 140.000
83.20535 147.000
83.22530 147.000
83.24524 126.000
83.26519 138.000
83.28514 160.000
83.30508 153.000
83.32503 147.000
83.34498 126.000
83.36493 146.000
83.38487 138.000
83.40482 147.000
83.42477 158.000
83.44471 120.000
83.46466 148.000
83.48461 114.000
83.50455 138.000
83.52450 149.000
83.54445 130.000
83.56440 140.000
83.58434 165.000
83.60429 161.000
83.62424 133.000
83.64418 151.000
83.66413 141.000
83.68408 145.000
83.70402 145.000
83.72397 128.000
83.74392 137.000
83.76386 139.000
83.78381 124.000
83.80376 122.000
83.82371 145.000
83.84365 125.000
83.86360 161.000
83.88355 121.000
83.90349 147.000
83.92344 140.000
83.94339 144.000
83.96333 149.000
83.98328 142.000
84.00323 121.000
84.02318 143.000
84.04312 151.000
84.06307 144.000
84.08302 142.000
84.10296 146.000
84.12291 150.000
84.14286 128.000
84.16280 117.000
84.18275 150.000
84.20270 169.000
84.22264 169.000
84.24259 163.000
84.26254 172.000
84.28249 204.000
84.30243 176.000
84.32238 170.000
84.34233 154.000
84.36227 191.000
84.38222 166.000
84.40217 198.000
84.42211 198.000
84.44206 183.000
84.46201 192.000
84.48196 170.000
84.50190 188.000
84.52185 195.000
84.54180 201.000
84.56174 196.000
84.58169 184.000
84.60164 185.000
84.62158 188.000
84.64153 174.000
84.66148 180.000
84.68142 184.000
84.70137 198.000
84.72132 170.000
84.74127 200.000
84.76121 164.000
84.78116 191.000
84.80111 161.000
84.82105 152.000
84.84100 161.000
84.86095 140.000
84.88089 177.000
84.90084 145.000
84.92079 166.000
84.94074 161.000
84.96068 142.000
84.98063 155.000
85.00058 142.000
85.02052 124.000
85.04047 187.000
85.06042 151.000
85.08036 156.000
85.10031 159.000
85.12026 171.000
85.14021 139.000
85.16015 135.000
85.18010 119.000
85.20005 134.000
85.21999 151.000
85.23994 141.000
85.25989 147.000
85.27983 154.000
85.29978 147.000
85.31973 169.000
85.33967 133.000
85.35962 112.000
85.37957 146.000
85.39952 126.000
85.41946 122.000
85.43941 134.000
85.45936 136.000
85.47930 150.000
85.49925 146.000
85.51920 133.000
85.53914 112.000
85.55909 146.000
85.57904 131.000
85.59899 121.000
85.61893 140.000
85.63888 114.000
85.65883 153.000
85.67877 149.000
85.69872 151.000
85.71867 90.000
85.73861 148.000
85.75856 132.000
85.77851 133.000
85.79845 110.000
85.81840 123.000
85.83835 142.000
85.85830 138.000
85.87824 130.000
85.89819 133.000
85.91814 136.000
85.93808 136.000
85.95803 126.000
85.97798 145.000
85.99792 145.000
86.01787 135.000
86.03782 134.000
86.05777 126.000
86.07771 151.000
86.09766 131.000
86.11761 139.000
86.13755 142.000
86.15750 136.000
86.17745 118.000
86.19739 122.000
86.21734 125.000
86.23729 139.000
86.25723 110.000
86.27718 134.000
86.29713 141.000
86.31708 128.000
86.33702 130.000
86.35697 130.000
86.37692 127.000
86.39686 141.000
86.41681 155.000
86.43676 160.000
86.45670 124.000
86.47665 130.000
86.49660 133.000
86.51655 151.000
86.53649 142.000
86.55644 149.000
86.57639 139.000
86.59633 151.000
86.61628 140.000
86.63623 141.000
86.65617 126.000
86.67612 129.000
86.69607 127.000
86.71602 155.000
86.73596 141.000
86.75591 145.000
86.77586 137.000
86.79580 124.000
86.81575 109.000
86.83570 148.000
86.85564 133.000
86.87559 118.000
86.89554 133.000
86.91548 119.000
86.93543 152.000
86.95538 137.000
86.97533 151.000
86.99527 141.000
87.01522 148.000
87.03517 147.000
87.05511 134.000
87.07506 139.000
87.09501 147.000
87.11495 152.000
87.13490 151.000
87.15485 140.000
87.17480 144.000
87.19474 149.000
87.21469 167.000
87.23464 148.000
87.25458 158.000
87.27453 189.000
87.29448 181.000
87.31442 191.000
87.33437 190.000
87.35432 184.000
87.37426 188.000
87.39421 212.000
87.41416 209.000
87.43411 198.000
87.45405 219.000
87.47400 203.000
87.49395 168.000
87.51389 177.000
87.53384 176.000
87.55379 170.000
87.57373 157.000
87.59368 176.000
87.61363 172.000
87.63358 163.000
87.65352 177.000
87.67347 186.000
87.69342 169.000
87.71336 183.000
87.73331 169.000
87.75326 173.000
87.77320 160.000
87.79315 156.000
87.81310 176.000
87.83304 162.000
87.85299 150.000
87.87294 143.000
87.89289 157.000
87.91283 143.000
87.93278 125.000
87.95273 130.000
87.97267 142.000
87.99262 133.000
88.01257 147.000
88.03251 113.000
88.05246 140.000
88.07241 127.000
88.09236 138.000
88.11230 150.000
88.13225 145.000
88.15220 142.000
88.17214 155.000
88.19209 131.000
88.21204 112.000
88.23198 127.000
88.25193 139.000
88.27188 148.000
88.29183 147.000
88.31177 138.000
88.33172 138.000
88.35167 132.000
88.37161 138.000
88.39156 121.000
88.41151 147.000
88.43145 131.000
88.45140 133.000
88.47135 142.000
88.49129 114.000
88.51124 138.000
88.53119 141.000
88.55114 153.000
88.57108 135.000
88.59103 139.000
88.61098 133.000
88.63092 143.000
88.65087 130.000
88.67082 121.000
88.69076 98.000
88.71071 122.000
88.73066 133.000
88.75061 121.000
88.77055 137.000
88.79050 143.000
88.81045 115.000
88.83039 134.000
88.85034 141.000
88.87029 145.000
88.89023 121.000
88.91018 142.000
88.93013 114.000
88.95007 130.000
88.97002 127.000
88.98997 134.000
89.00992 116.000
89.02986 143.000
89.04981 128.000
89.06976 129.000
89.08970 125.000
89.10965 132.000
89.12960 130.000
89.14954 117.000
89.16949 121.000
89.18944 137.000
89.20939 122.000
89.22933 130.000
89.24928 163.000
89.26923 144.000
89.28917 146.000
89.30912 142.000
89.32907 148.000
89.34901 150.000
89.36896 137.000
89.38891 148.000
89.40885 138.000
89.42880 136.000
89.44875 113.000
89.46870 123.000
89.48864 132.000
89.50859 146.000
89.52854 118.000
89.54848 130.000
89.56843 150.000
89.58838 155.000
89.60832 156.000
89.62827 139.000
89.64822 122.000
89.66817 148.000
89.68811 126.000
89.70806 147.000
89.72801 145.000
89.74795 147.000
89.76790 145.000
89.78785 135.000
89.80779 152.000
89.82774 144.000
89.84769 139.000
89.86764 137.000
89.88758 133.000
89.90753 129.000
89.92748 135.000
89.94742 144.000
89.96737 173.000
89.98732 136.000
90.00726 144.000
