10.00000 147.000
10.01995 143.000
10.03989 133.000
10.05984 147.000
10.07979 136.000
10.09973 145.000
10.11968 158.000
10.13963 151.000
10.15958 123.000
10.17952 155.000
10.19947 141.000
10.21942 132.000
10.23936 135.000
10.25931 117.000
10.27926 153.000
10.29920 153.000
10.31915 148.000
10.33910 141.000
10.35905 125.000
10.37899 132.000
10.39894 150.000
10.41889 138.000
10.43883 141.000
10.45878 131.000
10.47873 131.000
10.49867 147.000
10.51862 137.000
10.53857 166.000
10.55851 138.000
10.57846 140.000
10.59841 140.000
10.61836 147.000
10.63830 152.000
10.65825 119.000
10.67820 172.000
10.69814 140.000
10.71809 140.000
10.73804 139.000
10.75798 151.000
10.77793 131.000
10.79788 138.000
10.81783 139.000
10.83777 142.000
10.85772 127.000
10.87767 144.000
10.89761 140.000
10.91756 168.000
10.93751 128.000
10.95745 146.000
10.97740 139.000
10.99735 144.000
11.01730 135.000
11.03724 142.000
11.05719 162.000
11.07714 148.000
11.09708 146.000
11.11703 132.000
11.13698 132.000
11.15692 152.000
11.17687 128.000
11.19682 148.000
11.21676 135.000
11.23671 154.000
11.25666 133.000
11.27661 141.000
11.29655 119.000
11.31650 149.000
11.33645 146.000
11.35639 138.000
11.37634 147.000
11.39629 130.000
11.41623 149.000
11.43618 162.000
11.45613 137.000
11.47608 119.000
11.49602 141.000
11.51597 148.000
11.53592 152.000
11.55586 134.000
11.57581 144.000
11.59576 124.000
11.61570 134.000
11.63565 130.000
11.65560 157.000
11.67554 148.000
11.69549 148.000
11.71544 160.000
11.73539 133.000
11.75533 138.000
11.77528 143.000
11.79523 143.000
11.81517 146.000
11.83512 157.000
11.85507 163.000
11.87501 143.000
11.89496 143.000
11.91491 133.000
11.93486 137.000
11.95480 163.000
11.97475 147.000
11.99470 146.000
12.01464 118.000
12.03459 150.000
12.05454 150.000
12.07448 168.000
12.09443 143.000
12.11438 143.000
12.13432 134.000
12.15427 149.000
12.17422 158.000
12.19417 126.000
12.21411 154.000
12.23406 132.000
12.25401 133.000
12.27395 146.000
12.29390 133.000
12.31385 127.000
12.33379 130.000
12.35374 144.000
12.37369 153.000
12.39364 151.000
12.41358 159.000
12.43353 155.000
12.45348 178.000
12.47342 148.000
12.49337 137.000
12.51332 141.000
12.53326 150.000
12.55321 149.000
12.57316 142.000
12.59311 150.000
12.61305 129.000
12.63300 132.000
12.65295 130.000
12.67289 152.000
12.69284 173.000
12.71279 157.000
12.73273 153.000
12.75268 146.000
12.77263 134.000
12.79257 137.000
12.81252 120.000
12.83247 161.000
12.85242 164.000
12.87236 148.000
12.89231 157.000
12.91226 137.000
12.93220 135.000
12.95215 134.000
12.97210 132.000
12.99204 152.000
13.01199 140.000
13.03194 154.000
13.05189 155.000
13.07183 133.000
13.09178 140.000
13.11173 120.000
13.13167 142.000
13.15162 167.000
13.17157 142.000
13.19151 145.000
13.21146 117.000
13.23141 133.000
13.25135 144.000
13.27130 137.000
13.29125 131.000
13.31120 149.000
13.33114 148.000
13.35109 144.000
13.37104 151.000
13.39098 139.000
13.41093 152.000
13.43088 134.000
13.45082 167.000
13.47077 147.000
13.49072 150.000
13.51067 145.000
13.53061 138.000
13.55056 169.000
13.57051 138.000
13.59045 146.000
13.61040 143.000
13.63035 143.000
13.65029 161.000
13.67024 166.000
13.69019 156.000
13.71013 161.000
13.73008 153.000
13.75003 145.000
13.76998 134.000
13.78992 152.000
13.80987 138.000
13.82982 153.000
13.84976 156.000
13.86971 139.000
13.88966 156.000
13.90960 142.000
13.92955 146.000
13.94950 121.000
13.96945 157.000
13.98939 156.000
14.00934 137.000
14.02929 143.000
14.04923 133.000
14.06918 130.000
14.08913 144.000
14.10907 156.000
14.12902 145.000
14.14897 138.000
14.16892 161.000
14.18886 137.000
14.20881 142.000
14.22876 134.000
14.24870 157.000
14.26865 132.000
14.28860 136.000
14.30854 148.000
14.32849 151.000
14.34844 158.000
14.36838 163.000
14.38833 132.000
14.40828 132.000
14.42823 150.000
14.44817 142.000
14.46812 148.000
14.48807 160.000
14.50801 144.000
14.52796 129.000
14.54791 142.000
14.56785 120.000
14.58780 157.000
14.60775 141.000
14.62770 119.000
14.64764 169.000
14.66759 169.000
14.68754 158.000
14.70748 161.000
14.72743 135.000
14.74738 148.000
14.76732 141.000
14.78727 171.000
14.80722 138.000
14.82716 167.000
14.84711 145.000
14.86706 159.000
14.88701 146.000
14.90695 150.000
14.92690 156.000
14.94685 158.000
14.96679 157.000
14.98674 169.000
15.00669 142.000
15.02663 145.000
15.04658 156.000
15.06653 151.000
15.08648 146.000
15.10642 143.000
15.12637 164.000
15.14632 142.000
15.16626 139.000
15.18621 159.000
15.20616 125.000
15.22610 137.000
15.24605 145.000
15.26600 134.000
15.28594 168.000
15.30589 149.000
15.32584 138.000
15.34579 171.000
15.36573 152.000
15.38568 144.000
15.40563 145.000
15.42557 164.000
15.44552 150.000
15.46547 167.000
15.48541 147.000
15.50536 166.000
15.52531 160.000
15.54526 127.000
15.56520 158.000
15.58515 148.000
15.60510 173.000
15.62504 161.000
15.64499 150.000
15.66494 156.000
15.68488 158.000
15.70483 187.000
15.72478 203.000
15.74472 184.000
15.76467 217.000
15.78462 225.000
15.80457 243.000
15.82451 295.000
15.84446 351.000
15.86441 445.000
15.88435 512.000
15.90430 549.000
15.92425 516.000
15.94419 455.000
15.96414 357.000
15.98409 262.000
16.00404 239.000
16.02398 201.000
16.04393 214.000
16.06388 215.000
16.08382 221.000
16.10377 202.000
16.12372 220.000
16.14366 247.000
16.16361 248.000
16.18356 291.000
16.20351 334.000
16.22345 352.000
16.24340 376.000
16.26335 406.000
16.28329 495.000
16.30324 528.000
16.32319 598.000
16.34313 667.000
16.36308 829.000
16.38303 884.000
16.40297 990.000
16.42292 908.000
16.44287 865.000
16.46282 646.000
16.48276 460.000
16.50271 333.000
16.52266 300.000
16.54260 234.000
16.56255 217.000
16.58250 248.000
16.60244 189.000
16.62239 209.000
16.64234 185.000
16.66229 167.000
16.68223 203.000
16.70218 152.000
16.72213 163.000
16.74207 194.000
16.76202 171.000
16.78197 203.000
16.80191 189.000
16.82186 183.000
16.84181 176.000
16.86175 181.000
16.88170 143.000
16.90165 171.000
16.92160 172.000
16.94154 156.000
16.96149 180.000
16.98144 146.000
17.00138 161.000
17.02133 151.000
17.04128 153.000
17.06122 171.000
17.08117 180.000
17.10112 172.000
17.12107 166.000
17.14101 176.000
17.16096 169.000
17.18091 171.000
17.20085 178.000
17.22080 191.000
17.24075 203.000
17.26069 207.000
17.28064 211.000
17.30059 223.000
17.32053 219.000
17.34048 214.000
17.36043 160.000
17.38038 173.000
17.40032 190.000
17.42027 159.000
17.44022 163.000
17.46016 165.000
17.48011 167.000
17.50006 177.000
17.52000 143.000
17.53995 158.000
17.55990 164.000
17.57985 145.000
17.59979 148.000
17.61974 132.000
17.63969 153.000
17.65963 159.000
17.67958 149.000
17.69953 148.000
17.71947 166.000
17.73942 155.000
17.75937 137.000
17.77932 163.000
17.79926 142.000
17.81921 156.000
17.83916 146.000
17.85910 126.000
17.87905 146.000
17.89900 134.000
17.91894 142.000
17.93889 155.000
17.95884 155.000
17.97878 155.000
17.99873 152.000
18.01868 154.000
18.03863 144.000
18.05857 150.000
18.07852 130.000
18.09847 135.000
18.11841 143.000
18.13836 176.000
18.15831 149.000
18.17825 144.000
18.19820 150.000
18.21815 165.000
18.23810 171.000
18.25804 156.000
18.27799 158.000
18.29794 177.000
18.31788 167.000
18.33783 217.000
18.35778 231.000
18.37772 208.000
18.39767 256.000
18.41762 372.000
18.43756 441.000
18.45751 417.000
18.47746 398.000
18.49741 302.000
18.51735 210.000
18.53730 165.000
18.55725 158.000
18.57719 168.000
18.59714 163.000
18.61709 161.000
18.63703 159.000
18.65698 137.000
18.67693 139.000
18.69688 137.000
18.71682 156.000
18.73677 146.000
18.75672 159.000
18.77666 143.000
18.79661 140.000
18.81656 150.000
18.83650 137.000
18.85645 148.000
18.87640 152.000
18.89634 165.000
18.91629 155.000
18.93624 143.000
18.95619 133.000
18.97613 174.000
18.99608 164.000
19.01603 145.000
19.03597 168.000
19.05592 154.000
19.07587 151.000
19.09581 138.000
19.11576 139.000
19.13571 150.000
19.15566 143.000
19.17560 147.000
19.19555 140.000
19.21550 151.000
19.23544 147.000
19.25539 162.000
19.27534 156.000
19.29528 152.000
19.31523 157.000
19.33518 144.000
19.35513 154.000
19.37507 159.000
19.39502 135.000
19.41497 151.000
19.43491 168.000
19.45486 158.000
19.47481 161.000
19.49475 141.000
19.51470 133.000
19.53465 147.000
19.55459 168.000
19.57454 147.000
19.59449 149.000
19.61444 157.000
19.63438 144.000
19.65433 134.000
19.67428 186.000
19.69422 164.000
19.71417 151.000
19.73412 155.000
19.75406 150.000
19.77401 157.000
19.79396 149.000
19.81391 169.000
19.83385 151.000
19.85380 147.000
19.87375 164.000
19.89369 164.000
19.91364 157.000
19.93359 174.000
19.95353 170.000
19.97348 153.000
19.99343 151.000
20.01337 177.000
20.03332 157.000
20.05327 158.000
20.07322 163.000
20.09316 133.000
20.11311 158.000
20.13306 181.000
20.15300 162.000
20.17295 153.000
20.19290 177.000
20.21284 154.000
20.23279 132.000
20.25274 152.000
20.27269 142.000
20.29263 140.000
20.31258 141.000
20.33253 161.000
20.35247 160.000
20.37242 147.000
20.39237 167.000
20.41231 145.000
20.43226 160.000
20.45221 166.000
20.47215 161.000
20.49210 148.000
20.51205 181.000
20.53200 170.000
20.55194 170.000
20.57189 148.000
20.59184 154.000
20.61178 177.000
20.63173 175.000
20.65168 157.000
20.67162 170.000
20.69157 187.000
20.71152 181.000
20.73147 198.000
20.75141 215.000
20.77136 241.000
20.79131 280.000
20.81125 250.000
20.83120 290.000
20.85115 350.000
20.87109 348.000
20.89104 375.000
20.91099 427.000
20.93094 393.000
20.95088 324.000
20.97083 327.000
20.99078 289.000
21.01072 280.000
21.03067 289.000
21.05062 259.000
21.07056 236.000
21.09051 237.000
21.11046 255.000
21.13040 240.000
21.15035 178.000
21.17030 209.000
21.19025 162.000
21.21019 178.000
21.23014 183.000
21.25009 182.000
21.27003 152.000
21.28998 163.000
21.30993 176.000
21.32987 172.000
21.34982 158.000
21.36977 178.000
21.38972 163.000
21.40966 161.000
21.42961 163.000
21.44956 151.000
21.46950 164.000
21.48945 171.000
21.50940 183.000
21.52934 156.000
21.54929 151.000
21.56924 146.000
21.58918 151.000
21.60913 140.000
21.62908 158.000
21.64903 128.000
21.66897 166.000
21.68892 163.000
21.70887 171.000
21.72881 144.000
21.74876 169.000
21.76871 156.000
21.78865 158.000
21.80860 162.000
21.82855 162.000
21.84850 180.000
21.86844 169.000
21.88839 147.000
21.90834 139.000
21.92828 173.000
21.94823 155.000
21.96818 153.000
21.98812 159.000
22.00807 158.000
22.02802 148.000
22.04796 171.000
22.06791 169.000
22.08786 177.000
22.10781 162.000
22.12775 149.000
22.14770 159.000
22.16765 153.000
22.18759 160.000
22.20754 149.000
22.22749 153.000
22.24743 140.000
22.26738 145.000
22.28733 163.000
22.30728 182.000
22.32722 145.000
22.34717 140.000
22.36712 165.000
22.38706 169.000
22.40701 158.000
22.42696 144.000
22.44690 158.000
22.46685 175.000
22.48680 187.000
22.50675 165.000
22.52669 125.000
22.54664 165.000
22.56659 154.000
22.58653 170.000
22.60648 156.000
22.62643 169.000
22.64637 169.000
22.66632 144.000
22.68627 163.000
22.70621 186.000
22.72616 150.000
22.74611 165.000
22.76606 125.000
22.78600 171.000
22.80595 153.000
22.82590 160.000
22.84584 160.000
22.86579 163.000
22.88574 172.000
22.90568 160.000
22.92563 148.000
22.94558 158.000
22.96553 159.000
22.98547 160.000
23.00542 133.000
23.02537 186.000
23.04531 169.000
23.06526 170.000
23.08521 158.000
23.10515 161.000
23.12510 167.000
23.14505 141.000
23.16499 155.000
23.18494 173.000
23.20489 179.000
23.22484 160.000
23.24478 160.000
23.26473 156.000
23.28468 127.000
23.30462 159.000
23.32457 160.000
23.34452 164.000
23.36446 133.000
23.38441 169.000
23.40436 135.000
23.42431 182.000
23.44425 165.000
23.46420 164.000
23.48415 152.000
23.50409 166.000
23.52404 163.000
23.54399 166.000
23.56393 148.000
23.58388 180.000
23.60383 174.000
23.62377 160.000
23.64372 167.000
23.66367 147.000
23.68362 162.000
23.70356 166.000
23.72351 160.000
23.74346 156.000
23.76340 168.000
23.78335 162.000
23.80330 156.000
23.82324 149.000
23.84319 155.000
23.86314 159.000
23.88309 154.000
23.90303 164.000
23.92298 156.000
23.94293 182.000
23.96287 159.000
23.98282 172.000
24.00277 154.000
24.02271 167.000
24.04266 154.000
24.06261 145.000
24.08256 165.000
24.10250 186.000
24.12245 160.000
24.14240 163.000
24.16234 179.000
24.18229 156.000
24.20224 160.000
24.22218 173.000
24.24213 140.000
24.26208 171.000
24.28202 180.000
24.30197 176.000
24.32192 167.000
24.34187 162.000
24.36181 171.000
24.38176 180.000
24.40171 159.000
24.42165 182.000
24.44160 181.000
24.46155 169.000
24.48149 172.000
24.50144 167.000
24.52139 158.000
24.54134 138.000
24.56128 165.000
24.58123 161.000
24.60118 175.000
24.62112 163.000
24.64107 146.000
24.66102 165.000
24.68096 202.000
24.70091 155.000
24.72086 187.000
24.74080 195.000
24.76075 167.000
24.78070 183.000
24.80065 156.000
24.82059 203.000
24.84054 167.000
24.86049 169.000
24.88043 156.000
24.90038 184.000
24.92033 152.000
24.94027 199.000
24.96022 196.000
24.98017 181.000
25.00012 194.000
25.02006 189.000
25.04001 185.000
25.05996 173.000
25.07990 172.000
25.09985 176.000
25.11980 165.000
25.13974 170.000
25.15969 186.000
25.17964 165.000
25.19958 152.000
25.21953 162.000
25.23948 162.000
25.25943 162.000
25.27937 164.000
25.29932 186.000
25.31927 163.000
25.33921 143.000
25.35916 169.000
25.37911 183.000
25.39905 172.000
25.41900 139.000
25.43895 179.000
25.45890 211.000
25.47884 183.000
25.49879 177.000
25.51874 161.000
25.53868 181.000
25.55863 178.000
25.57858 191.000
25.59852 180.000
25.61847 170.000
25.63842 182.000
25.65837 181.000
25.67831 168.000
25.69826 157.000
25.71821 169.000
25.73815 157.000
25.75810 181.000
25.77805 184.000
25.79799 187.000
25.81794 176.000
25.83789 174.000
25.85783 157.000
25.87778 203.000
25.89773 184.000
25.91768 168.000
25.93762 168.000
25.95757 174.000
25.97752 195.000
25.99746 166.000
26.01741 169.000
26.03736 169.000
26.05730 182.000
26.07725 181.000
26.09720 175.000
26.11715 198.000
26.13709 194.000
26.15704 172.000
26.17699 193.000
26.19693 171.000
26.21688 172.000
26.23683 187.000
26.25677 170.000
26.27672 156.000
26.29667 189.000
26.31661 169.000
26.33656 152.000
26.35651 178.000
26.37646 159.000
26.39640 152.000
26.41635 181.000
26.43630 158.000
26.45624 160.000
26.47619 188.000
26.49614 169.000
26.51608 197.000
26.53603 186.000
26.55598 189.000
26.57593 197.000
26.59587 191.000
26.61582 198.000
26.63577 172.000
26.65571 158.000
26.67566 179.000
26.69561 164.000
26.71555 200.000
26.73550 183.000
26.75545 193.000
26.77539 182.000
26.79534 197.000
26.81529 198.000
26.83524 165.000
26.85518 179.000
26.87513 172.000
26.89508 188.000
26.91502 151.000
26.93497 173.000
26.95492 196.000
26.97486 193.000
26.99481 196.000
27.01476 174.000
27.03471 170.000
27.05465 207.000
27.07460 173.000
27.09455 179.000
27.11449 178.000
27.13444 178.000
27.15439 188.000
27.17433 213.000
27.19428 168.000
27.21423 178.000
27.23417 178.000
27.25412 190.000
27.27407 188.000
27.29402 201.000
27.31396 158.000
27.33391 199.000
27.35386 196.000
27.37380 167.000
27.39375 170.000
27.41370 217.000
27.43364 197.000
27.45359 172.000
27.47354 207.000
27.49349 204.000
27.51343 195.000
27.53338 171.000
27.55333 191.000
27.57327 176.000
27.59322 180.000
27.61317 202.000
27.63311 198.000
27.65306 188.000
27.67301 187.000
27.69296 178.000
27.71290 212.000
27.73285 181.000
27.75280 200.000
27.77274 182.000
27.79269 156.000
27.81264 177.000
27.83258 207.000
27.85253 192.000
27.87248 212.000
27.89242 197.000
27.91237 200.000
27.93232 186.000
27.95227 212.000
27.97221 174.000
27.99216 209.000
28.01211 196.000
28.03205 193.000
28.05200 198.000
28.07195 194.000
28.09189 181.000
28.11184 201.000
28.13179 200.000
28.15174 172.000
28.17168 177.000
28.19163 220.000
28.21158 185.000
28.23152 203.000
28.25147 177.000
28.27142 182.000
28.29136 194.000
28.31131 208.000
28.33126 182.000
28.35120 217.000
28.37115 185.000
28.39110 203.000
28.41105 170.000
28.43099 191.000
28.45094 215.000
28.47089 192.000
28.49083 195.000
28.51078 178.000
28.53073 203.000
28.55067 195.000
28.57062 171.000
28.59057 207.000
28.61052 201.000
28.63046 186.000
28.65041 227.000
28.67036 197.000
28.69030 178.000
28.71025 205.000
28.73020 187.000
28.75014 189.000
28.77009 182.000
28.79004 180.000
28.80998 211.000
28.82993 193.000
28.84988 223.000
28.86983 200.000
28.88977 202.000
28.90972 221.000
28.92967 208.000
28.94961 188.000
28.96956 197.000
28.98951 217.000
29.00945 200.000
29.02940 198.000
29.04935 217.000
29.06930 207.000
29.08924 204.000
29.10919 196.000
29.12914 228.000
29.14908 229.000
29.16903 205.000
29.18898 200.000
29.20892 223.000
29.22887 247.000
29.24882 202.000
29.26877 225.000
29.28871 225.000
29.30866 234.000
29.32861 211.000
29.34855 222.000
29.36850 245.000
29.38845 243.000
29.40839 244.000
29.42834 213.000
29.44829 247.000
29.46823 257.000
29.48818 257.000
29.50813 231.000
29.52808 219.000
29.54802 221.000
29.56797 233.000
29.58792 227.000
29.60786 210.000
29.62781 197.000
29.64776 227.000
29.66770 216.000
29.68765 227.000
29.70760 228.000
29.72755 172.000
29.74749 228.000
29.76744 218.000
29.78739 208.000
29.80733 222.000
29.82728 185.000
29.84723 206.000
29.86717 187.000
29.88712 223.000
29.90707 194.000
29.92701 224.000
29.94696 219.000
29.96691 207.000
29.98686 229.000
30.00680 212.000
30.02675 236.000
30.04670 229.000
30.06664 228.000
30.08659 211.000
30.10654 256.000
30.12648 264.000
30.14643 268.000
30.16638 253.000
30.18633 278.000
30.20627 294.000
30.22622 370.000
30.24617 421.000
30.26611 523.000
30.28606 657.000
30.30601 799.000
30.32595 820.000
30.34590 737.000
30.36585 654.000
30.38579 564.000
30.40574 569.000
30.42569 433.000
30.44564 348.000
30.46558 281.000
30.48553 279.000
30.50548 211.000
30.52542 217.000
30.54537 208.000
30.56532 210.000
30.58526 215.000
30.60521 213.000
30.62516 202.000
30.64511 224.000
30.66505 219.000
30.68500 227.000
30.70495 230.000
30.72489 219.000
30.74484 217.000
30.76479 194.000
30.78473 201.000
30.80468 196.000
30.82463 204.000
30.84458 186.000
30.86452 226.000
30.88447 200.000
30.90442 216.000
30.92436 195.000
30.94431 207.000
30.96426 223.000
30.98420 200.000
31.00415 194.000
31.02410 227.000
31.04404 215.000
31.06399 212.000
31.08394 235.000
31.10389 194.000
31.12383 203.000
31.14378 219.000
31.16373 210.000
31.18367 212.000
31.20362 185.000
31.22357 197.000
31.24351 193.000
31.26346 186.000
31.28341 225.000
31.30336 230.000
31.32330 200.000
31.34325 192.000
31.36320 207.000
31.38314 230.000
31.40309 200.000
31.42304 216.000
31.44298 193.000
31.46293 201.000
31.48288 210.000
31.50282 220.000
31.52277 195.000
31.54272 217.000
31.56267 193.000
31.58261 201.000
31.60256 216.000
31.62251 188.000
31.64245 200.000
31.66240 191.000
31.68235 224.000
31.70229 193.000
31.72224 207.000
31.74219 215.000
31.76214 221.000
31.78208 202.000
31.80203 201.000
31.82198 215.000
31.84192 236.000
31.86187 202.000
31.88182 221.000
31.90176 192.000
31.92171 196.000
31.94166 227.000
31.96160 230.000
31.98155 198.000
32.00150 214.000
32.02145 205.000
32.04139 229.000
32.06134 220.000
32.08129 249.000
32.10123 238.000
32.12118 254.000
32.14113 268.000
32.16107 221.000
32.18102 250.000
32.20097 224.000
32.22092 241.000
32.24086 222.000
32.26081 218.000
32.28076 207.000
32.30070 198.000
32.32065 207.000
32.34060 203.000
32.36054 216.000
32.38049 215.000
32.40044 216.000
32.42039 204.000
32.44033 201.000
32.46028 204.000
32.48023 198.000
32.50017 206.000
32.52012 217.000
32.54007 221.000
32.56001 239.000
32.57996 227.000
32.59991 207.000
32.61985 226.000
32.63980 212.000
32.65975 205.000
32.67970 211.000
32.69964 223.000
32.71959 172.000
32.73954 221.000
32.75948 233.000
32.77943 216.000
32.79938 201.000
32.81932 252.000
32.83927 228.000
32.85922 239.000
32.87917 214.000
32.89911 224.000
32.91906 237.000
32.93901 228.000
32.95895 250.000
32.97890 255.000
32.99885 205.000
33.01879 264.000
33.03874 249.000
33.05869 263.000
33.07863 301.000
33.09858 268.000
33.11853 298.000
33.13848 277.000
33.15842 325.000
33.17837 265.000
33.19832 281.000
33.21826 268.000
33.23821 263.000
33.25816 256.000
33.27810 261.000
33.29805 213.000
33.31800 215.000
33.33795 215.000
33.35789 218.000
33.37784 212.000
33.39779 242.000
33.41773 227.000
33.43768 232.000
33.45763 196.000
33.47757 203.000
33.49752 212.000
33.51747 196.000
33.53741 218.000
33.55736 209.000
33.57731 204.000
33.59726 216.000
33.61720 219.000
33.63715 190.000
33.65710 214.000
33.67704 204.000
33.69699 221.000
33.71694 234.000
33.73688 212.000
33.75683 210.000
33.77678 206.000
33.79673 195.000
33.81667 242.000
33.83662 189.000
33.85657 245.000
33.87651 200.000
33.89646 232.000
33.91641 237.000
33.93635 224.000
33.95630 214.000
33.97625 216.000
33.99620 224.000
34.01614 201.000
34.03609 238.000
34.05604 228.000
34.07598 254.000
34.09593 225.000
34.11588 261.000
34.13582 259.000
34.15577 254.000
34.17572 266.000
34.19566 282.000
34.21561 321.000
34.23556 297.000
34.25551 302.000
34.27545 302.000
34.29540 346.000
34.31535 337.000
34.33529 324.000
34.35524 340.000
34.37519 341.000
34.39513 331.000
34.41508 355.000
34.43503 373.000
34.45498 363.000
34.47492 412.000
34.49487 344.000
34.51482 367.000
34.53476 348.000
34.55471 333.000
34.57466 349.000
34.59460 344.000
34.61455 338.000
34.63450 316.000
34.65444 325.000
34.67439 312.000
34.69434 311.000
34.71429 351.000
34.73423 278.000
34.75418 295.000
34.77413 316.000
34.79407 320.000
34.81402 310.000
34.83397 297.000
34.85391 318.000
34.87386 332.000
34.89381 286.000
34.91376 290.000
34.93370 308.000
34.95365 302.000
34.97360 315.000
34.99354 307.000
35.01349 333.000
35.03344 290.000
35.05338 300.000
35.07333 306.000
35.09328 305.000
35.11322 308.000
35.13317 305.000
35.15312 307.000
35.17307 280.000
35.19301 334.000
35.21296 316.000
35.23291 353.000
35.25285 383.000
35.27280 341.000
35.29275 397.000
35.31269 354.000
35.33264 371.000
35.35259 419.000
35.37254 387.000
35.39248 382.000
35.41243 401.000
35.43238 350.000
35.45232 439.000
35.47227 408.000
35.49222 499.000
35.51216 451.000
35.53211 492.000
35.55206 547.000
35.57201 616.000
35.59195 740.000
35.61190 859.000
35.63185 1019.000
35.65179 1230.000
35.67174 1729.000
35.69169 2065.000
35.71163 2400.000
35.73158 2106.000
35.75153 1822.000
35.77147 1599.000
35.79142 1630.000
35.81137 1328.000
35.83132 1068.000
35.85126 864.000
35.87121 577.000
35.89116 488.000
35.91110 455.000
35.93105 413.000
35.95100 326.000
35.97094 308.000
35.99089 271.000
36.01084 253.000
36.03079 298.000
36.05073 244.000
36.07068 285.000
36.09063 283.000
36.11057 266.000
36.13052 261.000
36.15047 300.000
36.17041 267.000
36.19036 261.000
36.21031 244.000
36.23025 221.000
36.25020 288.000
36.27015 262.000
36.29010 242.000
36.31004 313.000
36.32999 271.000
36.34994 317.000
36.36988 326.000
36.38983 338.000
36.40978 409.000
36.42972 371.000
36.44967 411.000
36.46962 429.000
36.48957 434.000
36.50951 435.000
36.52946 432.000
36.54941 438.000
36.56935 438.000
36.58930 430.000
36.60925 456.000
36.62919 428.000
36.64914 408.000
36.66909 414.000
36.68903 387.000
36.70898 384.000
36.72893 358.000
36.74888 361.000
36.76882 360.000
36.78877 374.000
36.80872 358.000
36.82866 382.000
36.84861 416.000
36.86856 408.000
36.88850 440.000
36.90845 524.000
36.92840 525.000
36.94835 564.000
36.96829 629.000
36.98824 701.000
37.00819 741.000
37.02813 732.000
37.04808 818.000
37.06803 843.000
37.08797 932.000
37.10792 890.000
37.12787 890.000
37.14781 871.000
37.16776 850.000
37.18771 832.000
37.20766 708.000
37.22760 697.000
37.24755 647.000
37.26750 563.000
37.28744 564.000
37.30739 491.000
37.32734 477.000
37.34728 474.000
37.36723 452.000
37.38718 366.000
37.40713 353.000
37.42707 316.000
37.44702 301.000
37.46697 286.000
37.48691 269.000
37.50686 227.000
37.52681 229.000
37.54675 219.000
37.56670 235.000
37.58665 206.000
37.60660 205.000
37.62654 204.000
37.64649 203.000
37.66644 232.000
37.68638 227.000
37.70633 207.000
37.72628 195.000
37.74622 223.000
37.76617 212.000
37.78612 206.000
37.80606 219.000
37.82601 200.000
37.84596 176.000
37.86591 201.000
37.88585 217.000
37.90580 227.000
37.92575 204.000
37.94569 199.000
37.96564 192.000
37.98559 204.000
38.00553 210.000
38.02548 228.000
38.04543 205.000
38.06538 205.000
38.08532 196.000
38.10527 173.000
38.12522 205.000
38.14516 201.000
38.16511 210.000
38.18506 195.000
38.20500 224.000
38.22495 202.000
38.24490 225.000
38.26484 179.000
38.28479 230.000
38.30474 177.000
38.32469 209.000
38.34463 200.000
38.36458 195.000
38.38453 203.000
38.40447 215.000
38.42442 221.000
38.44437 197.000
38.46431 185.000
38.48426 177.000
38.50421 171.000
38.52416 215.000
38.54410 228.000
38.56405 202.000
38.58400 210.000
38.60394 211.000
38.62389 194.000
38.64384 202.000
38.66378 200.000
38.68373 221.000
38.70368 202.000
38.72362 208.000
38.74357 229.000
38.76352 214.000
38.78347 222.000
38.80341 226.000
38.82336 201.000
38.84331 215.000
38.86325 233.000
38.88320 217.000
38.90315 218.000
38.92309 200.000
38.94304 205.000
38.96299 213.000
38.98294 210.000
39.00288 225.000
39.02283 206.000
39.04278 229.000
39.06272 201.000
39.08267 221.000
39.10262 223.000
39.12256 237.000
39.14251 200.000
39.16246 232.000
39.18241 245.000
39.20235 235.000
39.22230 245.000
39.24225 252.000
39.26219 248.000
39.28214 256.000
39.30209 242.000
39.32203 237.000
39.34198 231.000
39.36193 259.000
39.38187 244.000
39.40182 262.000
39.42177 222.000
39.44172 235.000
39.46166 228.000
39.48161 194.000
39.50156 210.000
39.52150 210.000
39.54145 188.000
39.56140 198.000
39.58134 198.000
39.60129 211.000
39.62124 202.000
39.64119 205.000
39.66113 174.000
39.68108 204.000
39.70103 187.000
39.72097 214.000
39.74092 178.000
39.76087 173.000
39.78081 194.000
39.80076 169.000
39.82071 181.000
39.84065 203.000
39.86060 209.000
39.88055 193.000
39.90050 172.000
39.92044 209.000
39.94039 219.000
39.96034 198.000
39.98028 208.000
40.00023 178.000
40.02018 196.000
40.04012 213.000
40.06007 205.000
40.08002 199.000
40.09997 205.000
40.11991 188.000
40.13986 178.000
40.15981 198.000
40.17975 220.000
40.19970 178.000
40.21965 200.000
40.23959 197.000
40.25954 203.000
40.27949 205.000
40.29943 194.000
40.31938 178.000
40.33933 186.000
40.35928 173.000
40.37922 213.000
40.39917 192.000
40.41912 181.000
40.43906 202.000
40.45901 193.000
40.47896 218.000
40.49890 213.000
40.51885 204.000
40.53880 214.000
40.55875 201.000
40.57869 218.000
40.59864 202.000
40.61859 187.000
40.63853 218.000
40.65848 218.000
40.67843 183.000
40.69837 213.000
40.71832 223.000
40.73827 217.000
40.75822 206.000
40.77816 209.000
40.79811 203.000
40.81806 228.000
40.83800 199.000
40.85795 215.000
40.87790 227.000
40.89784 213.000
40.91779 207.000
40.93774 208.000
40.95768 207.000
40.97763 210.000
40.99758 235.000
41.01753 222.000
41.03747 235.000
41.05742 230.000
41.07737 217.000
41.09731 248.000
41.11726 252.000
41.13721 258.000
41.15715 208.000
41.17710 285.000
41.19705 245.000
41.21700 254.000
41.23694 267.000
41.25689 301.000
41.27684 278.000
41.29678 302.000
41.31673 296.000
41.33668 335.000
41.35662 339.000
41.37657 393.000
41.39652 437.000
41.41646 466.000
41.43641 541.000
41.45636 653.000
41.47631 761.000
41.49625 759.000
41.51620 868.000
41.53615 907.000
41.55609 878.000
41.57604 884.000
41.59599 755.000
41.61593 781.000
41.63588 724.000
41.65583 696.000
41.67578 638.000
41.69572 571.000
41.71567 563.000
41.73562 536.000
41.75556 521.000
41.77551 512.000
41.79546 536.000
41.81540 472.000
41.83535 522.000
41.85530 536.000
41.87524 563.000
41.89519 516.000
41.91514 532.000
41.93509 483.000
41.95503 499.000
41.97498 457.000
41.99493 450.000
42.01487 441.000
42.03482 398.000
42.05477 377.000
42.07471 339.000
42.09466 306.000
42.11461 314.000
42.13456 300.000
42.15450 256.000
42.17445 252.000
42.19440 237.000
42.21434 243.000
42.23429 221.000
42.25424 245.000
42.27418 249.000
42.29413 255.000
42.31408 257.000
42.33403 252.000
42.35397 234.000
42.37392 263.000
42.39387 253.000
42.41381 272.000
42.43376 245.000
42.45371 239.000
42.47365 237.000
42.49360 304.000
42.51355 268.000
42.53349 298.000
42.55344 284.000
42.57339 297.000
42.59334 296.000
42.61328 290.000
42.63323 315.000
42.65318 323.000
42.67312 359.000
42.69307 323.000
42.71302 375.000
42.73296 398.000
42.75291 376.000
42.77286 395.000
42.79281 426.000
42.81275 479.000
42.83270 498.000
42.85265 531.000
42.87259 533.000
42.89254 596.000
42.91249 596.000
42.93243 644.000
42.95238 651.000
42.97233 733.000
42.99227 837.000
43.01222 811.000
43.03217 859.000
43.05212 916.000
43.07206 945.000
43.09201 964.000
43.11196 946.000
43.13190 1064.000
43.15185 993.000
43.17180 1055.000
43.19174 1010.000
43.21169 1027.000
43.23164 990.000
43.25159 964.000
43.27153 890.000
43.29148 882.000
43.31143 856.000
43.33137 845.000
43.35132 856.000
43.37127 826.000
43.39121 853.000
43.41116 764.000
43.43111 745.000
43.45105 641.000
43.47100 571.000
43.49095 511.000
43.51090 524.000
43.53084 499.000
43.55079 403.000
43.57074 373.000
43.59068 343.000
43.61063 299.000
43.63058 277.000
43.65052 272.000
43.67047 253.000
43.69042 261.000
43.71037 225.000
43.73031 206.000
43.75026 208.000
43.77021 238.000
43.79015 239.000
43.81010 234.000
43.83005 213.000
43.84999 181.000
43.86994 232.000
43.88989 213.000
43.90984 178.000
43.92978 194.000
43.94973 185.000
43.96968 217.000
43.98962 196.000
44.00957 199.000
44.02952 187.000
44.04946 161.000
44.06941 238.000
44.08936 153.000
44.10930 177.000
44.12925 225.000
44.14920 181.000
44.16915 181.000
44.18909 188.000
44.20904 190.000
44.22899 207.000
44.24893 199.000
44.26888 205.000
44.28883 190.000
44.30877 185.000
44.32872 202.000
44.34867 200.000
44.36862 159.000
44.38856 175.000
44.40851 202.000
44.42846 190.000
44.44840 184.000
44.46835 208.000
44.48830 182.000
44.50824 176.000
44.52819 223.000
44.54814 187.000
44.56808 174.000
44.58803 182.000
44.60798 178.000
44.62793 205.000
44.64787 198.000
44.66782 211.000
44.68777 205.000
44.70771 189.000
44.72766 178.000
44.74761 203.000
44.76755 184.000
44.78750 202.000
44.80745 183.000
44.82740 190.000
44.84734 184.000
44.86729 189.000
44.88724 181.000
44.90718 182.000
44.92713 198.000
44.94708 207.000
44.96702 227.000
44.98697 207.000
45.00692 215.000
45.02686 225.000
45.04681 219.000
45.06676 180.000
45.08671 179.000
45.10665 177.000
45.12660 192.000
45.14655 173.000
45.16649 186.000
45.18644 178.000
45.20639 176.000
45.22633 209.000
45.24628 164.000
45.26623 193.000
45.28618 170.000
45.30612 178.000
45.32607 179.000
45.34602 183.000
45.36596 196.000
45.38591 172.000
45.40586 186.000
45.42580 184.000
45.44575 168.000
45.46570 187.000
45.48565 163.000
45.50559 172.000
45.52554 183.000
45.54549 189.000
45.56543 166.000
45.58538 171.000
45.60533 168.000
45.62527 168.000
45.64522 193.000
45.66517 169.000
45.68511 176.000
45.70506 177.000
45.72501 183.000
45.74496 179.000
45.76490 154.000
45.78485 149.000
45.80480 171.000
45.82474 181.000
45.84469 174.000
45.86464 175.000
45.88458 178.000
45.90453 153.000
45.92448 153.000
45.94443 181.000
45.96437 161.000
45.98432 168.000
46.00427 173.000
46.02421 194.000
46.04416 153.000
46.06411 179.000
46.08405 160.000
46.10400 191.000
46.12395 188.000
46.14389 167.000
46.16384 166.000
46.18379 204.000
46.20374 164.000
46.22368 168.000
46.24363 166.000
46.26358 184.000
46.28352 164.000
46.30347 194.000
46.32342 203.000
46.34336 157.000
46.36331 164.000
46.38326 171.000
46.40321 168.000
46.42315 149.000
46.44310 200.000
46.46305 169.000
46.48299 177.000
46.50294 165.000
46.52289 157.000
46.54283 167.000
46.56278 184.000
46.58273 141.000
46.60267 171.000
46.62262 163.000
46.64257 165.000
46.66252 158.000
46.68246 155.000
46.70241 174.000
46.72236 182.000
46.74230 161.000
46.76225 162.000
46.78220 191.000
46.80214 154.000
46.82209 189.000
46.84204 179.000
46.86199 172.000
46.88193 155.000
46.90188 169.000
46.92183 186.000
46.94177 202.000
46.96172 155.000
46.98167 162.000
47.00161 163.000
47.02156 178.000
47.04151 177.000
47.06146 168.000
47.08140 172.000
47.10135 184.000
47.12130 171.000
47.14124 158.000
47.16119 164.000
47.18114 164.000
47.20108 168.000
47.22103 188.000
47.24098 174.000
47.26092 174.000
47.28087 188.000
47.30082 159.000
47.32077 197.000
47.34071 162.000
47.36066 168.000
47.38061 153.000
47.40055 169.000
47.42050 178.000
47.44045 183.000
47.46039 169.000
47.48034 173.000
47.50029 164.000
47.52024 185.000
47.54018 157.000
47.56013 167.000
47.58008 172.000
47.60002 216.000
47.61997 172.000
47.63992 169.000
47.65986 176.000
47.67981 203.000
47.69976 192.000
47.71970 183.000
47.73965 176.000
47.75960 175.000
47.77955 175.000
47.79949 170.000
47.81944 185.000
47.83939 192.000
47.85933 163.000
47.87928 162.000
47.89923 193.000
47.91917 164.000
47.93912 170.000
47.95907 192.000
47.97902 147.000
47.99896 158.000
48.01891 165.000
48.03886 185.000
48.05880 183.000
48.07875 172.000
48.09870 198.000
48.11864 178.000
48.13859 195.000
48.15854 200.000
48.17848 179.000
48.19843 195.000
48.21838 180.000
48.23833 176.000
48.25827 175.000
48.27822 194.000
48.29817 187.000
48.31811 164.000
48.33806 179.000
48.35801 182.000
48.37795 173.000
48.39790 169.000
48.41785 192.000
48.43780 152.000
48.45774 187.000
48.47769 184.000
48.49764 193.000
48.51758 174.000
48.53753 177.000
48.55748 178.000
48.57742 174.000
48.59737 178.000
48.61732 180.000
48.63726 182.000
48.65721 202.000
48.67716 203.000
48.69711 200.000
48.71705 198.000
48.73700 213.000
48.75695 193.000
48.77689 224.000
48.79684 225.000
48.81679 235.000
48.83673 214.000
48.85668 181.000
48.87663 208.000
48.89658 167.000
48.91652 196.000
48.93647 195.000
48.95642 223.000
48.97636 173.000
48.99631 159.000
49.01626 164.000
49.03620 178.000
49.05615 185.000
49.07610 204.000
49.09605 164.000
49.11599 152.000
49.13594 165.000
49.15589 180.000
49.17583 203.000
49.19578 171.000
49.21573 170.000
49.23567 186.000
49.25562 162.000
49.27557 192.000
49.29551 190.000
49.31546 173.000
49.33541 165.000
49.35536 167.000
49.37530 192.000
49.39525 186.000
49.41520 191.000
49.43514 180.000
49.45509 213.000
49.47504 162.000
49.49498 158.000
49.51493 163.000
49.53488 163.000
49.55483 164.000
49.57477 160.000
49.59472 187.000
49.61467 180.000
49.63461 183.000
49.65456 163.000
49.67451 162.000
49.69445 165.000
49.71440 171.000
49.73435 159.000
49.75429 192.000
49.77424 170.000
49.79419 187.000
49.81414 186.000
49.83408 167.000
49.85403 164.000
49.87398 184.000
49.89392 190.000
49.91387 160.000
49.93382 193.000
49.95376 162.000
49.97371 152.000
49.99366 177.000
50.01361 176.000
50.03355 164.000
50.05350 173.000
50.07345 171.000
50.09339 171.000
50.11334 161.000
50.13329 183.000
50.15323 154.000
50.17318 170.000
50.19313 171.000
50.21307 153.000
50.23302 161.000
50.25297 160.000
50.27292 171.000
50.29286 165.000
50.31281 156.000
50.33276 159.000
50.35270 180.000
50.37265 181.000
50.39260 174.000
50.41254 160.000
50.43249 165.000
50.45244 164.000
50.47239 163.000
50.49233 137.000
50.51228 169.000
50.53223 169.000
50.55217 168.000
50.57212 149.000
50.59207 157.000
50.61201 158.000
50.63196 173.000
50.65191 179.000
50.67186 150.000
50.69180 173.000
50.71175 168.000
50.73170 167.000
50.75164 176.000
50.77159 168.000
50.79154 187.000
50.81148 151.000
50.83143 171.000
50.85138 160.000
50.87132 150.000
50.89127 165.000
50.91122 145.000
50.93117 151.000
50.95111 168.000
50.97106 144.000
50.99101 159.000
51.01095 169.000
51.03090 159.000
51.05085 154.000
51.07079 156.000
51.09074 155.000
51.11069 170.000
51.13064 154.000
51.15058 158.000
51.17053 155.000
51.19048 145.000
51.21042 154.000
51.23037 170.000
51.25032 160.000
51.27026 157.000
51.29021 165.000
51.31016 160.000
51.33010 154.000
51.35005 166.000
51.37000 178.000
51.38995 164.000
51.40989 145.000
51.42984 147.000
51.44979 137.000
51.46973 163.000
51.48968 182.000
51.50963 156.000
51.52957 187.000
51.54952 162.000
51.56947 145.000
51.58942 159.000
51.60936 172.000
51.62931 159.000
51.64926 203.000
51.66920 186.000
51.68915 153.000
51.70910 153.000
51.72904 157.000
51.74899 165.000
51.76894 155.000
51.78888 177.000
51.80883 169.000
51.82878 180.000
51.84873 156.000
51.86867 152.000
51.88862 155.000
51.90857 157.000
51.92851 171.000
51.94846 180.000
51.96841 159.000
51.98835 152.000
52.00830 174.000
52.02825 166.000
52.04820 176.000
52.06814 150.000
52.08809 176.000
52.10804 154.000
52.12798 162.000
52.14793 172.000
52.16788 183.000
52.18782 165.000
52.20777 162.000
52.22772 185.000
52.24767 184.000
52.26761 182.000
52.28756 179.000
52.30751 184.000
52.32745 185.000
52.34740 180.000
52.36735 178.000
52.38729 182.000
52.40724 134.000
52.42719 170.000
52.44713 159.000
52.46708 171.000
52.48703 176.000
52.50698 177.000
52.52692 173.000
52.54687 163.000
52.56682 163.000
52.58676 173.000
52.60671 149.000
52.62666 169.000
52.64660 169.000
52.66655 166.000
52.68650 161.000
52.70645 180.000
52.72639 173.000
52.74634 151.000
52.76629 169.000
52.78623 169.000
52.80618 174.000
52.82613 164.000
52.84607 188.000
52.86602 158.000
52.88597 185.000
52.90591 189.000
52.92586 196.000
52.94581 189.000
52.96576 182.000
52.98570 221.000
53.00565 198.000
53.02560 202.000
53.04554 204.000
53.06549 229.000
53.08544 254.000
53.10538 245.000
53.12533 230.000
53.14528 271.000
53.16523 237.000
53.18517 231.000
53.20512 236.000
53.22507 245.000
53.24501 239.000
53.26496 194.000
53.28491 244.000
53.30485 196.000
53.32480 225.000
53.34475 210.000
53.36469 174.000
53.38464 197.000
53.40459 173.000
53.42454 164.000
53.44448 174.000
53.46443 157.000
53.48438 184.000
53.50432 194.000
53.52427 174.000
53.54422 200.000
53.56416 159.000
53.58411 207.000
53.60406 181.000
53.62401 187.000
53.64395 188.000
53.66390 199.000
53.68385 210.000
53.70379 181.000
53.72374 203.000
53.74369 239.000
53.76363 221.000
53.78358 257.000
53.80353 291.000
53.82348 308.000
53.84342 312.000
53.86337 271.000
53.88332 274.000
53.90326 270.000
53.92321 259.000
53.94316 220.000
53.96310 273.000
53.98305 211.000
54.00300 246.000
54.02294 209.000
54.04289 213.000
54.06284 201.000
54.08279 190.000
54.10273 170.000
54.12268 180.000
54.14263 192.000
54.16257 177.000
54.18252 186.000
54.20247 183.000
54.22241 176.000
54.24236 163.000
54.26231 169.000
54.28226 190.000
54.30220 175.000
54.32215 173.000
54.34210 147.000
54.36204 177.000
54.38199 150.000
54.40194 174.000
54.42188 186.000
54.44183 171.000
54.46178 170.000
54.48172 164.000
54.50167 165.000
54.52162 160.000
54.54157 167.000
54.56151 183.000
54.58146 192.000
54.60141 199.000
54.62135 155.000
54.64130 186.000
54.66125 174.000
54.68119 158.000
54.70114 168.000
54.72109 174.000
54.74104 157.000
54.76098 166.000
54.78093 173.000
54.80088 162.000
54.82082 153.000
54.84077 164.000
54.86072 164.000
54.88066 176.000
54.90061 170.000
54.92056 173.000
54.94050 186.000
54.96045 169.000
54.98040 175.000
55.00035 155.000
55.02029 154.000
55.04024 165.000
55.06019 175.000
55.08013 149.000
55.10008 153.000
55.12003 167.000
55.13997 159.000
55.15992 162.000
55.17987 159.000
55.19982 145.000
55.21976 179.000
55.23971 178.000
55.25966 171.000
55.27960 156.000
55.29955 159.000
55.31950 164.000
55.33944 172.000
55.35939 166.000
55.37934 160.000
55.39929 147.000
55.41923 159.000
55.43918 159.000
55.45913 173.000
55.47907 153.000
55.49902 173.000
55.51897 159.000
55.53891 164.000
55.55886 166.000
55.57881 192.000
55.59875 152.000
55.61870 185.000
55.63865 162.000
55.65860 164.000
55.67854 172.000
55.69849 158.000
55.71844 160.000
55.73838 146.000
55.75833 148.000
55.77828 138.000
55.79822 178.000
55.81817 168.000
55.83812 165.000
55.85807 152.000
55.87801 184.000
55.89796 146.000
55.91791 165.000
55.93785 147.000
55.95780 155.000
55.97775 164.000
55.99769 147.000
56.01764 164.000
56.03759 145.000
56.05753 167.000
56.07748 178.000
56.09743 153.000
56.11738 143.000
56.13732 162.000
56.15727 146.000
56.17722 164.000
56.19716 180.000
56.21711 168.000
56.23706 160.000
56.25700 167.000
56.27695 168.000
56.29690 153.000
56.31685 166.000
56.33679 177.000
56.35674 165.000
56.37669 168.000
56.39663 196.000
56.41658 195.000
56.43653 172.000
56.45647 164.000
56.47642 162.000
56.49637 159.000
56.51631 172.000
56.53626 187.000
56.55621 176.000
56.57616 159.000
56.59610 175.000
56.61605 166.000
56.63600 185.000
56.65594 173.000
56.67589 197.000
56.69584 181.000
56.71578 155.000
56.73573 152.000
56.75568 187.000
56.77563 185.000
56.79557 154.000
56.81552 197.000
56.83547 178.000
56.85541 197.000
56.87536 186.000
56.89531 182.000
56.91525 177.000
56.93520 195.000
56.95515 166.000
56.97510 197.000
56.99504 217.000
57.01499 190.000
57.03494 214.000
57.05488 207.000
57.07483 207.000
57.09478 202.000
57.11472 211.000
57.13467 218.000
57.15462 198.000
57.17456 232.000
57.19451 240.000
57.21446 226.000
57.23441 292.000
57.25435 289.000
57.27430 319.000
57.29425 340.000
57.31419 367.000
57.33414 436.000
57.35409 522.000
57.37403 605.000
57.39398 588.000
57.41393 593.000
57.43388 505.000
57.45382 514.000
57.47377 487.000
57.49372 467.000
57.51366 444.000
57.53361 480.000
57.55356 446.000
57.57350 448.000
57.59345 379.000
57.61340 347.000
57.63334 307.000
57.65329 309.000
57.67324 269.000
57.69319 245.000
57.71313 262.000
57.73308 293.000
57.75303 291.000
57.77297 288.000
57.79292 306.000
57.81287 271.000
57.83281 334.000
57.85276 375.000
57.87271 297.000
57.89266 305.000
57.91260 292.000
57.93255 290.000
57.95250 265.000
57.97244 266.000
57.99239 239.000
58.01234 258.000
58.03228 229.000
58.05223 231.000
58.07218 209.000
58.09212 205.000
58.11207 200.000
58.13202 189.000
58.15197 193.000
58.17191 188.000
58.19186 153.000
58.21181 180.000
58.23175 188.000
58.25170 187.000
58.27165 153.000
58.29159 188.000
58.31154 166.000
58.33149 180.000
58.35144 178.000
58.37138 168.000
58.39133 153.000
58.41128 171.000
58.43122 200.000
58.45117 176.000
58.47112 178.000
58.49106 142.000
58.51101 192.000
58.53096 166.000
58.55090 156.000
58.57085 155.000
58.59080 160.000
58.61075 168.000
58.63069 159.000
58.65064 189.000
58.67059 147.000
58.69053 166.000
58.71048 163.000
58.73043 164.000
58.75037 186.000
58.77032 171.000
58.79027 183.000
58.81022 170.000
58.83016 171.000
58.85011 177.000
58.87006 162.000
58.89000 168.000
58.90995 179.000
58.92990 168.000
58.94984 165.000
58.96979 174.000
58.98974 179.000
59.00969 175.000
59.02963 171.000
59.04958 154.000
59.06953 181.000
59.08947 169.000
59.10942 166.000
59.12937 171.000
59.14931 165.000
59.16926 204.000
59.18921 172.000
59.20915 168.000
59.22910 207.000
59.24905 161.000
59.26900 154.000
59.28894 167.000
59.30889 186.000
59.32884 157.000
59.34878 185.000
59.36873 167.000
59.38868 180.000
59.40862 167.000
59.42857 189.000
59.44852 192.000
59.46847 167.000
59.48841 167.000
59.50836 184.000
59.52831 164.000
59.54825 187.000
59.56820 192.000
59.58815 196.000
59.60809 184.000
59.62804 170.000
59.64799 220.000
59.66793 221.000
59.68788 211.000
59.70783 207.000
59.72778 219.000
59.74772 227.000
59.76767 207.000
59.78762 230.000
59.80756 219.000
59.82751 210.000
59.84746 230.000
59.86740 206.000
59.88735 202.000
59.90730 205.000
59.92725 189.000
59.94719 206.000
59.96714 170.000
59.98709 193.000
60.00703 193.000
60.02698 161.000
60.04693 185.000
60.06687 196.000
60.08682 169.000
60.10677 162.000
60.12671 173.000
60.14666 163.000
60.16661 178.000
60.18656 167.000
60.20650 149.000
60.22645 184.000
60.24640 173.000
60.26634 174.000
60.28629 195.000
60.30624 161.000
60.32618 158.000
60.34613 188.000
60.36608 193.000
60.38603 186.000
60.40597 176.000
60.42592 145.000
60.44587 167.000
60.46581 206.000
60.48576 159.000
60.50571 157.000
60.52565 194.000
60.54560 171.000
60.56555 192.000
60.58550 172.000
60.60544 174.000
60.62539 168.000
60.64534 154.000
60.66528 158.000
60.68523 173.000
60.70518 180.000
60.72512 204.000
60.74507 176.000
60.76502 200.000
60.78496 183.000
60.80491 143.000
60.82486 170.000
60.84481 170.000
60.86475 192.000
60.88470 173.000
60.90465 165.000
60.92459 179.000
60.94454 186.000
60.96449 164.000
60.98443 183.000
61.00438 184.000
61.02433 169.000
61.04428 185.000
61.06422 173.000
61.08417 180.000
61.10412 187.000
61.12406 182.000
61.14401 183.000
61.16396 182.000
61.18390 189.000
61.20385 194.000
61.22380 178.000
61.24374 194.000
61.26369 202.000
61.28364 177.000
61.30359 202.000
61.32353 199.000
61.34348 208.000
61.36343 191.000
61.38337 200.000
61.40332 205.000
61.42327 192.000
61.44321 238.000
61.46316 235.000
61.48311 224.000
61.50306 208.000
61.52300 193.000
61.54295 231.000
61.56290 217.000
61.58284 237.000
61.60279 255.000
61.62274 253.000
61.64268 259.000
61.66263 253.000
61.68258 276.000
61.70252 296.000
61.72247 294.000
61.74242 296.000
61.76237 295.000
61.78231 286.000
61.80226 262.000
61.82221 277.000
61.84215 269.000
61.86210 310.000
61.88205 298.000
61.90199 304.000
61.92194 283.000
61.94189 249.000
61.96184 299.000
61.98178 283.000
62.00173 300.000
62.02168 305.000
62.04162 303.000
62.06157 324.000
62.08152 317.000
62.10146 348.000
62.12141 313.000
62.14136 326.000
62.16131 353.000
62.18125 357.000
62.20120 305.000
62.22115 405.000
62.24109 387.000
62.26104 387.000
62.28099 411.000
62.30093 409.000
62.32088 406.000
62.34083 413.000
62.36077 498.000
62.38072 501.000
62.40067 510.000
62.42062 530.000
62.44056 514.000
62.46051 552.000
62.48046 517.000
62.50040 518.000
62.52035 598.000
62.54030 618.000
62.56024 618.000
62.58019 540.000
62.60014 600.000
62.62009 576.000
62.64003 584.000
62.65998 592.000
62.67993 579.000
62.69987 604.000
62.71982 605.000
62.73977 582.000
62.75971 581.000
62.77966 539.000
62.79961 550.000
62.81955 521.000
62.83950 529.000
62.85945 512.000
62.87940 502.000
62.89934 516.000
62.91929 525.000
62.93924 566.000
62.95918 628.000
62.97913 719.000
62.99908 760.000
63.01902 777.000
63.03897 813.000
63.05892 770.000
63.07887 674.000
63.09881 646.000
63.11876 525.000
63.13871 537.000
63.15865 552.000
63.17860 512.000
63.19855 547.000
63.21849 547.000
63.23844 502.000
63.25839 448.000
63.27833 372.000
63.29828 316.000
63.31823 285.000
63.33818 301.000
63.35812 231.000
63.37807 227.000
63.39802 231.000
63.41796 227.000
63.43791 216.000
63.45786 217.000
63.47780 195.000
63.49775 226.000
63.51770 198.000
63.53765 203.000
63.55759 210.000
63.57754 204.000
63.59749 183.000
63.61743 210.000
63.63738 187.000
63.65733 181.000
63.67727 190.000
63.69722 197.000
63.71717 186.000
63.73712 161.000
63.75706 174.000
63.77701 179.000
63.79696 194.000
63.81690 166.000
63.83685 167.000
63.85680 183.000
63.87674 177.000
63.89669 180.000
63.91664 170.000
63.93658 177.000
63.95653 191.000
63.97648 179.000
63.99643 156.000
64.01637 168.000
64.03632 178.000
64.05627 186.000
64.07621 173.000
64.09616 191.000
64.11611 183.000
64.13605 171.000
64.15600 183.000
64.17595 198.000
64.19590 176.000
64.21584 174.000
64.23579 198.000
64.25574 156.000
64.27568 199.000
64.29563 196.000
64.31558 172.000
64.33552 184.000
64.35547 183.000
64.37542 197.000
64.39536 140.000
64.41531 175.000
64.43526 159.000
64.45521 167.000
64.47515 165.000
64.49510 168.000
64.51505 182.000
64.53499 197.000
64.55494 204.000
64.57489 186.000
64.59483 181.000
64.61478 182.000
64.63473 197.000
64.65468 182.000
64.67462 180.000
64.69457 187.000
64.71452 214.000
64.73446 174.000
64.75441 150.000
64.77436 172.000
64.79430 170.000
64.81425 176.000
64.83420 176.000
64.85414 193.000
64.87409 171.000
64.89404 197.000
64.91399 186.000
64.93393 192.000
64.95388 174.000
64.97383 209.000
64.99377 179.000
65.01372 224.000
65.03367 202.000
65.05361 192.000
65.07356 210.000
65.09351 198.000
65.11346 191.000
65.13340 192.000
65.15335 183.000
65.17330 215.000
65.19324 178.000
65.21319 182.000
65.23314 183.000
65.25308 213.000
65.27303 198.000
65.29298 197.000
65.31293 172.000
65.33287 194.000
65.35282 184.000
65.37277 170.000
65.39271 187.000
65.41266 166.000
65.43261 164.000
65.45255 159.000
65.47250 172.000
65.49245 190.000
65.51239 188.000
65.53234 178.000
65.55229 130.000
65.57224 193.000
65.59218 169.000
65.61213 190.000
65.63208 189.000
65.65202 175.000
65.67197 181.000
65.69192 203.000
65.71186 202.000
65.73181 184.000
65.75176 153.000
65.77171 177.000
65.79165 179.000
65.81160 175.000
65.83155 194.000
65.85149 192.000
65.87144 185.000
65.89139 189.000
65.91133 173.000
65.93128 161.000
65.95123 186.000
65.97117 182.000
65.99112 197.000
66.01107 172.000
66.03102 173.000
66.05096 169.000
66.07091 178.000
66.09086 155.000
66.11080 166.000
66.13075 170.000
66.15070 177.000
66.17064 193.000
66.19059 180.000
66.21054 173.000
66.23049 176.000
66.25043 183.000
66.27038 178.000
66.29033 178.000
66.31027 178.000
66.33022 190.000
66.35017 160.000
66.37011 184.000
66.39006 171.000
66.41001 148.000
66.42995 186.000
66.44990 169.000
66.46985 174.000
66.48980 152.000
66.50974 172.000
66.52969 185.000
66.54964 168.000
66.56958 185.000
66.58953 186.000
66.60948 159.000
66.62942 198.000
66.64937 182.000
66.66932 187.000
66.68927 191.000
66.70921 172.000
66.72916 197.000
66.74911 182.000
66.76905 170.000
66.78900 174.000
66.80895 188.000
66.82889 165.000
66.84884 165.000
66.86879 159.000
66.88874 175.000
66.90868 145.000
66.92863 175.000
66.94858 159.000
66.96852 134.000
66.98847 145.000
67.00842 155.000
67.02836 182.000
67.04831 157.000
67.06826 164.000
67.08820 156.000
67.10815 175.000
67.12810 159.000
67.14805 158.000
67.16799 164.000
67.18794 173.000
67.20789 191.000
67.22783 155.000
67.24778 157.000
67.26773 158.000
67.28767 156.000
67.30762 178.000
67.32757 160.000
67.34752 185.000
67.36746 182.000
67.38741 144.000
67.40736 155.000
67.42730 171.000
67.44725 185.000
67.46720 145.000
67.48714 178.000
67.50709 165.000
67.52704 163.000
67.54698 147.000
67.56693 176.000
67.58688 180.000
67.60683 176.000
67.62677 156.000
67.64672 155.000
67.66667 181.000
67.68661 169.000
67.70656 159.000
67.72651 140.000
67.74645 175.000
67.76640 181.000
67.78635 178.000
67.80630 166.000
67.82624 167.000
67.84619 175.000
67.86614 184.000
67.88608 159.000
67.90603 167.000
67.92598 153.000
67.94592 152.000
67.96587 184.000
67.98582 183.000
68.00576 193.000
68.02571 185.000
68.04566 167.000
68.06561 182.000
68.08555 183.000
68.10550 186.000
68.12545 181.000
68.14539 182.000
68.16534 204.000
68.18529 196.000
68.20523 193.000
68.22518 212.000
68.24513 197.000
68.26508 198.000
68.28502 202.000
68.30497 179.000
68.32492 210.000
68.34486 199.000
68.36481 173.000
68.38476 207.000
68.40470 190.000
68.42465 170.000
68.44460 189.000
68.46455 190.000
68.48449 179.000
68.50444 166.000
68.52439 171.000
68.54433 190.000
68.56428 183.000
68.58423 199.000
68.60417 159.000
68.62412 165.000
68.64407 147.000
68.66401 153.000
68.68396 159.000
68.70391 149.000
68.72386 159.000
68.74380 189.000
68.76375 167.000
68.78370 158.000
68.80364 147.000
68.82359 163.000
68.84354 175.000
68.86348 155.000
68.88343 181.000
68.90338 173.000
68.92333 167.000
68.94327 176.000
68.96322 153.000
68.98317 150.000
69.00311 166.000
69.02306 155.000
69.04301 133.000
69.06295 157.000
69.08290 138.000
69.10285 168.000
69.12279 172.000
69.14274 159.000
69.16269 148.000
69.18264 158.000
69.20258 140.000
69.22253 149.000
69.24248 184.000
69.26242 170.000
69.28237 163.000
69.30232 162.000
69.32226 162.000
69.34221 172.000
69.36216 190.000
69.38211 168.000
69.40205 161.000
69.42200 161.000
69.44195 179.000
69.46189 145.000
69.48184 181.000
69.50179 161.000
69.52173 181.000
69.54168 149.000
69.56163 159.000
69.58157 168.000
69.60152 160.000
69.62147 164.000
69.64142 166.000
69.66136 152.000
69.68131 179.000
69.70126 158.000
69.72120 168.000
69.74115 171.000
69.76110 176.000
69.78104 153.000
69.80099 171.000
69.82094 163.000
69.84089 182.000
69.86083 160.000
69.88078 169.000
69.90073 132.000
69.92067 169.000
69.94062 166.000
69.96057 186.000
69.98051 144.000
70.00046 143.000
70.02041 141.000
70.04035 144.000
70.06030 149.000
70.08025 159.000
70.10020 168.000
70.12014 167.000
70.14009 160.000
70.16004 169.000
70.17998 159.000
70.19993 143.000
70.21988 162.000
70.23982 151.000
70.25977 158.000
70.27972 168.000
70.29967 141.000
70.31961 158.000
70.33956 146.000
70.35951 155.000
70.37945 187.000
70.39940 156.000
70.41935 158.000
70.43929 170.000
70.45924 137.000
70.47919 151.000
70.49914 156.000
70.51908 146.000
70.53903 150.000
70.55898 160.000
70.57892 143.000
70.59887 170.000
70.61882 153.000
70.63876 144.000
70.65871 160.000
70.67866 155.000
70.69860 169.000
70.71855 136.000
70.73850 153.000
70.75845 169.000
70.77839 165.000
70.79834 168.000
70.81829 147.000
70.83823 163.000
70.85818 168.000
70.87813 182.000
70.89807 154.000
70.91802 168.000
70.93797 166.000
70.95792 156.000
70.97786 172.000
70.99781 134.000
71.01776 186.000
71.03770 170.000
71.05765 162.000
71.07760 171.000
71.09754 193.000
71.11749 182.000
71.13744 162.000
71.15738 179.000
71.17733 177.000
71.19728 152.000
71.21723 134.000
71.23717 168.000
71.25712 182.000
71.27707 166.000
71.29701 169.000
71.31696 154.000
71.33691 175.000
71.35685 177.000
71.37680 168.000
71.39675 150.000
71.41670 175.000
71.43664 173.000
71.45659 223.000
71.47654 215.000
71.49648 197.000
71.51643 202.000
71.53638 193.000
71.55632 185.000
71.57627 198.000
71.59622 174.000
71.61616 191.000
71.63611 187.000
71.65606 216.000
71.67601 218.000
71.69595 188.000
71.71590 199.000
71.73585 192.000
71.75579 190.000
71.77574 190.000
71.79569 197.000
71.81563 172.000
71.83558 156.000
71.85553 175.000
71.87548 171.000
71.89542 150.000
71.91537 192.000
71.93532 173.000
71.95526 181.000
71.97521 156.000
71.99516 163.000
72.01510 156.000
72.03505 168.000
72.05500 180.000
72.07495 176.000
72.09489 161.000
72.11484 185.000
72.13479 170.000
72.15473 172.000
72.17468 163.000
72.19463 185.000
72.21457 143.000
72.23452 181.000
72.25447 163.000
72.27441 164.000
72.29436 179.000
72.31431 180.000
72.33426 201.000
72.35420 169.000
72.37415 155.000
72.39410 197.000
72.41404 183.000
72.43399 192.000
72.45394 178.000
72.47388 205.000
72.49383 197.000
72.51378 194.000
72.53373 203.000
72.55367 199.000
72.57362 200.000
72.59357 208.000
72.61351 199.000
72.63346 194.000
72.65341 201.000
72.67335 192.000
72.69330 192.000
72.71325 179.000
72.73319 199.000
72.75314 178.000
72.77309 197.000
72.79304 189.000
72.81298 184.000
72.83293 196.000
72.85288 185.000
72.87282 188.000
72.89277 220.000
72.91272 216.000
72.93266 198.000
72.95261 174.000
72.97256 189.000
72.99251 172.000
73.01245 202.000
73.03240 182.000
73.05235 151.000
73.07229 203.000
73.09224 165.000
73.11219 193.000
73.13213 180.000
73.15208 191.000
73.17203 180.000
73.19197 185.000
73.21192 162.000
73.23187 190.000
73.25182 185.000
73.27176 173.000
73.29171 171.000
73.31166 169.000
73.33160 179.000
73.35155 178.000
73.37150 167.000
73.39144 150.000
73.41139 175.000
73.43134 146.000
73.45129 198.000
73.47123 158.000
73.49118 177.000
73.51113 166.000
73.53107 171.000
73.55102 183.000
73.57097 204.000
73.59091 162.000
73.61086 165.000
73.63081 158.000
73.65076 163.000
73.67070 201.000
73.69065 212.000
73.71060 196.000
73.73054 187.000
73.75049 191.000
73.77044 204.000
73.79038 184.000
73.81033 198.000
73.83028 197.000
73.85022 207.000
73.87017 190.000
73.89012 188.000
73.91007 196.000
73.93001 223.000
73.94996 210.000
73.96991 185.000
73.98985 188.000
74.00980 196.000
74.02975 191.000
74.04969 217.000
74.06964 196.000
74.08959 203.000
74.10954 204.000
74.12948 182.000
74.14943 193.000
74.16938 184.000
74.18932 211.000
74.20927 196.000
74.22922 190.000
74.24916 194.000
74.26911 205.000
74.28906 209.000
74.30900 209.000
74.32895 194.000
74.34890 178.000
74.36885 203.000
74.38879 209.000
74.40874 209.000
74.42869 202.000
74.44863 230.000
74.46858 207.000
74.48853 253.000
74.50847 270.000
74.52842 259.000
74.54837 297.000
74.56832 306.000
74.58826 289.000
74.60821 304.000
74.62816 301.000
74.64810 268.000
74.66805 275.000
74.68800 254.000
74.70794 270.000
74.72789 269.000
74.74784 289.000
74.76778 272.000
74.78773 278.000
74.80768 290.000
74.82763 309.000
74.84757 293.000
74.86752 286.000
74.88747 287.000
74.90741 286.000
74.92736 290.000
74.94731 229.000
74.96725 278.000
74.98720 288.000
75.00715 236.000
75.02710 249.000
75.04704 288.000
75.06699 264.000
75.08694 254.000
75.10688 277.000
75.12683 264.000
75.14678 269.000
75.16672 258.000
75.18667 306.000
75.20662 253.000
75.22657 277.000
75.24651 266.000
75.26646 241.000
75.28641 276.000
75.30635 238.000
75.32630 274.000
75.34625 222.000
75.36619 246.000
75.38614 221.000
75.40609 235.000
75.42603 219.000
75.44598 238.000
75.46593 237.000
75.48588 216.000
75.50582 216.000
75.52577 225.000
75.54572 226.000
75.56566 205.000
75.58561 252.000
75.60556 216.000
75.62550 208.000
75.64545 225.000
75.66540 203.000
75.68535 204.000
75.70529 220.000
75.72524 182.000
75.74519 209.000
75.76513 203.000
75.78508 216.000
75.80503 191.000
75.82497 189.000
75.84492 188.000
75.86487 200.000
75.88481 175.000
75.90476 183.000
75.92471 162.000
75.94466 178.000
75.96460 183.000
75.98455 171.000
76.00450 170.000
76.02444 157.000
76.04439 140.000
76.06434 184.000
76.08428 170.000
76.10423 180.000
76.12418 178.000
76.14413 175.000
76.16407 147.000
76.18402 187.000
76.20397 147.000
76.22391 147.000
76.24386 182.000
76.26381 179.000
76.28375 150.000
76.30370 162.000
76.32365 157.000
76.34359 176.000
76.36354 163.000
76.38349 155.000
76.40344 139.000
76.42338 164.000
76.44333 168.000
76.46328 179.000
76.48322 156.000
76.50317 152.000
76.52312 174.000
76.54306 155.000
76.56301 162.000
76.58296 148.000
76.60291 143.000
76.62285 169.000
76.64280 151.000
76.66275 157.000
76.68269 147.000
76.70264 150.000
76.72259 160.000
76.74253 153.000
76.76248 163.000
76.78243 180.000
76.80238 167.000
76.82232 175.000
76.84227 164.000
76.86222 165.000
76.88216 132.000
76.90211 165.000
76.92206 152.000
76.94200 179.000
76.96195 161.000
76.98190 167.000
77.00184 158.000
77.02179 177.000
77.04174 146.000
77.06169 160.000
77.08163 149.000
77.10158 182.000
77.12153 177.000
77.14147 167.000
77.16142 153.000
77.18137 168.000
77.20131 167.000
77.22126 170.000
77.24121 178.000
77.26116 165.000
77.28110 195.000
77.30105 172.000
77.32100 179.000
77.34094 182.000
77.36089 185.000
77.38084 215.000
77.40078 197.000
77.42073 185.000
77.44068 195.000
77.46062 192.000
77.48057 182.000
77.50052 174.000
77.52047 187.000
77.54041 188.000
77.56036 180.000
77.58031 200.000
77.60025 190.000
77.62020 204.000
77.64015 188.000
77.66009 222.000
77.68004 192.000
77.69999 193.000
77.71994 189.000
77.73988 212.000
77.75983 196.000
77.77978 205.000
77.79972 183.000
77.81967 174.000
77.83962 176.000
77.85956 182.000
77.87951 195.000
77.89946 179.000
77.91940 206.000
77.93935 184.000
77.95930 176.000
77.97925 194.000
77.99919 195.000
78.01914 196.000
78.03909 175.000
78.05903 190.000
78.07898 191.000
78.09893 173.000
78.11887 165.000
78.13882 180.000
78.15877 193.000
78.17872 185.000
78.19866 164.000
78.21861 186.000
78.23856 163.000
78.25850 186.000
78.27845 196.000
78.29840 147.000
78.31834 186.000
78.33829 174.000
78.35824 177.000
78.37819 192.000
78.39813 169.000
78.41808 184.000
78.43803 191.000
78.45797 183.000
78.47792 167.000
78.49787 185.000
78.51781 189.000
78.53776 185.000
78.55771 209.000
78.57765 186.000
78.59760 192.000
78.61755 193.000
78.63750 225.000
78.65744 201.000
78.67739 177.000
78.69734 199.000
78.71728 197.000
78.73723 223.000
78.75718 197.000
78.77712 211.000
78.79707 259.000
78.81702 225.000
78.83697 230.000
78.85691 232.000
78.87686 216.000
78.89681 209.000
78.91675 193.000
78.93670 221.000
78.95665 234.000
78.97659 223.000
78.99654 235.000
79.01649 224.000
79.03643 244.000
79.05638 224.000
79.07633 239.000
79.09628 267.000
79.11622 222.000
79.13617 205.000
79.15612 212.000
79.17606 251.000
79.19601 235.000
79.21596 226.000
79.23590 214.000
79.25585 213.000
79.27580 209.000
79.29575 216.000
79.31569 229.000
79.33564 195.000
79.35559 211.000
79.37553 213.000
79.39548 177.000
79.41543 204.000
79.43537 203.000
79.45532 204.000
79.47527 190.000
79.49521 200.000
79.51516 216.000
79.53511 201.000
79.55506 189.000
79.57500 216.000
79.59495 185.000
79.61490 194.000
79.63484 189.000
79.65479 178.000
79.67474 193.000
79.69468 182.000
79.71463 173.000
79.73458 171.000
79.75453 181.000
79.77447 197.000
79.79442 170.000
79.81437 179.000
79.83431 160.000
79.85426 191.000
79.87421 169.000
79.89415 137.000
79.91410 162.000
79.93405 196.000
79.95399 169.000
79.97394 157.000
79.99389 174.000
80.01384 164.000
80.03378 165.000
80.05373 150.000
80.07368 140.000
80.09362 137.000
80.11357 154.000
80.13352 161.000
80.15346 156.000
80.17341 176.000
80.19336 177.000
80.21331 157.000
80.23325 167.000
80.25320 187.000
80.27315 168.000
80.29309 166.000
80.31304 176.000
80.33299 169.000
80.35293 162.000
80.37288 160.000
80.39283 156.000
80.41278 144.000
80.43272 169.000
80.45267 170.000
80.47262 161.000
80.49256 146.000
80.51251 146.000
80.53246 172.000
80.55240 159.000
80.57235 174.000
80.59230 151.000
80.61224 151.000
80.63219 165.000
80.65214 139.000
80.67209 159.000
80.69203 136.000
80.71198 140.000
80.73193 169.000
80.75187 164.000
80.77182 162.000
80.79177 152.000
80.81171 167.000
80.83166 172.000
80.85161 151.000
80.87156 177.000
80.89150 161.000
80.91145 166.000
80.93140 148.000
80.95134 144.000
80.97129 129.000
80.99124 156.000
81.01118 159.000
81.03113 153.000
81.05108 177.000
81.07102 154.000
81.09097 160.000
81.11092 164.000
81.13087 155.000
81.15081 137.000
81.17076 154.000
81.19071 145.000
81.21065 185.000
81.23060 143.000
81.25055 163.000
81.27049 161.000
81.29044 166.000
81.31039 162.000
81.33034 147.000
81.35028 165.000
81.37023 150.000
81.39018 135.000
81.41012 168.000
81.43007 158.000
81.45002 127.000
81.46996 167.000
81.48991 167.000
81.50986 157.000
81.52980 164.000
81.54975 154.000
81.56970 163.000
81.58965 165.000
81.60959 145.000
81.62954 170.000
81.64949 155.000
81.66943 154.000
81.68938 151.000
81.70933 139.000
81.72927 181.000
81.74922 141.000
81.76917 146.000
81.78912 131.000
81.80906 162.000
81.82901 146.000
81.84896 142.000
81.86890 178.000
81.88885 143.000
81.90880 151.000
81.92874 135.000
81.94869 153.000
81.96864 187.000
81.98859 147.000
82.00853 154.000
82.02848 144.000
82.04843 134.000
82.06837 157.000
82.08832 165.000
82.10827 175.000
82.12821 142.000
82.14816 137.000
82.16811 143.000
82.18805 159.000
82.20800 150.000
82.22795 119.000
82.24790 144.000
82.26784 157.000
82.28779 144.000
82.30774 185.000
82.32768 148.000
82.34763 153.000
82.36758 139.000
82.38752 163.000
82.40747 174.000
82.42742 164.000
82.44737 166.000
82.46731 171.000
82.48726 169.000
82.50721 160.000
82.52715 147.000
82.54710 180.000
82.56705 137.000
82.58699 170.000
82.60694 166.000
82.62689 165.000
82.64683 153.000
82.66678 141.000
82.68673 169.000
82.70668 174.000
82.72662 167.000
82.74657 182.000
82.76652 160.000
82.78646 165.000
82.80641 178.000
82.82636 151.000
82.84630 153.000
82.86625 162.000
82.88620 162.000
82.90615 160.000
82.92609 159.000
82.94604 158.000
82.96599 144.000
82.98593 160.000
83.00588 156.000
83.02583 156.000
83.04577 149.000
83.06572 162.000
83.08567 130.000
83.10561 136.000
83.12556 160.000
83.14551 174.000
83.16546 158.000
83.18540 153.000
83.20535 156.000
83.22530 159.000
83.24524 179.000
83.26519 155.000
83.28514 157.000
83.30508 137.000
83.32503 184.000
83.34498 143.000
83.36493 151.000
83.38487 165.000
83.40482 154.000
83.42477 159.000
83.44471 143.000
83.46466 168.000
83.48461 156.000
83.50455 155.000
83.52450 178.000
83.54445 135.000
83.56440 161.000
83.58434 161.000
83.60429 142.000
83.62424 165.000
83.64418 156.000
83.66413 149.000
83.68408 173.000
83.70402 163.000
83.72397 157.000
83.74392 156.000
83.76386 153.000
83.78381 171.000
83.80376 142.000
83.82371 134.000
83.84365 160.000
83.86360 153.000
83.88355 145.000
83.90349 165.000
83.92344 149.000
83.94339 152.000
83.96333 146.000
83.98328 162.000
84.00323 158.000
84.02318 123.000
84.04312 173.000
84.06307 136.000
84.08302 161.000
84.10296 169.000
84.12291 149.000
84.14286 146.000
84.16280 145.000
84.18275 154.000
84.20270 152.000
84.22264 162.000
84.24259 138.000
84.26254 168.000
84.28249 157.000
84.30243 136.000
84.32238 156.000
84.34233 151.000
84.36227 175.000
84.38222 174.000
84.40217 159.000
84.42211 170.000
84.44206 150.000
84.46201 148.000
84.48196 145.000
84.50190 155.000
84.52185 138.000
84.54180 171.000
84.56174 158.000
84.58169 169.000
84.60164 175.000
84.62158 167.000
84.64153 155.000
84.66148 181.000
84.68142 182.000
84.70137 153.000
84.72132 145.000
84.74127 176.000
84.76121 157.000
84.78116 135.000
84.80111 155.000
84.82105 166.000
84.84100 159.000
84.86095 163.000
84.88089 156.000
84.90084 157.000
84.92079 163.000
84.94074 141.000
84.96068 141.000
84.98063 158.000
85.00058 154.000
85.02052 151.000
85.04047 169.000
85.06042 141.000
85.08036 152.000
85.10031 157.000
85.12026 148.000
85.14021 156.000
85.16015 164.000
85.18010 167.000
85.20005 135.000
85.21999 180.000
85.23994 136.000
85.25989 127.000
85.27983 133.000
85.29978 152.000
85.31973 154.000
85.33967 170.000
85.35962 159.000
85.37957 165.000
85.39952 170.000
85.41946 145.000
85.43941 155.000
85.45936 148.000
85.47930 162.000
85.49925 155.000
85.51920 171.000
85.53914 154.000
85.55909 143.000
85.57904 148.000
85.59899 148.000
85.61893 162.000
85.63888 160.000
85.65883 161.000
85.67877 146.000
85.69872 164.000
85.71867 122.000
85.73861 181.000
85.75856 168.000
85.77851 151.000
85.79845 137.000
85.81840 153.000
85.83835 145.000
85.85830 161.000
85.87824 162.000
85.89819 160.000
85.91814 163.000
85.93808 168.000
85.95803 157.000
85.97798 144.000
85.99792 146.000
86.01787 141.000
86.03782 156.000
86.05777 172.000
86.07771 146.000
86.09766 141.000
86.11761 149.000
86.13755 145.000
86.15750 142.000
86.17745 150.000
86.19739 180.000
86.21734 157.000
86.23729 145.000
86.25723 168.000
86.27718 181.000
86.29713 182.000
86.31708 163.000
86.33702 146.000
86.35697 133.000
86.37692 171.000
86.39686 157.000
86.41681 158.000
86.43676 166.000
86.45670 182.000
86.47665 146.000
86.49660 150.000
86.51655 155.000
86.53649 149.000
86.55644 155.000
86.57639 157.000
86.59633 191.000
86.61628 154.000
86.63623 140.000
86.65617 146.000
86.67612 181.000
86.69607 156.000
86.71602 150.000
86.73596 167.000
86.75591 171.000
86.77586 173.000
86.79580 154.000
86.81575 164.000
86.83570 167.000
86.85564 128.000
86.87559 167.000
86.89554 168.000
86.91548 176.000
86.93543 140.000
86.95538 187.000
86.97533 144.000
86.99527 150.000
87.01522 171.000
87.03517 171.000
87.05511 158.000
87.07506 156.000
87.09501 164.000
87.11495 157.000
87.13490 131.000
87.15485 157.000
87.17480 158.000
87.19474 170.000
87.21469 179.000
87.23464 161.000
87.25458 166.000
87.27453 153.000
87.29448 150.000
87.31442 162.000
87.33437 194.000
87.35432 171.000
87.37426 175.000
87.39421 190.000
87.41416 186.000
87.43411 203.000
87.45405 213.000
87.47400 214.000
87.49395 206.000
87.51389 196.000
87.53384 196.000
87.55379 184.000
87.57373 206.000
87.59368 175.000
87.61363 183.000
87.63358 190.000
87.65352 172.000
87.67347 192.000
87.69342 208.000
87.71336 173.000
87.73331 165.000
87.75326 166.000
87.77320 187.000
87.79315 157.000
87.81310 177.000
87.83304 181.000
87.85299 169.000
87.87294 179.000
87.89289 160.000
87.91283 155.000
87.93278 173.000
87.95273 163.000
87.97267 147.000
87.99262 162.000
88.01257 143.000
88.03251 159.000
88.05246 155.000
88.07241 165.000
88.09236 177.000
88.11230 159.000
88.13225 159.000
88.15220 145.000
88.17214 146.000
88.19209 156.000
88.21204 162.000
88.23198 137.000
88.25193 172.000
88.27188 153.000
88.29183 138.000
88.31177 129.000
88.33172 153.000
88.35167 153.000
88.37161 145.000
88.39156 139.000
88.41151 155.000
88.43145 156.000
88.45140 166.000
88.47135 171.000
88.49129 169.000
88.51124 153.000
88.53119 165.000
88.55114 167.000
88.57108 151.000
88.59103 151.000
88.61098 158.000
88.63092 157.000
88.65087 172.000
88.67082 147.000
88.69076 123.000
88.71071 150.000
88.73066 155.000
88.75061 133.000
88.77055 148.000
88.79050 160.000
88.81045 147.000
88.83039 152.000
88.85034 162.000
88.87029 143.000
88.89023 147.000
88.91018 179.000
88.93013 155.000
88.95007 156.000
88.97002 139.000
88.98997 150.000
89.00992 137.000
89.02986 144.000
89.04981 170.000
89.06976 158.000
89.08970 156.000
89.10965 167.000
89.12960 153.000
89.14954 144.000
89.16949 159.000
89.18944 151.000
89.20939 146.000
89.22933 140.000
89.24928 134.000
89.26923 166.000
89.28917 162.000
89.30912 143.000
89.32907 155.000
89.34901 144.000
89.36896 163.000
89.38891 156.000
89.40885 143.000
89.42880 157.000
89.44875 161.000
89.46870 154.000
89.48864 169.000
89.50859 150.000
89.52854 155.000
89.54848 135.000
89.56843 152.000
89.58838 165.000
89.60832 174.000
89.62827 153.000
89.64822 154.000
89.66817 150.000
89.68811 181.000
89.70806 155.000
89.72801 152.000
89.74795 163.000
89.76790 157.000
89.78785 167.000
89.80779 159.000
89.82774 174.000
89.84769 152.000
89.86764 160.000
89.88758 159.000
89.90753 148.000
89.92748 188.000
89.94742 183.000
89.96737 161.000
89.98732 188.000
90.00726 180.000
