10.00000 65.000
10.01995 59.000
10.03989 51.000
10.05984 58.000
10.07979 59.000
10.09973 71.000
10.11968 47.000
10.13963 50.000
10.15958 59.000
10.17952 64.000
10.19947 60.000
10.21942 63.000
10.23936 80.000
10.25931 61.000
10.27926 65.000
10.29920 57.000
10.31915 75.000
10.33910 63.000
10.35905 65.000
10.37899 57.000
10.39894 72.000
10.41889 47.000
10.43883 61.000
10.45878 50.000
10.47873 46.000
10.49867 58.000
10.51862 44.000
10.53857 56.000
10.55851 68.000
10.57846 77.000
10.59841 54.000
10.61836 61.000
10.63830 49.000
10.65825 74.000
10.67820 45.000
10.69814 45.000
10.71809 48.000
10.73804 62.000
10.75798 54.000
10.77793 70.000
10.79788 65.000
10.81783 47.000
10.83777 52.000
10.85772 62.000
10.87767 59.000
10.89761 66.000
10.91756 60.000
10.93751 57.000
10.95745 61.000
10.97740 56.000
10.99735 67.000
11.01730 64.000
11.03724 66.000
11.05719 62.000
11.07714 41.000
11.09708 54.000
11.11703 61.000
11.13698 57.000
11.15692 68.000
11.17687 49.000
11.19682 60.000
11.21676 55.000
11.23671 54.000
11.25666 53.000
11.27661 46.000
11.29655 49.000
11.31650 54.000
11.33645 63.000
11.35639 58.000
11.37634 62.000
11.39629 55.000
11.41623 49.000
11.43618 51.000
11.45613 55.000
11.47608 53.000
11.49602 65.000
11.51597 46.000
11.53592 68.000
11.55586 59.000
11.57581 56.000
11.59576 58.000
11.61570 60.000
11.63565 58.000
11.65560 51.000
11.67554 60.000
11.69549 56.000
11.71544 56.000
11.73539 46.000
11.75533 62.000
11.77528 56.000
11.79523 62.000
11.81517 58.000
11.83512 50.000
11.85507 44.000
11.87501 58.000
11.89496 57.000
11.91491 69.000
11.93486 65.000
11.95480 46.000
11.97475 55.000
11.99470 48.000
12.01464 71.000
12.03459 68.000
12.05454 59.000
12.07448 42.000
12.09443 45.000
12.11438 59.000
12.13432 39.000
12.15427 50.000
12.17422 64.000
12.19417 70.000
12.21411 59.000
12.23406 51.000
12.25401 57.000
12.27395 51.000
12.29390 59.000
12.31385 62.000
12.33379 59.000
12.35374 61.000
12.37369 63.000
12.39364 55.000
12.41358 57.000
12.43353 47.000
12.45348 57.000
12.47342 50.000
12.49337 64.000
12.51332 40.000
12.53326 58.000
12.55321 67.000
12.57316 51.000
12.59311 63.000
12.61305 56.000
12.63300 55.000
12.65295 47.000
12.67289 62.000
12.69284 56.000
12.71279 56.000
12.73273 49.000
12.75268 47.000
12.77263 52.000
12.79257 47.000
12.81252 54.000
12.83247 54.000
12.85242 59.000
12.87236 51.000
12.89231 62.000
12.91226 58.000
12.93220 61.000
12.95215 55.000
12.97210 63.000
12.99204 51.000
13.01199 63.000
13.03194 58.000
13.05189 57.000
13.07183 54.000
13.09178 65.000
13.11173 53.000
13.13167 62.000
13.15162 62.000
13.17157 58.000
13.19151 59.000
13.21146 53.000
13.23141 63.000
13.25135 58.000
13.27130 54.000
13.29125 52.000
13.31120 62.000
13.33114 57.000
13.35109 54.000
13.37104 41.000
13.39098 55.000
13.41093 65.000
13.43088 55.000
13.45082 39.000
13.47077 48.000
13.49072 39.000
13.51067 46.000
13.53061 44.000
13.55056 51.000
13.57051 70.000
13.59045 57.000
13.61040 56.000
13.63035 40.000
13.65029 54.000
13.67024 48.000
13.69019 70.000
13.71013 68.000
13.73008 58.000
13.75003 66.000
13.76998 52.000
13.78992 52.000
13.80987 64.000
13.82982 51.000
13.84976 56.000
13.86971 63.000
13.88966 51.000
13.90960 57.000
13.92955 66.000
13.94950 54.000
13.96945 56.000
13.98939 52.000
14.00934 49.000
14.02929 54.000
14.04923 63.000
14.06918 55.000
14.08913 61.000
14.10907 65.000
14.12902 56.000
14.14897 52.000
14.16892 51.000
14.18886 63.000
14.20881 40.000
14.22876 53.000
14.24870 64.000
14.26865 59.000
14.28860 65.000
14.30854 64.000
14.32849 49.000
14.34844 66.000
14.36838 63.000
14.38833 59.000
14.40828 44.000
14.42823 52.000
14.44817 57.000
14.46812 65.000
14.48807 57.000
14.50801 53.000
14.52796 52.000
14.54791 48.000
14.56785 60.000
14.58780 61.000
14.60775 68.000
14.62770 73.000
14.64764 67.000
14.66759 70.000
14.68754 64.000
14.70748 67.000
14.72743 65.000
14.74738 66.000
14.76732 47.000
14.78727 52.000
14.80722 68.000
14.82716 61.000
14.84711 68.000
14.86706 64.000
14.88701 73.000
14.90695 62.000
14.92690 76.000
14.94685 51.000
14.96679 62.000
14.98674 76.000
15.00669 59.000
15.02663 79.000
15.04658 81.000
15.06653 61.000
15.08648 61.000
15.10642 60.000
15.12637 57.000
15.14632 70.000
15.16626 74.000
15.18621 62.000
15.20616 72.000
15.22610 64.000
15.24605 75.000
15.26600 66.000
15.28594 74.000
15.30589 73.000
15.32584 86.000
15.34579 61.000
15.36573 92.000
15.38568 75.000
15.40563 89.000
15.42557 92.000
15.44552 92.000
15.46547 73.000
15.48541 91.000
15.50536 104.000
15.52531 98.000
15.54526 85.000
15.56520 116.000
15.58515 115.000
15.60510 175.000
15.62504 155.000
15.64499 204.000
15.66494 259.000
15.68488 289.000
15.70483 369.000
15.72478 396.000
15.74472 396.000
15.76467 462.000
15.78462 356.000
15.80457 337.000
15.82451 317.000
15.84446 252.000
15.86441 272.000
15.88435 293.000
15.90430 286.000
15.92425 345.000
15.94419 356.000
15.96414 402.000
15.98409 430.000
16.00404 547.000
16.02398 560.000
16.04393 569.000
16.06388 597.000
16.08382 626.000
16.10377 676.000
16.12372 748.000
16.14366 804.000
16.16361 836.000
16.18356 868.000
16.20351 855.000
16.22345 874.000
16.24340 795.000
16.26335 763.000
16.28329 719.000
16.30324 667.000
16.32319 690.000
16.34313 681.000
16.36308 710.000
16.38303 711.000
16.40297 707.000
16.42292 648.000
16.44287 556.000
16.46282 518.000
16.48276 451.000
16.50271 473.000
16.52266 364.000
16.54260 430.000
16.56255 341.000
16.58250 354.000
16.60244 315.000
16.62239 295.000
16.64234 279.000
16.66229 254.000
16.68223 254.000
16.70218 224.000
16.72213 240.000
16.74207 223.000
16.76202 203.000
16.78197 191.000
16.80191 187.000
16.82186 159.000
16.84181 153.000
16.86175 151.000
16.88170 149.000
16.90165 129.000
16.92160 133.000
16.94154 140.000
16.96149 115.000
16.98144 135.000
17.00138 141.000
17.02133 117.000
17.04128 108.000
17.06122 133.000
17.08117 102.000
17.10112 95.000
17.12107 79.000
17.14101 107.000
17.16096 104.000
17.18091 106.000
17.20085 89.000
17.22080 78.000
17.24075 78.000
17.26069 100.000
17.28064 72.000
17.30059 103.000
17.32053 79.000
17.34048 96.000
17.36043 77.000
17.38038 74.000
17.40032 80.000
17.42027 84.000
17.44022 82.000
17.46016 61.000
17.48011 74.000
17.50006 65.000
17.52000 65.000
17.53995 62.000
17.55990 66.000
17.57985 66.000
17.59979 72.000
17.61974 74.000
17.63969 79.000
17.65963 76.000
17.67958 70.000
17.69953 61.000
17.71947 53.000
17.73942 69.000
17.75937 49.000
17.77932 54.000
17.79926 57.000
17.81921 49.000
17.83916 76.000
17.85910 71.000
17.87905 69.000
17.89900 62.000
17.91894 71.000
17.93889 66.000
17.95884 66.000
17.97878 74.000
17.99873 66.000
18.01868 75.000
18.03863 65.000
18.05857 82.000
18.07852 73.000
18.09847 80.000
18.11841 92.000
18.13836 101.000
18.15831 102.000
18.17825 106.000
18.19820 113.000
18.21815 131.000
18.23810 121.000
18.25804 127.000
18.27799 150.000
18.29794 148.000
18.31788 172.000
18.33783 197.000
18.35778 218.000
18.37772 226.000
18.39767 162.000
18.41762 143.000
18.43756 106.000
18.45751 91.000
18.47746 67.000
18.49741 82.000
18.51735 69.000
18.53730 49.000
18.55725 52.000
18.57719 63.000
18.59714 56.000
18.61709 48.000
18.63703 60.000
18.65698 52.000
18.67693 52.000
18.69688 42.000
18.71682 32.000
18.73677 68.000
18.75672 49.000
18.77666 58.000
18.79661 52.000
18.81656 55.000
18.83650 65.000
18.85645 40.000
18.87640 48.000
18.89634 62.000
18.91629 51.000
18.93624 47.000
18.95619 44.000
18.97613 60.000
18.99608 71.000
19.01603 53.000
19.03597 43.000
19.05592 42.000
19.07587 44.000
19.09581 48.000
19.11576 34.000
19.13571 55.000
19.15566 50.000
19.17560 52.000
19.19555 46.000
19.21550 49.000
19.23544 52.000
19.25539 33.000
19.27534 51.000
19.29528 54.000
19.31523 54.000
19.33518 50.000
19.35513 45.000
19.37507 48.000
19.39502 44.000
19.41497 46.000
19.43491 40.000
19.45486 56.000
19.47481 53.000
19.49475 43.000
19.51470 53.000
19.53465 54.000
19.55459 54.000
19.57454 43.000
19.59449 62.000
19.61444 53.000
19.63438 56.000
19.65433 55.000
19.67428 43.000
19.69422 61.000
19.71417 48.000
19.73412 54.000
19.75406 50.000
19.77401 48.000
19.79396 51.000
19.81391 56.000
19.83385 57.000
19.85380 47.000
19.87375 52.000
19.89369 64.000
19.91364 53.000
19.93359 61.000
19.95353 55.000
19.97348 43.000
19.99343 51.000
20.01337 60.000
20.03332 42.000
20.05327 41.000
20.07322 52.000
20.09316 60.000
20.11311 48.000
20.13306 37.000
20.15300 55.000
20.17295 48.000
20.19290 46.000
20.21284 50.000
20.23279 49.000
20.25274 38.000
20.27269 56.000
20.29263 62.000
20.31258 50.000
20.33253 63.000
20.35247 63.000
20.37242 44.000
20.39237 65.000
20.41231 68.000
20.43226 78.000
20.45221 66.000
20.47215 62.000
20.49210 71.000
20.51205 95.000
20.53200 99.000
20.55194 64.000
20.57189 103.000
20.59184 107.000
20.61178 118.000
20.63173 117.000
20.65168 113.000
20.67162 113.000
20.69157 130.000
20.71152 134.000
20.73147 109.000
20.75141 139.000
20.77136 146.000
20.79131 108.000
20.81125 103.000
20.83120 91.000
20.85115 98.000
20.87109 90.000
20.89104 77.000
20.91099 75.000
20.93094 83.000
20.95088 69.000
20.97083 57.000
20.99078 38.000
21.01072 54.000
21.03067 58.000
21.05062 45.000
21.07056 63.000
21.09051 41.000
21.11046 58.000
21.13040 58.000
21.15035 65.000
21.17030 49.000
21.19025 46.000
21.21019 44.000
21.23014 53.000
21.25009 46.000
21.27003 51.000
21.28998 49.000
21.30993 52.000
21.32987 65.000
21.34982 38.000
21.36977 48.000
21.38972 51.000
21.40966 49.000
21.42961 45.000
21.44956 59.000
21.46950 47.000
21.48945 56.000
21.50940 46.000
21.52934 38.000
21.54929 38.000
21.56924 72.000
21.58918 60.000
21.60913 48.000
21.62908 48.000
21.64903 49.000
21.66897 51.000
21.68892 48.000
21.70887 37.000
21.72881 49.000
21.74876 43.000
21.76871 41.000
21.78865 45.000
21.80860 53.000
21.82855 52.000
21.84850 60.000
21.86844 47.000
21.88839 54.000
21.90834 46.000
21.92828 46.000
21.94823 54.000
21.96818 50.000
21.98812 43.000
22.00807 38.000
22.02802 49.000
22.04796 60.000
22.06791 49.000
22.08786 58.000
22.10781 63.000
22.12775 69.000
22.14770 41.000
22.16765 54.000
22.18759 53.000
22.20754 51.000
22.22749 53.000
22.24743 50.000
22.26738 45.000
22.28733 44.000
22.30728 58.000
22.32722 45.000
22.34717 42.000
22.36712 53.000
22.38706 41.000
22.40701 50.000
22.42696 38.000
22.44690 53.000
22.46685 45.000
22.48680 61.000
22.50675 39.000
22.52669 36.000
22.54664 54.000
22.56659 50.000
22.58653 55.000
22.60648 55.000
22.62643 37.000
22.64637 54.000
22.66632 60.000
22.68627 48.000
22.70621 41.000
22.72616 45.000
22.74611 55.000
22.76606 52.000
22.78600 47.000
22.80595 50.000
22.82590 58.000
22.84584 46.000
22.86579 45.000
22.88574 49.000
22.90568 48.000
22.92563 53.000
22.94558 48.000
22.96553 51.000
22.98547 58.000
23.00542 57.000
23.02537 45.000
23.04531 48.000
23.06526 57.000
23.08521 54.000
23.10515 52.000
23.12510 42.000
23.14505 46.000
23.16499 49.000
23.18494 59.000
23.20489 48.000
23.22484 50.000
23.24478 48.000
23.26473 39.000
23.28468 42.000
23.30462 47.000
23.32457 39.000
23.34452 46.000
23.36446 49.000
23.38441 52.000
23.40436 50.000
23.42431 53.000
23.44425 45.000
23.46420 51.000
23.48415 54.000
23.50409 51.000
23.52404 60.000
23.54399 37.000
23.56393 53.000
23.58388 43.000
23.60383 48.000
23.62377 54.000
23.64372 48.000
23.66367 50.000
23.68362 58.000
23.70356 49.000
23.72351 42.000
23.74346 44.000
23.76340 39.000
23.78335 46.000
23.80330 43.000
23.82324 51.000
23.84319 38.000
23.86314 54.000
23.88309 59.000
23.90303 54.000
23.92298 41.000
23.94293 57.000
23.96287 51.000
23.98282 50.000
24.00277 40.000
24.02271 57.000
24.04266 54.000
24.06261 50.000
24.08256 46.000
24.10250 71.000
24.12245 45.000
24.14240 52.000
24.16234 48.000
24.18229 51.000
24.20224 58.000
24.22218 51.000
24.24213 47.000
24.26208 40.000
24.28202 47.000
24.30197 46.000
24.32192 49.000
24.34187 58.000
24.36181 57.000
24.38176 45.000
24.40171 39.000
24.42165 54.000
24.44160 37.000
24.46155 50.000
24.48149 41.000
24.50144 42.000
24.52139 41.000
24.54134 58.000
24.56128 48.000
24.58123 53.000
24.60118 61.000
24.62112 49.000
24.64107 38.000
24.66102 51.000
24.68096 58.000
24.70091 47.000
24.72086 52.000
24.74080 40.000
24.76075 43.000
24.78070 42.000
24.80065 58.000
24.82059 49.000
24.84054 53.000
24.86049 46.000
24.88043 46.000
24.90038 66.000
24.92033 54.000
24.94027 63.000
24.96022 67.000
24.98017 49.000
25.00012 52.000
25.02006 48.000
25.04001 57.000
25.05996 57.000
25.07990 50.000
25.09985 56.000
25.11980 53.000
25.13974 42.000
25.15969 44.000
25.17964 52.000
25.19958 52.000
25.21953 54.000
25.23948 38.000
25.25943 51.000
25.27937 51.000
25.29932 56.000
25.31927 45.000
25.33921 41.000
25.35916 47.000
25.37911 41.000
25.39905 41.000
25.41900 50.000
25.43895 44.000
25.45890 50.000
25.47884 48.000
25.49879 55.000
25.51874 45.000
25.53868 57.000
25.55863 40.000
25.57858 57.000
25.59852 54.000
25.61847 64.000
25.63842 53.000
25.65837 61.000
25.67831 54.000
25.69826 55.000
25.71821 52.000
25.73815 53.000
25.75810 44.000
25.77805 31.000
25.79799 66.000
25.81794 55.000
25.83789 37.000
25.85783 43.000
25.87778 51.000
25.89773 41.000
25.91768 46.000
25.93762 63.000
25.95757 48.000
25.97752 55.000
25.99746 51.000
26.01741 58.000
26.03736 49.000
26.05730 60.000
26.07725 57.000
26.09720 59.000
26.11715 60.000
26.13709 59.000
26.15704 48.000
26.17699 55.000
26.19693 53.000
26.21688 47.000
26.23683 51.000
26.25677 49.000
26.27672 58.000
26.29667 55.000
26.31661 56.000
26.33656 61.000
26.35651 51.000
26.37646 55.000
26.39640 47.000
26.41635 49.000
26.43630 51.000
26.45624 51.000
26.47619 48.000
26.49614 50.000
26.51608 46.000
26.53603 53.000
26.55598 51.000
26.57593 55.000
26.59587 55.000
26.61582 58.000
26.63577 54.000
26.65571 36.000
26.67566 40.000
26.69561 58.000
26.71555 48.000
26.73550 43.000
26.75545 55.000
26.77539 41.000
26.79534 59.000
26.81529 52.000
26.83524 42.000
26.85518 49.000
26.87513 52.000
26.89508 51.000
26.91502 61.000
26.93497 43.000
26.95492 61.000
26.97486 55.000
26.99481 48.000
27.01476 54.000
27.03471 56.000
27.05465 44.000
27.07460 65.000
27.09455 37.000
27.11449 48.000
27.13444 41.000
27.15439 53.000
27.17433 46.000
27.19428 48.000
27.21423 53.000
27.23417 51.000
27.25412 53.000
27.27407 54.000
27.29402 53.000
27.31396 56.000
27.33391 68.000
27.35386 39.000
27.37380 54.000
27.39375 54.000
27.41370 51.000
27.43364 46.000
27.45359 56.000
27.47354 43.000
27.49349 44.000
27.51343 54.000
27.53338 57.000
27.55333 55.000
27.57327 48.000
27.59322 56.000
27.61317 70.000
27.63311 58.000
27.65306 56.000
27.67301 48.000
27.69296 66.000
27.71290 61.000
27.73285 42.000
27.75280 50.000
27.77274 62.000
27.79269 56.000
27.81264 55.000
27.83258 64.000
27.85253 53.000
27.87248 60.000
27.89242 53.000
27.91237 48.000
27.93232 49.000
27.95227 59.000
27.97221 72.000
27.99216 47.000
28.01211 53.000
28.03205 49.000
28.05200 44.000
28.07195 57.000
28.09189 48.000
28.11184 45.000
28.13179 52.000
28.15174 54.000
28.17168 53.000
28.19163 64.000
28.21158 63.000
28.23152 46.000
28.25147 43.000
28.27142 47.000
28.29136 59.000
28.31131 60.000
28.33126 51.000
28.35120 49.000
28.37115 43.000
28.39110 68.000
28.41105 55.000
28.43099 51.000
28.45094 57.000
28.47089 58.000
28.49083 56.000
28.51078 39.000
28.53073 54.000
28.55067 43.000
28.57062 55.000
28.59057 59.000
28.61052 60.000
28.63046 57.000
28.65041 42.000
28.67036 58.000
28.69030 43.000
28.71025 48.000
28.73020 56.000
28.75014 53.000
28.77009 47.000
28.79004 61.000
28.80998 61.000
28.82993 67.000
28.84988 46.000
28.86983 59.000
28.88977 50.000
28.90972 42.000
28.92967 55.000
28.94961 62.000
28.96956 49.000
28.98951 40.000
29.00945 70.000
29.02940 57.000
29.04935 62.000
29.06930 47.000
29.08924 41.000
29.10919 52.000
29.12914 59.000
29.14908 60.000
29.16903 50.000
29.18898 54.000
29.20892 44.000
29.22887 50.000
29.24882 61.000
29.26877 47.000
29.28871 58.000
29.30866 62.000
29.32861 65.000
29.34855 66.000
29.36850 63.000
29.38845 67.000
29.40839 61.000
29.42834 61.000
29.44829 66.000
29.46823 54.000
29.48818 64.000
29.50813 83.000
29.52808 63.000
29.54802 76.000
29.56797 64.000
29.58792 72.000
29.60786 67.000
29.62781 51.000
29.64776 68.000
29.66770 72.000
29.68765 65.000
29.70760 72.000
29.72755 85.000
29.74749 82.000
29.76744 69.000
29.78739 70.000
29.80733 109.000
29.82728 87.000
29.84723 128.000
29.86717 120.000
29.88712 112.000
29.90707 142.000
29.92701 152.000
29.94696 133.000
29.96691 137.000
29.98686 152.000
30.00680 149.000
30.02675 171.000
30.04670 172.000
30.06664 179.000
30.08659 214.000
30.10654 215.000
30.12648 245.000
30.14643 275.000
30.16638 312.000
30.18633 389.000
30.20627 505.000
30.22622 477.000
30.24617 520.000
30.26611 411.000
30.28606 353.000
30.30601 327.000
30.32595 253.000
30.34590 224.000
30.36585 143.000
30.38579 101.000
30.40574 96.000
30.42569 108.000
30.44564 74.000
30.46558 80.000
30.48553 67.000
30.50548 66.000
30.52542 65.000
30.54537 75.000
30.56532 64.000
30.58526 65.000
30.60521 75.000
30.62516 82.000
30.64511 60.000
30.66505 66.000
30.68500 50.000
30.70495 71.000
30.72489 55.000
30.74484 63.000
30.76479 57.000
30.78473 54.000
30.80468 62.000
30.82463 55.000
30.84458 54.000
30.86452 61.000
30.88447 67.000
30.90442 69.000
30.92436 50.000
30.94431 68.000
30.96426 61.000
30.98420 64.000
31.00415 72.000
31.02410 46.000
31.04404 55.000
31.06399 57.000
31.08394 50.000
31.10389 69.000
31.12383 60.000
31.14378 61.000
31.16373 60.000
31.18367 57.000
31.20362 66.000
31.22357 53.000
31.24351 62.000
31.26346 44.000
31.28341 72.000
31.30336 58.000
31.32330 55.000
31.34325 55.000
31.36320 63.000
31.38314 61.000
31.40309 63.000
31.42304 51.000
31.44298 55.000
31.46293 56.000
31.48288 56.000
31.50282 55.000
31.52277 60.000
31.54272 79.000
31.56267 44.000
31.58261 60.000
31.60256 52.000
31.62251 66.000
31.64245 75.000
31.66240 62.000
31.68235 64.000
31.70229 58.000
31.72224 71.000
31.74219 43.000
31.76214 83.000
31.78208 70.000
31.80203 89.000
31.82198 66.000
31.84192 87.000
31.86187 92.000
31.88182 94.000
31.90176 83.000
31.92171 92.000
31.94166 82.000
31.96160 82.000
31.98155 60.000
32.00150 61.000
32.02145 70.000
32.04139 54.000
32.06134 82.000
32.08129 71.000
32.10123 59.000
32.12118 69.000
32.14113 65.000
32.16107 67.000
32.18102 82.000
32.20097 74.000
32.22092 85.000
32.24086 92.000
32.26081 77.000
32.28076 88.000
32.30070 77.000
32.32065 91.000
32.34060 89.000
32.36054 84.000
32.38049 95.000
32.40044 103.000
32.42039 82.000
32.44033 93.000
32.46028 98.000
32.48023 111.000
32.50017 105.000
32.52012 87.000
32.54007 103.000
32.56001 107.000
32.57996 100.000
32.59991 124.000
32.61985 121.000
32.63980 113.000
32.65975 115.000
32.67970 118.000
32.69964 131.000
32.71959 129.000
32.73954 127.000
32.75948 110.000
32.77943 124.000
32.79938 138.000
32.81932 151.000
32.83927 134.000
32.85922 129.000
32.87917 125.000
32.89911 125.000
32.91906 124.000
32.93901 139.000
32.95895 127.000
32.97890 132.000
32.99885 98.000
33.01879 114.000
33.03874 119.000
33.05869 114.000
33.07863 104.000
33.09858 125.000
33.11853 111.000
33.13848 114.000
33.15842 87.000
33.17837 127.000
33.19832 124.000
33.21826 122.000
33.23821 114.000
33.25816 116.000
33.27810 107.000
33.29805 89.000
33.31800 103.000
33.33795 82.000
33.35789 97.000
33.37784 100.000
33.39779 93.000
33.41773 76.000
33.43768 81.000
33.45763 91.000
33.47757 87.000
33.49752 97.000
33.51747 76.000
33.53741 70.000
33.55736 63.000
33.57731 92.000
33.59726 72.000
33.61720 81.000
33.63715 100.000
33.65710 81.000
33.67704 80.000
33.69699 81.000
33.71694 88.000
33.73688 78.000
33.75683 93.000
33.77678 91.000
33.79673 109.000
33.81667 85.000
33.83662 99.000
33.85657 117.000
33.87651 116.000
33.89646 99.000
33.91641 127.000
33.93635 116.000
33.95630 121.000
33.97625 129.000
33.99620 116.000
34.01614 121.000
34.03609 112.000
34.05604 120.000
34.07598 124.000
34.09593 123.000
34.11588 153.000
34.13582 133.000
34.15577 133.000
34.17572 127.000
34.19566 147.000
34.21561 132.000
34.23556 133.000
34.25551 128.000
34.27545 122.000
34.29540 137.000
34.31535 129.000
34.33529 138.000
34.35524 128.000
34.37519 129.000
34.39513 108.000
34.41508 102.000
34.43503 108.000
34.45498 127.000
34.47492 95.000
34.49487 111.000
34.51482 98.000
34.53476 124.000
34.55471 119.000
34.57466 102.000
34.59460 86.000
34.61455 109.000
34.63450 108.000
34.65444 90.000
34.67439 96.000
34.69434 90.000
34.71429 83.000
34.73423 111.000
34.75418 72.000
34.77413 91.000
34.79407 108.000
34.81402 91.000
34.83397 93.000
34.85391 86.000
34.87386 97.000
34.89381 136.000
34.91376 132.000
34.93370 129.000
34.95365 158.000
34.97360 178.000
34.99354 196.000
35.01349 217.000
35.03344 242.000
35.05338 266.000
35.07333 303.000
35.09328 342.000
35.11322 344.000
35.13317 421.000
35.15312 446.000
35.17307 455.000
35.19301 505.000
35.21296 508.000
35.23291 467.000
35.25285 530.000
35.27280 544.000
35.29275 533.000
35.31269 529.000
35.33264 474.000
35.35259 513.000
35.37254 471.000
35.39248 456.000
35.41243 475.000
35.43238 522.000
35.45232 489.000
35.47227 533.000
35.49222 625.000
35.51216 718.000
35.53211 817.000
35.55206 970.000
35.57201 1199.000
35.59195 1392.000
35.61190 1432.000
35.63185 1376.000
35.65179 1334.000
35.67174 1175.000
35.69169 1002.000
35.71163 880.000
35.73158 718.000
35.75153 523.000
35.77147 398.000
35.79142 333.000
35.81137 266.000
35.83132 188.000
35.85126 190.000
35.87121 137.000
35.89116 147.000
35.91110 144.000
35.93105 141.000
35.95100 111.000
35.97094 131.000
35.99089 112.000
36.01084 106.000
36.03079 115.000
36.05073 117.000
36.07068 108.000
36.09063 129.000
36.11057 115.000
36.13052 116.000
36.15047 122.000
36.17041 153.000
36.19036 136.000
36.21031 152.000
36.23025 173.000
36.25020 204.000
36.27015 225.000
36.29010 207.000
36.31004 194.000
36.32999 248.000
36.34994 273.000
36.36988 292.000
36.38983 254.000
36.40978 276.000
36.42972 326.000
36.44967 315.000
36.46962 311.000
36.48957 266.000
36.50951 284.000
36.52946 307.000
36.54941 260.000
36.56935 275.000
36.58930 247.000
36.60925 215.000
36.62919 200.000
36.64914 211.000
36.66909 199.000
36.68903 171.000
36.70898 168.000
36.72893 162.000
36.74888 173.000
36.76882 143.000
36.78877 129.000
36.80872 142.000
36.82866 139.000
36.84861 125.000
36.86856 123.000
36.88850 104.000
36.90845 119.000
36.92840 117.000
36.94835 109.000
36.96829 108.000
36.98824 94.000
37.00819 87.000
37.02813 74.000
37.04808 111.000
37.06803 90.000
37.08797 109.000
37.10792 96.000
37.12787 96.000
37.14781 103.000
37.16776 108.000
37.18771 109.000
37.20766 128.000
37.22760 141.000
37.24755 160.000
37.26750 164.000
37.28744 148.000
37.30739 132.000
37.32734 132.000
37.34728 129.000
37.36723 112.000
37.38718 105.000
37.40713 103.000
37.42707 85.000
37.44702 95.000
37.46697 81.000
37.48691 81.000
37.50686 72.000
37.52681 75.000
37.54675 71.000
37.56670 57.000
37.58665 73.000
37.60660 73.000
37.62654 79.000
37.64649 72.000
37.66644 76.000
37.68638 71.000
37.70633 80.000
37.72628 54.000
37.74622 57.000
37.76617 82.000
37.78612 72.000
37.80606 68.000
37.82601 72.000
37.84596 85.000
37.86591 59.000
37.88585 67.000
37.90580 80.000
37.92575 69.000
37.94569 84.000
37.96564 76.000
37.98559 62.000
38.00553 83.000
38.02548 84.000
38.04543 78.000
38.06538 69.000
38.08532 90.000
38.10527 75.000
38.12522 68.000
38.14516 48.000
38.16511 52.000
38.18506 64.000
38.20500 65.000
38.22495 51.000
38.24490 56.000
38.26484 58.000
38.28479 60.000
38.30474 72.000
38.32469 58.000
38.34463 57.000
38.36458 48.000
38.38453 53.000
38.40447 57.000
38.42442 51.000
38.44437 62.000
38.46431 75.000
38.48426 57.000
38.50421 58.000
38.52416 50.000
38.54410 59.000
38.56405 55.000
38.58400 47.000
38.60394 67.000
38.62389 72.000
38.64384 52.000
38.66378 62.000
38.68373 38.000
38.70368 66.000
38.72362 60.000
38.74357 56.000
38.76352 54.000
38.78347 55.000
38.80341 58.000
38.82336 51.000
38.84331 65.000
38.86325 67.000
38.88320 70.000
38.90315 76.000
38.92309 65.000
38.94304 67.000
38.96299 84.000
38.98294 95.000
39.00288 72.000
39.02283 91.000
39.04278 76.000
39.06272 82.000
39.08267 70.000
39.10262 75.000
39.12256 72.000
39.14251 64.000
39.16246 55.000
39.18241 58.000
39.20235 73.000
39.22230 66.000
39.24225 63.000
39.26219 53.000
39.28214 52.000
39.30209 56.000
39.32203 65.000
39.34198 69.000
39.36193 59.000
39.38187 62.000
39.40182 70.000
39.42177 57.000
39.44172 59.000
39.46166 68.000
39.48161 61.000
39.50156 56.000
39.52150 69.000
39.54145 65.000
39.56140 54.000
39.58134 79.000
39.60129 71.000
39.62124 56.000
39.64119 60.000
39.66113 63.000
39.68108 49.000
39.70103 65.000
39.72097 74.000
39.74092 61.000
39.76087 70.000
39.78081 64.000
39.80076 65.000
39.82071 63.000
39.84065 72.000
39.86060 69.000
39.88055 77.000
39.90050 83.000
39.92044 76.000
39.94039 61.000
39.96034 80.000
39.98028 65.000
40.00023 76.000
40.02018 65.000
40.04012 66.000
40.06007 51.000
40.08002 61.000
40.09997 68.000
40.11991 74.000
40.13986 78.000
40.15981 56.000
40.17975 65.000
40.19970 72.000
40.21965 67.000
40.23959 67.000
40.25954 68.000
40.27949 89.000
40.29943 66.000
40.31938 62.000
40.33933 77.000
40.35928 76.000
40.37922 85.000
40.39917 68.000
40.41912 74.000
40.43906 76.000
40.45901 72.000
40.47896 97.000
40.49890 84.000
40.51885 98.000
40.53880 88.000
40.55875 90.000
40.57869 99.000
40.59864 91.000
40.61859 82.000
40.63853 98.000
40.65848 78.000
40.67843 95.000
40.69837 91.000
40.71832 99.000
40.73827 111.000
40.75822 109.000
40.77816 124.000
40.79811 119.000
40.81806 125.000
40.83800 130.000
40.85795 115.000
40.87790 157.000
40.89784 143.000
40.91779 142.000
40.93774 155.000
40.95768 159.000
40.97763 192.000
40.99758 161.000
41.01753 199.000
41.03747 219.000
41.05742 241.000
41.07737 262.000
41.09731 239.000
41.11726 261.000
41.13721 315.000
41.15715 325.000
41.17710 341.000
41.19705 381.000
41.21700 509.000
41.23694 637.000
41.25689 690.000
41.27684 769.000
41.29678 953.000
41.31673 1055.000
41.33668 1111.000
41.35662 1236.000
41.37657 1254.000
41.39652 1236.000
41.41646 1252.000
41.43641 1194.000
41.45636 1109.000
41.47631 1076.000
41.49625 849.000
41.51620 788.000
41.53615 718.000
41.55609 586.000
41.57604 550.000
41.59599 484.000
41.61593 422.000
41.63588 353.000
41.65583 337.000
41.67578 293.000
41.69572 261.000
41.71567 247.000
41.73562 218.000
41.75556 222.000
41.77551 220.000
41.79546 174.000
41.81540 207.000
41.83535 180.000
41.85530 190.000
41.87524 134.000
41.89519 148.000
41.91514 177.000
41.93509 136.000
41.95503 152.000
41.97498 121.000
41.99493 133.000
42.01487 149.000
42.03482 135.000
42.05477 141.000
42.07471 101.000
42.09466 111.000
42.11461 103.000
42.13456 136.000
42.15450 117.000
42.17445 104.000
42.19440 129.000
42.21434 128.000
42.23429 111.000
42.25424 94.000
42.27418 96.000
42.29413 101.000
42.31408 88.000
42.33403 94.000
42.35397 82.000
42.37392 112.000
42.39387 66.000
42.41381 82.000
42.43376 84.000
42.45371 105.000
42.47365 87.000
42.49360 107.000
42.51355 75.000
42.53349 86.000
42.55344 91.000
42.57339 89.000
42.59334 91.000
42.61328 89.000
42.63323 86.000
42.65318 107.000
42.67312 98.000
42.69307 92.000
42.71302 107.000
42.73296 86.000
42.75291 124.000
42.77286 114.000
42.79281 108.000
42.81275 129.000
42.83270 127.000
42.85265 114.000
42.87259 123.000
42.89254 124.000
42.91249 135.000
42.93243 130.000
42.95238 118.000
42.97233 140.000
42.99227 106.000
43.01222 129.000
43.03217 127.000
43.05212 134.000
43.07206 130.000
43.09201 157.000
43.11196 134.000
43.13190 194.000
43.15185 183.000
43.17180 189.000
43.19174 228.000
43.21169 213.000
43.23164 262.000
43.25159 291.000
43.27153 293.000
43.29148 336.000
43.31143 353.000
43.33137 297.000
43.35132 271.000
43.37127 244.000
43.39121 238.000
43.41116 208.000
43.43111 210.000
43.45105 163.000
43.47100 166.000
43.49095 114.000
43.51090 113.000
43.53084 96.000
43.55079 102.000
43.57074 69.000
43.59068 87.000
43.61063 66.000
43.63058 62.000
43.65052 68.000
43.67047 74.000
43.69042 77.000
43.71037 77.000
43.73031 65.000
43.75026 67.000
43.77021 60.000
43.79015 70.000
43.81010 65.000
43.83005 59.000
43.84999 72.000
43.86994 50.000
43.88989 62.000
43.90984 56.000
43.92978 56.000
43.94973 57.000
43.96968 56.000
43.98962 58.000
44.00957 63.000
44.02952 46.000
44.04946 60.000
44.06941 50.000
44.08936 63.000
44.10930 51.000
44.12925 59.000
44.14920 48.000
44.16915 69.000
44.18909 53.000
44.20904 55.000
44.22899 53.000
44.24893 55.000
44.26888 49.000
44.28883 60.000
44.30877 70.000
44.32872 60.000
44.34867 52.000
44.36862 52.000
44.38856 59.000
44.40851 64.000
44.42846 71.000
44.44840 58.000
44.46835 69.000
44.48830 68.000
44.50824 72.000
44.52819 81.000
44.54814 51.000
44.56808 67.000
44.58803 70.000
44.60798 74.000
44.62793 73.000
44.64787 66.000
44.66782 97.000
44.68777 96.000
44.70771 99.000
44.72766 106.000
44.74761 101.000
44.76755 97.000
44.78750 78.000
44.80745 88.000
44.82740 98.000
44.84734 67.000
44.86729 75.000
44.88724 84.000
44.90718 73.000
44.92713 76.000
44.94708 67.000
44.96702 68.000
44.98697 61.000
45.00692 58.000
45.02686 52.000
45.04681 68.000
45.06676 66.000
45.08671 53.000
45.10665 63.000
45.12660 47.000
45.14655 50.000
45.16649 58.000
45.18644 37.000
45.20639 52.000
45.22633 61.000
45.24628 42.000
45.26623 52.000
45.28618 68.000
45.30612 49.000
45.32607 49.000
45.34602 53.000
45.36596 50.000
45.38591 52.000
45.40586 51.000
45.42580 39.000
45.44575 54.000
45.46570 53.000
45.48565 50.000
45.50559 42.000
45.52554 58.000
45.54549 39.000
45.56543 46.000
45.58538 48.000
45.60533 52.000
45.62527 53.000
45.64522 45.000
45.66517 50.000
45.68511 52.000
45.70506 48.000
45.72501 66.000
45.74496 59.000
45.76490 58.000
45.78485 52.000
45.80480 37.000
45.82474 53.000
45.84469 46.000
45.86464 62.000
45.88458 42.000
45.90453 65.000
45.92448 50.000
45.94443 59.000
45.96437 56.000
45.98432 60.000
46.00427 66.000
46.02421 50.000
46.04416 54.000
46.06411 54.000
46.08405 67.000
46.10400 71.000
46.12395 59.000
46.14389 54.000
46.16384 54.000
46.18379 53.000
46.20374 68.000
46.22368 49.000
46.24363 41.000
46.26358 48.000
46.28352 57.000
46.30347 51.000
46.32342 52.000
46.34336 71.000
46.36331 46.000
46.38326 48.000
46.40321 53.000
46.42315 61.000
46.44310 68.000
46.46305 63.000
46.48299 71.000
46.50294 63.000
46.52289 52.000
46.54283 53.000
46.56278 57.000
46.58273 49.000
46.60267 59.000
46.62262 53.000
46.64257 54.000
46.66252 45.000
46.68246 65.000
46.70241 41.000
46.72236 51.000
46.74230 56.000
46.76225 56.000
46.78220 52.000
46.80214 40.000
46.82209 45.000
46.84204 45.000
46.86199 43.000
46.88193 52.000
46.90188 54.000
46.92183 43.000
46.94177 51.000
46.96172 50.000
46.98167 56.000
47.00161 40.000
47.02156 56.000
47.04151 54.000
47.06146 45.000
47.08140 46.000
47.10135 40.000
47.12130 55.000
47.14124 46.000
47.16119 47.000
47.18114 46.000
47.20108 49.000
47.22103 53.000
47.24098 56.000
47.26092 44.000
47.28087 48.000
47.30082 40.000
47.32077 49.000
47.34071 60.000
47.36066 53.000
47.38061 50.000
47.40055 59.000
47.42050 59.000
47.44045 49.000
47.46039 51.000
47.48034 48.000
47.50029 55.000
47.52024 46.000
47.54018 54.000
47.56013 51.000
47.58008 48.000
47.60002 55.000
47.61997 54.000
47.63992 51.000
47.65986 40.000
47.67981 42.000
47.69976 57.000
47.71970 43.000
47.73965 39.000
47.75960 43.000
47.77955 39.000
47.79949 50.000
47.81944 42.000
47.83939 43.000
47.85933 56.000
47.87928 58.000
47.89923 44.000
47.91917 51.000
47.93912 48.000
47.95907 41.000
47.97902 46.000
47.99896 54.000
48.01891 47.000
48.03886 47.000
48.05880 63.000
48.07875 46.000
48.09870 41.000
48.11864 45.000
48.13859 42.000
48.15854 64.000
48.17848 56.000
48.19843 70.000
48.21838 71.000
48.23833 67.000
48.25827 61.000
48.27822 56.000
48.29817 67.000
48.31811 61.000
48.33806 71.000
48.35801 48.000
48.37795 76.000
48.39790 73.000
48.41785 64.000
48.43780 64.000
48.45774 60.000
48.47769 62.000
48.49764 47.000
48.51758 50.000
48.53753 56.000
48.55748 55.000
48.57742 59.000
48.59737 58.000
48.61732 60.000
48.63726 56.000
48.65721 56.000
48.67716 43.000
48.69711 53.000
48.71705 66.000
48.73700 64.000
48.75695 60.000
48.77689 59.000
48.79684 61.000
48.81679 63.000
48.83673 53.000
48.85668 51.000
48.87663 56.000
48.89658 48.000
48.91652 64.000
48.93647 44.000
48.95642 45.000
48.97636 50.000
48.99631 51.000
49.01626 45.000
49.03620 57.000
49.05615 49.000
49.07610 55.000
49.09605 49.000
49.11599 49.000
49.13594 49.000
49.15589 51.000
49.17583 51.000
49.19578 59.000
49.21573 50.000
49.23567 42.000
49.25562 43.000
49.27557 51.000
49.29551 56.000
49.31546 38.000
49.33541 50.000
49.35536 52.000
49.37530 57.000
49.39525 47.000
49.41520 47.000
49.43514 62.000
49.45509 35.000
49.47504 45.000
49.49498 43.000
49.51493 57.000
49.53488 59.000
49.55483 45.000
49.57477 51.000
49.59472 39.000
49.61467 36.000
49.63461 44.000
49.65456 43.000
49.67451 53.000
49.69445 51.000
49.71440 65.000
49.73435 51.000
49.75429 43.000
49.77424 55.000
49.79419 49.000
49.81414 38.000
49.83408 58.000
49.85403 39.000
49.87398 40.000
49.89392 49.000
49.91387 42.000
49.93382 55.000
49.95376 42.000
49.97371 53.000
49.99366 50.000
50.01361 44.000
50.03355 44.000
50.05350 45.000
50.07345 48.000
50.09339 56.000
50.11334 45.000
50.13329 43.000
50.15323 45.000
50.17318 33.000
50.19313 46.000
50.21307 46.000
50.23302 37.000
50.25297 46.000
50.27292 50.000
50.29286 45.000
50.31281 47.000
50.33276 41.000
50.35270 41.000
50.37265 48.000
50.39260 51.000
50.41254 31.000
50.43249 54.000
50.45244 41.000
50.47239 53.000
50.49233 44.000
50.51228 48.000
50.53223 38.000
50.55217 42.000
50.57212 50.000
50.59207 51.000
50.61201 44.000
50.63196 41.000
50.65191 49.000
50.67186 47.000
50.69180 34.000
50.71175 42.000
50.73170 41.000
50.75164 41.000
50.77159 49.000
50.79154 54.000
50.81148 51.000
50.83143 51.000
50.85138 32.000
50.87132 55.000
50.89127 48.000
50.91122 54.000
50.93117 37.000
50.95111 50.000
50.97106 46.000
50.99101 48.000
51.01095 47.000
51.03090 53.000
51.05085 45.000
51.07079 49.000
51.09074 56.000
51.11069 47.000
51.13064 39.000
51.15058 38.000
51.17053 54.000
51.19048 46.000
51.21042 45.000
51.23037 40.000
51.25032 56.000
51.27026 47.000
51.29021 42.000
51.31016 55.000
51.33010 47.000
51.35005 41.000
51.37000 51.000
51.38995 39.000
51.40989 40.000
51.42984 35.000
51.44979 47.000
51.46973 41.000
51.48968 56.000
51.50963 58.000
51.52957 36.000
51.54952 54.000
51.56947 41.000
51.58942 36.000
51.60936 49.000
51.62931 49.000
51.64926 54.000
51.66920 56.000
51.68915 41.000
51.70910 42.000
51.72904 48.000
51.74899 50.000
51.76894 49.000
51.78888 64.000
51.80883 48.000
51.82878 50.000
51.84873 57.000
51.86867 47.000
51.88862 30.000
51.90857 60.000
51.92851 45.000
51.94846 47.000
51.96841 38.000
51.98835 49.000
52.00830 42.000
52.02825 55.000
52.04820 53.000
52.06814 50.000
52.08809 50.000
52.10804 50.000
52.12798 48.000
52.14793 63.000
52.16788 50.000
52.18782 52.000
52.20777 51.000
52.22772 51.000
52.24767 67.000
52.26761 53.000
52.28756 59.000
52.30751 72.000
52.32745 54.000
52.34740 65.000
52.36735 53.000
52.38729 44.000
52.40724 55.000
52.42719 71.000
52.44713 69.000
52.46708 60.000
52.48703 64.000
52.50698 71.000
52.52692 81.000
52.54687 76.000
52.56682 91.000
52.58676 103.000
52.60671 92.000
52.62666 88.000
52.64660 92.000
52.66655 110.000
52.68650 102.000
52.70645 137.000
52.72639 152.000
52.74634 156.000
52.76629 140.000
52.78623 153.000
52.80618 165.000
52.82613 169.000
52.84607 163.000
52.86602 167.000
52.88597 157.000
52.90591 145.000
52.92586 134.000
52.94581 157.000
52.96576 141.000
52.98570 150.000
53.00565 146.000
53.02560 135.000
53.04554 148.000
53.06549 136.000
53.08544 131.000
53.10538 124.000
53.12533 119.000
53.14528 120.000
53.16523 121.000
53.18517 96.000
53.20512 95.000
53.22507 110.000
53.24501 90.000
53.26496 79.000
53.28491 104.000
53.30485 78.000
53.32480 78.000
53.34475 71.000
53.36469 85.000
53.38464 82.000
53.40459 74.000
53.42454 84.000
53.44448 91.000
53.46443 79.000
53.48438 75.000
53.50432 105.000
53.52427 99.000
53.54422 81.000
53.56416 76.000
53.58411 89.000
53.60406 88.000
53.62401 92.000
53.64395 107.000
53.66390 141.000
53.68385 119.000
53.70379 148.000
53.72374 141.000
53.74369 164.000
53.76363 138.000
53.78358 146.000
53.80353 124.000
53.82348 112.000
53.84342 106.000
53.86337 120.000
53.88332 99.000
53.90326 109.000
53.92321 102.000
53.94316 87.000
53.96310 83.000
53.98305 75.000
54.00300 71.000
54.02294 68.000
54.04289 80.000
54.06284 53.000
54.08279 61.000
54.10273 46.000
54.12268 71.000
54.14263 48.000
54.16257 67.000
54.18252 62.000
54.20247 63.000
54.22241 58.000
54.24236 62.000
54.26231 50.000
54.28226 50.000
54.30220 52.000
54.32215 61.000
54.34210 56.000
54.36204 47.000
54.38199 64.000
54.40194 48.000
54.42188 55.000
54.44183 46.000
54.46178 52.000
54.48172 57.000
54.50167 42.000
54.52162 45.000
54.54157 42.000
54.56151 54.000
54.58146 45.000
54.60141 49.000
54.62135 68.000
54.64130 58.000
54.66125 44.000
54.68119 52.000
54.70114 50.000
54.72109 45.000
54.74104 61.000
54.76098 53.000
54.78093 54.000
54.80088 57.000
54.82082 45.000
54.84077 51.000
54.86072 46.000
54.88066 47.000
54.90061 48.000
54.92056 51.000
54.94050 40.000
54.96045 54.000
54.98040 47.000
55.00035 51.000
55.02029 52.000
55.04024 43.000
55.06019 47.000
55.08013 58.000
55.10008 62.000
55.12003 45.000
55.13997 61.000
55.15992 41.000
55.17987 52.000
55.19982 53.000
55.21976 52.000
55.23971 56.000
55.25966 56.000
55.27960 51.000
55.29955 42.000
55.31950 52.000
55.33944 59.000
55.35939 44.000
55.37934 48.000
55.39929 55.000
55.41923 61.000
55.43918 46.000
55.45913 43.000
55.47907 58.000
55.49902 50.000
55.51897 64.000
55.53891 42.000
55.55886 50.000
55.57881 40.000
55.59875 48.000
55.61870 52.000
55.63865 45.000
55.65860 38.000
55.67854 58.000
55.69849 49.000
55.71844 54.000
55.73838 55.000
55.75833 42.000
55.77828 47.000
55.79822 56.000
55.81817 51.000
55.83812 45.000
55.85807 48.000
55.87801 50.000
55.89796 52.000
55.91791 62.000
55.93785 44.000
55.95780 38.000
55.97775 47.000
55.99769 56.000
56.01764 61.000
56.03759 66.000
56.05753 41.000
56.07748 57.000
56.09743 50.000
56.11738 53.000
56.13732 55.000
56.15727 61.000
56.17722 45.000
56.19716 52.000
56.21711 63.000
56.23706 49.000
56.25700 49.000
56.27695 52.000
56.29690 57.000
56.31685 58.000
56.33679 58.000
56.35674 66.000
56.37669 52.000
56.39663 71.000
56.41658 60.000
56.43653 58.000
56.45647 53.000
56.47642 61.000
56.49637 65.000
56.51631 75.000
56.53626 76.000
56.55621 87.000
56.57616 102.000
56.59610 84.000
56.61605 98.000
56.63600 111.000
56.65594 89.000
56.67589 97.000
56.69584 113.000
56.71578 97.000
56.73573 101.000
56.75568 86.000
56.77563 101.000
56.79557 98.000
56.81552 109.000
56.83547 105.000
56.85541 105.000
56.87536 118.000
56.89531 120.000
56.91525 91.000
56.93520 110.000
56.95515 109.000
56.97510 117.000
56.99504 96.000
57.01499 106.000
57.03494 130.000
57.05488 126.000
57.07483 139.000
57.09478 175.000
57.11472 194.000
57.13467 202.000
57.15462 211.000
57.17456 214.000
57.19451 236.000
57.21446 292.000
57.23441 322.000
57.25435 368.000
57.27430 372.000
57.29425 395.000
57.31419 418.000
57.33414 390.000
57.35409 365.000
57.37403 329.000
57.39398 348.000
57.41393 351.000
57.43388 344.000
57.45382 310.000
57.47377 298.000
57.49372 330.000
57.51366 298.000
57.53361 278.000
57.55356 259.000
57.57350 231.000
57.59345 226.000
57.61340 195.000
57.63334 181.000
57.65329 230.000
57.67324 227.000
57.69319 198.000
57.71313 202.000
57.73308 207.000
57.75303 226.000
57.77297 228.000
57.79292 189.000
57.81287 235.000
57.83281 210.000
57.85276 222.000
57.87271 216.000
57.89266 194.000
57.91260 192.000
57.93255 170.000
57.95250 179.000
57.97244 160.000
57.99239 154.000
58.01234 142.000
58.03228 118.000
58.05223 129.000
58.07218 134.000
58.09212 120.000
58.11207 95.000
58.13202 94.000
58.15197 106.000
58.17191 100.000
58.19186 83.000
58.21181 93.000
58.23175 96.000
58.25170 81.000
58.27165 78.000
58.29159 75.000
58.31154 69.000
58.33149 75.000
58.35144 68.000
58.37138 51.000
58.39133 62.000
58.41128 63.000
58.43122 66.000
58.45117 59.000
58.47112 69.000
58.49106 62.000
58.51101 56.000
58.53096 50.000
58.55090 69.000
58.57085 48.000
58.59080 64.000
58.61075 62.000
58.63069 58.000
58.65064 57.000
58.67059 58.000
58.69053 76.000
58.71048 72.000
58.73043 62.000
58.75037 58.000
58.77032 55.000
58.79027 52.000
58.81022 59.000
58.83016 62.000
58.85011 50.000
58.87006 52.000
58.89000 53.000
58.90995 56.000
58.92990 51.000
58.94984 54.000
58.96979 48.000
58.98974 61.000
59.00969 54.000
59.02963 46.000
59.04958 52.000
59.06953 48.000
59.08947 61.000
59.10942 63.000
59.12937 51.000
59.14931 65.000
59.16926 51.000
59.18921 48.000
59.20915 64.000
59.22910 49.000
59.24905 47.000
59.26900 46.000
59.28894 55.000
59.30889 57.000
59.32884 59.000
59.34878 56.000
59.36873 63.000
59.38868 52.000
59.40862 43.000
59.42857 46.000
59.44852 41.000
59.46847 51.000
59.48841 44.000
59.50836 37.000
59.52831 52.000
59.54825 51.000
59.56820 54.000
59.58815 59.000
59.60809 40.000
59.62804 53.000
59.64799 55.000
59.66793 62.000
59.68788 43.000
59.70783 57.000
59.72778 53.000
59.74772 56.000
59.76767 42.000
59.78762 53.000
59.80756 50.000
59.82751 55.000
59.84746 56.000
59.86740 56.000
59.88735 53.000
59.90730 54.000
59.92725 40.000
59.94719 33.000
59.96714 39.000
59.98709 51.000
60.00703 44.000
60.02698 57.000
60.04693 51.000
60.06687 49.000
60.08682 60.000
60.10677 54.000
60.12671 47.000
60.14666 50.000
60.16661 60.000
60.18656 57.000
60.20650 59.000
60.22645 53.000
60.24640 48.000
60.26634 54.000
60.28629 61.000
60.30624 47.000
60.32618 55.000
60.34613 59.000
60.36608 57.000
60.38603 55.000
60.40597 60.000
60.42592 48.000
60.44587 52.000
60.46581 61.000
60.48576 58.000
60.50571 56.000
60.52565 64.000
60.54560 71.000
60.56555 48.000
60.58550 57.000
60.60544 64.000
60.62539 67.000
60.64534 59.000
60.66528 47.000
60.68523 50.000
60.70518 63.000
60.72512 59.000
60.74507 63.000
60.76502 71.000
60.78496 61.000
60.80491 58.000
60.82486 67.000
60.84481 56.000
60.86475 59.000
60.88470 58.000
60.90465 77.000
60.92459 45.000
60.94454 64.000
60.96449 53.000
60.98443 50.000
61.00438 53.000
61.02433 62.000
61.04428 58.000
61.06422 63.000
61.08417 63.000
61.10412 64.000
61.12406 64.000
61.14401 46.000
61.16396 47.000
61.18390 68.000
61.20385 59.000
61.22380 72.000
61.24374 69.000
61.26369 54.000
61.28364 62.000
61.30359 68.000
61.32353 71.000
61.34348 61.000
61.36343 81.000
61.38337 75.000
61.40332 72.000
61.42327 77.000
61.44321 73.000
61.46316 73.000
61.48311 72.000
61.50306 93.000
61.52300 83.000
61.54295 88.000
61.56290 75.000
61.58284 91.000
61.60279 85.000
61.62274 93.000
61.64268 89.000
61.66263 89.000
61.68258 108.000
61.70252 107.000
61.72247 99.000
61.74242 127.000
61.76237 114.000
61.78231 116.000
61.80226 113.000
61.82221 126.000
61.84215 142.000
61.86210 153.000
61.88205 156.000
61.90199 183.000
61.92194 195.000
61.94189 202.000
61.96184 210.000
61.98178 206.000
62.00173 229.000
62.02168 198.000
62.04162 218.000
62.06157 246.000
62.08152 219.000
62.10146 240.000
62.12141 269.000
62.14136 261.000
62.16131 283.000
62.18125 266.000
62.20120 230.000
62.22115 214.000
62.24109 244.000
62.26104 247.000
62.28099 250.000
62.30093 230.000
62.32088 224.000
62.34083 257.000
62.36077 235.000
62.38072 217.000
62.40067 206.000
62.42062 205.000
62.44056 208.000
62.46051 234.000
62.48046 201.000
62.50040 202.000
62.52035 216.000
62.54030 219.000
62.56024 191.000
62.58019 195.000
62.60014 211.000
62.62009 203.000
62.64003 184.000
62.65998 212.000
62.67993 200.000
62.69987 191.000
62.71982 202.000
62.73977 233.000
62.75971 224.000
62.77966 260.000
62.79961 280.000
62.81955 300.000
62.83950 355.000
62.85945 342.000
62.87940 376.000
62.89934 436.000
62.91929 451.000
62.93924 428.000
62.95918 446.000
62.97913 377.000
62.99908 352.000
63.01902 358.000
63.03897 352.000
63.05892 312.000
63.07887 322.000
63.09881 314.000
63.11876 264.000
63.13871 246.000
63.15865 205.000
63.17860 194.000
63.19855 176.000
63.21849 149.000
63.23844 121.000
63.25839 113.000
63.27833 89.000
63.29828 87.000
63.31823 97.000
63.33818 89.000
63.35812 83.000
63.37807 102.000
63.39802 88.000
63.41796 74.000
63.43791 70.000
63.45786 73.000
63.47780 60.000
63.49775 70.000
63.51770 67.000
63.53765 64.000
63.55759 59.000
63.57754 75.000
63.59749 68.000
63.61743 59.000
63.63738 58.000
63.65733 51.000
63.67727 66.000
63.69722 78.000
63.71717 59.000
63.73712 54.000
63.75706 61.000
63.77701 55.000
63.79696 67.000
63.81690 66.000
63.83685 53.000
63.85680 51.000
63.87674 65.000
63.89669 43.000
63.91664 63.000
63.93658 50.000
63.95653 62.000
63.97648 44.000
63.99643 55.000
64.01637 61.000
64.03632 64.000
64.05627 56.000
64.07621 61.000
64.09616 49.000
64.11611 58.000
64.13605 55.000
64.15600 55.000
64.17595 51.000
64.19590 49.000
64.21584 39.000
64.23579 54.000
64.25574 46.000
64.27568 49.000
64.29563 66.000
64.31558 53.000
64.33552 61.000
64.35547 54.000
64.37542 66.000
64.39536 55.000
64.41531 59.000
64.43526 67.000
64.45521 96.000
64.47515 65.000
64.49510 63.000
64.51505 71.000
64.53499 81.000
64.55494 95.000
64.57489 78.000
64.59483 96.000
64.61478 104.000
64.63473 91.000
64.65468 116.000
64.67462 106.000
64.69457 101.000
64.71452 82.000
64.73446 104.000
64.75441 104.000
64.77436 117.000
64.79430 118.000
64.81425 99.000
64.83420 117.000
64.85414 116.000
64.87409 115.000
64.89404 87.000
64.91399 104.000
64.93393 110.000
64.95388 111.000
64.97383 101.000
64.99377 88.000
65.01372 103.000
65.03367 118.000
65.05361 95.000
65.07356 92.000
65.09351 93.000
65.11346 81.000
65.13340 85.000
65.15335 78.000
65.17330 90.000
65.19324 85.000
65.21319 103.000
65.23314 99.000
65.25308 99.000
65.27303 65.000
65.29298 71.000
65.31293 77.000
65.33287 81.000
65.35282 89.000
65.37277 71.000
65.39271 71.000
65.41266 64.000
65.43261 73.000
65.45255 77.000
65.47250 70.000
65.49245 65.000
65.51239 72.000
65.53234 65.000
65.55229 61.000
65.57224 72.000
65.59218 55.000
65.61213 67.000
65.63208 66.000
65.65202 58.000
65.67197 69.000
65.69192 61.000
65.71186 57.000
65.73181 62.000
65.75176 62.000
65.77171 51.000
65.79165 62.000
65.81160 54.000
65.83155 60.000
65.85149 62.000
65.87144 56.000
65.89139 58.000
65.91133 54.000
65.93128 58.000
65.95123 44.000
65.97117 50.000
65.99112 56.000
66.01107 58.000
66.03102 68.000
66.05096 50.000
66.07091 52.000
66.09086 48.000
66.11080 50.000
66.13075 47.000
66.15070 63.000
66.17064 83.000
66.19059 52.000
66.21054 64.000
66.23049 49.000
66.25043 62.000
66.27038 59.000
66.29033 66.000
66.31027 61.000
66.33022 51.000
66.35017 76.000
66.37011 42.000
66.39006 43.000
66.41001 61.000
66.42995 51.000
66.44990 60.000
66.46985 58.000
66.48980 53.000
66.50974 59.000
66.52969 42.000
66.54964 52.000
66.56958 53.000
66.58953 40.000
66.60948 55.000
66.62942 64.000
66.64937 43.000
66.66932 52.000
66.68927 53.000
66.70921 46.000
66.72916 46.000
66.74911 45.000
66.76905 41.000
66.78900 46.000
66.80895 51.000
66.82889 45.000
66.84884 49.000
66.86879 38.000
66.88874 56.000
66.90868 48.000
66.92863 40.000
66.94858 43.000
66.96852 37.000
66.98847 43.000
67.00842 44.000
67.02836 50.000
67.04831 57.000
67.06826 48.000
67.08820 59.000
67.10815 51.000
67.12810 54.000
67.14805 46.000
67.16799 46.000
67.18794 62.000
67.20789 41.000
67.22783 52.000
67.24778 55.000
67.26773 47.000
67.28767 60.000
67.30762 59.000
67.32757 54.000
67.34752 62.000
67.36746 41.000
67.38741 43.000
67.40736 52.000
67.42730 62.000
67.44725 55.000
67.46720 58.000
67.48714 63.000
67.50709 53.000
67.52704 58.000
67.54698 62.000
67.56693 57.000
67.58688 54.000
67.60683 53.000
67.62677 60.000
67.64672 71.000
67.66667 70.000
67.68661 63.000
67.70656 61.000
67.72651 65.000
67.74645 75.000
67.76640 82.000
67.78635 87.000
67.80630 66.000
67.82624 71.000
67.84619 72.000
67.86614 71.000
67.88608 89.000
67.90603 62.000
67.92598 76.000
67.94592 66.000
67.96587 71.000
67.98582 85.000
68.00576 95.000
68.02571 69.000
68.04566 94.000
68.06561 81.000
68.08555 75.000
68.10550 86.000
68.12545 87.000
68.14539 83.000
68.16534 68.000
68.18529 71.000
68.20523 83.000
68.22518 89.000
68.24513 79.000
68.26508 88.000
68.28502 61.000
68.30497 71.000
68.32492 85.000
68.34486 70.000
68.36481 60.000
68.38476 67.000
68.40470 69.000
68.42465 76.000
68.44460 76.000
68.46455 63.000
68.48449 72.000
68.50444 64.000
68.52439 70.000
68.54433 61.000
68.56428 43.000
68.58423 56.000
68.60417 57.000
68.62412 63.000
68.64407 50.000
68.66401 56.000
68.68396 65.000
68.70391 46.000
68.72386 44.000
68.74380 50.000
68.76375 49.000
68.78370 50.000
68.80364 47.000
68.82359 58.000
68.84354 45.000
68.86348 47.000
68.88343 56.000
68.90338 50.000
68.92333 50.000
68.94327 48.000
68.96322 58.000
68.98317 51.000
69.00311 45.000
69.02306 54.000
69.04301 42.000
69.06295 54.000
69.08290 61.000
69.10285 46.000
69.12279 59.000
69.14274 45.000
69.16269 60.000
69.18264 53.000
69.20258 56.000
69.22253 44.000
69.24248 56.000
69.26242 51.000
69.28237 54.000
69.30232 45.000
69.32226 52.000
69.34221 44.000
69.36216 59.000
69.38211 55.000
69.40205 45.000
69.42200 57.000
69.44195 51.000
69.46189 44.000
69.48184 58.000
69.50179 47.000
69.52173 59.000
69.54168 57.000
69.56163 59.000
69.58157 38.000
69.60152 56.000
69.62147 64.000
69.64142 55.000
69.66136 55.000
69.68131 48.000
69.70126 52.000
69.72120 54.000
69.74115 61.000
69.76110 47.000
69.78104 57.000
69.80099 45.000
69.82094 38.000
69.84089 64.000
69.86083 55.000
69.88078 55.000
69.90073 36.000
69.92067 54.000
69.94062 59.000
69.96057 49.000
69.98051 60.000
70.00046 47.000
70.02041 50.000
70.04035 45.000
70.06030 46.000
70.08025 40.000
70.10020 54.000
70.12014 44.000
70.14009 60.000
70.16004 42.000
70.17998 46.000
70.19993 49.000
70.21988 41.000
70.23982 42.000
70.25977 49.000
70.27972 39.000
70.29967 41.000
70.31961 53.000
70.33956 48.000
70.35951 49.000
70.37945 38.000
70.39940 54.000
70.41935 47.000
70.43929 44.000
70.45924 47.000
70.47919 56.000
70.49914 65.000
70.51908 46.000
70.53903 56.000
70.55898 51.000
70.57892 48.000
70.59887 57.000
70.61882 42.000
70.63876 48.000
70.65871 47.000
70.67866 50.000
70.69860 44.000
70.71855 56.000
70.73850 40.000
70.75845 38.000
70.77839 44.000
70.79834 46.000
70.81829 42.000
70.83823 62.000
70.85818 50.000
70.87813 50.000
70.89807 35.000
70.91802 49.000
70.93797 47.000
70.95792 35.000
70.97786 41.000
70.99781 42.000
71.01776 56.000
71.03770 43.000
71.05765 41.000
71.07760 54.000
71.09754 61.000
71.11749 50.000
71.13744 53.000
71.15738 56.000
71.17733 65.000
71.19728 55.000
71.21723 36.000
71.23717 53.000
71.25712 68.000
71.27707 59.000
71.29701 58.000
71.31696 54.000
71.33691 61.000
71.35685 62.000
71.37680 65.000
71.39675 68.000
71.41670 62.000
71.43664 82.000
71.45659 74.000
71.47654 54.000
71.49648 62.000
71.51643 71.000
71.53638 70.000
71.55632 70.000
71.57627 62.000
71.59622 55.000
71.61616 58.000
71.63611 63.000
71.65606 58.000
71.67601 56.000
71.69595 63.000
71.71590 51.000
71.73585 58.000
71.75579 63.000
71.77574 47.000
71.79569 53.000
71.81563 45.000
71.83558 62.000
71.85553 57.000
71.87548 51.000
71.89542 62.000
71.91537 58.000
71.93532 53.000
71.95526 70.000
71.97521 64.000
71.99516 55.000
72.01510 71.000
72.03505 64.000
72.05500 66.000
72.07495 68.000
72.09489 88.000
72.11484 88.000
72.13479 70.000
72.15473 77.000
72.17468 91.000
72.19463 76.000
72.21457 84.000
72.23452 94.000
72.25447 84.000
72.27441 90.000
72.29436 92.000
72.31431 85.000
72.33426 104.000
72.35420 100.000
72.37415 107.000
72.39410 100.000
72.41404 106.000
72.43399 97.000
72.45394 100.000
72.47388 94.000
72.49383 94.000
72.51378 87.000
72.53373 81.000
72.55367 73.000
72.57362 84.000
72.59357 71.000
72.61351 75.000
72.63346 87.000
72.65341 77.000
72.67335 71.000
72.69330 84.000
72.71325 63.000
72.73319 73.000
72.75314 70.000
72.77309 63.000
72.79304 67.000
72.81298 71.000
72.83293 67.000
72.85288 77.000
72.87282 64.000
72.89277 62.000
72.91272 59.000
72.93266 83.000
72.95261 56.000
72.97256 68.000
72.99251 69.000
73.01245 65.000
73.03240 78.000
73.05235 60.000
73.07229 51.000
73.09224 53.000
73.11219 65.000
73.13213 77.000
73.15208 74.000
73.17203 71.000
73.19197 74.000
73.21192 72.000
73.23187 48.000
73.25182 88.000
73.27176 77.000
73.29171 73.000
73.31166 68.000
73.33160 71.000
73.35155 64.000
73.37150 82.000
73.39144 69.000
73.41139 94.000
73.43134 71.000
73.45129 78.000
73.47123 73.000
73.49118 74.000
73.51113 72.000
73.53107 72.000
73.55102 83.000
73.57097 82.000
73.59091 97.000
73.61086 74.000
73.63081 69.000
73.65076 77.000
73.67070 71.000
73.69065 67.000
73.71060 77.000
73.73054 72.000
73.75049 66.000
73.77044 82.000
73.79038 72.000
73.81033 81.000
73.83028 83.000
73.85022 76.000
73.87017 78.000
73.89012 85.000
73.91007 80.000
73.93001 84.000
73.94996 72.000
73.96991 90.000
73.98985 91.000
74.00980 86.000
74.02975 79.000
74.04969 83.000
74.06964 90.000
74.08959 82.000
74.10954 89.000
74.12948 87.000
74.14943 106.000
74.16938 83.000
74.18932 91.000
74.20927 88.000
74.22922 105.000
74.24916 96.000
74.26911 90.000
74.28906 89.000
74.30900 124.000
74.32895 121.000
74.34890 91.000
74.36885 114.000
74.38879 110.000
74.40874 142.000
74.42869 138.000
74.44863 128.000
74.46858 128.000
74.48853 146.000
74.50847 113.000
74.52842 137.000
74.54837 129.000
74.56832 109.000
74.58826 117.000
74.60821 92.000
74.62816 114.000
74.64810 94.000
74.66805 106.000
74.68800 100.000
74.70794 89.000
74.72789 92.000
74.74784 75.000
74.76778 68.000
74.78773 78.000
74.80768 71.000
74.82763 72.000
74.84757 80.000
74.86752 76.000
74.88747 67.000
74.90741 64.000
74.92736 67.000
74.94731 71.000
74.96725 62.000
74.98720 68.000
75.00715 64.000
75.02710 54.000
75.04704 68.000
75.06699 63.000
75.08694 65.000
75.10688 44.000
75.12683 50.000
75.14678 60.000
75.16672 67.000
75.18667 52.000
75.20662 54.000
75.22657 57.000
75.24651 50.000
75.26646 74.000
75.28641 64.000
75.30635 65.000
75.32630 52.000
75.34625 59.000
75.36619 57.000
75.38614 62.000
75.40609 78.000
75.42603 49.000
75.44598 68.000
75.46593 77.000
75.48588 82.000
75.50582 74.000
75.52577 64.000
75.54572 58.000
75.56566 70.000
75.58561 66.000
75.60556 59.000
75.62550 70.000
75.64545 56.000
75.66540 73.000
75.68535 61.000
75.70529 63.000
75.72524 61.000
75.74519 54.000
75.76513 56.000
75.78508 48.000
75.80503 56.000
75.82497 47.000
75.84492 66.000
75.86487 34.000
75.88481 48.000
75.90476 54.000
75.92471 46.000
75.94466 53.000
75.96460 41.000
75.98455 46.000
76.00450 52.000
76.02444 33.000
76.04439 44.000
76.06434 51.000
76.08428 48.000
76.10423 56.000
76.12418 39.000
76.14413 29.000
76.16407 42.000
76.18402 35.000
76.20397 54.000
76.22391 32.000
76.24386 35.000
76.26381 51.000
76.28375 40.000
76.30370 43.000
76.32365 42.000
76.34359 42.000
76.36354 40.000
76.38349 32.000
76.40344 37.000
76.42338 42.000
76.44333 52.000
76.46328 48.000
76.48322 44.000
76.50317 36.000
76.52312 43.000
76.54306 38.000
76.56301 39.000
76.58296 44.000
76.60291 48.000
76.62285 42.000
76.64280 50.000
76.66275 44.000
76.68269 48.000
76.70264 48.000
76.72259 49.000
76.74253 48.000
76.76248 37.000
76.78243 47.000
76.80238 56.000
76.82232 37.000
76.84227 51.000
76.86222 54.000
76.88216 52.000
76.90211 65.000
76.92206 47.000
76.94200 60.000
76.96195 53.000
76.98190 66.000
77.00184 45.000
77.02179 55.000
77.04174 64.000
77.06169 49.000
77.08163 73.000
77.10158 66.000
77.12153 60.000
77.14147 66.000
77.16142 70.000
77.18137 77.000
77.20131 66.000
77.22126 78.000
77.24121 74.000
77.26116 75.000
77.28110 74.000
77.30105 63.000
77.32100 81.000
77.34094 63.000
77.36089 86.000
77.38084 95.000
77.40078 79.000
77.42073 76.000
77.44068 83.000
77.46062 83.000
77.48057 90.000
77.50052 90.000
77.52047 95.000
77.54041 85.000
77.56036 96.000
77.58031 106.000
77.60025 85.000
77.62020 85.000
77.64015 90.000
77.66009 106.000
77.68004 102.000
77.69999 84.000
77.71994 75.000
77.73988 94.000
77.75983 86.000
77.77978 90.000
77.79972 76.000
77.81967 68.000
77.83962 87.000
77.85956 80.000
77.87951 79.000
77.89946 69.000
77.91940 76.000
77.93935 71.000
77.95930 74.000
77.97925 68.000
77.99919 69.000
78.01914 65.000
78.03909 60.000
78.05903 46.000
78.07898 80.000
78.09893 75.000
78.11887 54.000
78.13882 67.000
78.15877 48.000
78.17872 59.000
78.19866 43.000
78.21861 71.000
78.23856 41.000
78.25850 53.000
78.27845 55.000
78.29840 72.000
78.31834 55.000
78.33829 59.000
78.35824 53.000
78.37819 61.000
78.39813 56.000
78.41808 64.000
78.43803 55.000
78.45797 65.000
78.47792 49.000
78.49787 45.000
78.51781 36.000
78.53776 52.000
78.55771 49.000
78.57765 47.000
78.59760 48.000
78.61755 45.000
78.63750 46.000
78.65744 44.000
78.67739 52.000
78.69734 48.000
78.71728 41.000
78.73723 65.000
78.75718 45.000
78.77712 48.000
78.79707 49.000
78.81702 58.000
78.83697 42.000
78.85691 38.000
78.87686 39.000
78.89681 51.000
78.91675 51.000
78.93670 38.000
78.95665 65.000
78.97659 47.000
78.99654 49.000
79.01649 57.000
79.03643 39.000
79.05638 36.000
79.07633 40.000
79.09628 50.000
79.11622 38.000
79.13617 46.000
79.15612 47.000
79.17606 42.000
79.19601 44.000
79.21596 46.000
79.23590 45.000
79.25585 47.000
79.27580 53.000
79.29575 56.000
79.31569 49.000
79.33564 52.000
79.35559 51.000
79.37553 56.000
79.39548 52.000
79.41543 53.000
79.43537 72.000
79.45532 66.000
79.47527 75.000
79.49521 74.000
79.51516 70.000
79.53511 43.000
79.55506 54.000
79.57500 67.000
79.59495 59.000
79.61490 60.000
79.63484 57.000
79.65479 56.000
79.67474 52.000
79.69468 51.000
79.71463 48.000
79.73458 67.000
79.75453 56.000
79.77447 59.000
79.79442 51.000
79.81437 65.000
79.83431 55.000
79.85426 58.000
79.87421 61.000
79.89415 58.000
79.91410 44.000
79.93405 47.000
79.95399 47.000
79.97394 40.000
79.99389 44.000
80.01384 53.000
80.03378 53.000
80.05373 58.000
80.07368 48.000
80.09362 46.000
80.11357 37.000
80.13352 47.000
80.15346 48.000
80.17341 47.000
80.19336 48.000
80.21331 43.000
80.23325 38.000
80.25320 40.000
80.27315 53.000
80.29309 48.000
80.31304 48.000
80.33299 42.000
80.35293 45.000
80.37288 38.000
80.39283 54.000
80.41278 30.000
80.43272 31.000
80.45267 44.000
80.47262 38.000
80.49256 41.000
80.51251 27.000
80.53246 45.000
80.55240 38.000
80.57235 47.000
80.59230 31.000
80.61224 39.000
80.63219 34.000
80.65214 49.000
80.67209 37.000
80.69203 33.000
80.71198 44.000
80.73193 51.000
80.75187 42.000
80.77182 47.000
80.79177 33.000
80.81171 39.000
80.83166 53.000
80.85161 47.000
80.87156 42.000
80.89150 45.000
80.91145 44.000
80.93140 45.000
80.95134 40.000
80.97129 34.000
80.99124 38.000
81.01118 45.000
81.03113 42.000
81.05108 37.000
81.07102 41.000
81.09097 37.000
81.11092 38.000
81.13087 22.000
81.15081 49.000
81.17076 57.000
81.19071 39.000
81.21065 45.000
81.23060 25.000
81.25055 31.000
81.27049 31.000
81.29044 32.000
81.31039 39.000
81.33034 43.000
81.35028 35.000
81.37023 45.000
81.39018 46.000
81.41012 41.000
81.43007 45.000
81.45002 52.000
81.46996 43.000
81.48991 40.000
81.50986 31.000
81.52980 37.000
81.54975 37.000
81.56970 35.000
81.58965 51.000
81.60959 40.000
81.62954 47.000
81.64949 29.000
81.66943 47.000
81.68938 37.000
81.70933 39.000
81.72927 43.000
81.74922 32.000
81.76917 46.000
81.78912 44.000
81.80906 36.000
81.82901 33.000
81.84896 45.000
81.86890 29.000
81.88885 35.000
81.90880 35.000
81.92874 26.000
81.94869 48.000
81.96864 33.000
81.98859 39.000
82.00853 52.000
82.02848 41.000
82.04843 36.000
82.06837 37.000
82.08832 37.000
82.10827 29.000
82.12821 36.000
82.14816 50.000
82.16811 39.000
82.18805 47.000
82.20800 38.000
82.22795 37.000
82.24790 35.000
82.26784 51.000
82.28779 43.000
82.30774 35.000
82.32768 50.000
82.34763 55.000
82.36758 44.000
82.38752 43.000
82.40747 40.000
82.42742 43.000
82.44737 54.000
82.46731 45.000
82.48726 44.000
82.50721 52.000
82.52715 46.000
82.54710 35.000
82.56705 26.000
82.58699 34.000
82.60694 55.000
82.62689 46.000
82.64683 41.000
82.66678 41.000
82.68673 52.000
82.70668 45.000
82.72662 44.000
82.74657 48.000
82.76652 49.000
82.78646 48.000
82.80641 46.000
82.82636 37.000
82.84630 43.000
82.86625 44.000
82.88620 47.000
82.90615 38.000
82.92609 50.000
82.94604 31.000
82.96599 50.000
82.98593 42.000
83.00588 40.000
83.02583 40.000
83.04577 39.000
83.06572 32.000
83.08567 33.000
83.10561 32.000
83.12556 34.000
83.14551 39.000
83.16546 44.000
83.18540 41.000
83.20535 32.000
83.22530 31.000
83.24524 46.000
83.26519 42.000
83.28514 42.000
83.30508 33.000
83.32503 49.000
83.34498 35.000
83.36493 39.000
83.38487 34.000
83.40482 47.000
83.42477 27.000
83.44471 41.000
83.46466 33.000
83.48461 48.000
83.50455 38.000
83.52450 31.000
83.54445 41.000
83.56440 32.000
83.58434 54.000
83.60429 42.000
83.62424 43.000
83.64418 44.000
83.66413 38.000
83.68408 44.000
83.70402 34.000
83.72397 32.000
83.74392 42.000
83.76386 26.000
83.78381 35.000
83.80376 37.000
83.82371 53.000
83.84365 49.000
83.86360 27.000
83.88355 44.000
83.90349 33.000
83.92344 38.000
83.94339 36.000
83.96333 41.000
83.98328 48.000
84.00323 49.000
84.02318 43.000
84.04312 58.000
84.06307 43.000
84.08302 47.000
84.10296 43.000
84.12291 44.000
84.14286 43.000
84.16280 48.000
84.18275 45.000
84.20270 41.000
84.22264 39.000
84.24259 41.000
84.26254 43.000
84.28249 36.000
84.30243 49.000
84.32238 35.000
84.34233 36.000
84.36227 40.000
84.38222 47.000
84.40217 43.000
84.42211 42.000
84.44206 42.000
84.46201 23.000
84.48196 34.000
84.50190 39.000
84.52185 42.000
84.54180 42.000
84.56174 47.000
84.58169 49.000
84.60164 30.000
84.62158 40.000
84.64153 32.000
84.66148 42.000
84.68142 44.000
84.70137 52.000
84.72132 34.000
84.74127 43.000
84.76121 40.000
84.78116 40.000
84.80111 46.000
84.82105 30.000
84.84100 36.000
84.86095 48.000
84.88089 50.000
84.90084 49.000
84.92079 39.000
84.94074 43.000
84.96068 39.000
84.98063 23.000
85.00058 39.000
85.02052 36.000
85.04047 47.000
85.06042 44.000
85.08036 48.000
85.10031 36.000
85.12026 40.000
85.14021 39.000
85.16015 45.000
85.18010 38.000
85.20005 56.000
85.21999 45.000
85.23994 33.000
85.25989 40.000
85.27983 43.000
85.29978 34.000
85.31973 36.000
85.33967 52.000
85.35962 32.000
85.37957 43.000
85.39952 42.000
85.41946 49.000
85.43941 45.000
85.45936 45.000
85.47930 37.000
85.49925 37.000
85.51920 40.000
85.53914 38.000
85.55909 47.000
85.57904 55.000
85.59899 44.000
85.61893 32.000
85.63888 47.000
85.65883 51.000
85.67877 58.000
85.69872 40.000
85.71867 43.000
85.73861 46.000
85.75856 39.000
85.77851 50.000
85.79845 41.000
85.81840 44.000
85.83835 56.000
85.85830 61.000
85.87824 55.000
85.89819 56.000
85.91814 44.000
85.93808 45.000
85.95803 38.000
85.97798 60.000
85.99792 73.000
86.01787 69.000
86.03782 63.000
86.05777 58.000
86.07771 63.000
86.09766 49.000
86.11761 50.000
86.13755 50.000
86.15750 65.000
86.17745 42.000
86.19739 55.000
86.21734 62.000
86.23729 54.000
86.25723 61.000
86.27718 62.000
86.29713 53.000
86.31708 53.000
86.33702 55.000
86.35697 60.000
86.37692 44.000
86.39686 44.000
86.41681 54.000
86.43676 64.000
86.45670 46.000
86.47665 47.000
86.49660 45.000
86.51655 44.000
86.53649 50.000
86.55644 50.000
86.57639 54.000
86.59633 47.000
86.61628 52.000
86.63623 37.000
86.65617 48.000
86.67612 56.000
86.69607 50.000
86.71602 64.000
86.73596 39.000
86.75591 48.000
86.77586 51.000
86.79580 55.000
86.81575 50.000
86.83570 39.000
86.85564 35.000
86.87559 60.000
86.89554 49.000
86.91548 48.000
86.93543 51.000
86.95538 43.000
86.97533 46.000
86.99527 55.000
87.01522 44.000
87.03517 51.000
87.05511 48.000
87.07506 41.000
87.09501 56.000
87.11495 44.000
87.13490 34.000
87.15485 65.000
87.17480 51.000
87.19474 55.000
87.21469 44.000
87.23464 45.000
87.25458 71.000
87.27453 46.000
87.29448 79.000
87.31442 57.000
87.33437 55.000
87.35432 59.000
87.37426 62.000
87.39421 62.000
87.41416 71.000
87.43411 66.000
87.45405 70.000
87.47400 66.000
87.49395 66.000
87.51389 47.000
87.53384 52.000
87.55379 67.000
87.57373 71.000
87.59368 47.000
87.61363 43.000
87.63358 58.000
87.65352 41.000
87.67347 46.000
87.69342 54.000
87.71336 54.000
87.73331 44.000
87.75326 57.000
87.77320 53.000
87.79315 39.000
87.81310 40.000
87.83304 46.000
87.85299 43.000
87.87294 39.000
87.89289 33.000
87.91283 31.000
87.93278 40.000
87.95273 34.000
87.97267 40.000
87.99262 35.000
88.01257 46.000
88.03251 33.000
88.05246 27.000
88.07241 45.000
88.09236 42.000
88.11230 39.000
88.13225 39.000
88.15220 30.000
88.17214 48.000
88.19209 47.000
88.21204 51.000
88.23198 38.000
88.25193 42.000
88.27188 44.000
88.29183 42.000
88.31177 42.000
88.33172 34.000
88.35167 35.000
88.37161 39.000
88.39156 42.000
88.41151 40.000
88.43145 31.000
88.45140 38.000
88.47135 54.000
88.49129 59.000
88.51124 34.000
88.53119 50.000
88.55114 41.000
88.57108 47.000
88.59103 40.000
88.61098 47.000
88.63092 38.000
88.65087 44.000
88.67082 41.000
88.69076 52.000
88.71071 42.000
88.73066 32.000
88.75061 41.000
88.77055 37.000
88.79050 52.000
88.81045 51.000
88.83039 45.000
88.85034 42.000
88.87029 58.000
88.89023 51.000
88.91018 52.000
88.93013 44.000
88.95007 46.000
88.97002 42.000
88.98997 44.000
89.00992 50.000
89.02986 47.000
89.04981 46.000
89.06976 54.000
89.08970 57.000
89.10965 54.000
89.12960 50.000
89.14954 44.000
89.16949 45.000
89.18944 56.000
89.20939 58.000
89.22933 39.000
89.24928 43.000
89.26923 43.000
89.28917 51.000
89.30912 48.000
89.32907 57.000
89.34901 39.000
89.36896 39.000
89.38891 65.000
89.40885 51.000
89.42880 61.000
89.44875 55.000
89.46870 44.000
89.48864 60.000
89.50859 61.000
89.52854 47.000
89.54848 51.000
89.56843 60.000
89.58838 51.000
89.60832 52.000
89.62827 46.000
89.64822 58.000
89.66817 73.000
89.68811 82.000
89.70806 80.000
89.72801 71.000
89.74795 71.000
89.76790 93.000
89.78785 70.000
89.80779 76.000
89.82774 77.000
89.84769 85.000
89.86764 99.000
89.88758 79.000
89.90753 82.000
89.92748 70.000
89.94742 96.000
89.96737 92.000
89.98732 82.000
90.00726 96.000
