10.00000 268.000
10.01995 269.000
10.03989 279.000
10.05984 293.000
10.07979 273.000
10.09973 274.000
10.11968 293.000
10.13963 283.000
10.15958 323.000
10.17952 246.000
10.19947 283.000
10.21942 281.000
10.23936 275.000
10.25931 253.000
10.27926 267.000
10.29920 301.000
10.31915 290.000
10.33910 274.000
10.35905 290.000
10.37899 272.000
10.39894 299.000
10.41889 272.000
10.43883 267.000
10.45878 285.000
10.47873 288.000
10.49867 261.000
10.51862 239.000
10.53857 277.000
10.55851 295.000
10.57846 282.000
10.59841 298.000
10.61836 292.000
10.63830 273.000
10.65825 279.000
10.67820 269.000
10.69814 282.000
10.71809 257.000
10.73804 288.000
10.75798 264.000
10.77793 333.000
10.79788 282.000
10.81783 297.000
10.83777 268.000
10.85772 270.000
10.87767 300.000
10.89761 329.000
10.91756 296.000
10.93751 322.000
10.95745 295.000
10.97740 265.000
10.99735 294.000
11.01730 315.000
11.03724 278.000
11.05719 274.000
11.07714 297.000
11.09708 292.000
11.11703 341.000
11.13698 277.000
11.15692 293.000
11.17687 276.000
11.19682 309.000
11.21676 313.000
11.23671 295.000
11.25666 281.000
11.27661 304.000
11.29655 298.000
11.31650 304.000
11.33645 284.000
11.35639 282.000
11.37634 321.000
11.39629 283.000
11.41623 312.000
11.43618 312.000
11.45613 299.000
11.47608 327.000
11.49602 318.000
11.51597 293.000
11.53592 321.000
11.55586 315.000
11.57581 311.000
11.59576 304.000
11.61570 306.000
11.63565 303.000
11.65560 321.000
11.67554 328.000
11.69549 320.000
11.71544 297.000
11.73539 282.000
11.75533 289.000
11.77528 312.000
11.79523 326.000
11.81517 290.000
11.83512 320.000
11.85507 312.000
11.87501 299.000
11.89496 325.000
11.91491 300.000
11.93486 285.000
11.95480 312.000
11.97475 314.000
11.99470 339.000
12.01464 300.000
12.03459 296.000
12.05454 324.000
12.07448 304.000
12.09443 323.000
12.11438 340.000
12.13432 317.000
12.15427 305.000
12.17422 342.000
12.19417 311.000
12.21411 293.000
12.23406 349.000
12.25401 296.000
12.27395 268.000
12.29390 315.000
12.31385 276.000
12.33379 311.000
12.35374 322.000
12.37369 326.000
12.39364 291.000
12.41358 362.000
12.43353 307.000
12.45348 318.000
12.47342 324.000
12.49337 355.000
12.51332 329.000
12.53326 354.000
12.55321 323.000
12.57316 317.000
12.59311 333.000
12.61305 334.000
12.63300 335.000
12.65295 314.000
12.67289 322.000
12.69284 286.000
12.71279 320.000
12.73273 329.000
12.75268 330.000
12.77263 318.000
12.79257 339.000
12.81252 322.000
12.83247 289.000
12.85242 319.000
12.87236 303.000
12.89231 335.000
12.91226 294.000
12.93220 332.000
12.95215 344.000
12.97210 293.000
12.99204 350.000
13.01199 311.000
13.03194 302.000
13.05189 273.000
13.07183 342.000
13.09178 334.000
13.11173 319.000
13.13167 365.000
13.15162 310.000
13.17157 338.000
13.19151 305.000
13.21146 304.000
13.23141 336.000
13.25135 320.000
13.27130 316.000
13.29125 315.000
13.31120 314.000
13.33114 339.000
13.35109 308.000
13.37104 338.000
13.39098 326.000
13.41093 318.000
13.43088 325.000
13.45082 331.000
13.47077 362.000
13.49072 325.000
13.51067 329.000
13.53061 352.000
13.55056 291.000
13.57051 329.000
13.59045 343.000
13.61040 346.000
13.63035 345.000
13.65029 386.000
13.67024 409.000
13.69019 352.000
13.71013 352.000
13.73008 342.000
13.75003 344.000
13.76998 329.000
13.78992 324.000
13.80987 351.000
13.82982 377.000
13.84976 375.000
13.86971 331.000
13.88966 347.000
13.90960 343.000
13.92955 346.000
13.94950 330.000
13.96945 343.000
13.98939 368.000
14.00934 389.000
14.02929 313.000
14.04923 349.000
14.06918 363.000
14.08913 357.000
14.10907 313.000
14.12902 315.000
14.14897 349.000
14.16892 379.000
14.18886 338.000
14.20881 352.000
14.22876 322.000
14.24870 367.000
14.26865 372.000
14.28860 328.000
14.30854 344.000
14.32849 346.000
14.34844 328.000
14.36838 364.000
14.38833 349.000
14.40828 316.000
14.42823 348.000
14.44817 329.000
14.46812 378.000
14.48807 347.000
14.50801 355.000
14.52796 361.000
14.54791 379.000
14.56785 362.000
14.58780 371.000
14.60775 317.000
14.62770 353.000
14.64764 381.000
14.66759 303.000
14.68754 388.000
14.70748 370.000
14.72743 361.000
14.74738 325.000
14.76732 368.000
14.78727 343.000
14.80722 325.000
14.82716 353.000
14.84711 322.000
14.86706 377.000
14.88701 347.000
14.90695 355.000
14.92690 361.000
14.94685 394.000
14.96679 391.000
14.98674 325.000
15.00669 362.000
15.02663 322.000
15.04658 351.000
15.06653 358.000
15.08648 322.000
15.10642 388.000
15.12637 354.000
15.14632 372.000
15.16626 360.000
15.18621 378.000
15.20616 368.000
15.22610 354.000
15.24605 383.000
15.26600 355.000
15.28594 369.000
15.30589 368.000
15.32584 373.000
15.34579 390.000
15.36573 361.000
15.38568 369.000
15.40563 401.000
15.42557 383.000
15.44552 360.000
15.46547 352.000
15.48541 351.000
15.50536 363.000
15.52531 435.000
15.54526 355.000
15.56520 417.000
15.58515 422.000
15.60510 403.000
15.62504 407.000
15.64499 434.000
15.66494 430.000
15.68488 459.000
15.70483 528.000
15.72478 511.000
15.74472 550.000
15.76467 570.000
15.78462 719.000
15.80457 839.000
15.82451 983.000
15.84446 1207.000
15.86441 1256.000
15.88435 1720.000
15.90430 1846.000
15.92425 1936.000
15.94419 1708.000
15.96414 1347.000
15.98409 1004.000
16.00404 759.000
16.02398 615.000
16.04393 588.000
16.06388 549.000
16.08382 496.000
16.10377 459.000
16.12372 437.000
16.14366 479.000
16.16361 428.000
16.18356 452.000
16.20351 455.000
16.22345 412.000
16.24340 436.000
16.26335 429.000
16.28329 449.000
16.30324 455.000
16.32319 457.000
16.34313 459.000
16.36308 483.000
16.38303 455.000
16.40297 454.000
16.42292 480.000
16.44287 484.000
16.46282 498.000
16.48276 499.000
16.50271 490.000
16.52266 508.000
16.54260 469.000
16.56255 486.000
16.58250 460.000
16.60244 398.000
16.62239 407.000
16.64234 404.000
16.66229 417.000
16.68223 420.000
16.70218 406.000
16.72213 368.000
16.74207 395.000
16.76202 383.000
16.78197 377.000
16.80191 381.000
16.82186 405.000
16.84181 371.000
16.86175 407.000
16.88170 382.000
16.90165 394.000
16.92160 361.000
16.94154 383.000
16.96149 354.000
16.98144 373.000
17.00138 397.000
17.02133 391.000
17.04128 376.000
17.06122 360.000
17.08117 366.000
17.10112 408.000
17.12107 343.000
17.14101 386.000
17.16096 361.000
17.18091 356.000
17.20085 384.000
17.22080 393.000
17.24075 379.000
17.26069 383.000
17.28064 371.000
17.30059 376.000
17.32053 379.000
17.34048 391.000
17.36043 371.000
17.38038 395.000
17.40032 384.000
17.42027 398.000
17.44022 398.000
17.46016 359.000
17.48011 355.000
17.50006 375.000
17.52000 392.000
17.53995 389.000
17.55990 400.000
17.57985 355.000
17.59979 397.000
17.61974 362.000
17.63969 385.000
17.65963 367.000
17.67958 373.000
17.69953 374.000
17.71947 368.000
17.73942 403.000
17.75937 356.000
17.77932 383.000
17.79926 381.000
17.81921 391.000
17.83916 371.000
17.85910 377.000
17.87905 397.000
17.89900 367.000
17.91894 375.000
17.93889 376.000
17.95884 348.000
17.97878 353.000
17.99873 419.000
18.01868 357.000
18.03863 361.000
18.05857 387.000
18.07852 420.000
18.09847 387.000
18.11841 389.000
18.13836 400.000
18.15831 412.000
18.17825 407.000
18.19820 400.000
18.21815 373.000
18.23810 374.000
18.25804 416.000
18.27799 365.000
18.29794 416.000
18.31788 382.000
18.33783 435.000
18.35778 457.000
18.37772 437.000
18.39767 460.000
18.41762 478.000
18.43756 549.000
18.45751 594.000
18.47746 569.000
18.49741 555.000
18.51735 517.000
18.53730 441.000
18.55725 444.000
18.57719 433.000
18.59714 424.000
18.61709 401.000
18.63703 407.000
18.65698 355.000
18.67693 370.000
18.69688 392.000
18.71682 385.000
18.73677 352.000
18.75672 395.000
18.77666 383.000
18.79661 419.000
18.81656 389.000
18.83650 366.000
18.85645 394.000
18.87640 407.000
18.89634 398.000
18.91629 364.000
18.93624 415.000
18.95619 410.000
18.97613 418.000
18.99608 373.000
19.01603 382.000
19.03597 399.000
19.05592 384.000
19.07587 396.000
19.09581 376.000
19.11576 367.000
19.13571 387.000
19.15566 382.000
19.17560 380.000
19.19555 406.000
19.21550 346.000
19.23544 355.000
19.25539 418.000
19.27534 363.000
19.29528 354.000
19.31523 394.000
19.33518 381.000
19.35513 393.000
19.37507 388.000
19.39502 381.000
19.41497 356.000
19.43491 363.000
19.45486 406.000
19.47481 391.000
19.49475 377.000
19.51470 395.000
19.53465 342.000
19.55459 408.000
19.57454 403.000
19.59449 417.000
19.61444 377.000
19.63438 382.000
19.65433 396.000
19.67428 400.000
19.69422 405.000
19.71417 367.000
19.73412 385.000
19.75406 406.000
19.77401 412.000
19.79396 394.000
19.81391 394.000
19.83385 386.000
19.85380 391.000
19.87375 401.000
19.89369 410.000
19.91364 384.000
19.93359 370.000
19.95353 361.000
19.97348 380.000
19.99343 417.000
20.01337 376.000
20.03332 374.000
20.05327 394.000
20.07322 374.000
20.09316 388.000
20.11311 381.000
20.13306 407.000
20.15300 354.000
20.17295 388.000
20.19290 400.000
20.21284 376.000
20.23279 398.000
20.25274 388.000
20.27269 390.000
20.29263 380.000
20.31258 395.000
20.33253 391.000
20.35247 393.000
20.37242 375.000
20.39237 385.000
20.41231 397.000
20.43226 415.000
20.45221 398.000
20.47215 379.000
20.49210 399.000
20.51205 412.000
20.53200 399.000
20.55194 394.000
20.57189 408.000
20.59184 441.000
20.61178 360.000
20.63173 421.000
20.65168 377.000
20.67162 400.000
20.69157 366.000
20.71152 406.000
20.73147 396.000
20.75141 388.000
20.77136 407.000
20.79131 425.000
20.81125 360.000
20.83120 421.000
20.85115 381.000
20.87109 424.000
20.89104 405.000
20.91099 418.000
20.93094 408.000
20.95088 411.000
20.97083 465.000
20.99078 483.000
21.01072 456.000
21.03067 517.000
21.05062 497.000
21.07056 508.000
21.09051 589.000
21.11046 547.000
21.13040 520.000
21.15035 507.000
21.17030 535.000
21.19025 509.000
21.21019 472.000
21.23014 448.000
21.25009 438.000
21.27003 428.000
21.28998 408.000
21.30993 393.000
21.32987 413.000
21.34982 384.000
21.36977 408.000
21.38972 408.000
21.40966 439.000
21.42961 400.000
21.44956 418.000
21.46950 413.000
21.48945 417.000
21.50940 389.000
21.52934 400.000
21.54929 363.000
21.56924 400.000
21.58918 425.000
21.60913 402.000
21.62908 397.000
21.64903 364.000
21.66897 422.000
21.68892 413.000
21.70887 415.000
21.72881 426.000
21.74876 369.000
21.76871 351.000
21.78865 435.000
21.80860 410.000
21.82855 401.000
21.84850 390.000
21.86844 414.000
21.88839 401.000
21.90834 425.000
21.92828 380.000
21.94823 393.000
21.96818 409.000
21.98812 413.000
22.00807 394.000
22.02802 412.000
22.04796 404.000
22.06791 365.000
22.08786 374.000
22.10781 392.000
22.12775 406.000
22.14770 405.000
22.16765 387.000
22.18759 377.000
22.20754 373.000
22.22749 423.000
22.24743 407.000
22.26738 408.000
22.28733 438.000
22.30728 426.000
22.32722 414.000
22.34717 419.000
22.36712 365.000
22.38706 424.000
22.40701 372.000
22.42696 378.000
22.44690 416.000
22.46685 364.000
22.48680 384.000
22.50675 362.000
22.52669 403.000
22.54664 414.000
22.56659 408.000
22.58653 417.000
22.60648 404.000
22.62643 411.000
22.64637 412.000
22.66632 444.000
22.68627 408.000
22.70621 409.000
22.72616 413.000
22.74611 411.000
22.76606 409.000
22.78600 408.000
22.80595 397.000
22.82590 396.000
22.84584 406.000
22.86579 394.000
22.88574 422.000
22.90568 399.000
22.92563 391.000
22.94558 415.000
22.96553 412.000
22.98547 404.000
23.00542 383.000
23.02537 389.000
23.04531 418.000
23.06526 399.000
23.08521 431.000
23.10515 384.000
23.12510 410.000
23.14505 387.000
23.16499 426.000
23.18494 372.000
23.20489 399.000
23.22484 401.000
23.24478 382.000
23.26473 396.000
23.28468 415.000
23.30462 402.000
23.32457 408.000
23.34452 382.000
23.36446 420.000
23.38441 410.000
23.40436 434.000
23.42431 378.000
23.44425 467.000
23.46420 393.000
23.48415 417.000
23.50409 406.000
23.52404 415.000
23.54399 426.000
23.56393 395.000
23.58388 423.000
23.60383 386.000
23.62377 413.000
23.64372 397.000
23.66367 390.000
23.68362 422.000
23.70356 403.000
23.72351 408.000
23.74346 410.000
23.76340 397.000
23.78335 388.000
23.80330 417.000
23.82324 433.000
23.84319 424.000
23.86314 408.000
23.88309 423.000
23.90303 397.000
23.92298 394.000
23.94293 433.000
23.96287 376.000
23.98282 408.000
24.00277 365.000
24.02271 420.000
24.04266 387.000
24.06261 409.000
24.08256 433.000
24.10250 417.000
24.12245 378.000
24.14240 411.000
24.16234 398.000
24.18229 381.000
24.20224 415.000
24.22218 415.000
24.24213 381.000
24.26208 433.000
24.28202 403.000
24.30197 398.000
24.32192 413.000
24.34187 402.000
24.36181 402.000
24.38176 403.000
24.40171 381.000
24.42165 429.000
24.44160 412.000
24.46155 380.000
24.48149 399.000
24.50144 383.000
24.52139 443.000
24.54134 383.000
24.56128 389.000
24.58123 409.000
24.60118 463.000
24.62112 427.000
24.64107 391.000
24.66102 423.000
24.68096 378.000
24.70091 426.000
24.72086 441.000
24.74080 371.000
24.76075 393.000
24.78070 411.000
24.80065 449.000
24.82059 421.000
24.84054 418.000
24.86049 423.000
24.88043 396.000
24.90038 426.000
24.92033 429.000
24.94027 434.000
24.96022 457.000
24.98017 413.000
25.00012 448.000
25.02006 389.000
25.04001 434.000
25.05996 391.000
25.07990 408.000
25.09985 399.000
25.11980 406.000
25.13974 425.000
25.15969 417.000
25.17964 406.000
25.19958 389.000
25.21953 424.000
25.23948 398.000
25.25943 412.000
25.27937 425.000
25.29932 443.000
25.31927 396.000
25.33921 408.000
25.35916 432.000
25.37911 388.000
25.39905 417.000
25.41900 401.000
25.43895 420.000
25.45890 436.000
25.47884 442.000
25.49879 411.000
25.51874 423.000
25.53868 383.000
25.55863 387.000
25.57858 380.000
25.59852 430.000
25.61847 427.000
25.63842 393.000
25.65837 416.000
25.67831 436.000
25.69826 387.000
25.71821 416.000
25.73815 452.000
25.75810 422.000
25.77805 438.000
25.79799 412.000
25.81794 410.000
25.83789 407.000
25.85783 371.000
25.87778 416.000
25.89773 385.000
25.91768 427.000
25.93762 419.000
25.95757 403.000
25.97752 424.000
25.99746 358.000
26.01741 387.000
26.03736 413.000
26.05730 415.000
26.07725 435.000
26.09720 432.000
26.11715 402.000
26.13709 453.000
26.15704 376.000
26.17699 424.000
26.19693 411.000
26.21688 455.000
26.23683 436.000
26.25677 407.000
26.27672 427.000
26.29667 413.000
26.31661 396.000
26.33656 426.000
26.35651 460.000
26.37646 406.000
26.39640 398.000
26.41635 435.000
26.43630 414.000
26.45624 443.000
26.47619 425.000
26.49614 429.000
26.51608 451.000
26.53603 440.000
26.55598 413.000
26.57593 463.000
26.59587 461.000
26.61582 425.000
26.63577 425.000
26.65571 435.000
26.67566 424.000
26.69561 414.000
26.71555 449.000
26.73550 423.000
26.75545 401.000
26.77539 415.000
26.79534 467.000
26.81529 421.000
26.83524 404.000
26.85518 419.000
26.87513 453.000
26.89508 415.000
26.91502 394.000
26.93497 469.000
26.95492 447.000
26.97486 467.000
26.99481 439.000
27.01476 436.000
27.03471 416.000
27.05465 447.000
27.07460 384.000
27.09455 392.000
27.11449 406.000
27.13444 456.000
27.15439 463.000
27.17433 390.000
27.19428 432.000
27.21423 442.000
27.23417 425.000
27.25412 454.000
27.27407 429.000
27.29402 459.000
27.31396 438.000
27.33391 489.000
27.35386 429.000
27.37380 467.000
27.39375 443.000
27.41370 447.000
27.43364 423.000
27.45359 409.000
27.47354 450.000
27.49349 444.000
27.51343 475.000
27.53338 455.000
27.55333 448.000
27.57327 434.000
27.59322 424.000
27.61317 413.000
27.63311 425.000
27.65306 449.000
27.67301 466.000
27.69296 449.000
27.71290 468.000
27.73285 394.000
27.75280 450.000
27.77274 397.000
27.79269 413.000
27.81264 419.000
27.83258 412.000
27.85253 456.000
27.87248 419.000
27.89242 432.000
27.91237 423.000
27.93232 444.000
27.95227 403.000
27.97221 392.000
27.99216 466.000
28.01211 433.000
28.03205 404.000
28.05200 448.000
28.07195 431.000
28.09189 436.000
28.11184 454.000
28.13179 411.000
28.15174 406.000
28.17168 435.000
28.19163 451.000
28.21158 445.000
28.23152 412.000
28.25147 457.000
28.27142 440.000
28.29136 408.000
28.31131 413.000
28.33126 422.000
28.35120 436.000
28.37115 434.000
28.39110 418.000
28.41105 443.000
28.43099 384.000
28.45094 427.000
28.47089 433.000
28.49083 412.000
28.51078 405.000
28.53073 451.000
28.55067 466.000
28.57062 449.000
28.59057 427.000
28.61052 417.000
28.63046 450.000
28.65041 432.000
28.67036 463.000
28.69030 456.000
28.71025 444.000
28.73020 434.000
28.75014 422.000
28.77009 437.000
28.79004 416.000
28.80998 396.000
28.82993 411.000
28.84988 405.000
28.86983 420.000
28.88977 454.000
28.90972 455.000
28.92967 415.000
28.94961 467.000
28.96956 459.000
28.98951 438.000
29.00945 464.000
29.02940 436.000
29.04935 436.000
29.06930 407.000
29.08924 419.000
29.10919 422.000
29.12914 440.000
29.14908 430.000
29.16903 432.000
29.18898 426.000
29.20892 468.000
29.22887 457.000
29.24882 465.000
29.26877 449.000
29.28871 456.000
29.30866 429.000
29.32861 439.000
29.34855 442.000
29.36850 434.000
29.38845 436.000
29.40839 451.000
29.42834 464.000
29.44829 462.000
29.46823 482.000
29.48818 451.000
29.50813 465.000
29.52808 510.000
29.54802 417.000
29.56797 435.000
29.58792 473.000
29.60786 469.000
29.62781 456.000
29.64776 458.000
29.66770 497.000
29.68765 506.000
29.70760 442.000
29.72755 442.000
29.74749 461.000
29.76744 466.000
29.78739 474.000
29.80733 456.000
29.82728 435.000
29.84723 498.000
29.86717 449.000
29.88712 431.000
29.90707 456.000
29.92701 458.000
29.94696 458.000
29.96691 468.000
29.98686 471.000
30.00680 463.000
30.02675 466.000
30.04670 432.000
30.06664 452.000
30.08659 430.000
30.10654 481.000
30.12648 471.000
30.14643 534.000
30.16638 481.000
30.18633 542.000
30.20627 557.000
30.22622 551.000
30.24617 595.000
30.26611 698.000
30.28606 788.000
30.30601 882.000
30.32595 993.000
30.34590 865.000
30.36585 782.000
30.38579 778.000
30.40574 741.000
30.42569 654.000
30.44564 570.000
30.46558 562.000
30.48553 513.000
30.50548 506.000
30.52542 493.000
30.54537 483.000
30.56532 470.000
30.58526 512.000
30.60521 478.000
30.62516 456.000
30.64511 494.000
30.66505 433.000
30.68500 418.000
30.70495 503.000
30.72489 466.000
30.74484 426.000
30.76479 460.000
30.78473 472.000
30.80468 428.000
30.82463 463.000
30.84458 463.000
30.86452 450.000
30.88447 436.000
30.90442 405.000
30.92436 473.000
30.94431 464.000
30.96426 505.000
30.98420 466.000
31.00415 446.000
31.02410 463.000
31.04404 497.000
31.06399 448.000
31.08394 441.000
31.10389 479.000
31.12383 412.000
31.14378 477.000
31.16373 475.000
31.18367 451.000
31.20362 460.000
31.22357 475.000
31.24351 450.000
31.26346 446.000
31.28341 471.000
31.30336 479.000
31.32330 465.000
31.34325 476.000
31.36320 481.000
31.38314 437.000
31.40309 501.000
31.42304 457.000
31.44298 478.000
31.46293 517.000
31.48288 473.000
31.50282 476.000
31.52277 459.000
31.54272 476.000
31.56267 475.000
31.58261 461.000
31.60256 442.000
31.62251 475.000
31.64245 448.000
31.66240 445.000
31.68235 481.000
31.70229 413.000
31.72224 430.000
31.74219 518.000
31.76214 483.000
31.78208 456.000
31.80203 431.000
31.82198 464.000
31.84192 478.000
31.86187 471.000
31.88182 485.000
31.90176 477.000
31.92171 510.000
31.94166 507.000
31.96160 562.000
31.98155 502.000
32.00150 537.000
32.02145 607.000
32.04139 609.000
32.06134 594.000
32.08129 620.000
32.10123 616.000
32.12118 581.000
32.14113 574.000
32.16107 575.000
32.18102 554.000
32.20097 582.000
32.22092 530.000
32.24086 491.000
32.26081 523.000
32.28076 521.000
32.30070 540.000
32.32065 533.000
32.34060 542.000
32.36054 512.000
32.38049 558.000
32.40044 569.000
32.42039 519.000
32.44033 633.000
32.46028 657.000
32.48023 671.000
32.50017 722.000
32.52012 712.000
32.54007 785.000
32.56001 781.000
32.57996 806.000
32.59991 714.000
32.61985 709.000
32.63980 625.000
32.65975 626.000
32.67970 547.000
32.69964 578.000
32.71959 515.000
32.73954 500.000
32.75948 503.000
32.77943 498.000
32.79938 468.000
32.81932 478.000
32.83927 475.000
32.85922 493.000
32.87917 474.000
32.89911 452.000
32.91906 493.000
32.93901 462.000
32.95895 462.000
32.97890 498.000
32.99885 510.000
33.01879 475.000
33.03874 482.000
33.05869 460.000
33.07863 464.000
33.09858 499.000
33.11853 484.000
33.13848 473.000
33.15842 479.000
33.17837 463.000
33.19832 474.000
33.21826 470.000
33.23821 460.000
33.25816 457.000
33.27810 482.000
33.29805 491.000
33.31800 505.000
33.33795 492.000
33.35789 482.000
33.37784 459.000
33.39779 481.000
33.41773 480.000
33.43768 508.000
33.45763 463.000
33.47757 445.000
33.49752 461.000
33.51747 498.000
33.53741 477.000
33.55736 461.000
33.57731 478.000
33.59726 471.000
33.61720 478.000
33.63715 514.000
33.65710 495.000
33.67704 498.000
33.69699 480.000
33.71694 455.000
33.73688 467.000
33.75683 444.000
33.77678 489.000
33.79673 438.000
33.81667 486.000
33.83662 474.000
33.85657 491.000
33.87651 490.000
33.89646 509.000
33.91641 472.000
33.93635 486.000
33.95630 443.000
33.97625 491.000
33.99620 491.000
34.01614 484.000
34.03609 481.000
34.05604 493.000
34.07598 461.000
34.09593 461.000
34.11588 501.000
34.13582 527.000
34.15577 475.000
34.17572 489.000
34.19566 523.000
34.21561 447.000
34.23556 516.000
34.25551 483.000
34.27545 517.000
34.29540 495.000
34.31535 469.000
34.33529 518.000
34.35524 503.000
34.37519 450.000
34.39513 520.000
34.41508 510.000
34.43503 513.000
34.45498 516.000
34.47492 518.000
34.49487 486.000
34.51482 508.000
34.53476 551.000
34.55471 574.000
34.57466 573.000
34.59460 579.000
34.61455 571.000
34.63450 601.000
34.65444 627.000
34.67439 620.000
34.69434 558.000
34.71429 639.000
34.73423 648.000
34.75418 611.000
34.77413 606.000
34.79407 653.000
34.81402 584.000
34.83397 639.000
34.85391 622.000
34.87386 636.000
34.89381 661.000
34.91376 636.000
34.93370 608.000
34.95365 608.000
34.97360 638.000
34.99354 562.000
35.01349 633.000
35.03344 626.000
35.05338 595.000
35.07333 632.000
35.09328 611.000
35.11322 599.000
35.13317 595.000
35.15312 700.000
35.17307 666.000
35.19301 668.000
35.21296 686.000
35.23291 728.000
35.25285 762.000
35.27280 844.000
35.29275 832.000
35.31269 931.000
35.33264 1069.000
35.35259 1152.000
35.37254 1323.000
35.39248 1542.000
35.41243 1736.000
35.43238 1913.000
35.45232 2312.000
35.47227 2643.000
35.49222 2911.000
35.51216 3163.000
35.53211 3263.000
35.55206 3622.000
35.57201 4128.000
35.59195 4468.000
35.61190 4389.000
35.63185 4315.000
35.65179 4242.000
35.67174 4150.000
35.69169 4070.000
35.71163 3865.000
35.73158 3327.000
35.75153 2839.000
35.77147 2485.000
35.79142 2254.000
35.81137 1937.000
35.83132 1626.000
35.85126 1299.000
35.87121 1174.000
35.89116 1061.000
35.91110 961.000
35.93105 854.000
35.95100 828.000
35.97094 754.000
35.99089 690.000
36.01084 710.000
36.03079 675.000
36.05073 610.000
36.07068 624.000
36.09063 581.000
36.11057 612.000
36.13052 613.000
36.15047 600.000
36.17041 595.000
36.19036 571.000
36.21031 601.000
36.23025 575.000
36.25020 522.000
36.27015 504.000
36.29010 555.000
36.31004 563.000
36.32999 612.000
36.34994 567.000
36.36988 569.000
36.38983 558.000
36.40978 572.000
36.42972 526.000
36.44967 553.000
36.46962 558.000
36.48957 564.000
36.50951 540.000
36.52946 520.000
36.54941 537.000
36.56935 534.000
36.58930 556.000
36.60925 560.000
36.62919 540.000
36.64914 507.000
36.66909 542.000
36.68903 584.000
36.70898 534.000
36.72893 586.000
36.74888 510.000
36.76882 556.000
36.78877 563.000
36.80872 485.000
36.82866 539.000
36.84861 521.000
36.86856 569.000
36.88850 553.000
36.90845 550.000
36.92840 539.000
36.94835 557.000
36.96829 585.000
36.98824 548.000
37.00819 536.000
37.02813 553.000
37.04808 551.000
37.06803 584.000
37.08797 594.000
37.10792 619.000
37.12787 627.000
37.14781 675.000
37.16776 658.000
37.18771 717.000
37.20766 746.000
37.22760 730.000
37.24755 749.000
37.26750 756.000
37.28744 706.000
37.30739 752.000
37.32734 722.000
37.34728 687.000
37.36723 729.000
37.38718 689.000
37.40713 657.000
37.42707 627.000
37.44702 610.000
37.46697 586.000
37.48691 528.000
37.50686 559.000
37.52681 557.000
37.54675 556.000
37.56670 555.000
37.58665 569.000
37.60660 583.000
37.62654 566.000
37.64649 564.000
37.66644 536.000
37.68638 513.000
37.70633 539.000
37.72628 554.000
37.74622 521.000
37.76617 530.000
37.78612 541.000
37.80606 524.000
37.82601 519.000
37.84596 579.000
37.86591 515.000
37.88585 580.000
37.90580 581.000
37.92575 565.000
37.94569 568.000
37.96564 558.000
37.98559 576.000
38.00553 574.000
38.02548 632.000
38.04543 615.000
38.06538 625.000
38.08532 583.000
38.10527 615.000
38.12522 612.000
38.14516 627.000
38.16511 628.000
38.18506 636.000
38.20500 653.000
38.22495 647.000
38.24490 659.000
38.26484 682.000
38.28479 690.000
38.30474 726.000
38.32469 756.000
38.34463 756.000
38.36458 756.000
38.38453 736.000
38.40447 826.000
38.42442 871.000
38.44437 943.000
38.46431 924.000
38.48426 1007.000
38.50421 1093.000
38.52416 1167.000
38.54410 1330.000
38.56405 1427.000
38.58400 1659.000
38.60394 1807.000
38.62389 2117.000
38.64384 2472.000
38.66378 2819.000
38.68373 3137.000
38.70368 3396.000
38.72362 3556.000
38.74357 3409.000
38.76352 3316.000
38.78347 3101.000
38.80341 3028.000
38.82336 2831.000
38.84331 2575.000
38.86325 2126.000
38.88320 1950.000
38.90315 1813.000
38.92309 1632.000
38.94304 1537.000
38.96299 1480.000
38.98294 1387.000
39.00288 1465.000
39.02283 1464.000
39.04278 1382.000
39.06272 1379.000
39.08267 1287.000
39.10262 1269.000
39.12256 1235.000
39.14251 1180.000
39.16246 1120.000
39.18241 1019.000
39.20235 994.000
39.22230 877.000
39.24225 870.000
39.26219 808.000
39.28214 794.000
39.30209 811.000
39.32203 837.000
39.34198 866.000
39.36193 858.000
39.38187 893.000
39.40182 804.000
39.42177 856.000
39.44172 855.000
39.46166 808.000
39.48161 750.000
39.50156 740.000
39.52150 644.000
39.54145 712.000
39.56140 691.000
39.58134 606.000
39.60129 598.000
39.62124 585.000
39.64119 587.000
39.66113 539.000
39.68108 493.000
39.70103 544.000
39.72097 547.000
39.74092 523.000
39.76087 491.000
39.78081 520.000
39.80076 544.000
39.82071 535.000
39.84065 559.000
39.86060 492.000
39.88055 485.000
39.90050 463.000
39.92044 535.000
39.94039 508.000
39.96034 468.000
39.98028 497.000
40.00023 470.000
40.02018 514.000
40.04012 468.000
40.06007 479.000
40.08002 473.000
40.09997 550.000
40.11991 488.000
40.13986 470.000
40.15981 471.000
40.17975 491.000
40.19970 494.000
40.21965 478.000
40.23959 482.000
40.25954 467.000
40.27949 520.000
40.29943 448.000
40.31938 483.000
40.33933 410.000
40.35928 546.000
40.37922 485.000
40.39917 472.000
40.41912 486.000
40.43906 514.000
40.45901 456.000
40.47896 506.000
40.49890 470.000
40.51885 463.000
40.53880 483.000
40.55875 459.000
40.57869 486.000
40.59864 488.000
40.61859 497.000
40.63853 482.000
40.65848 479.000
40.67843 450.000
40.69837 484.000
40.71832 464.000
40.73827 478.000
40.75822 489.000
40.77816 499.000
40.79811 450.000
40.81806 456.000
40.83800 490.000
40.85795 439.000
40.87790 493.000
40.89784 450.000
40.91779 490.000
40.93774 511.000
40.95768 467.000
40.97763 479.000
40.99758 476.000
41.01753 464.000
41.03747 457.000
41.05742 468.000
41.07737 509.000
41.09731 523.000
41.11726 521.000
41.13721 511.000
41.15715 485.000
41.17710 493.000
41.19705 501.000
41.21700 509.000
41.23694 457.000
41.25689 508.000
41.27684 522.000
41.29678 496.000
41.31673 506.000
41.33668 530.000
41.35662 547.000
41.37657 536.000
41.39652 493.000
41.41646 507.000
41.43641 570.000
41.45636 548.000
41.47631 515.000
41.49625 568.000
41.51620 487.000
41.53615 498.000
41.55609 503.000
41.57604 523.000
41.59599 449.000
41.61593 546.000
41.63588 485.000
41.65583 481.000
41.67578 501.000
41.69572 494.000
41.71567 479.000
41.73562 535.000
41.75556 465.000
41.77551 464.000
41.79546 490.000
41.81540 512.000
41.83535 478.000
41.85530 464.000
41.87524 466.000
41.89519 508.000
41.91514 489.000
41.93509 454.000
41.95503 458.000
41.97498 449.000
41.99493 501.000
42.01487 492.000
42.03482 481.000
42.05477 482.000
42.07471 482.000
42.09466 488.000
42.11461 445.000
42.13456 486.000
42.15450 460.000
42.17445 463.000
42.19440 498.000
42.21434 461.000
42.23429 483.000
42.25424 505.000
42.27418 450.000
42.29413 509.000
42.31408 465.000
42.33403 457.000
42.35397 482.000
42.37392 464.000
42.39387 483.000
42.41381 454.000
42.43376 464.000
42.45371 452.000
42.47365 521.000
42.49360 462.000
42.51355 444.000
42.53349 471.000
42.55344 452.000
42.57339 492.000
42.59334 470.000
42.61328 474.000
42.63323 487.000
42.65318 469.000
42.67312 506.000
42.69307 479.000
42.71302 495.000
42.73296 507.000
42.75291 509.000
42.77286 495.000
42.79281 485.000
42.81275 524.000
42.83270 514.000
42.85265 510.000
42.87259 503.000
42.89254 514.000
42.91249 548.000
42.93243 557.000
42.95238 558.000
42.97233 502.000
42.99227 537.000
43.01222 519.000
43.03217 547.000
43.05212 605.000
43.07206 569.000
43.09201 600.000
43.11196 689.000
43.13190 676.000
43.15185 671.000
43.17180 685.000
43.19174 751.000
43.21169 778.000
43.23164 823.000
43.25159 835.000
43.27153 821.000
43.29148 868.000
43.31143 933.000
43.33137 948.000
43.35132 993.000
43.37127 1019.000
43.39121 956.000
43.41116 989.000
43.43111 909.000
43.45105 923.000
43.47100 866.000
43.49095 816.000
43.51090 836.000
43.53084 767.000
43.55079 708.000
43.57074 685.000
43.59068 614.000
43.61063 583.000
43.63058 588.000
43.65052 559.000
43.67047 526.000
43.69042 548.000
43.71037 540.000
43.73031 500.000
43.75026 508.000
43.77021 502.000
43.79015 522.000
43.81010 515.000
43.83005 480.000
43.84999 458.000
43.86994 463.000
43.88989 503.000
43.90984 489.000
43.92978 482.000
43.94973 482.000
43.96968 509.000
43.98962 489.000
44.00957 460.000
44.02952 492.000
44.04946 463.000
44.06941 425.000
44.08936 463.000
44.10930 474.000
44.12925 462.000
44.14920 486.000
44.16915 495.000
44.18909 477.000
44.20904 489.000
44.22899 477.000
44.24893 493.000
44.26888 462.000
44.28883 455.000
44.30877 445.000
44.32872 467.000
44.34867 478.000
44.36862 484.000
44.38856 458.000
44.40851 524.000
44.42846 502.000
44.44840 465.000
44.46835 505.000
44.48830 462.000
44.50824 474.000
44.52819 474.000
44.54814 456.000
44.56808 489.000
44.58803 440.000
44.60798 459.000
44.62793 454.000
44.64787 494.000
44.66782 463.000
44.68777 495.000
44.70771 451.000
44.72766 507.000
44.74761 461.000
44.76755 465.000
44.78750 474.000
44.80745 489.000
44.82740 494.000
44.84734 522.000
44.86729 465.000
44.88724 473.000
44.90718 471.000
44.92713 471.000
44.94708 491.000
44.96702 459.000
44.98697 447.000
45.00692 451.000
45.02686 452.000
45.04681 485.000
45.06676 469.000
45.08671 482.000
45.10665 443.000
45.12660 504.000
45.14655 496.000
45.16649 502.000
45.18644 483.000
45.20639 463.000
45.22633 452.000
45.24628 499.000
45.26623 482.000
45.28618 483.000
45.30612 493.000
45.32607 505.000
45.34602 514.000
45.36596 490.000
45.38591 518.000
45.40586 474.000
45.42580 462.000
45.44575 505.000
45.46570 488.000
45.48565 502.000
45.50559 470.000
45.52554 475.000
45.54549 488.000
45.56543 485.000
45.58538 451.000
45.60533 476.000
45.62527 443.000
45.64522 460.000
45.66517 449.000
45.68511 481.000
45.70506 451.000
45.72501 471.000
45.74496 479.000
45.76490 450.000
45.78485 489.000
45.80480 428.000
45.82474 490.000
45.84469 441.000
45.86464 500.000
45.88458 437.000
45.90453 436.000
45.92448 493.000
45.94443 497.000
45.96437 475.000
45.98432 462.000
46.00427 494.000
46.02421 492.000
46.04416 450.000
46.06411 488.000
46.08405 486.000
46.10400 447.000
46.12395 481.000
46.14389 476.000
46.16384 492.000
46.18379 484.000
46.20374 492.000
46.22368 539.000
46.24363 504.000
46.26358 525.000
46.28352 515.000
46.30347 554.000
46.32342 537.000
46.34336 511.000
46.36331 529.000
46.38326 521.000
46.40321 564.000
46.42315 557.000
46.44310 527.000
46.46305 509.000
46.48299 488.000
46.50294 489.000
46.52289 504.000
46.54283 492.000
46.56278 474.000
46.58273 472.000
46.60267 479.000
46.62262 439.000
46.64257 473.000
46.66252 469.000
46.68246 458.000
46.70241 511.000
46.72236 472.000
46.74230 506.000
46.76225 460.000
46.78220 503.000
46.80214 470.000
46.82209 465.000
46.84204 480.000
46.86199 474.000
46.88193 452.000
46.90188 456.000
46.92183 479.000
46.94177 454.000
46.96172 455.000
46.98167 468.000
47.00161 470.000
47.02156 496.000
47.04151 456.000
47.06146 484.000
47.08140 512.000
47.10135 506.000
47.12130 472.000
47.14124 472.000
47.16119 445.000
47.18114 487.000
47.20108 475.000
47.22103 445.000
47.24098 472.000
47.26092 483.000
47.28087 464.000
47.30082 495.000
47.32077 462.000
47.34071 473.000
47.36066 476.000
47.38061 490.000
47.40055 480.000
47.42050 447.000
47.44045 467.000
47.46039 442.000
47.48034 475.000
47.50029 480.000
47.52024 465.000
47.54018 511.000
47.56013 450.000
47.58008 456.000
47.60002 467.000
47.61997 486.000
47.63992 462.000
47.65986 485.000
47.67981 514.000
47.69976 498.000
47.71970 463.000
47.73965 459.000
47.75960 475.000
47.77955 471.000
47.79949 471.000
47.81944 473.000
47.83939 457.000
47.85933 442.000
47.87928 499.000
47.89923 433.000
47.91917 504.000
47.93912 504.000
47.95907 460.000
47.97902 453.000
47.99896 486.000
48.01891 447.000
48.03886 494.000
48.05880 491.000
48.07875 518.000
48.09870 480.000
48.11864 465.000
48.13859 452.000
48.15854 486.000
48.17848 498.000
48.19843 469.000
48.21838 495.000
48.23833 514.000
48.25827 502.000
48.27822 509.000
48.29817 495.000
48.31811 538.000
48.33806 519.000
48.35801 532.000
48.37795 507.000
48.39790 491.000
48.41785 525.000
48.43780 532.000
48.45774 526.000
48.47769 523.000
48.49764 539.000
48.51758 538.000
48.53753 537.000
48.55748 569.000
48.57742 543.000
48.59737 567.000
48.61732 620.000
48.63726 640.000
48.65721 682.000
48.67716 689.000
48.69711 733.000
48.71705 874.000
48.73700 884.000
48.75695 976.000
48.77689 1027.000
48.79684 1136.000
48.81679 1098.000
48.83673 1243.000
48.85668 1373.000
48.87663 1345.000
48.89658 1417.000
48.91652 1366.000
48.93647 1371.000
48.95642 1372.000
48.97636 1365.000
48.99631 1229.000
49.01626 1209.000
49.03620 1095.000
49.05615 1023.000
49.07610 980.000
49.09605 926.000
49.11599 850.000
49.13594 756.000
49.15589 755.000
49.17583 687.000
49.19578 675.000
49.21573 646.000
49.23567 644.000
49.25562 588.000
49.27557 593.000
49.29551 561.000
49.31546 588.000
49.33541 518.000
49.35536 560.000
49.37530 570.000
49.39525 510.000
49.41520 546.000
49.43514 499.000
49.45509 509.000
49.47504 559.000
49.49498 518.000
49.51493 554.000
49.53488 485.000
49.55483 504.000
49.57477 524.000
49.59472 501.000
49.61467 550.000
49.63461 511.000
49.65456 507.000
49.67451 489.000
49.69445 496.000
49.71440 491.000
49.73435 504.000
49.75429 503.000
49.77424 492.000
49.79419 475.000
49.81414 500.000
49.83408 491.000
49.85403 492.000
49.87398 455.000
49.89392 505.000
49.91387 460.000
49.93382 514.000
49.95376 521.000
49.97371 457.000
49.99366 478.000
50.01361 500.000
50.03355 509.000
50.05350 507.000
50.07345 493.000
50.09339 466.000
50.11334 515.000
50.13329 503.000
50.15323 493.000
50.17318 488.000
50.19313 511.000
50.21307 509.000
50.23302 507.000
50.25297 458.000
50.27292 473.000
50.29286 471.000
50.31281 472.000
50.33276 472.000
50.35270 480.000
50.37265 463.000
50.39260 490.000
50.41254 467.000
50.43249 461.000
50.45244 472.000
50.47239 478.000
50.49233 519.000
50.51228 487.000
50.53223 492.000
50.55217 458.000
50.57212 517.000
50.59207 470.000
50.61201 457.000
50.63196 482.000
50.65191 468.000
50.67186 494.000
50.69180 515.000
50.71175 491.000
50.73170 463.000
50.75164 485.000
50.77159 489.000
50.79154 491.000
50.81148 466.000
50.83143 504.000
50.85138 510.000
50.87132 473.000
50.89127 488.000
50.91122 472.000
50.93117 469.000
50.95111 485.000
50.97106 507.000
50.99101 472.000
51.01095 452.000
51.03090 441.000
51.05085 475.000
51.07079 499.000
51.09074 515.000
51.11069 485.000
51.13064 475.000
51.15058 488.000
51.17053 492.000
51.19048 486.000
51.21042 508.000
51.23037 513.000
51.25032 515.000
51.27026 486.000
51.29021 519.000
51.31016 527.000
51.33010 501.000
51.35005 492.000
51.37000 484.000
51.38995 521.000
51.40989 474.000
51.42984 473.000
51.44979 523.000
51.46973 508.000
51.48968 487.000
51.50963 510.000
51.52957 511.000
51.54952 500.000
51.56947 483.000
51.58942 484.000
51.60936 463.000
51.62931 485.000
51.64926 441.000
51.66920 530.000
51.68915 467.000
51.70910 481.000
51.72904 429.000
51.74899 459.000
51.76894 488.000
51.78888 497.000
51.80883 465.000
51.82878 474.000
51.84873 506.000
51.86867 460.000
51.88862 479.000
51.90857 446.000
51.92851 471.000
51.94846 460.000
51.96841 444.000
51.98835 485.000
52.00830 457.000
52.02825 508.000
52.04820 477.000
52.06814 490.000
52.08809 479.000
52.10804 494.000
52.12798 512.000
52.14793 481.000
52.16788 508.000
52.18782 514.000
52.20777 531.000
52.22772 531.000
52.24767 458.000
52.26761 492.000
52.28756 487.000
52.30751 493.000
52.32745 458.000
52.34740 488.000
52.36735 512.000
52.38729 513.000
52.40724 498.000
52.42719 452.000
52.44713 482.000
52.46708 477.000
52.48703 475.000
52.50698 509.000
52.52692 499.000
52.54687 540.000
52.56682 513.000
52.58676 481.000
52.60671 520.000
52.62666 481.000
52.64660 483.000
52.66655 468.000
52.68650 496.000
52.70645 458.000
52.72639 539.000
52.74634 506.000
52.76629 493.000
52.78623 475.000
52.80618 487.000
52.82613 505.000
52.84607 513.000
52.86602 526.000
52.88597 515.000
52.90591 516.000
52.92586 494.000
52.94581 479.000
52.96576 504.000
52.98570 534.000
53.00565 545.000
53.02560 502.000
53.04554 490.000
53.06549 503.000
53.08544 539.000
53.10538 533.000
53.12533 492.000
53.14528 591.000
53.16523 543.000
53.18517 608.000
53.20512 569.000
53.22507 549.000
53.24501 589.000
53.26496 583.000
53.28491 582.000
53.30485 618.000
53.32480 572.000
53.34475 617.000
53.36469 668.000
53.38464 648.000
53.40459 643.000
53.42454 644.000
53.44448 653.000
53.46443 658.000
53.48438 638.000
53.50432 685.000
53.52427 646.000
53.54422 669.000
53.56416 602.000
53.58411 563.000
53.60406 607.000
53.62401 611.000
53.64395 601.000
53.66390 576.000
53.68385 612.000
53.70379 581.000
53.72374 598.000
53.74369 612.000
53.76363 639.000
53.78358 643.000
53.80353 602.000
53.82348 608.000
53.84342 625.000
53.86337 610.000
53.88332 617.000
53.90326 593.000
53.92321 572.000
53.94316 588.000
53.96310 525.000
53.98305 579.000
54.00300 492.000
54.02294 520.000
54.04289 534.000
54.06284 484.000
54.08279 565.000
54.10273 443.000
54.12268 474.000
54.14263 462.000
54.16257 472.000
54.18252 496.000
54.20247 496.000
54.22241 446.000
54.24236 470.000
54.26231 510.000
54.28226 481.000
54.30220 509.000
54.32215 479.000
54.34210 474.000
54.36204 480.000
54.38199 496.000
54.40194 489.000
54.42188 469.000
54.44183 479.000
54.46178 486.000
54.48172 465.000
54.50167 493.000
54.52162 469.000
54.54157 470.000
54.56151 426.000
54.58146 465.000
54.60141 474.000
54.62135 506.000
54.64130 467.000
54.66125 519.000
54.68119 482.000
54.70114 468.000
54.72109 517.000
54.74104 480.000
54.76098 457.000
54.78093 431.000
54.80088 415.000
54.82082 467.000
54.84077 453.000
54.86072 446.000
54.88066 498.000
54.90061 461.000
54.92056 446.000
54.94050 486.000
54.96045 479.000
54.98040 474.000
55.00035 483.000
55.02029 468.000
55.04024 491.000
55.06019 468.000
55.08013 469.000
55.10008 456.000
55.12003 455.000
55.13997 489.000
55.15992 505.000
55.17987 439.000
55.19982 511.000
55.21976 490.000
55.23971 488.000
55.25966 493.000
55.27960 466.000
55.29955 502.000
55.31950 491.000
55.33944 460.000
55.35939 463.000
55.37934 464.000
55.39929 478.000
55.41923 479.000
55.43918 510.000
55.45913 468.000
55.47907 480.000
55.49902 454.000
55.51897 501.000
55.53891 445.000
55.55886 502.000
55.57881 494.000
55.59875 490.000
55.61870 456.000
55.63865 488.000
55.65860 487.000
55.67854 489.000
55.69849 481.000
55.71844 460.000
55.73838 467.000
55.75833 499.000
55.77828 453.000
55.79822 474.000
55.81817 486.000
55.83812 476.000
55.85807 490.000
55.87801 470.000
55.89796 493.000
55.91791 507.000
55.93785 468.000
55.95780 473.000
55.97775 476.000
55.99769 434.000
56.01764 486.000
56.03759 440.000
56.05753 475.000
56.07748 494.000
56.09743 444.000
56.11738 514.000
56.13732 482.000
56.15727 485.000
56.17722 482.000
56.19716 514.000
56.21711 450.000
56.23706 471.000
56.25700 474.000
56.27695 493.000
56.29690 509.000
56.31685 471.000
56.33679 484.000
56.35674 470.000
56.37669 473.000
56.39663 458.000
56.41658 492.000
56.43653 480.000
56.45647 476.000
56.47642 456.000
56.49637 468.000
56.51631 489.000
56.53626 522.000
56.55621 517.000
56.57616 511.000
56.59610 483.000
56.61605 480.000
56.63600 474.000
56.65594 495.000
56.67589 532.000
56.69584 502.000
56.71578 502.000
56.73573 511.000
56.75568 497.000
56.77563 480.000
56.79557 524.000
56.81552 487.000
56.83547 495.000
56.85541 483.000
56.87536 508.000
56.89531 494.000
56.91525 467.000
56.93520 512.000
56.95515 490.000
56.97510 516.000
56.99504 512.000
57.01499 515.000
57.03494 490.000
57.05488 480.000
57.07483 508.000
57.09478 521.000
57.11472 524.000
57.13467 541.000
57.15462 541.000
57.17456 501.000
57.19451 501.000
57.21446 522.000
57.23441 592.000
57.25435 632.000
57.27430 668.000
57.29425 702.000
57.31419 769.000
57.33414 793.000
57.35409 807.000
57.37403 823.000
57.39398 790.000
57.41393 773.000
57.43388 703.000
57.45382 742.000
57.47377 707.000
57.49372 758.000
57.51366 703.000
57.53361 625.000
57.55356 670.000
57.57350 607.000
57.59345 561.000
57.61340 595.000
57.63334 534.000
57.65329 516.000
57.67324 546.000
57.69319 563.000
57.71313 498.000
57.73308 523.000
57.75303 525.000
57.77297 541.000
57.79292 546.000
57.81287 519.000
57.83281 522.000
57.85276 556.000
57.87271 548.000
57.89266 556.000
57.91260 555.000
57.93255 482.000
57.95250 536.000
57.97244 576.000
57.99239 554.000
58.01234 595.000
58.03228 539.000
58.05223 579.000
58.07218 579.000
58.09212 582.000
58.11207 588.000
58.13202 655.000
58.15197 669.000
58.17191 700.000
58.19186 774.000
58.21181 778.000
58.23175 847.000
58.25170 860.000
58.27165 801.000
58.29159 818.000
58.31154 871.000
58.33149 802.000
58.35144 849.000
58.37138 797.000
58.39133 792.000
58.41128 731.000
58.43122 769.000
58.45117 742.000
58.47112 722.000
58.49106 625.000
58.51101 641.000
58.53096 598.000
58.55090 613.000
58.57085 550.000
58.59080 519.000
58.61075 556.000
58.63069 547.000
58.65064 552.000
58.67059 542.000
58.69053 519.000
58.71048 540.000
58.73043 530.000
58.75037 501.000
58.77032 510.000
58.79027 498.000
58.81022 528.000
58.83016 489.000
58.85011 491.000
58.87006 498.000
58.89000 501.000
58.90995 480.000
58.92990 461.000
58.94984 504.000
58.96979 489.000
58.98974 479.000
59.00969 481.000
59.02963 465.000
59.04958 498.000
59.06953 465.000
59.08947 465.000
59.10942 482.000
59.12937 491.000
59.14931 493.000
59.16926 463.000
59.18921 457.000
59.20915 465.000
59.22910 473.000
59.24905 492.000
59.26900 496.000
59.28894 503.000
59.30889 462.000
59.32884 503.000
59.34878 514.000
59.36873 530.000
59.38868 505.000
59.40862 462.000
59.42857 502.000
59.44852 475.000
59.46847 485.000
59.48841 491.000
59.50836 514.000
59.52831 488.000
59.54825 475.000
59.56820 484.000
59.58815 478.000
59.60809 484.000
59.62804 450.000
59.64799 451.000
59.66793 470.000
59.68788 462.000
59.70783 482.000
59.72778 456.000
59.74772 474.000
59.76767 523.000
59.78762 492.000
59.80756 476.000
59.82751 484.000
59.84746 457.000
59.86740 476.000
59.88735 504.000
59.90730 480.000
59.92725 512.000
59.94719 510.000
59.96714 497.000
59.98709 477.000
60.00703 471.000
60.02698 451.000
60.04693 461.000
60.06687 545.000
60.08682 444.000
60.10677 503.000
60.12671 490.000
60.14666 460.000
60.16661 498.000
60.18656 430.000
60.20650 477.000
60.22645 456.000
60.24640 469.000
60.26634 480.000
60.28629 493.000
60.30624 491.000
60.32618 464.000
60.34613 460.000
60.36608 504.000
60.38603 486.000
60.40597 502.000
60.42592 497.000
60.44587 499.000
60.46581 493.000
60.48576 484.000
60.50571 469.000
60.52565 504.000
60.54560 467.000
60.56555 494.000
60.58550 505.000
60.60544 486.000
60.62539 486.000
60.64534 478.000
60.66528 442.000
60.68523 499.000
60.70518 461.000
60.72512 461.000
60.74507 499.000
60.76502 511.000
60.78496 507.000
60.80491 475.000
60.82486 455.000
60.84481 487.000
60.86475 478.000
60.88470 510.000
60.90465 485.000
60.92459 501.000
60.94454 471.000
60.96449 484.000
60.98443 492.000
61.00438 517.000
61.02433 553.000
61.04428 513.000
61.06422 492.000
61.08417 514.000
61.10412 536.000
61.12406 545.000
61.14401 571.000
61.16396 524.000
61.18390 526.000
61.20385 538.000
61.22380 546.000
61.24374 585.000
61.26369 525.000
61.28364 533.000
61.30359 579.000
61.32353 574.000
61.34348 602.000
61.36343 567.000
61.38337 629.000
61.40332 628.000
61.42327 664.000
61.44321 672.000
61.46316 715.000
61.48311 765.000
61.50306 810.000
61.52300 869.000
61.54295 943.000
61.56290 1017.000
61.58284 1014.000
61.60279 985.000
61.62274 1003.000
61.64268 977.000
61.66263 1033.000
61.68258 928.000
61.70252 952.000
61.72247 916.000
61.74242 895.000
61.76237 881.000
61.78231 883.000
61.80226 835.000
61.82221 825.000
61.84215 717.000
61.86210 715.000
61.88205 659.000
61.90199 697.000
61.92194 669.000
61.94189 649.000
61.96184 696.000
61.98178 623.000
62.00173 681.000
62.02168 606.000
62.04162 611.000
62.06157 633.000
62.08152 653.000
62.10146 734.000
62.12141 649.000
62.14136 597.000
62.16131 601.000
62.18125 621.000
62.20120 615.000
62.22115 626.000
62.24109 630.000
62.26104 583.000
62.28099 596.000
62.30093 570.000
62.32088 585.000
62.34083 576.000
62.36077 542.000
62.38072 587.000
62.40067 546.000
62.42062 572.000
62.44056 559.000
62.46051 569.000
62.48046 544.000
62.50040 591.000
62.52035 623.000
62.54030 521.000
62.56024 589.000
62.58019 631.000
62.60014 631.000
62.62009 577.000
62.64003 598.000
62.65998 600.000
62.67993 609.000
62.69987 637.000
62.71982 585.000
62.73977 664.000
62.75971 692.000
62.77966 637.000
62.79961 689.000
62.81955 714.000
62.83950 730.000
62.85945 684.000
62.87940 800.000
62.89934 848.000
62.91929 852.000
62.93924 1001.000
62.95918 1045.000
62.97913 1076.000
62.99908 1001.000
63.01902 1036.000
63.03897 917.000
63.05892 855.000
63.07887 840.000
63.09881 748.000
63.11876 863.000
63.13871 766.000
63.15865 857.000
63.17860 776.000
63.19855 730.000
63.21849 726.000
63.23844 653.000
63.25839 628.000
63.27833 583.000
63.29828 607.000
63.31823 539.000
63.33818 562.000
63.35812 588.000
63.37807 538.000
63.39802 567.000
63.41796 524.000
63.43791 531.000
63.45786 524.000
63.47780 499.000
63.49775 537.000
63.51770 553.000
63.53765 494.000
63.55759 538.000
63.57754 497.000
63.59749 479.000
63.61743 545.000
63.63738 512.000
63.65733 505.000
63.67727 520.000
63.69722 502.000
63.71717 484.000
63.73712 498.000
63.75706 493.000
63.77701 491.000
63.79696 484.000
63.81690 525.000
63.83685 490.000
63.85680 520.000
63.87674 498.000
63.89669 505.000
63.91664 514.000
63.93658 521.000
63.95653 557.000
63.97648 540.000
63.99643 491.000
64.01637 504.000
64.03632 520.000
64.05627 550.000
64.07621 497.000
64.09616 498.000
64.11611 554.000
64.13605 553.000
64.15600 528.000
64.17595 519.000
64.19590 584.000
64.21584 559.000
64.23579 535.000
64.25574 587.000
64.27568 595.000
64.29563 562.000
64.31558 563.000
64.33552 572.000
64.35547 594.000
64.37542 587.000
64.39536 566.000
64.41531 581.000
64.43526 591.000
64.45521 562.000
64.47515 574.000
64.49510 570.000
64.51505 518.000
64.53499 529.000
64.55494 527.000
64.57489 521.000
64.59483 557.000
64.61478 522.000
64.63473 511.000
64.65468 527.000
64.67462 560.000
64.69457 509.000
64.71452 532.000
64.73446 535.000
64.75441 464.000
64.77436 487.000
64.79430 506.000
64.81425 522.000
64.83420 541.000
64.85414 512.000
64.87409 492.000
64.89404 498.000
64.91399 520.000
64.93393 532.000
64.95388 492.000
64.97383 533.000
64.99377 527.000
65.01372 529.000
65.03367 517.000
65.05361 529.000
65.07356 532.000
65.09351 573.000
65.11346 586.000
65.13340 531.000
65.15335 567.000
65.17330 596.000
65.19324 551.000
65.21319 527.000
65.23314 529.000
65.25308 529.000
65.27303 570.000
65.29298 548.000
65.31293 548.000
65.33287 601.000
65.35282 603.000
65.37277 622.000
65.39271 569.000
65.41266 567.000
65.43261 581.000
65.45255 599.000
65.47250 575.000
65.49245 641.000
65.51239 625.000
65.53234 649.000
65.55229 673.000
65.57224 661.000
65.59218 654.000
65.61213 724.000
65.63208 698.000
65.65202 729.000
65.67197 778.000
65.69192 749.000
65.71186 760.000
65.73181 780.000
65.75176 777.000
65.77171 795.000
65.79165 703.000
65.81160 754.000
65.83155 811.000
65.85149 769.000
65.87144 737.000
65.89139 781.000
65.91133 703.000
65.93128 753.000
65.95123 693.000
65.97117 673.000
65.99112 717.000
66.01107 714.000
66.03102 647.000
66.05096 666.000
66.07091 670.000
66.09086 661.000
66.11080 667.000
66.13075 683.000
66.15070 628.000
66.17064 654.000
66.19059 689.000
66.21054 702.000
66.23049 708.000
66.25043 741.000
66.27038 726.000
66.29033 837.000
66.31027 795.000
66.33022 848.000
66.35017 885.000
66.37011 870.000
66.39006 926.000
66.41001 891.000
66.42995 883.000
66.44990 878.000
66.46985 916.000
66.48980 853.000
66.50974 897.000
66.52969 801.000
66.54964 747.000
66.56958 853.000
66.58953 789.000
66.60948 802.000
66.62942 820.000
66.64937 703.000
66.66932 721.000
66.68927 704.000
66.70921 660.000
66.72916 668.000
66.74911 646.000
66.76905 627.000
66.78900 601.000
66.80895 613.000
66.82889 570.000
66.84884 623.000
66.86879 606.000
66.88874 629.000
66.90868 620.000
66.92863 585.000
66.94858 603.000
66.96852 607.000
66.98847 564.000
67.00842 598.000
67.02836 588.000
67.04831 575.000
67.06826 534.000
67.08820 556.000
67.10815 539.000
67.12810 585.000
67.14805 565.000
67.16799 585.000
67.18794 527.000
67.20789 556.000
67.22783 534.000
67.24778 546.000
67.26773 551.000
67.28767 549.000
67.30762 551.000
67.32757 555.000
67.34752 557.000
67.36746 541.000
67.38741 511.000
67.40736 501.000
67.42730 556.000
67.44725 555.000
67.46720 536.000
67.48714 570.000
67.50709 575.000
67.52704 537.000
67.54698 589.000
67.56693 549.000
67.58688 626.000
67.60683 608.000
67.62677 601.000
67.64672 587.000
67.66667 661.000
67.68661 593.000
67.70656 646.000
67.72651 669.000
67.74645 720.000
67.76640 708.000
67.78635 722.000
67.80630 745.000
67.82624 813.000
67.84619 804.000
67.86614 787.000
67.88608 816.000
67.90603 828.000
67.92598 834.000
67.94592 839.000
67.96587 845.000
67.98582 882.000
68.00576 870.000
68.02571 953.000
68.04566 946.000
68.06561 918.000
68.08555 962.000
68.10550 937.000
68.12545 848.000
68.14539 858.000
68.16534 839.000
68.18529 810.000
68.20523 868.000
68.22518 867.000
68.24513 744.000
68.26508 698.000
68.28502 664.000
68.30497 697.000
68.32492 710.000
68.34486 671.000
68.36481 639.000
68.38476 593.000
68.40470 575.000
68.42465 583.000
68.44460 582.000
68.46455 601.000
68.48449 590.000
68.50444 569.000
68.52439 584.000
68.54433 534.000
68.56428 534.000
68.58423 533.000
68.60417 553.000
68.62412 523.000
68.64407 518.000
68.66401 500.000
68.68396 525.000
68.70391 518.000
68.72386 546.000
68.74380 493.000
68.76375 525.000
68.78370 491.000
68.80364 503.000
68.82359 481.000
68.84354 524.000
68.86348 537.000
68.88343 491.000
68.90338 505.000
68.92333 519.000
68.94327 497.000
68.96322 539.000
68.98317 501.000
69.00311 506.000
69.02306 499.000
69.04301 466.000
69.06295 475.000
69.08290 525.000
69.10285 489.000
69.12279 469.000
69.14274 541.000
69.16269 493.000
69.18264 501.000
69.20258 508.000
69.22253 473.000
69.24248 520.000
69.26242 538.000
69.28237 520.000
69.30232 464.000
69.32226 484.000
69.34221 493.000
69.36216 531.000
69.38211 479.000
69.40205 475.000
69.42200 456.000
69.44195 526.000
69.46189 500.000
69.48184 496.000
69.50179 490.000
69.52173 470.000
69.54168 489.000
69.56163 475.000
69.58157 508.000
69.60152 451.000
69.62147 474.000
69.64142 475.000
69.66136 449.000
69.68131 473.000
69.70126 486.000
69.72120 517.000
69.74115 462.000
69.76110 458.000
69.78104 468.000
69.80099 501.000
69.82094 464.000
69.84089 480.000
69.86083 459.000
69.88078 503.000
69.90073 513.000
69.92067 467.000
69.94062 500.000
69.96057 486.000
69.98051 500.000
70.00046 460.000
70.02041 487.000
70.04035 498.000
70.06030 493.000
70.08025 467.000
70.10020 518.000
70.12014 486.000
70.14009 466.000
70.16004 521.000
70.17998 504.000
70.19993 473.000
70.21988 480.000
70.23982 481.000
70.25977 513.000
70.27972 473.000
70.29967 484.000
70.31961 449.000
70.33956 489.000
70.35951 506.000
70.37945 466.000
70.39940 509.000
70.41935 465.000
70.43929 478.000
70.45924 505.000
70.47919 507.000
70.49914 465.000
70.51908 523.000
70.53903 482.000
70.55898 501.000
70.57892 487.000
70.59887 519.000
70.61882 480.000
70.63876 474.000
70.65871 473.000
70.67866 472.000
70.69860 474.000
70.71855 494.000
70.73850 458.000
70.75845 498.000
70.77839 481.000
70.79834 460.000
70.81829 493.000
70.83823 500.000
70.85818 448.000
70.87813 500.000
70.89807 454.000
70.91802 485.000
70.93797 490.000
70.95792 498.000
70.97786 539.000
70.99781 488.000
71.01776 486.000
71.03770 482.000
71.05765 454.000
71.07760 507.000
71.09754 530.000
71.11749 460.000
71.13744 425.000
71.15738 481.000
71.17733 457.000
71.19728 481.000
71.21723 492.000
71.23717 505.000
71.25712 519.000
71.27707 451.000
71.29701 498.000
71.31696 497.000
71.33691 495.000
71.35685 449.000
71.37680 469.000
71.39675 463.000
71.41670 498.000
71.43664 520.000
71.45659 486.000
71.47654 496.000
71.49648 561.000
71.51643 462.000
71.53638 525.000
71.55632 518.000
71.57627 482.000
71.59622 526.000
71.61616 557.000
71.63611 550.000
71.65606 545.000
71.67601 497.000
71.69595 504.000
71.71590 508.000
71.73585 515.000
71.75579 540.000
71.77574 492.000
71.79569 504.000
71.81563 513.000
71.83558 519.000
71.85553 509.000
71.87548 502.000
71.89542 527.000
71.91537 455.000
71.93532 523.000
71.95526 513.000
71.97521 512.000
71.99516 533.000
72.01510 525.000
72.03505 516.000
72.05500 502.000
72.07495 520.000
72.09489 505.000
72.11484 495.000
72.13479 487.000
72.15473 553.000
72.17468 496.000
72.19463 511.000
72.21457 545.000
72.23452 579.000
72.25447 533.000
72.27441 590.000
72.29436 610.000
72.31431 642.000
72.33426 557.000
72.35420 548.000
72.37415 560.000
72.39410 591.000
72.41404 679.000
72.43399 707.000
72.45394 677.000
72.47388 694.000
72.49383 625.000
72.51378 615.000
72.53373 612.000
72.55367 640.000
72.57362 620.000
72.59357 575.000
72.61351 603.000
72.63346 557.000
72.65341 581.000
72.67335 600.000
72.69330 610.000
72.71325 553.000
72.73319 571.000
72.75314 522.000
72.77309 527.000
72.79304 495.000
72.81298 536.000
72.83293 517.000
72.85288 558.000
72.87282 484.000
72.89277 503.000
72.91272 515.000
72.93266 518.000
72.95261 523.000
72.97256 519.000
72.99251 502.000
73.01245 504.000
73.03240 487.000
73.05235 498.000
73.07229 515.000
73.09224 525.000
73.11219 470.000
73.13213 506.000
73.15208 515.000
73.17203 523.000
73.19197 510.000
73.21192 492.000
73.23187 508.000
73.25182 483.000
73.27176 513.000
73.29171 462.000
73.31166 495.000
73.33160 514.000
73.35155 479.000
73.37150 479.000
73.39144 482.000
73.41139 490.000
73.43134 485.000
73.45129 483.000
73.47123 517.000
73.49118 492.000
73.51113 491.000
73.53107 505.000
73.55102 504.000
73.57097 465.000
73.59091 461.000
73.61086 502.000
73.63081 513.000
73.65076 564.000
73.67070 476.000
73.69065 501.000
73.71060 479.000
73.73054 487.000
73.75049 499.000
73.77044 538.000
73.79038 496.000
73.81033 504.000
73.83028 485.000
73.85022 534.000
73.87017 493.000
73.89012 503.000
73.91007 486.000
73.93001 563.000
73.94996 500.000
73.96991 500.000
73.98985 517.000
74.00980 482.000
74.02975 485.000
74.04969 535.000
74.06964 503.000
74.08959 500.000
74.10954 509.000
74.12948 456.000
74.14943 481.000
74.16938 527.000
74.18932 521.000
74.20927 503.000
74.22922 450.000
74.24916 508.000
74.26911 531.000
74.28906 507.000
74.30900 535.000
74.32895 526.000
74.34890 497.000
74.36885 533.000
74.38879 514.000
74.40874 539.000
74.42869 555.000
74.44863 537.000
74.46858 587.000
74.48853 564.000
74.50847 565.000
74.52842 590.000
74.54837 610.000
74.56832 527.000
74.58826 594.000
74.60821 578.000
74.62816 548.000
74.64810 526.000
74.66805 568.000
74.68800 587.000
74.70794 571.000
74.72789 618.000
74.74784 595.000
74.76778 553.000
74.78773 564.000
74.80768 615.000
74.82763 599.000
74.84757 624.000
74.86752 590.000
74.88747 661.000
74.90741 596.000
74.92736 631.000
74.94731 677.000
74.96725 665.000
74.98720 700.000
75.00715 760.000
75.02710 731.000
75.04704 716.000
75.06699 691.000
75.08694 680.000
75.10688 673.000
75.12683 605.000
75.14678 713.000
75.16672 684.000
75.18667 682.000
75.20662 737.000
75.22657 744.000
75.24651 781.000
75.26646 752.000
75.28641 710.000
75.30635 734.000
75.32630 671.000
75.34625 699.000
75.36619 697.000
75.38614 629.000
75.40609 657.000
75.42603 577.000
75.44598 631.000
75.46593 633.000
75.48588 700.000
75.50582 663.000
75.52577 630.000
75.54572 653.000
75.56566 668.000
75.58561 586.000
75.60556 602.000
75.62550 601.000
75.64545 581.000
75.66540 598.000
75.68535 575.000
75.70529 543.000
75.72524 542.000
75.74519 562.000
75.76513 542.000
75.78508 563.000
75.80503 547.000
75.82497 509.000
75.84492 509.000
75.86487 528.000
75.88481 546.000
75.90476 498.000
75.92471 501.000
75.94466 453.000
75.96460 487.000
75.98455 498.000
76.00450 509.000
76.02444 535.000
76.04439 481.000
76.06434 505.000
76.08428 550.000
76.10423 493.000
76.12418 473.000
76.14413 468.000
76.16407 508.000
76.18402 501.000
76.20397 500.000
76.22391 461.000
76.24386 474.000
76.26381 512.000
76.28375 486.000
76.30370 495.000
76.32365 462.000
76.34359 470.000
76.36354 522.000
76.38349 446.000
76.40344 480.000
76.42338 503.000
76.44333 474.000
76.46328 484.000
76.48322 470.000
76.50317 454.000
76.52312 493.000
76.54306 472.000
76.56301 527.000
76.58296 436.000
76.60291 527.000
76.62285 483.000
76.64280 482.000
76.66275 520.000
76.68269 495.000
76.70264 537.000
76.72259 502.000
76.74253 475.000
76.76248 484.000
76.78243 494.000
76.80238 498.000
76.82232 471.000
76.84227 504.000
76.86222 473.000
76.88216 488.000
76.90211 512.000
76.92206 532.000
76.94200 412.000
76.96195 475.000
76.98190 460.000
77.00184 488.000
77.02179 453.000
77.04174 463.000
77.06169 510.000
77.08163 448.000
77.10158 469.000
77.12153 477.000
77.14147 484.000
77.16142 464.000
77.18137 515.000
77.20131 516.000
77.22126 449.000
77.24121 483.000
77.26116 462.000
77.28110 461.000
77.30105 505.000
77.32100 492.000
77.34094 496.000
77.36089 481.000
77.38084 491.000
77.40078 522.000
77.42073 468.000
77.44068 509.000
77.46062 484.000
77.48057 481.000
77.50052 490.000
77.52047 494.000
77.54041 493.000
77.56036 508.000
77.58031 493.000
77.60025 516.000
77.62020 505.000
77.64015 525.000
77.66009 494.000
77.68004 506.000
77.69999 491.000
77.71994 507.000
77.73988 489.000
77.75983 533.000
77.77978 532.000
77.79972 507.000
77.81967 510.000
77.83962 510.000
77.85956 505.000
77.87951 476.000
77.89946 499.000
77.91940 520.000
77.93935 502.000
77.95930 534.000
77.97925 464.000
77.99919 519.000
78.01914 575.000
78.03909 525.000
78.05903 504.000
78.07898 506.000
78.09893 524.000
78.11887 501.000
78.13882 536.000
78.15877 514.000
78.17872 491.000
78.19866 538.000
78.21861 507.000
78.23856 529.000
78.25850 536.000
78.27845 528.000
78.29840 514.000
78.31834 492.000
78.33829 541.000
78.35824 515.000
78.37819 540.000
78.39813 542.000
78.41808 556.000
78.43803 506.000
78.45797 470.000
78.47792 544.000
78.49787 508.000
78.51781 550.000
78.53776 520.000
78.55771 479.000
78.57765 527.000
78.59760 486.000
78.61755 494.000
78.63750 488.000
78.65744 551.000
78.67739 511.000
78.69734 525.000
78.71728 510.000
78.73723 501.000
78.75718 473.000
78.77712 498.000
78.79707 484.000
78.81702 487.000
78.83697 505.000
78.85691 496.000
78.87686 513.000
78.89681 486.000
78.91675 501.000
78.93670 491.000
78.95665 503.000
78.97659 502.000
78.99654 476.000
79.01649 539.000
79.03643 492.000
79.05638 521.000
79.07633 520.000
79.09628 516.000
79.11622 480.000
79.13617 496.000
79.15612 501.000
79.17606 479.000
79.19601 518.000
79.21596 513.000
79.23590 521.000
79.25585 497.000
79.27580 514.000
79.29575 534.000
79.31569 534.000
79.33564 520.000
79.35559 515.000
79.37553 533.000
79.39548 452.000
79.41543 553.000
79.43537 525.000
79.45532 520.000
79.47527 567.000
79.49521 537.000
79.51516 488.000
79.53511 521.000
79.55506 543.000
79.57500 520.000
79.59495 500.000
79.61490 520.000
79.63484 509.000
79.65479 497.000
79.67474 506.000
79.69468 461.000
79.71463 481.000
79.73458 518.000
79.75453 529.000
79.77447 538.000
79.79442 532.000
79.81437 516.000
79.83431 542.000
79.85426 462.000
79.87421 457.000
79.89415 517.000
79.91410 515.000
79.93405 485.000
79.95399 502.000
79.97394 528.000
79.99389 457.000
80.01384 494.000
80.03378 511.000
80.05373 481.000
80.07368 477.000
80.09362 452.000
80.11357 513.000
80.13352 504.000
80.15346 492.000
80.17341 508.000
80.19336 526.000
80.21331 509.000
80.23325 492.000
80.25320 499.000
80.27315 540.000
80.29309 518.000
80.31304 527.000
80.33299 581.000
80.35293 520.000
80.37288 516.000
80.39283 532.000
80.41278 518.000
80.43272 534.000
80.45267 527.000
80.47262 532.000
80.49256 513.000
80.51251 519.000
80.53246 531.000
80.55240 533.000
80.57235 519.000
80.59230 548.000
80.61224 520.000
80.63219 511.000
80.65214 496.000
80.67209 546.000
80.69203 490.000
80.71198 474.000
80.73193 517.000
80.75187 498.000
80.77182 519.000
80.79177 517.000
80.81171 535.000
80.83166 503.000
80.85161 483.000
80.87156 474.000
80.89150 489.000
80.91145 450.000
80.93140 505.000
80.95134 510.000
80.97129 496.000
80.99124 501.000
81.01118 459.000
81.03113 531.000
81.05108 482.000
81.07102 479.000
81.09097 488.000
81.11092 520.000
81.13087 491.000
81.15081 491.000
81.17076 479.000
81.19071 487.000
81.21065 502.000
81.23060 487.000
81.25055 502.000
81.27049 526.000
81.29044 480.000
81.31039 461.000
81.33034 496.000
81.35028 474.000
81.37023 466.000
81.39018 518.000
81.41012 482.000
81.43007 460.000
81.45002 502.000
81.46996 524.000
81.48991 504.000
81.50986 511.000
81.52980 473.000
81.54975 488.000
81.56970 464.000
81.58965 485.000
81.60959 472.000
81.62954 512.000
81.64949 504.000
81.66943 506.000
81.68938 513.000
81.70933 473.000
81.72927 490.000
81.74922 482.000
81.76917 471.000
81.78912 505.000
81.80906 474.000
81.82901 496.000
81.84896 517.000
81.86890 513.000
81.88885 491.000
81.90880 517.000
81.92874 458.000
81.94869 474.000
81.96864 527.000
81.98859 482.000
82.00853 495.000
82.02848 480.000
82.04843 487.000
82.06837 491.000
82.08832 483.000
82.10827 511.000
82.12821 472.000
82.14816 496.000
82.16811 483.000
82.18805 461.000
82.20800 525.000
82.22795 531.000
82.24790 485.000
82.26784 503.000
82.28779 543.000
82.30774 533.000
82.32768 551.000
82.34763 515.000
82.36758 548.000
82.38752 543.000
82.40747 548.000
82.42742 533.000
82.44737 552.000
82.46731 566.000
82.48726 544.000
82.50721 600.000
82.52715 593.000
82.54710 570.000
82.56705 567.000
82.58699 595.000
82.60694 574.000
82.62689 638.000
82.64683 612.000
82.66678 639.000
82.68673 604.000
82.70668 612.000
82.72662 590.000
82.74657 591.000
82.76652 568.000
82.78646 588.000
82.80641 626.000
82.82636 666.000
82.84630 568.000
82.86625 649.000
82.88620 630.000
82.90615 579.000
82.92609 608.000
82.94604 592.000
82.96599 582.000
82.98593 596.000
83.00588 557.000
83.02583 592.000
83.04577 607.000
83.06572 562.000
83.08567 596.000
83.10561 571.000
83.12556 539.000
83.14551 534.000
83.16546 566.000
83.18540 565.000
83.20535 596.000
83.22530 532.000
83.24524 547.000
83.26519 528.000
83.28514 524.000
83.30508 523.000
83.32503 577.000
83.34498 511.000
83.36493 501.000
83.38487 549.000
83.40482 533.000
83.42477 570.000
83.44471 551.000
83.46466 513.000
83.48461 521.000
83.50455 548.000
83.52450 562.000
83.54445 532.000
83.56440 493.000
83.58434 498.000
83.60429 560.000
83.62424 556.000
83.64418 573.000
83.66413 558.000
83.68408 556.000
83.70402 542.000
83.72397 519.000
83.74392 564.000
83.76386 563.000
83.78381 546.000
83.80376 553.000
83.82371 546.000
83.84365 551.000
83.86360 622.000
83.88355 538.000
83.90349 541.000
83.92344 555.000
83.94339 566.000
83.96333 530.000
83.98328 553.000
84.00323 545.000
84.02318 560.000
84.04312 522.000
84.06307 540.000
84.08302 547.000
84.10296 561.000
84.12291 523.000
84.14286 497.000
84.16280 533.000
84.18275 526.000
84.20270 478.000
84.22264 528.000
84.24259 530.000
84.26254 519.000
84.28249 509.000
84.30243 493.000
84.32238 513.000
84.34233 516.000
84.36227 522.000
84.38222 508.000
84.40217 520.000
84.42211 487.000
84.44206 536.000
84.46201 544.000
84.48196 535.000
84.50190 497.000
84.52185 513.000
84.54180 525.000
84.56174 496.000
84.58169 503.000
84.60164 548.000
84.62158 546.000
84.64153 537.000
84.66148 480.000
84.68142 557.000
84.70137 524.000
84.72132 541.000
84.74127 518.000
84.76121 532.000
84.78116 477.000
84.80111 508.000
84.82105 483.000
84.84100 507.000
84.86095 521.000
84.88089 510.000
84.90084 483.000
84.92079 529.000
84.94074 468.000
84.96068 503.000
84.98063 491.000
85.00058 520.000
85.02052 495.000
85.04047 479.000
85.06042 473.000
85.08036 488.000
85.10031 539.000
85.12026 458.000
85.14021 549.000
85.16015 494.000
85.18010 488.000
85.20005 457.000
85.21999 519.000
85.23994 503.000
85.25989 479.000
85.27983 499.000
85.29978 476.000
85.31973 495.000
85.33967 468.000
85.35962 465.000
85.37957 518.000
85.39952 495.000
85.41946 520.000
85.43941 499.000
85.45936 500.000
85.47930 513.000
85.49925 511.000
85.51920 490.000
85.53914 504.000
85.55909 504.000
85.57904 467.000
85.59899 470.000
85.61893 494.000
85.63888 504.000
85.65883 498.000
85.67877 464.000
85.69872 511.000
85.71867 488.000
85.73861 481.000
85.75856 508.000
85.77851 443.000
85.79845 467.000
85.81840 491.000
85.83835 499.000
85.85830 434.000
85.87824 503.000
85.89819 504.000
85.91814 521.000
85.93808 506.000
85.95803 474.000
85.97798 494.000
85.99792 487.000
86.01787 480.000
86.03782 498.000
86.05777 476.000
86.07771 512.000
86.09766 503.000
86.11761 488.000
86.13755 498.000
86.15750 493.000
86.17745 520.000
86.19739 483.000
86.21734 499.000
86.23729 479.000
86.25723 516.000
86.27718 519.000
86.29713 504.000
86.31708 473.000
86.33702 457.000
86.35697 505.000
86.37692 470.000
86.39686 527.000
86.41681 467.000
86.43676 473.000
86.45670 486.000
86.47665 479.000
86.49660 512.000
86.51655 481.000
86.53649 518.000
86.55644 534.000
86.57639 477.000
86.59633 526.000
86.61628 548.000
86.63623 498.000
86.65617 532.000
86.67612 471.000
86.69607 525.000
86.71602 446.000
86.73596 569.000
86.75591 493.000
86.77586 501.000
86.79580 468.000
86.81575 505.000
86.83570 518.000
86.85564 476.000
86.87559 538.000
86.89554 533.000
86.91548 486.000
86.93543 521.000
86.95538 503.000
86.97533 487.000
86.99527 572.000
87.01522 527.000
87.03517 529.000
87.05511 528.000
87.07506 556.000
87.09501 526.000
87.11495 491.000
87.13490 557.000
87.15485 510.000
87.17480 496.000
87.19474 521.000
87.21469 555.000
87.23464 534.000
87.25458 517.000
87.27453 507.000
87.29448 532.000
87.31442 516.000
87.33437 555.000
87.35432 544.000
87.37426 531.000
87.39421 538.000
87.41416 549.000
87.43411 573.000
87.45405 558.000
87.47400 544.000
87.49395 505.000
87.51389 513.000
87.53384 526.000
87.55379 487.000
87.57373 507.000
87.59368 526.000
87.61363 532.000
87.63358 548.000
87.65352 530.000
87.67347 500.000
87.69342 488.000
87.71336 503.000
87.73331 494.000
87.75326 516.000
87.77320 548.000
87.79315 517.000
87.81310 527.000
87.83304 489.000
87.85299 476.000
87.87294 546.000
87.89289 518.000
87.91283 510.000
87.93278 459.000
87.95273 500.000
87.97267 511.000
87.99262 501.000
88.01257 459.000
88.03251 539.000
88.05246 535.000
88.07241 467.000
88.09236 518.000
88.11230 507.000
88.13225 464.000
88.15220 502.000
88.17214 512.000
88.19209 471.000
88.21204 483.000
88.23198 489.000
88.25193 471.000
88.27188 487.000
88.29183 521.000
88.31177 512.000
88.33172 493.000
88.35167 495.000
88.37161 466.000
88.39156 512.000
88.41151 485.000
88.43145 552.000
88.45140 537.000
88.47135 470.000
88.49129 488.000
88.51124 524.000
88.53119 543.000
88.55114 496.000
88.57108 487.000
88.59103 532.000
88.61098 507.000
88.63092 486.000
88.65087 517.000
88.67082 461.000
88.69076 507.000
88.71071 490.000
88.73066 506.000
88.75061 516.000
88.77055 540.000
88.79050 554.000
88.81045 515.000
88.83039 464.000
88.85034 466.000
88.87029 526.000
88.89023 528.000
88.91018 488.000
88.93013 482.000
88.95007 533.000
88.97002 483.000
88.98997 512.000
89.00992 503.000
89.02986 488.000
89.04981 525.000
89.06976 489.000
89.08970 538.000
89.10965 500.000
89.12960 526.000
89.14954 498.000
89.16949 526.000
89.18944 512.000
89.20939 512.000
89.22933 502.000
89.24928 540.000
89.26923 548.000
89.28917 526.000
89.30912 515.000
89.32907 553.000
89.34901 522.000
89.36896 520.000
89.38891 503.000
89.40885 560.000
89.42880 535.000
89.44875 593.000
89.46870 588.000
89.48864 564.000
89.50859 575.000
89.52854 608.000
89.54848 532.000
89.56843 634.000
89.58838 578.000
89.60832 591.000
89.62827 551.000
89.64822 535.000
89.66817 586.000
89.68811 565.000
89.70806 568.000
89.72801 582.000
89.74795 521.000
89.76790 534.000
89.78785 528.000
89.80779 550.000
89.82774 568.000
89.84769 526.000
89.86764 532.000
89.88758 543.000
89.90753 589.000
89.92748 582.000
89.94742 574.000
89.96737 543.000
89.98732 575.000
90.00726 504.000
