10.00000 83.000
10.01995 76.000
10.03989 83.000
10.05984 85.000
10.07979 85.000
10.09973 88.000
10.11968 71.000
10.13963 84.000
10.15958 88.000
10.17952 95.000
10.19947 70.000
10.21942 69.000
10.23936 80.000
10.25931 73.000
10.27926 73.000
10.29920 71.000
10.31915 71.000
10.33910 71.000
10.35905 81.000
10.37899 65.000
10.39894 80.000
10.41889 79.000
10.43883 62.000
10.45878 90.000
10.47873 59.000
10.49867 62.000
10.51862 82.000
10.53857 69.000
10.55851 83.000
10.57846 76.000
10.59841 83.000
10.61836 100.000
10.63830 75.000
10.65825 72.000
10.67820 94.000
10.69814 70.000
10.71809 85.000
10.73804 85.000
10.75798 75.000
10.77793 74.000
10.79788 85.000
10.81783 81.000
10.83777 86.000
10.85772 59.000
10.87767 76.000
10.89761 85.000
10.91756 87.000
10.93751 83.000
10.95745 79.000
10.97740 80.000
10.99735 74.000
11.01730 85.000
11.03724 86.000
11.05719 85.000
11.07714 84.000
11.09708 86.000
11.11703 82.000
11.13698 58.000
11.15692 83.000
11.17687 84.000
11.19682 79.000
11.21676 87.000
11.23671 97.000
11.25666 74.000
11.27661 74.000
11.29655 65.000
11.31650 77.000
11.33645 78.000
11.35639 74.000
11.37634 77.000
11.39629 87.000
11.41623 85.000
11.43618 90.000
11.45613 74.000
11.47608 78.000
11.49602 64.000
11.51597 76.000
11.53592 73.000
11.55586 79.000
11.57581 79.000
11.59576 87.000
11.61570 78.000
11.63565 97.000
11.65560 77.000
11.67554 72.000
11.69549 77.000
11.71544 74.000
11.73539 79.000
11.75533 79.000
11.77528 76.000
11.79523 76.000
11.81517 85.000
11.83512 64.000
11.85507 81.000
11.87501 84.000
11.89496 89.000
11.91491 73.000
11.93486 60.000
11.95480 75.000
11.97475 84.000
11.99470 94.000
12.01464 84.000
12.03459 76.000
12.05454 72.000
12.07448 86.000
12.09443 71.000
12.11438 83.000
12.13432 63.000
12.15427 83.000
12.17422 63.000
12.19417 96.000
12.21411 82.000
12.23406 89.000
12.25401 72.000
12.27395 99.000
12.29390 86.000
12.31385 76.000
12.33379 73.000
12.35374 85.000
12.37369 69.000
12.39364 81.000
12.41358 74.000
12.43353 75.000
12.45348 79.000
12.47342 78.000
12.49337 95.000
12.51332 83.000
12.53326 81.000
12.55321 84.000
12.57316 78.000
12.59311 60.000
12.61305 79.000
12.63300 74.000
12.65295 86.000
12.67289 82.000
12.69284 85.000
12.71279 102.000
12.73273 86.000
12.75268 77.000
12.77263 79.000
12.79257 85.000
12.81252 92.000
12.83247 82.000
12.85242 73.000
12.87236 84.000
12.89231 87.000
12.91226 88.000
12.93220 78.000
12.95215 72.000
12.97210 77.000
12.99204 70.000
13.01199 82.000
13.03194 94.000
13.05189 78.000
13.07183 80.000
13.09178 76.000
13.11173 79.000
13.13167 97.000
13.15162 74.000
13.17157 67.000
13.19151 92.000
13.21146 67.000
13.23141 86.000
13.25135 79.000
13.27130 84.000
13.29125 80.000
13.31120 91.000
13.33114 95.000
13.35109 76.000
13.37104 88.000
13.39098 86.000
13.41093 90.000
13.43088 83.000
13.45082 72.000
13.47077 85.000
13.49072 66.000
13.51067 87.000
13.53061 81.000
13.55056 78.000
13.57051 93.000
13.59045 79.000
13.61040 84.000
13.63035 112.000
13.65029 78.000
13.67024 76.000
13.69019 105.000
13.71013 83.000
13.73008 78.000
13.75003 70.000
13.76998 83.000
13.78992 93.000
13.80987 82.000
13.82982 92.000
13.84976 97.000
13.86971 96.000
13.88966 95.000
13.90960 103.000
13.92955 75.000
13.94950 84.000
13.96945 97.000
13.98939 66.000
14.00934 105.000
14.02929 95.000
14.04923 98.000
14.06918 77.000
14.08913 83.000
14.10907 102.000
14.12902 83.000
14.14897 88.000
14.16892 84.000
14.18886 96.000
14.20881 110.000
14.22876 87.000
14.24870 112.000
14.26865 79.000
14.28860 94.000
14.30854 96.000
14.32849 92.000
14.34844 99.000
14.36838 106.000
14.38833 89.000
14.40828 77.000
14.42823 94.000
14.44817 87.000
14.46812 71.000
14.48807 85.000
14.50801 93.000
14.52796 97.000
14.54791 82.000
14.56785 83.000
14.58780 81.000
14.60775 78.000
14.62770 67.000
14.64764 88.000
14.66759 92.000
14.68754 100.000
14.70748 80.000
14.72743 87.000
14.74738 88.000
14.76732 87.000
14.78727 88.000
14.80722 74.000
14.82716 95.000
14.84711 92.000
14.86706 104.000
14.88701 99.000
14.90695 103.000
14.92690 85.000
14.94685 76.000
14.96679 99.000
14.98674 107.000
15.00669 101.000
15.02663 70.000
15.04658 91.000
15.06653 89.000
15.08648 96.000
15.10642 87.000
15.12637 86.000
15.14632 90.000
15.16626 92.000
15.18621 74.000
15.20616 80.000
15.22610 86.000
15.24605 94.000
15.26600 85.000
15.28594 81.000
15.30589 95.000
15.32584 80.000
15.34579 87.000
15.36573 105.000
15.38568 119.000
15.40563 94.000
15.42557 99.000
15.44552 105.000
15.46547 93.000
15.48541 94.000
15.50536 105.000
15.52531 107.000
15.54526 98.000
15.56520 118.000
15.58515 108.000
15.60510 117.000
15.62504 126.000
15.64499 102.000
15.66494 120.000
15.68488 134.000
15.70483 132.000
15.72478 131.000
15.74472 165.000
15.76467 193.000
15.78462 167.000
15.80457 233.000
15.82451 249.000
15.84446 244.000
15.86441 218.000
15.88435 238.000
15.90430 222.000
15.92425 200.000
15.94419 172.000
15.96414 194.000
15.98409 197.000
16.00404 233.000
16.02398 266.000
16.04393 272.000
16.06388 328.000
16.08382 366.000
16.10377 433.000
16.12372 520.000
16.14366 621.000
16.16361 744.000
16.18356 844.000
16.20351 1050.000
16.22345 1291.000
16.24340 1451.000
16.26335 1618.000
16.28329 1802.000
16.30324 1666.000
16.32319 1770.000
16.34313 1567.000
16.36308 1412.000
16.38303 1098.000
16.40297 731.000
16.42292 506.000
16.44287 329.000
16.46282 266.000
16.48276 218.000
16.50271 227.000
16.52266 174.000
16.54260 176.000
16.56255 142.000
16.58250 145.000
16.60244 152.000
16.62239 154.000
16.64234 129.000
16.66229 130.000
16.68223 159.000
16.70218 120.000
16.72213 127.000
16.74207 127.000
16.76202 134.000
16.78197 128.000
16.80191 134.000
16.82186 114.000
16.84181 119.000
16.86175 98.000
16.88170 120.000
16.90165 84.000
16.92160 107.000
16.94154 126.000
16.96149 80.000
16.98144 101.000
17.00138 111.000
17.02133 107.000
17.04128 106.000
17.06122 94.000
17.08117 104.000
17.10112 117.000
17.12107 117.000
17.14101 117.000
17.16096 120.000
17.18091 97.000
17.20085 94.000
17.22080 99.000
17.24075 106.000
17.26069 102.000
17.28064 107.000
17.30059 112.000
17.32053 106.000
17.34048 94.000
17.36043 84.000
17.38038 85.000
17.40032 94.000
17.42027 92.000
17.44022 87.000
17.46016 93.000
17.48011 97.000
17.50006 104.000
17.52000 121.000
17.53995 116.000
17.55990 92.000
17.57985 90.000
17.59979 103.000
17.61974 81.000
17.63969 84.000
17.65963 81.000
17.67958 77.000
17.69953 98.000
17.71947 91.000
17.73942 77.000
17.75937 87.000
17.77932 86.000
17.79926 79.000
17.81921 95.000
17.83916 96.000
17.85910 83.000
17.87905 90.000
17.89900 99.000
17.91894 74.000
17.93889 90.000
17.95884 82.000
17.97878 108.000
17.99873 89.000
18.01868 99.000
18.03863 86.000
18.05857 100.000
18.07852 109.000
18.09847 111.000
18.11841 105.000
18.13836 109.000
18.15831 117.000
18.17825 164.000
18.19820 180.000
18.21815 180.000
18.23810 211.000
18.25804 236.000
18.27799 220.000
18.29794 265.000
18.31788 237.000
18.33783 199.000
18.35778 166.000
18.37772 146.000
18.39767 96.000
18.41762 103.000
18.43756 95.000
18.45751 98.000
18.47746 100.000
18.49741 104.000
18.51735 98.000
18.53730 97.000
18.55725 95.000
18.57719 89.000
18.59714 93.000
18.61709 76.000
18.63703 94.000
18.65698 86.000
18.67693 90.000
18.69688 73.000
18.71682 77.000
18.73677 87.000
18.75672 86.000
18.77666 94.000
18.79661 105.000
18.81656 89.000
18.83650 89.000
18.85645 88.000
18.87640 83.000
18.89634 75.000
18.91629 90.000
18.93624 94.000
18.95619 69.000
18.97613 75.000
18.99608 83.000
19.01603 82.000
19.03597 87.000
19.05592 87.000
19.07587 69.000
19.09581 89.000
19.11576 77.000
19.13571 90.000
19.15566 73.000
19.17560 86.000
19.19555 88.000
19.21550 87.000
19.23544 100.000
19.25539 100.000
19.27534 96.000
19.29528 75.000
19.31523 80.000
19.33518 83.000
19.35513 78.000
19.37507 63.000
19.39502 90.000
19.41497 74.000
19.43491 97.000
19.45486 89.000
19.47481 91.000
19.49475 78.000
19.51470 89.000
19.53465 89.000
19.55459 102.000
19.57454 105.000
19.59449 88.000
19.61444 91.000
19.63438 96.000
19.65433 79.000
19.67428 75.000
19.69422 87.000
19.71417 85.000
19.73412 106.000
19.75406 73.000
19.77401 93.000
19.79396 82.000
19.81391 108.000
19.83385 88.000
19.85380 97.000
19.87375 86.000
19.89369 92.000
19.91364 95.000
19.93359 76.000
19.95353 84.000
19.97348 106.000
19.99343 105.000
20.01337 109.000
20.03332 121.000
20.05327 112.000
20.07322 130.000
20.09316 147.000
20.11311 114.000
20.13306 107.000
20.15300 122.000
20.17295 129.000
20.19290 127.000
20.21284 117.000
20.23279 112.000
20.25274 85.000
20.27269 107.000
20.29263 111.000
20.31258 92.000
20.33253 86.000
20.35247 78.000
20.37242 107.000
20.39237 107.000
20.41231 94.000
20.43226 104.000
20.45221 111.000
20.47215 101.000
20.49210 122.000
20.51205 113.000
20.53200 142.000
20.55194 146.000
20.57189 189.000
20.59184 183.000
20.61178 198.000
20.63173 199.000
20.65168 217.000
20.67162 204.000
20.69157 243.000
20.71152 249.000
20.73147 228.000
20.75141 266.000
20.77136 200.000
20.79131 219.000
20.81125 198.000
20.83120 178.000
20.85115 180.000
20.87109 185.000
20.89104 167.000
20.91099 168.000
20.93094 152.000
20.95088 161.000
20.97083 148.000
20.99078 149.000
21.01072 124.000
21.03067 124.000
21.05062 116.000
21.07056 127.000
21.09051 96.000
21.11046 108.000
21.13040 113.000
21.15035 120.000
21.17030 117.000
21.19025 93.000
21.21019 106.000
21.23014 93.000
21.25009 91.000
21.27003 91.000
21.28998 89.000
21.30993 95.000
21.32987 85.000
21.34982 87.000
21.36977 80.000
21.38972 83.000
21.40966 107.000
21.42961 82.000
21.44956 76.000
21.46950 68.000
21.48945 98.000
21.50940 73.000
21.52934 102.000
21.54929 105.000
21.56924 74.000
21.58918 99.000
21.60913 70.000
21.62908 96.000
21.64903 95.000
21.66897 84.000
21.68892 107.000
21.70887 78.000
21.72881 71.000
21.74876 93.000
21.76871 92.000
21.78865 96.000
21.80860 90.000
21.82855 96.000
21.84850 93.000
21.86844 87.000
21.88839 74.000
21.90834 71.000
21.92828 99.000
21.94823 99.000
21.96818 96.000
21.98812 83.000
22.00807 88.000
22.02802 108.000
22.04796 95.000
22.06791 68.000
22.08786 97.000
22.10781 93.000
22.12775 90.000
22.14770 90.000
22.16765 78.000
22.18759 86.000
22.20754 74.000
22.22749 99.000
22.24743 84.000
22.26738 87.000
22.28733 83.000
22.30728 87.000
22.32722 72.000
22.34717 79.000
22.36712 89.000
22.38706 81.000
22.40701 86.000
22.42696 81.000
22.44690 84.000
22.46685 89.000
22.48680 92.000
22.50675 76.000
22.52669 95.000
22.54664 65.000
22.56659 93.000
22.58653 88.000
22.60648 83.000
22.62643 82.000
22.64637 89.000
22.66632 64.000
22.68627 80.000
22.70621 90.000
22.72616 84.000
22.74611 80.000
22.76606 97.000
22.78600 85.000
22.80595 86.000
22.82590 95.000
22.84584 76.000
22.86579 74.000
22.88574 70.000
22.90568 91.000
22.92563 99.000
22.94558 85.000
22.96553 97.000
22.98547 97.000
23.00542 74.000
23.02537 73.000
23.04531 102.000
23.06526 76.000
23.08521 100.000
23.10515 80.000
23.12510 90.000
23.14505 70.000
23.16499 116.000
23.18494 92.000
23.20489 79.000
23.22484 89.000
23.24478 78.000
23.26473 95.000
23.28468 86.000
23.30462 78.000
23.32457 74.000
23.34452 92.000
23.36446 82.000
23.38441 86.000
23.40436 96.000
23.42431 91.000
23.44425 80.000
23.46420 92.000
23.48415 74.000
23.50409 63.000
23.52404 77.000
23.54399 71.000
23.56393 79.000
23.58388 73.000
23.60383 76.000
23.62377 88.000
23.64372 82.000
23.66367 87.000
23.68362 95.000
23.70356 94.000
23.72351 89.000
23.74346 98.000
23.76340 88.000
23.78335 84.000
23.80330 83.000
23.82324 92.000
23.84319 66.000
23.86314 79.000
23.88309 68.000
23.90303 93.000
23.92298 96.000
23.94293 79.000
23.96287 78.000
23.98282 69.000
24.00277 81.000
24.02271 89.000
24.04266 89.000
24.06261 94.000
24.08256 83.000
24.10250 62.000
24.12245 89.000
24.14240 77.000
24.16234 92.000
24.18229 95.000
24.20224 92.000
24.22218 80.000
24.24213 93.000
24.26208 70.000
24.28202 80.000
24.30197 83.000
24.32192 94.000
24.34187 82.000
24.36181 80.000
24.38176 91.000
24.40171 84.000
24.42165 76.000
24.44160 86.000
24.46155 96.000
24.48149 83.000
24.50144 85.000
24.52139 94.000
24.54134 85.000
24.56128 88.000
24.58123 80.000
24.60118 89.000
24.62112 94.000
24.64107 85.000
24.66102 99.000
24.68096 75.000
24.70091 75.000
24.72086 107.000
24.74080 80.000
24.76075 77.000
24.78070 78.000
24.80065 82.000
24.82059 79.000
24.84054 92.000
24.86049 75.000
24.88043 72.000
24.90038 90.000
24.92033 92.000
24.94027 93.000
24.96022 81.000
24.98017 90.000
25.00012 81.000
25.02006 90.000
25.04001 102.000
25.05996 74.000
25.07990 87.000
25.09985 79.000
25.11980 89.000
25.13974 77.000
25.15969 67.000
25.17964 82.000
25.19958 75.000
25.21953 71.000
25.23948 95.000
25.25943 88.000
25.27937 77.000
25.29932 83.000
25.31927 67.000
25.33921 72.000
25.35916 68.000
25.37911 97.000
25.39905 97.000
25.41900 91.000
25.43895 93.000
25.45890 96.000
25.47884 104.000
25.49879 76.000
25.51874 106.000
25.53868 118.000
25.55863 97.000
25.57858 69.000
25.59852 85.000
25.61847 94.000
25.63842 88.000
25.65837 77.000
25.67831 93.000
25.69826 97.000
25.71821 77.000
25.73815 68.000
25.75810 99.000
25.77805 76.000
25.79799 97.000
25.81794 92.000
25.83789 89.000
25.85783 79.000
25.87778 84.000
25.89773 81.000
25.91768 80.000
25.93762 79.000
25.95757 87.000
25.97752 106.000
25.99746 96.000
26.01741 88.000
26.03736 92.000
26.05730 83.000
26.07725 92.000
26.09720 101.000
26.11715 94.000
26.13709 102.000
26.15704 87.000
26.17699 82.000
26.19693 104.000
26.21688 112.000
26.23683 91.000
26.25677 75.000
26.27672 89.000
26.29667 102.000
26.31661 89.000
26.33656 86.000
26.35651 98.000
26.37646 92.000
26.39640 93.000
26.41635 83.000
26.43630 100.000
26.45624 102.000
26.47619 80.000
26.49614 81.000
26.51608 92.000
26.53603 85.000
26.55598 79.000
26.57593 78.000
26.59587 71.000
26.61582 96.000
26.63577 75.000
26.65571 94.000
26.67566 77.000
26.69561 75.000
26.71555 79.000
26.73550 95.000
26.75545 78.000
26.77539 89.000
26.79534 87.000
26.81529 94.000
26.83524 76.000
26.85518 86.000
26.87513 95.000
26.89508 93.000
26.91502 81.000
26.93497 79.000
26.95492 76.000
26.97486 66.000
26.99481 69.000
27.01476 93.000
27.03471 71.000
27.05465 79.000
27.07460 84.000
27.09455 68.000
27.11449 80.000
27.13444 87.000
27.15439 93.000
27.17433 83.000
27.19428 82.000
27.21423 84.000
27.23417 99.000
27.25412 100.000
27.27407 92.000
27.29402 95.000
27.31396 106.000
27.33391 112.000
27.35386 80.000
27.37380 82.000
27.39375 88.000
27.41370 86.000
27.43364 94.000
27.45359 99.000
27.47354 79.000
27.49349 74.000
27.51343 77.000
27.53338 83.000
27.55333 94.000
27.57327 92.000
27.59322 104.000
27.61317 82.000
27.63311 98.000
27.65306 103.000
27.67301 78.000
27.69296 98.000
27.71290 64.000
27.73285 99.000
27.75280 91.000
27.77274 92.000
27.79269 76.000
27.81264 110.000
27.83258 96.000
27.85253 92.000
27.87248 91.000
27.89242 86.000
27.91237 83.000
27.93232 89.000
27.95227 89.000
27.97221 107.000
27.99216 78.000
28.01211 91.000
28.03205 96.000
28.05200 87.000
28.07195 104.000
28.09189 70.000
28.11184 78.000
28.13179 93.000
28.15174 87.000
28.17168 87.000
28.19163 92.000
28.21158 87.000
28.23152 101.000
28.25147 99.000
28.27142 85.000
28.29136 94.000
28.31131 82.000
28.33126 87.000
28.35120 85.000
28.37115 94.000
28.39110 94.000
28.41105 93.000
28.43099 111.000
28.45094 89.000
28.47089 93.000
28.49083 90.000
28.51078 102.000
28.53073 110.000
28.55067 88.000
28.57062 95.000
28.59057 94.000
28.61052 62.000
28.63046 90.000
28.65041 94.000
28.67036 82.000
28.69030 85.000
28.71025 74.000
28.73020 104.000
28.75014 84.000
28.77009 84.000
28.79004 100.000
28.80998 77.000
28.82993 90.000
28.84988 89.000
28.86983 83.000
28.88977 102.000
28.90972 84.000
28.92967 90.000
28.94961 98.000
28.96956 97.000
28.98951 95.000
29.00945 93.000
29.02940 90.000
29.04935 103.000
29.06930 75.000
29.08924 89.000
29.10919 92.000
29.12914 79.000
29.14908 86.000
29.16903 89.000
29.18898 85.000
29.20892 84.000
29.22887 94.000
29.24882 108.000
29.26877 98.000
29.28871 83.000
29.30866 100.000
29.32861 84.000
29.34855 88.000
29.36850 94.000
29.38845 103.000
29.40839 100.000
29.42834 106.000
29.44829 109.000
29.46823 101.000
29.48818 115.000
29.50813 115.000
29.52808 106.000
29.54802 115.000
29.56797 120.000
29.58792 124.000
29.60786 109.000
29.62781 164.000
29.64776 133.000
29.66770 142.000
29.68765 133.000
29.70760 122.000
29.72755 132.000
29.74749 126.000
29.76744 136.000
29.78739 102.000
29.80733 117.000
29.82728 145.000
29.84723 128.000
29.86717 143.000
29.88712 156.000
29.90707 158.000
29.92701 187.000
29.94696 232.000
29.96691 237.000
29.98686 302.000
30.00680 305.000
30.02675 333.000
30.04670 343.000
30.06664 349.000
30.08659 278.000
30.10654 273.000
30.12648 231.000
30.14643 201.000
30.16638 174.000
30.18633 172.000
30.20627 129.000
30.22622 151.000
30.24617 127.000
30.26611 90.000
30.28606 131.000
30.30601 116.000
30.32595 115.000
30.34590 107.000
30.36585 101.000
30.38579 115.000
30.40574 132.000
30.42569 101.000
30.44564 88.000
30.46558 98.000
30.48553 100.000
30.50548 104.000
30.52542 91.000
30.54537 96.000
30.56532 94.000
30.58526 85.000
30.60521 91.000
30.62516 85.000
30.64511 98.000
30.66505 85.000
30.68500 104.000
30.70495 87.000
30.72489 94.000
30.74484 95.000
30.76479 102.000
30.78473 91.000
30.80468 97.000
30.82463 103.000
30.84458 74.000
30.86452 76.000
30.88447 93.000
30.90442 100.000
30.92436 101.000
30.94431 108.000
30.96426 95.000
30.98420 94.000
31.00415 91.000
31.02410 75.000
31.04404 123.000
31.06399 105.000
31.08394 109.000
31.10389 81.000
31.12383 91.000
31.14378 103.000
31.16373 96.000
31.18367 88.000
31.20362 79.000
31.22357 88.000
31.24351 94.000
31.26346 83.000
31.28341 87.000
31.30336 85.000
31.32330 87.000
31.34325 80.000
31.36320 89.000
31.38314 99.000
31.40309 110.000
31.42304 101.000
31.44298 84.000
31.46293 80.000
31.48288 99.000
31.50282 87.000
31.52277 98.000
31.54272 96.000
31.56267 85.000
31.58261 88.000
31.60256 95.000
31.62251 88.000
31.64245 90.000
31.66240 98.000
31.68235 101.000
31.70229 118.000
31.72224 108.000
31.74219 95.000
31.76214 119.000
31.78208 132.000
31.80203 122.000
31.82198 125.000
31.84192 116.000
31.86187 142.000
31.88182 132.000
31.90176 125.000
31.92171 120.000
31.94166 124.000
31.96160 132.000
31.98155 118.000
32.00150 129.000
32.02145 112.000
32.04139 110.000
32.06134 122.000
32.08129 106.000
32.10123 100.000
32.12118 100.000
32.14113 108.000
32.16107 102.000
32.18102 84.000
32.20097 133.000
32.22092 120.000
32.24086 88.000
32.26081 117.000
32.28076 102.000
32.30070 110.000
32.32065 104.000
32.34060 88.000
32.36054 119.000
32.38049 108.000
32.40044 101.000
32.42039 109.000
32.44033 97.000
32.46028 122.000
32.48023 124.000
32.50017 136.000
32.52012 133.000
32.54007 120.000
32.56001 147.000
32.57996 165.000
32.59991 141.000
32.61985 163.000
32.63980 157.000
32.65975 154.000
32.67970 178.000
32.69964 165.000
32.71959 184.000
32.73954 177.000
32.75948 210.000
32.77943 212.000
32.79938 226.000
32.81932 224.000
32.83927 260.000
32.85922 303.000
32.87917 266.000
32.89911 325.000
32.91906 290.000
32.93901 322.000
32.95895 272.000
32.97890 263.000
32.99885 235.000
33.01879 226.000
33.03874 193.000
33.05869 163.000
33.07863 182.000
33.09858 133.000
33.11853 135.000
33.13848 107.000
33.15842 129.000
33.17837 107.000
33.19832 109.000
33.21826 117.000
33.23821 113.000
33.25816 122.000
33.27810 109.000
33.29805 136.000
33.31800 133.000
33.33795 135.000
33.35789 144.000
33.37784 130.000
33.39779 163.000
33.41773 155.000
33.43768 163.000
33.45763 162.000
33.47757 150.000
33.49752 128.000
33.51747 122.000
33.53741 127.000
33.55736 133.000
33.57731 154.000
33.59726 129.000
33.61720 99.000
33.63715 127.000
33.65710 135.000
33.67704 117.000
33.69699 91.000
33.71694 123.000
33.73688 128.000
33.75683 126.000
33.77678 139.000
33.79673 126.000
33.81667 146.000
33.83662 156.000
33.85657 152.000
33.87651 163.000
33.89646 177.000
33.91641 207.000
33.93635 194.000
33.95630 223.000
33.97625 208.000
33.99620 261.000
34.01614 257.000
34.03609 232.000
34.05604 260.000
34.07598 265.000
34.09593 261.000
34.11588 261.000
34.13582 242.000
34.15577 213.000
34.17572 185.000
34.19566 211.000
34.21561 214.000
34.23556 194.000
34.25551 191.000
34.27545 185.000
34.29540 184.000
34.31535 170.000
34.33529 217.000
34.35524 196.000
34.37519 160.000
34.39513 171.000
34.41508 182.000
34.43503 190.000
34.45498 168.000
34.47492 178.000
34.49487 171.000
34.51482 163.000
34.53476 171.000
34.55471 178.000
34.57466 171.000
34.59460 146.000
34.61455 162.000
34.63450 163.000
34.65444 147.000
34.67439 148.000
34.69434 139.000
34.71429 159.000
34.73423 152.000
34.75418 139.000
34.77413 147.000
34.79407 150.000
34.81402 141.000
34.83397 112.000
34.85391 168.000
34.87386 132.000
34.89381 136.000
34.91376 133.000
34.93370 163.000
34.95365 158.000
34.97360 151.000
34.99354 160.000
35.01349 155.000
35.03344 169.000
35.05338 176.000
35.07333 206.000
35.09328 197.000
35.11322 241.000
35.13317 334.000
35.15312 317.000
35.17307 388.000
35.19301 514.000
35.21296 520.000
35.23291 647.000
35.25285 736.000
35.27280 872.000
35.29275 954.000
35.31269 990.000
35.33264 1104.000
35.35259 1082.000
35.37254 1190.000
35.39248 1148.000
35.41243 1076.000
35.43238 963.000
35.45232 876.000
35.47227 781.000
35.49222 736.000
35.51216 712.000
35.53211 628.000
35.55206 545.000
35.57201 488.000
35.59195 521.000
35.61190 481.000
35.63185 443.000
35.65179 382.000
35.67174 373.000
35.69169 360.000
35.71163 300.000
35.73158 311.000
35.75153 272.000
35.77147 256.000
35.79142 243.000
35.81137 204.000
35.83132 209.000
35.85126 191.000
35.87121 180.000
35.89116 152.000
35.91110 178.000
35.93105 150.000
35.95100 152.000
35.97094 144.000
35.99089 139.000
36.01084 135.000
36.03079 148.000
36.05073 161.000
36.07068 152.000
36.09063 132.000
36.11057 134.000
36.13052 147.000
36.15047 149.000
36.17041 148.000
36.19036 142.000
36.21031 131.000
36.23025 146.000
36.25020 136.000
36.27015 135.000
36.29010 134.000
36.31004 129.000
36.32999 137.000
36.34994 177.000
36.36988 144.000
36.38983 174.000
36.40978 176.000
36.42972 213.000
36.44967 243.000
36.46962 253.000
36.48957 291.000
36.50951 319.000
36.52946 367.000
36.54941 412.000
36.56935 389.000
36.58930 397.000
36.60925 389.000
36.62919 337.000
36.64914 360.000
36.66909 306.000
36.68903 319.000
36.70898 264.000
36.72893 226.000
36.74888 213.000
36.76882 195.000
36.78877 196.000
36.80872 177.000
36.82866 154.000
36.84861 132.000
36.86856 146.000
36.88850 162.000
36.90845 181.000
36.92840 165.000
36.94835 175.000
36.96829 189.000
36.98824 187.000
37.00819 230.000
37.02813 158.000
37.04808 184.000
37.06803 172.000
37.08797 161.000
37.10792 145.000
37.12787 139.000
37.14781 124.000
37.16776 122.000
37.18771 91.000
37.20766 116.000
37.22760 120.000
37.24755 98.000
37.26750 112.000
37.28744 93.000
37.30739 83.000
37.32734 106.000
37.34728 91.000
37.36723 97.000
37.38718 90.000
37.40713 90.000
37.42707 98.000
37.44702 109.000
37.46697 86.000
37.48691 121.000
37.50686 96.000
37.52681 83.000
37.54675 105.000
37.56670 110.000
37.58665 98.000
37.60660 95.000
37.62654 106.000
37.64649 107.000
37.66644 87.000
37.68638 98.000
37.70633 106.000
37.72628 92.000
37.74622 106.000
37.76617 103.000
37.78612 100.000
37.80606 102.000
37.82601 91.000
37.84596 82.000
37.86591 108.000
37.88585 102.000
37.90580 93.000
37.92575 105.000
37.94569 102.000
37.96564 107.000
37.98559 116.000
38.00553 112.000
38.02548 106.000
38.04543 104.000
38.06538 96.000
38.08532 106.000
38.10527 96.000
38.12522 93.000
38.14516 99.000
38.16511 110.000
38.18506 101.000
38.20500 99.000
38.22495 117.000
38.24490 102.000
38.26484 108.000
38.28479 109.000
38.30474 126.000
38.32469 114.000
38.34463 119.000
38.36458 110.000
38.38453 124.000
38.40447 119.000
38.42442 117.000
38.44437 120.000
38.46431 124.000
38.48426 138.000
38.50421 113.000
38.52416 122.000
38.54410 145.000
38.56405 140.000
38.58400 165.000
38.60394 169.000
38.62389 159.000
38.64384 185.000
38.66378 188.000
38.68373 187.000
38.70368 182.000
38.72362 260.000
38.74357 245.000
38.76352 310.000
38.78347 290.000
38.80341 301.000
38.82336 284.000
38.84331 325.000
38.86325 316.000
38.88320 286.000
38.90315 266.000
38.92309 281.000
38.94304 294.000
38.96299 265.000
38.98294 242.000
39.00288 211.000
39.02283 251.000
39.04278 180.000
39.06272 200.000
39.08267 162.000
39.10262 149.000
39.12256 158.000
39.14251 139.000
39.16246 139.000
39.18241 124.000
39.20235 102.000
39.22230 139.000
39.24225 118.000
39.26219 122.000
39.28214 134.000
39.30209 116.000
39.32203 100.000
39.34198 110.000
39.36193 119.000
39.38187 108.000
39.40182 96.000
39.42177 115.000
39.44172 89.000
39.46166 96.000
39.48161 97.000
39.50156 90.000
39.52150 105.000
39.54145 106.000
39.56140 92.000
39.58134 120.000
39.60129 114.000
39.62124 123.000
39.64119 92.000
39.66113 96.000
39.68108 112.000
39.70103 109.000
39.72097 103.000
39.74092 85.000
39.76087 113.000
39.78081 95.000
39.80076 113.000
39.82071 96.000
39.84065 103.000
39.86060 87.000
39.88055 106.000
39.90050 108.000
39.92044 110.000
39.94039 90.000
39.96034 96.000
39.98028 101.000
40.00023 97.000
40.02018 101.000
40.04012 116.000
40.06007 112.000
40.08002 96.000
40.09997 109.000
40.11991 99.000
40.13986 105.000
40.15981 99.000
40.17975 99.000
40.19970 93.000
40.21965 105.000
40.23959 101.000
40.25954 98.000
40.27949 103.000
40.29943 127.000
40.31938 84.000
40.33933 109.000
40.35928 112.000
40.37922 70.000
40.39917 97.000
40.41912 104.000
40.43906 104.000
40.45901 95.000
40.47896 88.000
40.49890 110.000
40.51885 108.000
40.53880 88.000
40.55875 97.000
40.57869 110.000
40.59864 106.000
40.61859 94.000
40.63853 104.000
40.65848 95.000
40.67843 100.000
40.69837 110.000
40.71832 95.000
40.73827 107.000
40.75822 120.000
40.77816 118.000
40.79811 109.000
40.81806 94.000
40.83800 149.000
40.85795 115.000
40.87790 131.000
40.89784 140.000
40.91779 126.000
40.93774 116.000
40.95768 131.000
40.97763 132.000
40.99758 129.000
41.01753 144.000
41.03747 165.000
41.05742 133.000
41.07737 168.000
41.09731 168.000
41.11726 173.000
41.13721 213.000
41.15715 229.000
41.17710 239.000
41.19705 245.000
41.21700 294.000
41.23694 312.000
41.25689 355.000
41.27684 444.000
41.29678 581.000
41.31673 694.000
41.33668 867.000
41.35662 992.000
41.37657 1159.000
41.39652 1243.000
41.41646 1340.000
41.43641 1420.000
41.45636 1458.000
41.47631 1366.000
41.49625 1168.000
41.51620 1086.000
41.53615 1022.000
41.55609 964.000
41.57604 843.000
41.59599 680.000
41.61593 526.000
41.63588 453.000
41.65583 386.000
41.67578 330.000
41.69572 260.000
41.71567 277.000
41.73562 248.000
41.75556 216.000
41.77551 181.000
41.79546 199.000
41.81540 164.000
41.83535 178.000
41.85530 173.000
41.87524 136.000
41.89519 154.000
41.91514 143.000
41.93509 134.000
41.95503 142.000
41.97498 142.000
41.99493 133.000
42.01487 128.000
42.03482 143.000
42.05477 123.000
42.07471 141.000
42.09466 108.000
42.11461 128.000
42.13456 102.000
42.15450 117.000
42.17445 111.000
42.19440 119.000
42.21434 125.000
42.23429 121.000
42.25424 125.000
42.27418 140.000
42.29413 129.000
42.31408 106.000
42.33403 110.000
42.35397 115.000
42.37392 128.000
42.39387 115.000
42.41381 122.000
42.43376 122.000
42.45371 124.000
42.47365 107.000
42.49360 91.000
42.51355 110.000
42.53349 118.000
42.55344 121.000
42.57339 134.000
42.59334 131.000
42.61328 114.000
42.63323 109.000
42.65318 123.000
42.67312 113.000
42.69307 116.000
42.71302 162.000
42.73296 141.000
42.75291 142.000
42.77286 140.000
42.79281 143.000
42.81275 196.000
42.83270 193.000
42.85265 201.000
42.87259 193.000
42.89254 210.000
42.91249 241.000
42.93243 248.000
42.95238 257.000
42.97233 274.000
42.99227 254.000
43.01222 272.000
43.03217 205.000
43.05212 211.000
43.07206 219.000
43.09201 206.000
43.11196 196.000
43.13190 187.000
43.15185 167.000
43.17180 156.000
43.19174 142.000
43.21169 148.000
43.23164 126.000
43.25159 152.000
43.27153 117.000
43.29148 103.000
43.31143 117.000
43.33137 98.000
43.35132 109.000
43.37127 112.000
43.39121 100.000
43.41116 126.000
43.43111 89.000
43.45105 82.000
43.47100 108.000
43.49095 115.000
43.51090 110.000
43.53084 97.000
43.55079 92.000
43.57074 87.000
43.59068 84.000
43.61063 84.000
43.63058 114.000
43.65052 96.000
43.67047 102.000
43.69042 89.000
43.71037 93.000
43.73031 97.000
43.75026 108.000
43.77021 83.000
43.79015 108.000
43.81010 92.000
43.83005 84.000
43.84999 78.000
43.86994 107.000
43.88989 79.000
43.90984 83.000
43.92978 96.000
43.94973 81.000
43.96968 85.000
43.98962 95.000
44.00957 98.000
44.02952 94.000
44.04946 88.000
44.06941 75.000
44.08936 84.000
44.10930 89.000
44.12925 93.000
44.14920 87.000
44.16915 86.000
44.18909 89.000
44.20904 85.000
44.22899 100.000
44.24893 84.000
44.26888 86.000
44.28883 89.000
44.30877 94.000
44.32872 85.000
44.34867 98.000
44.36862 102.000
44.38856 94.000
44.40851 93.000
44.42846 102.000
44.44840 95.000
44.46835 84.000
44.48830 95.000
44.50824 96.000
44.52819 94.000
44.54814 92.000
44.56808 103.000
44.58803 105.000
44.60798 103.000
44.62793 96.000
44.64787 109.000
44.66782 116.000
44.68777 113.000
44.70771 119.000
44.72766 119.000
44.74761 138.000
44.76755 143.000
44.78750 133.000
44.80745 125.000
44.82740 125.000
44.84734 126.000
44.86729 120.000
44.88724 122.000
44.90718 135.000
44.92713 102.000
44.94708 118.000
44.96702 108.000
44.98697 92.000
45.00692 98.000
45.02686 92.000
45.04681 101.000
45.06676 91.000
45.08671 103.000
45.10665 93.000
45.12660 105.000
45.14655 101.000
45.16649 104.000
45.18644 94.000
45.20639 78.000
45.22633 112.000
45.24628 98.000
45.26623 111.000
45.28618 115.000
45.30612 114.000
45.32607 93.000
45.34602 84.000
45.36596 108.000
45.38591 89.000
45.40586 93.000
45.42580 92.000
45.44575 95.000
45.46570 104.000
45.48565 100.000
45.50559 89.000
45.52554 78.000
45.54549 88.000
45.56543 78.000
45.58538 88.000
45.60533 94.000
45.62527 90.000
45.64522 84.000
45.66517 84.000
45.68511 108.000
45.70506 89.000
45.72501 93.000
45.74496 75.000
45.76490 71.000
45.78485 97.000
45.80480 83.000
45.82474 87.000
45.84469 88.000
45.86464 88.000
45.88458 86.000
45.90453 72.000
45.92448 87.000
45.94443 86.000
45.96437 79.000
45.98432 79.000
46.00427 97.000
46.02421 76.000
46.04416 74.000
46.06411 94.000
46.08405 95.000
46.10400 91.000
46.12395 94.000
46.14389 90.000
46.16384 99.000
46.18379 75.000
46.20374 89.000
46.22368 85.000
46.24363 93.000
46.26358 93.000
46.28352 92.000
46.30347 86.000
46.32342 81.000
46.34336 106.000
46.36331 103.000
46.38326 98.000
46.40321 111.000
46.42315 84.000
46.44310 96.000
46.46305 73.000
46.48299 86.000
46.50294 98.000
46.52289 96.000
46.54283 87.000
46.56278 89.000
46.58273 81.000
46.60267 91.000
46.62262 93.000
46.64257 88.000
46.66252 86.000
46.68246 99.000
46.70241 98.000
46.72236 77.000
46.74230 103.000
46.76225 88.000
46.78220 101.000
46.80214 91.000
46.82209 75.000
46.84204 105.000
46.86199 102.000
46.88193 103.000
46.90188 98.000
46.92183 101.000
46.94177 99.000
46.96172 94.000
46.98167 108.000
47.00161 80.000
47.02156 83.000
47.04151 96.000
47.06146 92.000
47.08140 93.000
47.10135 102.000
47.12130 86.000
47.14124 108.000
47.16119 86.000
47.18114 98.000
47.20108 76.000
47.22103 92.000
47.24098 81.000
47.26092 85.000
47.28087 87.000
47.30082 76.000
47.32077 91.000
47.34071 89.000
47.36066 94.000
47.38061 78.000
47.40055 84.000
47.42050 79.000
47.44045 95.000
47.46039 78.000
47.48034 92.000
47.50029 67.000
47.52024 83.000
47.54018 89.000
47.56013 87.000
47.58008 82.000
47.60002 73.000
47.61997 86.000
47.63992 91.000
47.65986 99.000
47.67981 101.000
47.69976 87.000
47.71970 73.000
47.73965 75.000
47.75960 102.000
47.77955 73.000
47.79949 98.000
47.81944 90.000
47.83939 87.000
47.85933 85.000
47.87928 93.000
47.89923 103.000
47.91917 73.000
47.93912 85.000
47.95907 81.000
47.97902 94.000
47.99896 91.000
48.01891 88.000
48.03886 88.000
48.05880 80.000
48.07875 84.000
48.09870 87.000
48.11864 67.000
48.13859 89.000
48.15854 103.000
48.17848 100.000
48.19843 87.000
48.21838 87.000
48.23833 90.000
48.25827 85.000
48.27822 94.000
48.29817 66.000
48.31811 104.000
48.33806 92.000
48.35801 110.000
48.37795 92.000
48.39790 106.000
48.41785 119.000
48.43780 130.000
48.45774 125.000
48.47769 129.000
48.49764 119.000
48.51758 114.000
48.53753 124.000
48.55748 120.000
48.57742 120.000
48.59737 131.000
48.61732 123.000
48.63726 121.000
48.65721 116.000
48.67716 137.000
48.69711 150.000
48.71705 132.000
48.73700 154.000
48.75695 159.000
48.77689 154.000
48.79684 152.000
48.81679 170.000
48.83673 122.000
48.85668 147.000
48.87663 139.000
48.89658 135.000
48.91652 131.000
48.93647 128.000
48.95642 114.000
48.97636 119.000
48.99631 119.000
49.01626 124.000
49.03620 111.000
49.05615 99.000
49.07610 106.000
49.09605 110.000
49.11599 91.000
49.13594 111.000
49.15589 100.000
49.17583 106.000
49.19578 103.000
49.21573 109.000
49.23567 103.000
49.25562 97.000
49.27557 105.000
49.29551 97.000
49.31546 95.000
49.33541 107.000
49.35536 94.000
49.37530 86.000
49.39525 82.000
49.41520 88.000
49.43514 95.000
49.45509 96.000
49.47504 80.000
49.49498 84.000
49.51493 106.000
49.53488 97.000
49.55483 94.000
49.57477 76.000
49.59472 98.000
49.61467 98.000
49.63461 85.000
49.65456 98.000
49.67451 80.000
49.69445 84.000
49.71440 101.000
49.73435 78.000
49.75429 98.000
49.77424 91.000
49.79419 77.000
49.81414 97.000
49.83408 89.000
49.85403 86.000
49.87398 81.000
49.89392 82.000
49.91387 87.000
49.93382 96.000
49.95376 119.000
49.97371 85.000
49.99366 78.000
50.01361 101.000
50.03355 97.000
50.05350 85.000
50.07345 95.000
50.09339 79.000
50.11334 87.000
50.13329 91.000
50.15323 101.000
50.17318 85.000
50.19313 98.000
50.21307 97.000
50.23302 76.000
50.25297 101.000
50.27292 83.000
50.29286 89.000
50.31281 111.000
50.33276 96.000
50.35270 87.000
50.37265 82.000
50.39260 87.000
50.41254 80.000
50.43249 98.000
50.45244 85.000
50.47239 78.000
50.49233 80.000
50.51228 90.000
50.53223 97.000
50.55217 79.000
50.57212 84.000
50.59207 81.000
50.61201 84.000
50.63196 100.000
50.65191 96.000
50.67186 93.000
50.69180 88.000
50.71175 102.000
50.73170 87.000
50.75164 95.000
50.77159 106.000
50.79154 76.000
50.81148 99.000
50.83143 103.000
50.85138 90.000
50.87132 89.000
50.89127 85.000
50.91122 99.000
50.93117 95.000
50.95111 87.000
50.97106 88.000
50.99101 79.000
51.01095 98.000
51.03090 101.000
51.05085 101.000
51.07079 97.000
51.09074 107.000
51.11069 79.000
51.13064 91.000
51.15058 92.000
51.17053 99.000
51.19048 82.000
51.21042 108.000
51.23037 104.000
51.25032 91.000
51.27026 97.000
51.29021 97.000
51.31016 83.000
51.33010 84.000
51.35005 87.000
51.37000 90.000
51.38995 82.000
51.40989 103.000
51.42984 97.000
51.44979 82.000
51.46973 115.000
51.48968 78.000
51.50963 102.000
51.52957 99.000
51.54952 103.000
51.56947 84.000
51.58942 92.000
51.60936 106.000
51.62931 87.000
51.64926 86.000
51.66920 86.000
51.68915 81.000
51.70910 86.000
51.72904 87.000
51.74899 90.000
51.76894 83.000
51.78888 90.000
51.80883 93.000
51.82878 86.000
51.84873 93.000
51.86867 96.000
51.88862 83.000
51.90857 104.000
51.92851 104.000
51.94846 92.000
51.96841 109.000
51.98835 88.000
52.00830 101.000
52.02825 72.000
52.04820 87.000
52.06814 81.000
52.08809 76.000
52.10804 87.000
52.12798 87.000
52.14793 61.000
52.16788 90.000
52.18782 93.000
52.20777 99.000
52.22772 115.000
52.24767 83.000
52.26761 96.000
52.28756 113.000
52.30751 81.000
52.32745 92.000
52.34740 96.000
52.36735 93.000
52.38729 101.000
52.40724 103.000
52.42719 93.000
52.44713 79.000
52.46708 90.000
52.48703 105.000
52.50698 117.000
52.52692 115.000
52.54687 111.000
52.56682 92.000
52.58676 131.000
52.60671 124.000
52.62666 118.000
52.64660 117.000
52.66655 128.000
52.68650 135.000
52.70645 158.000
52.72639 159.000
52.74634 173.000
52.76629 166.000
52.78623 193.000
52.80618 236.000
52.82613 216.000
52.84607 246.000
52.86602 263.000
52.88597 271.000
52.90591 289.000
52.92586 246.000
52.94581 248.000
52.96576 222.000
52.98570 227.000
53.00565 214.000
53.02560 211.000
53.04554 197.000
53.06549 190.000
53.08544 170.000
53.10538 166.000
53.12533 156.000
53.14528 150.000
53.16523 154.000
53.18517 182.000
53.20512 172.000
53.22507 158.000
53.24501 169.000
53.26496 165.000
53.28491 151.000
53.30485 167.000
53.32480 157.000
53.34475 161.000
53.36469 139.000
53.38464 144.000
53.40459 132.000
53.42454 141.000
53.44448 129.000
53.46443 136.000
53.48438 123.000
53.50432 129.000
53.52427 132.000
53.54422 105.000
53.56416 117.000
53.58411 133.000
53.60406 119.000
53.62401 117.000
53.64395 118.000
53.66390 115.000
53.68385 108.000
53.70379 102.000
53.72374 95.000
53.74369 99.000
53.76363 95.000
53.78358 90.000
53.80353 90.000
53.82348 114.000
53.84342 102.000
53.86337 91.000
53.88332 80.000
53.90326 86.000
53.92321 105.000
53.94316 112.000
53.96310 101.000
53.98305 84.000
54.00300 121.000
54.02294 105.000
54.04289 96.000
54.06284 100.000
54.08279 86.000
54.10273 98.000
54.12268 94.000
54.14263 108.000
54.16257 93.000
54.18252 103.000
54.20247 89.000
54.22241 111.000
54.24236 77.000
54.26231 86.000
54.28226 85.000
54.30220 101.000
54.32215 84.000
54.34210 100.000
54.36204 84.000
54.38199 90.000
54.40194 86.000
54.42188 94.000
54.44183 115.000
54.46178 86.000
54.48172 78.000
54.50167 109.000
54.52162 98.000
54.54157 85.000
54.56151 94.000
54.58146 89.000
54.60141 82.000
54.62135 74.000
54.64130 85.000
54.66125 89.000
54.68119 79.000
54.70114 99.000
54.72109 88.000
54.74104 89.000
54.76098 84.000
54.78093 92.000
54.80088 87.000
54.82082 91.000
54.84077 90.000
54.86072 79.000
54.88066 94.000
54.90061 76.000
54.92056 104.000
54.94050 85.000
54.96045 69.000
54.98040 89.000
55.00035 91.000
55.02029 82.000
55.04024 78.000
55.06019 94.000
55.08013 89.000
55.10008 98.000
55.12003 93.000
55.13997 89.000
55.15992 106.000
55.17987 86.000
55.19982 97.000
55.21976 96.000
55.23971 86.000
55.25966 112.000
55.27960 96.000
55.29955 113.000
55.31950 110.000
55.33944 110.000
55.35939 108.000
55.37934 98.000
55.39929 90.000
55.41923 104.000
55.43918 103.000
55.45913 96.000
55.47907 82.000
55.49902 92.000
55.51897 112.000
55.53891 86.000
55.55886 95.000
55.57881 110.000
55.59875 90.000
55.61870 95.000
55.63865 84.000
55.65860 96.000
55.67854 93.000
55.69849 106.000
55.71844 105.000
55.73838 93.000
55.75833 93.000
55.77828 95.000
55.79822 103.000
55.81817 88.000
55.83812 96.000
55.85807 108.000
55.87801 87.000
55.89796 93.000
55.91791 96.000
55.93785 106.000
55.95780 87.000
55.97775 86.000
55.99769 114.000
56.01764 100.000
56.03759 104.000
56.05753 100.000
56.07748 102.000
56.09743 93.000
56.11738 98.000
56.13732 108.000
56.15727 111.000
56.17722 93.000
56.19716 82.000
56.21711 105.000
56.23706 109.000
56.25700 97.000
56.27695 96.000
56.29690 112.000
56.31685 100.000
56.33679 89.000
56.35674 115.000
56.37669 117.000
56.39663 112.000
56.41658 121.000
56.43653 103.000
56.45647 89.000
56.47642 105.000
56.49637 129.000
56.51631 147.000
56.53626 150.000
56.55621 128.000
56.57616 144.000
56.59610 168.000
56.61605 178.000
56.63600 171.000
56.65594 191.000
56.67589 198.000
56.69584 238.000
56.71578 249.000
56.73573 294.000
56.75568 269.000
56.77563 279.000
56.79557 280.000
56.81552 280.000
56.83547 265.000
56.85541 296.000
56.87536 231.000
56.89531 248.000
56.91525 222.000
56.93520 220.000
56.95515 239.000
56.97510 202.000
56.99504 187.000
57.01499 199.000
57.03494 162.000
57.05488 149.000
57.07483 131.000
57.09478 136.000
57.11472 141.000
57.13467 137.000
57.15462 138.000
57.17456 135.000
57.19451 137.000
57.21446 147.000
57.23441 142.000
57.25435 142.000
57.27430 155.000
57.29425 158.000
57.31419 172.000
57.33414 157.000
57.35409 203.000
57.37403 217.000
57.39398 222.000
57.41393 236.000
57.43388 242.000
57.45382 270.000
57.47377 285.000
57.49372 308.000
57.51366 342.000
57.53361 383.000
57.55356 330.000
57.57350 332.000
57.59345 335.000
57.61340 298.000
57.63334 266.000
57.65329 279.000
57.67324 272.000
57.69319 270.000
57.71313 195.000
57.73308 225.000
57.75303 202.000
57.77297 161.000
57.79292 153.000
57.81287 149.000
57.83281 133.000
57.85276 152.000
57.87271 116.000
57.89266 129.000
57.91260 139.000
57.93255 98.000
57.95250 105.000
57.97244 98.000
57.99239 116.000
58.01234 122.000
58.03228 120.000
58.05223 120.000
58.07218 109.000
58.09212 94.000
58.11207 112.000
58.13202 104.000
58.15197 104.000
58.17191 118.000
58.19186 104.000
58.21181 105.000
58.23175 127.000
58.25170 118.000
58.27165 121.000
58.29159 137.000
58.31154 106.000
58.33149 115.000
58.35144 145.000
58.37138 129.000
58.39133 125.000
58.41128 119.000
58.43122 116.000
58.45117 126.000
58.47112 111.000
58.49106 113.000
58.51101 103.000
58.53096 112.000
58.55090 115.000
58.57085 98.000
58.59080 100.000
58.61075 98.000
58.63069 92.000
58.65064 101.000
58.67059 106.000
58.69053 114.000
58.71048 90.000
58.73043 92.000
58.75037 83.000
58.77032 83.000
58.79027 94.000
58.81022 103.000
58.83016 90.000
58.85011 98.000
58.87006 88.000
58.89000 100.000
58.90995 105.000
58.92990 84.000
58.94984 96.000
58.96979 96.000
58.98974 86.000
59.00969 75.000
59.02963 112.000
59.04958 97.000
59.06953 81.000
59.08947 88.000
59.10942 98.000
59.12937 85.000
59.14931 98.000
59.16926 87.000
59.18921 92.000
59.20915 89.000
59.22910 88.000
59.24905 83.000
59.26900 95.000
59.28894 89.000
59.30889 93.000
59.32884 90.000
59.34878 102.000
59.36873 86.000
59.38868 83.000
59.40862 90.000
59.42857 96.000
59.44852 89.000
59.46847 89.000
59.48841 90.000
59.50836 91.000
59.52831 91.000
59.54825 101.000
59.56820 78.000
59.58815 89.000
59.60809 90.000
59.62804 102.000
59.64799 104.000
59.66793 93.000
59.68788 107.000
59.70783 91.000
59.72778 107.000
59.74772 88.000
59.76767 99.000
59.78762 99.000
59.80756 91.000
59.82751 97.000
59.84746 105.000
59.86740 100.000
59.88735 91.000
59.90730 89.000
59.92725 74.000
59.94719 87.000
59.96714 87.000
59.98709 100.000
60.00703 109.000
60.02698 111.000
60.04693 105.000
60.06687 100.000
60.08682 118.000
60.10677 92.000
60.12671 121.000
60.14666 96.000
60.16661 118.000
60.18656 105.000
60.20650 109.000
60.22645 115.000
60.24640 99.000
60.26634 120.000
60.28629 92.000
60.30624 96.000
60.32618 91.000
60.34613 99.000
60.36608 84.000
60.38603 101.000
60.40597 114.000
60.42592 110.000
60.44587 109.000
60.46581 96.000
60.48576 99.000
60.50571 99.000
60.52565 111.000
60.54560 117.000
60.56555 115.000
60.58550 111.000
60.60544 102.000
60.62539 118.000
60.64534 107.000
60.66528 128.000
60.68523 118.000
60.70518 118.000
60.72512 104.000
60.74507 116.000
60.76502 102.000
60.78496 100.000
60.80491 128.000
60.82486 123.000
60.84481 120.000
60.86475 108.000
60.88470 91.000
60.90465 109.000
60.92459 117.000
60.94454 102.000
60.96449 97.000
60.98443 107.000
61.00438 99.000
61.02433 101.000
61.04428 116.000
61.06422 128.000
61.08417 129.000
61.10412 110.000
61.12406 94.000
61.14401 102.000
61.16396 109.000
61.18390 114.000
61.20385 115.000
61.22380 113.000
61.24374 97.000
61.26369 96.000
61.28364 117.000
61.30359 124.000
61.32353 108.000
61.34348 118.000
61.36343 122.000
61.38337 130.000
61.40332 114.000
61.42327 122.000
61.44321 115.000
61.46316 140.000
61.48311 129.000
61.50306 153.000
61.52300 147.000
61.54295 154.000
61.56290 163.000
61.58284 143.000
61.60279 174.000
61.62274 153.000
61.64268 181.000
61.66263 163.000
61.68258 125.000
61.70252 148.000
61.72247 155.000
61.74242 138.000
61.76237 146.000
61.78231 166.000
61.80226 151.000
61.82221 139.000
61.84215 166.000
61.86210 169.000
61.88205 154.000
61.90199 121.000
61.92194 129.000
61.94189 146.000
61.96184 141.000
61.98178 152.000
62.00173 145.000
62.02168 139.000
62.04162 184.000
62.06157 161.000
62.08152 171.000
62.10146 206.000
62.12141 204.000
62.14136 226.000
62.16131 224.000
62.18125 316.000
62.20120 268.000
62.22115 313.000
62.24109 361.000
62.26104 394.000
62.28099 494.000
62.30093 463.000
62.32088 500.000
62.34083 503.000
62.36077 565.000
62.38072 519.000
62.40067 496.000
62.42062 494.000
62.44056 442.000
62.46051 461.000
62.48046 438.000
62.50040 405.000
62.52035 391.000
62.54030 334.000
62.56024 341.000
62.58019 320.000
62.60014 284.000
62.62009 258.000
62.64003 259.000
62.65998 210.000
62.67993 212.000
62.69987 196.000
62.71982 179.000
62.73977 155.000
62.75971 167.000
62.77966 177.000
62.79961 157.000
62.81955 144.000
62.83950 155.000
62.85945 161.000
62.87940 127.000
62.89934 132.000
62.91929 128.000
62.93924 124.000
62.95918 135.000
62.97913 141.000
62.99908 128.000
63.01902 116.000
63.03897 125.000
63.05892 125.000
63.07887 126.000
63.09881 120.000
63.11876 96.000
63.13871 113.000
63.15865 122.000
63.17860 107.000
63.19855 110.000
63.21849 104.000
63.23844 89.000
63.25839 82.000
63.27833 123.000
63.29828 120.000
63.31823 100.000
63.33818 103.000
63.35812 105.000
63.37807 108.000
63.39802 109.000
63.41796 100.000
63.43791 93.000
63.45786 92.000
63.47780 81.000
63.49775 107.000
63.51770 96.000
63.53765 121.000
63.55759 97.000
63.57754 76.000
63.59749 108.000
63.61743 93.000
63.63738 104.000
63.65733 101.000
63.67727 108.000
63.69722 93.000
63.71717 95.000
63.73712 103.000
63.75706 118.000
63.77701 98.000
63.79696 98.000
63.81690 91.000
63.83685 87.000
63.85680 93.000
63.87674 120.000
63.89669 96.000
63.91664 92.000
63.93658 108.000
63.95653 96.000
63.97648 102.000
63.99643 94.000
64.01637 105.000
64.03632 91.000
64.05627 104.000
64.07621 115.000
64.09616 96.000
64.11611 99.000
64.13605 102.000
64.15600 91.000
64.17595 84.000
64.19590 79.000
64.21584 96.000
64.23579 108.000
64.25574 89.000
64.27568 101.000
64.29563 86.000
64.31558 87.000
64.33552 91.000
64.35547 93.000
64.37542 95.000
64.39536 111.000
64.41531 90.000
64.43526 101.000
64.45521 96.000
64.47515 95.000
64.49510 103.000
64.51505 106.000
64.53499 88.000
64.55494 88.000
64.57489 120.000
64.59483 88.000
64.61478 125.000
64.63473 119.000
64.65468 109.000
64.67462 113.000
64.69457 108.000
64.71452 103.000
64.73446 118.000
64.75441 145.000
64.77436 162.000
64.79430 107.000
64.81425 159.000
64.83420 151.000
64.85414 188.000
64.87409 175.000
64.89404 174.000
64.91399 173.000
64.93393 172.000
64.95388 182.000
64.97383 201.000
64.99377 184.000
65.01372 164.000
65.03367 172.000
65.05361 176.000
65.07356 180.000
65.09351 156.000
65.11346 161.000
65.13340 154.000
65.15335 150.000
65.17330 163.000
65.19324 147.000
65.21319 142.000
65.23314 139.000
65.25308 128.000
65.27303 129.000
65.29298 139.000
65.31293 125.000
65.33287 139.000
65.35282 105.000
65.37277 122.000
65.39271 111.000
65.41266 121.000
65.43261 105.000
65.45255 133.000
65.47250 111.000
65.49245 123.000
65.51239 120.000
65.53234 135.000
65.55229 137.000
65.57224 117.000
65.59218 134.000
65.61213 109.000
65.63208 106.000
65.65202 111.000
65.67197 109.000
65.69192 116.000
65.71186 110.000
65.73181 113.000
65.75176 118.000
65.77171 117.000
65.79165 117.000
65.81160 136.000
65.83155 115.000
65.85149 113.000
65.87144 99.000
65.89139 119.000
65.91133 110.000
65.93128 130.000
65.95123 115.000
65.97117 119.000
65.99112 137.000
66.01107 119.000
66.03102 118.000
66.05096 127.000
66.07091 109.000
66.09086 130.000
66.11080 132.000
66.13075 138.000
66.15070 112.000
66.17064 124.000
66.19059 130.000
66.21054 113.000
66.23049 115.000
66.25043 131.000
66.27038 132.000
66.29033 133.000
66.31027 126.000
66.33022 127.000
66.35017 132.000
66.37011 121.000
66.39006 105.000
66.41001 103.000
66.42995 121.000
66.44990 119.000
66.46985 120.000
66.48980 128.000
66.50974 94.000
66.52969 98.000
66.54964 109.000
66.56958 107.000
66.58953 116.000
66.60948 83.000
66.62942 92.000
66.64937 98.000
66.66932 106.000
66.68927 98.000
66.70921 92.000
66.72916 93.000
66.74911 96.000
66.76905 90.000
66.78900 92.000
66.80895 76.000
66.82889 83.000
66.84884 103.000
66.86879 102.000
66.88874 100.000
66.90868 89.000
66.92863 86.000
66.94858 87.000
66.96852 97.000
66.98847 88.000
67.00842 88.000
67.02836 98.000
67.04831 88.000
67.06826 83.000
67.08820 95.000
67.10815 84.000
67.12810 91.000
67.14805 90.000
67.16799 99.000
67.18794 95.000
67.20789 98.000
67.22783 86.000
67.24778 86.000
67.26773 93.000
67.28767 85.000
67.30762 98.000
67.32757 97.000
67.34752 101.000
67.36746 100.000
67.38741 111.000
67.40736 108.000
67.42730 84.000
67.44725 100.000
67.46720 97.000
67.48714 99.000
67.50709 107.000
67.52704 106.000
67.54698 111.000
67.56693 119.000
67.58688 128.000
67.60683 119.000
67.62677 104.000
67.64672 150.000
67.66667 109.000
67.68661 126.000
67.70656 127.000
67.72651 127.000
67.74645 130.000
67.76640 133.000
67.78635 132.000
67.80630 156.000
67.82624 164.000
67.84619 177.000
67.86614 155.000
67.88608 138.000
67.90603 147.000
67.92598 163.000
67.94592 149.000
67.96587 152.000
67.98582 157.000
68.00576 156.000
68.02571 145.000
68.04566 130.000
68.06561 157.000
68.08555 139.000
68.10550 158.000
68.12545 145.000
68.14539 122.000
68.16534 152.000
68.18529 128.000
68.20523 138.000
68.22518 127.000
68.24513 139.000
68.26508 122.000
68.28502 127.000
68.30497 122.000
68.32492 122.000
68.34486 117.000
68.36481 111.000
68.38476 101.000
68.40470 111.000
68.42465 119.000
68.44460 112.000
68.46455 112.000
68.48449 104.000
68.50444 98.000
68.52439 103.000
68.54433 99.000
68.56428 108.000
68.58423 103.000
68.60417 123.000
68.62412 100.000
68.64407 132.000
68.66401 112.000
68.68396 89.000
68.70391 92.000
68.72386 94.000
68.74380 120.000
68.76375 108.000
68.78370 100.000
68.80364 117.000
68.82359 108.000
68.84354 97.000
68.86348 103.000
68.88343 120.000
68.90338 110.000
68.92333 127.000
68.94327 109.000
68.96322 119.000
68.98317 104.000
69.00311 115.000
69.02306 108.000
69.04301 113.000
69.06295 113.000
69.08290 105.000
69.10285 111.000
69.12279 89.000
69.14274 88.000
69.16269 98.000
69.18264 106.000
69.20258 96.000
69.22253 107.000
69.24248 108.000
69.26242 100.000
69.28237 93.000
69.30232 101.000
69.32226 77.000
69.34221 89.000
69.36216 88.000
69.38211 69.000
69.40205 84.000
69.42200 87.000
69.44195 64.000
69.46189 87.000
69.48184 81.000
69.50179 97.000
69.52173 81.000
69.54168 84.000
69.56163 76.000
69.58157 66.000
69.60152 78.000
69.62147 84.000
69.64142 94.000
69.66136 88.000
69.68131 84.000
69.70126 68.000
69.72120 91.000
69.74115 93.000
69.76110 94.000
69.78104 83.000
69.80099 101.000
69.82094 80.000
69.84089 85.000
69.86083 89.000
69.88078 82.000
69.90073 76.000
69.92067 89.000
69.94062 70.000
69.96057 77.000
69.98051 93.000
70.00046 80.000
70.02041 80.000
70.04035 100.000
70.06030 113.000
70.08025 88.000
70.10020 80.000
70.12014 83.000
70.14009 96.000
70.16004 85.000
70.17998 70.000
70.19993 81.000
70.21988 83.000
70.23982 82.000
70.25977 80.000
70.27972 94.000
70.29967 92.000
70.31961 104.000
70.33956 92.000
70.35951 79.000
70.37945 93.000
70.39940 97.000
70.41935 95.000
70.43929 76.000
70.45924 97.000
70.47919 86.000
70.49914 79.000
70.51908 85.000
70.53903 94.000
70.55898 101.000
70.57892 84.000
70.59887 88.000
70.61882 93.000
70.63876 105.000
70.65871 85.000
70.67866 95.000
70.69860 90.000
70.71855 105.000
70.73850 101.000
70.75845 96.000
70.77839 103.000
70.79834 99.000
70.81829 87.000
70.83823 90.000
70.85818 101.000
70.87813 97.000
70.89807 95.000
70.91802 81.000
70.93797 89.000
70.95792 98.000
70.97786 77.000
70.99781 94.000
71.01776 107.000
71.03770 96.000
71.05765 84.000
71.07760 101.000
71.09754 99.000
71.11749 78.000
71.13744 79.000
71.15738 74.000
71.17733 80.000
71.19728 103.000
71.21723 92.000
71.23717 83.000
71.25712 79.000
71.27707 76.000
71.29701 108.000
71.31696 95.000
71.33691 96.000
71.35685 92.000
71.37680 80.000
71.39675 94.000
71.41670 93.000
71.43664 102.000
71.45659 77.000
71.47654 89.000
71.49648 92.000
71.51643 96.000
71.53638 107.000
71.55632 78.000
71.57627 77.000
71.59622 73.000
71.61616 89.000
71.63611 85.000
71.65606 67.000
71.67601 81.000
71.69595 108.000
71.71590 104.000
71.73585 80.000
71.75579 90.000
71.77574 100.000
71.79569 102.000
71.81563 102.000
71.83558 75.000
71.85553 109.000
71.87548 91.000
71.89542 84.000
71.91537 92.000
71.93532 84.000
71.95526 91.000
71.97521 105.000
71.99516 86.000
72.01510 94.000
72.03505 103.000
72.05500 105.000
72.07495 106.000
72.09489 101.000
72.11484 111.000
72.13479 114.000
72.15473 128.000
72.17468 131.000
72.19463 138.000
72.21457 144.000
72.23452 151.000
72.25447 159.000
72.27441 170.000
72.29436 190.000
72.31431 131.000
72.33426 163.000
72.35420 164.000
72.37415 149.000
72.39410 143.000
72.41404 160.000
72.43399 158.000
72.45394 177.000
72.47388 136.000
72.49383 124.000
72.51378 142.000
72.53373 156.000
72.55367 129.000
72.57362 119.000
72.59357 122.000
72.61351 130.000
72.63346 127.000
72.65341 99.000
72.67335 117.000
72.69330 122.000
72.71325 108.000
72.73319 118.000
72.75314 114.000
72.77309 106.000
72.79304 109.000
72.81298 102.000
72.83293 116.000
72.85288 108.000
72.87282 103.000
72.89277 104.000
72.91272 88.000
72.93266 104.000
72.95261 96.000
72.97256 76.000
72.99251 100.000
73.01245 105.000
73.03240 91.000
73.05235 86.000
73.07229 100.000
73.09224 101.000
73.11219 117.000
73.13213 98.000
73.15208 103.000
73.17203 112.000
73.19197 107.000
73.21192 107.000
73.23187 115.000
73.25182 128.000
73.27176 112.000
73.29171 130.000
73.31166 118.000
73.33160 102.000
73.35155 98.000
73.37150 127.000
73.39144 120.000
73.41139 105.000
73.43134 113.000
73.45129 114.000
73.47123 127.000
73.49118 133.000
73.51113 139.000
73.53107 150.000
73.55102 150.000
73.57097 143.000
73.59091 145.000
73.61086 197.000
73.63081 173.000
73.65076 144.000
73.67070 186.000
73.69065 188.000
73.71060 156.000
73.73054 189.000
73.75049 177.000
73.77044 169.000
73.79038 188.000
73.81033 146.000
73.83028 148.000
73.85022 165.000
73.87017 143.000
73.89012 138.000
73.91007 123.000
73.93001 145.000
73.94996 122.000
73.96991 140.000
73.98985 122.000
74.00980 128.000
74.02975 107.000
74.04969 112.000
74.06964 143.000
74.08959 109.000
74.10954 101.000
74.12948 101.000
74.14943 100.000
74.16938 110.000
74.18932 91.000
74.20927 96.000
74.22922 79.000
74.24916 118.000
74.26911 116.000
74.28906 108.000
74.30900 122.000
74.32895 100.000
74.34890 92.000
74.36885 118.000
74.38879 125.000
74.40874 119.000
74.42869 113.000
74.44863 108.000
74.46858 109.000
74.48853 120.000
74.50847 116.000
74.52842 131.000
74.54837 129.000
74.56832 126.000
74.58826 128.000
74.60821 119.000
74.62816 126.000
74.64810 121.000
74.66805 128.000
74.68800 138.000
74.70794 105.000
74.72789 98.000
74.74784 127.000
74.76778 113.000
74.78773 116.000
74.80768 108.000
74.82763 110.000
74.84757 106.000
74.86752 111.000
74.88747 118.000
74.90741 113.000
74.92736 91.000
74.94731 122.000
74.96725 123.000
74.98720 108.000
75.00715 113.000
75.02710 115.000
75.04704 121.000
75.06699 101.000
75.08694 105.000
75.10688 103.000
75.12683 125.000
75.14678 97.000
75.16672 101.000
75.18667 90.000
75.20662 114.000
75.22657 104.000
75.24651 111.000
75.26646 104.000
75.28641 108.000
75.30635 88.000
75.32630 88.000
75.34625 113.000
75.36619 117.000
75.38614 101.000
75.40609 88.000
75.42603 106.000
75.44598 98.000
75.46593 105.000
75.48588 97.000
75.50582 106.000
75.52577 90.000
75.54572 109.000
75.56566 79.000
75.58561 103.000
75.60556 105.000
75.62550 92.000
75.64545 96.000
75.66540 83.000
75.68535 93.000
75.70529 84.000
75.72524 100.000
75.74519 100.000
75.76513 91.000
75.78508 95.000
75.80503 78.000
75.82497 79.000
75.84492 95.000
75.86487 103.000
75.88481 97.000
75.90476 87.000
75.92471 82.000
75.94466 84.000
75.96460 70.000
75.98455 96.000
76.00450 98.000
76.02444 94.000
76.04439 86.000
76.06434 78.000
76.08428 94.000
76.10423 87.000
76.12418 88.000
76.14413 71.000
76.16407 95.000
76.18402 89.000
76.20397 93.000
76.22391 82.000
76.24386 84.000
76.26381 106.000
76.28375 89.000
76.30370 73.000
76.32365 85.000
76.34359 76.000
76.36354 99.000
76.38349 97.000
76.40344 82.000
76.42338 86.000
76.44333 81.000
76.46328 97.000
76.48322 89.000
76.50317 86.000
76.52312 95.000
76.54306 96.000
76.56301 77.000
76.58296 100.000
76.60291 101.000
76.62285 94.000
76.64280 78.000
76.66275 100.000
76.68269 108.000
76.70264 91.000
76.72259 91.000
76.74253 82.000
76.76248 89.000
76.78243 84.000
76.80238 80.000
76.82232 87.000
76.84227 71.000
76.86222 89.000
76.88216 92.000
76.90211 73.000
76.92206 80.000
76.94200 89.000
76.96195 102.000
76.98190 74.000
77.00184 104.000
77.02179 63.000
77.04174 82.000
77.06169 98.000
77.08163 94.000
77.10158 99.000
77.12153 91.000
77.14147 71.000
77.16142 76.000
77.18137 76.000
77.20131 92.000
77.22126 97.000
77.24121 77.000
77.26116 84.000
77.28110 89.000
77.30105 129.000
77.32100 112.000
77.34094 100.000
77.36089 125.000
77.38084 109.000
77.40078 104.000
77.42073 125.000
77.44068 124.000
77.46062 102.000
77.48057 128.000
77.50052 128.000
77.52047 136.000
77.54041 130.000
77.56036 155.000
77.58031 127.000
77.60025 138.000
77.62020 161.000
77.64015 146.000
77.66009 166.000
77.68004 134.000
77.69999 122.000
77.71994 143.000
77.73988 155.000
77.75983 142.000
77.77978 142.000
77.79972 152.000
77.81967 145.000
77.83962 161.000
77.85956 134.000
77.87951 123.000
77.89946 123.000
77.91940 114.000
77.93935 114.000
77.95930 131.000
77.97925 107.000
77.99919 121.000
78.01914 111.000
78.03909 120.000
78.05903 108.000
78.07898 85.000
78.09893 110.000
78.11887 81.000
78.13882 81.000
78.15877 102.000
78.17872 112.000
78.19866 88.000
78.21861 94.000
78.23856 108.000
78.25850 109.000
78.27845 122.000
78.29840 107.000
78.31834 82.000
78.33829 92.000
78.35824 85.000
78.37819 110.000
78.39813 100.000
78.41808 99.000
78.43803 95.000
78.45797 88.000
78.47792 108.000
78.49787 95.000
78.51781 84.000
78.53776 99.000
78.55771 95.000
78.57765 103.000
78.59760 88.000
78.61755 103.000
78.63750 98.000
78.65744 101.000
78.67739 92.000
78.69734 96.000
78.71728 96.000
78.73723 104.000
78.75718 99.000
78.77712 88.000
78.79707 96.000
78.81702 80.000
78.83697 77.000
78.85691 101.000
78.87686 86.000
78.89681 84.000
78.91675 84.000
78.93670 84.000
78.95665 89.000
78.97659 103.000
78.99654 96.000
79.01649 76.000
79.03643 99.000
79.05638 80.000
79.07633 98.000
79.09628 87.000
79.11622 75.000
79.13617 79.000
79.15612 101.000
79.17606 75.000
79.19601 93.000
79.21596 75.000
79.23590 88.000
79.25585 74.000
79.27580 81.000
79.29575 74.000
79.31569 107.000
79.33564 86.000
79.35559 88.000
79.37553 86.000
79.39548 91.000
79.41543 89.000
79.43537 70.000
79.45532 89.000
79.47527 84.000
79.49521 79.000
79.51516 70.000
79.53511 87.000
79.55506 95.000
79.57500 96.000
79.59495 88.000
79.61490 77.000
79.63484 83.000
79.65479 84.000
79.67474 96.000
79.69468 101.000
79.71463 94.000
79.73458 95.000
79.75453 84.000
79.77447 81.000
79.79442 87.000
79.81437 78.000
79.83431 94.000
79.85426 78.000
79.87421 91.000
79.89415 87.000
79.91410 90.000
79.93405 89.000
79.95399 82.000
79.97394 97.000
79.99389 74.000
80.01384 99.000
80.03378 96.000
80.05373 93.000
80.07368 107.000
80.09362 106.000
80.11357 90.000
80.13352 103.000
80.15346 89.000
80.17341 106.000
80.19336 97.000
80.21331 102.000
80.23325 100.000
80.25320 90.000
80.27315 78.000
80.29309 92.000
80.31304 88.000
80.33299 81.000
80.35293 101.000
80.37288 101.000
80.39283 84.000
80.41278 97.000
80.43272 81.000
80.45267 77.000
80.47262 84.000
80.49256 74.000
80.51251 72.000
80.53246 77.000
80.55240 94.000
80.57235 76.000
80.59230 72.000
80.61224 80.000
80.63219 103.000
80.65214 102.000
80.67209 89.000
80.69203 92.000
80.71198 93.000
80.73193 79.000
80.75187 107.000
80.77182 86.000
80.79177 82.000
80.81171 74.000
80.83166 82.000
80.85161 94.000
80.87156 88.000
80.89150 73.000
80.91145 92.000
80.93140 76.000
80.95134 115.000
80.97129 78.000
80.99124 94.000
81.01118 86.000
81.03113 79.000
81.05108 75.000
81.07102 80.000
81.09097 81.000
81.11092 91.000
81.13087 93.000
81.15081 80.000
81.17076 93.000
81.19071 96.000
81.21065 78.000
81.23060 68.000
81.25055 77.000
81.27049 96.000
81.29044 94.000
81.31039 85.000
81.33034 85.000
81.35028 109.000
81.37023 100.000
81.39018 92.000
81.41012 101.000
81.43007 81.000
81.45002 103.000
81.46996 74.000
81.48991 86.000
81.50986 102.000
81.52980 85.000
81.54975 88.000
81.56970 97.000
81.58965 90.000
81.60959 79.000
81.62954 74.000
81.64949 84.000
81.66943 90.000
81.68938 93.000
81.70933 84.000
81.72927 85.000
81.74922 89.000
81.76917 81.000
81.78912 92.000
81.80906 92.000
81.82901 77.000
81.84896 90.000
81.86890 93.000
81.88885 67.000
81.90880 99.000
81.92874 85.000
81.94869 92.000
81.96864 90.000
81.98859 73.000
82.00853 94.000
82.02848 69.000
82.04843 89.000
82.06837 67.000
82.08832 80.000
82.10827 83.000
82.12821 88.000
82.14816 84.000
82.16811 84.000
82.18805 101.000
82.20800 79.000
82.22795 97.000
82.24790 95.000
82.26784 88.000
82.28779 75.000
82.30774 90.000
82.32768 101.000
82.34763 89.000
82.36758 86.000
82.38752 99.000
82.40747 92.000
82.42742 87.000
82.44737 93.000
82.46731 96.000
82.48726 83.000
82.50721 97.000
82.52715 107.000
82.54710 89.000
82.56705 95.000
82.58699 98.000
82.60694 83.000
82.62689 107.000
82.64683 98.000
82.66678 88.000
82.68673 80.000
82.70668 84.000
82.72662 93.000
82.74657 92.000
82.76652 98.000
82.78646 94.000
82.80641 76.000
82.82636 82.000
82.84630 73.000
82.86625 96.000
82.88620 77.000
82.90615 91.000
82.92609 81.000
82.94604 79.000
82.96599 95.000
82.98593 97.000
83.00588 84.000
83.02583 86.000
83.04577 84.000
83.06572 91.000
83.08567 83.000
83.10561 100.000
83.12556 84.000
83.14551 104.000
83.16546 86.000
83.18540 108.000
83.20535 93.000
83.22530 110.000
83.24524 78.000
83.26519 84.000
83.28514 74.000
83.30508 104.000
83.32503 76.000
83.34498 70.000
83.36493 82.000
83.38487 104.000
83.40482 87.000
83.42477 92.000
83.44471 93.000
83.46466 97.000
83.48461 89.000
83.50455 84.000
83.52450 91.000
83.54445 103.000
83.56440 103.000
83.58434 96.000
83.60429 98.000
83.62424 79.000
83.64418 80.000
83.66413 74.000
83.68408 105.000
83.70402 93.000
83.72397 94.000
83.74392 119.000
83.76386 83.000
83.78381 85.000
83.80376 89.000
83.82371 92.000
83.84365 106.000
83.86360 82.000
83.88355 86.000
83.90349 86.000
83.92344 100.000
83.94339 102.000
83.96333 118.000
83.98328 90.000
84.00323 101.000
84.02318 92.000
84.04312 98.000
84.06307 98.000
84.08302 91.000
84.10296 65.000
84.12291 81.000
84.14286 75.000
84.16280 97.000
84.18275 87.000
84.20270 104.000
84.22264 74.000
84.24259 83.000
84.26254 97.000
84.28249 91.000
84.30243 111.000
84.32238 83.000
84.34233 75.000
84.36227 86.000
84.38222 86.000
84.40217 80.000
84.42211 99.000
84.44206 90.000
84.46201 98.000
84.48196 77.000
84.50190 89.000
84.52185 90.000
84.54180 78.000
84.56174 95.000
84.58169 104.000
84.60164 88.000
84.62158 91.000
84.64153 86.000
84.66148 75.000
84.68142 82.000
84.70137 81.000
84.72132 96.000
84.74127 80.000
84.76121 90.000
84.78116 87.000
84.80111 77.000
84.82105 87.000
84.84100 88.000
84.86095 73.000
84.88089 97.000
84.90084 94.000
84.92079 93.000
84.94074 95.000
84.96068 85.000
84.98063 74.000
85.00058 79.000
85.02052 86.000
85.04047 78.000
85.06042 77.000
85.08036 102.000
85.10031 96.000
85.12026 83.000
85.14021 80.000
85.16015 82.000
85.18010 89.000
85.20005 71.000
85.21999 69.000
85.23994 91.000
85.25989 81.000
85.27983 90.000
85.29978 93.000
85.31973 73.000
85.33967 83.000
85.35962 81.000
85.37957 87.000
85.39952 88.000
85.41946 70.000
85.43941 66.000
85.45936 92.000
85.47930 96.000
85.49925 95.000
85.51920 83.000
85.53914 78.000
85.55909 87.000
85.57904 81.000
85.59899 98.000
85.61893 84.000
85.63888 63.000
85.65883 96.000
85.67877 78.000
85.69872 91.000
85.71867 93.000
85.73861 90.000
85.75856 82.000
85.77851 84.000
85.79845 97.000
85.81840 100.000
85.83835 92.000
85.85830 93.000
85.87824 83.000
85.89819 89.000
85.91814 94.000
85.93808 80.000
85.95803 109.000
85.97798 103.000
85.99792 112.000
86.01787 108.000
86.03782 109.000
86.05777 100.000
86.07771 109.000
86.09766 108.000
86.11761 120.000
86.13755 119.000
86.15750 124.000
86.17745 80.000
86.19739 103.000
86.21734 110.000
86.23729 88.000
86.25723 117.000
86.27718 110.000
86.29713 123.000
86.31708 105.000
86.33702 125.000
86.35697 125.000
86.37692 116.000
86.39686 130.000
86.41681 131.000
86.43676 113.000
86.45670 86.000
86.47665 110.000
86.49660 115.000
86.51655 109.000
86.53649 101.000
86.55644 97.000
86.57639 121.000
86.59633 108.000
86.61628 107.000
86.63623 79.000
86.65617 111.000
86.67612 101.000
86.69607 105.000
86.71602 81.000
86.73596 87.000
86.75591 78.000
86.77586 102.000
86.79580 87.000
86.81575 84.000
86.83570 87.000
86.85564 93.000
86.87559 100.000
86.89554 84.000
86.91548 99.000
86.93543 85.000
86.95538 72.000
86.97533 92.000
86.99527 86.000
87.01522 84.000
87.03517 93.000
87.05511 82.000
87.07506 88.000
87.09501 94.000
87.11495 95.000
87.13490 80.000
87.15485 92.000
87.17480 95.000
87.19474 103.000
87.21469 63.000
87.23464 88.000
87.25458 83.000
87.27453 91.000
87.29448 91.000
87.31442 95.000
87.33437 85.000
87.35432 98.000
87.37426 92.000
87.39421 90.000
87.41416 75.000
87.43411 99.000
87.45405 77.000
87.47400 86.000
87.49395 96.000
87.51389 82.000
87.53384 92.000
87.55379 82.000
87.57373 89.000
87.59368 80.000
87.61363 96.000
87.63358 67.000
87.65352 78.000
87.67347 95.000
87.69342 85.000
87.71336 87.000
87.73331 93.000
87.75326 68.000
87.77320 80.000
87.79315 83.000
87.81310 69.000
87.83304 86.000
87.85299 78.000
87.87294 89.000
87.89289 97.000
87.91283 77.000
87.93278 86.000
87.95273 81.000
87.97267 87.000
87.99262 86.000
88.01257 103.000
88.03251 85.000
88.05246 84.000
88.07241 92.000
88.09236 88.000
88.11230 98.000
88.13225 87.000
88.15220 88.000
88.17214 82.000
88.19209 86.000
88.21204 74.000
88.23198 106.000
88.25193 72.000
88.27188 77.000
88.29183 96.000
88.31177 87.000
88.33172 78.000
88.35167 92.000
88.37161 83.000
88.39156 87.000
88.41151 79.000
88.43145 94.000
88.45140 97.000
88.47135 96.000
88.49129 94.000
88.51124 91.000
88.53119 68.000
88.55114 66.000
88.57108 76.000
88.59103 78.000
88.61098 92.000
88.63092 99.000
88.65087 95.000
88.67082 87.000
88.69076 90.000
88.71071 87.000
88.73066 88.000
88.75061 93.000
88.77055 84.000
88.79050 87.000
88.81045 78.000
88.83039 78.000
88.85034 94.000
88.87029 114.000
88.89023 86.000
88.91018 110.000
88.93013 91.000
88.95007 104.000
88.97002 94.000
88.98997 105.000
89.00992 109.000
89.02986 111.000
89.04981 116.000
89.06976 122.000
89.08970 119.000
89.10965 132.000
89.12960 125.000
89.14954 134.000
89.16949 142.000
89.18944 123.000
89.20939 144.000
89.22933 121.000
89.24928 130.000
89.26923 141.000
89.28917 129.000
89.30912 129.000
89.32907 137.000
89.34901 138.000
89.36896 134.000
89.38891 116.000
89.40885 148.000
89.42880 114.000
89.44875 128.000
89.46870 127.000
89.48864 122.000
89.50859 128.000
89.52854 118.000
89.54848 124.000
89.56843 108.000
89.58838 126.000
89.60832 115.000
89.62827 119.000
89.64822 124.000
89.66817 127.000
89.68811 118.000
89.70806 117.000
89.72801 112.000
89.74795 117.000
89.76790 86.000
89.78785 111.000
89.80779 113.000
89.82774 127.000
89.84769 124.000
89.86764 118.000
89.88758 141.000
89.90753 137.000
89.92748 132.000
89.94742 149.000
89.96737 144.000
89.98732 131.000
90.00726 144.000
