10.00000 183.000
10.01995 173.000
10.03989 192.000
10.05984 182.000
10.07979 165.000
10.09973 202.000
10.11968 178.000
10.13963 196.000
10.15958 176.000
10.17952 186.000
10.19947 196.000
10.21942 206.000
10.23936 171.000
10.25931 209.000
10.27926 211.000
10.29920 213.000
10.31915 173.000
10.33910 182.000
10.35905 141.000
10.37899 190.000
10.39894 206.000
10.41889 200.000
10.43883 182.000
10.45878 203.000
10.47873 205.000
10.49867 185.000
10.51862 203.000
10.53857 191.000
10.55851 212.000
10.57846 214.000
10.59841 191.000
10.61836 186.000
10.63830 185.000
10.65825 205.000
10.67820 201.000
10.69814 198.000
10.71809 178.000
10.73804 192.000
10.75798 181.000
10.77793 187.000
10.79788 188.000
10.81783 186.000
10.83777 179.000
10.85772 192.000
10.87767 194.000
10.89761 181.000
10.91756 181.000
10.93751 208.000
10.95745 195.000
10.97740 189.000
10.99735 179.000
11.01730 196.000
11.03724 167.000
11.05719 197.000
11.07714 222.000
11.09708 192.000
11.11703 195.000
11.13698 184.000
11.15692 206.000
11.17687 190.000
11.19682 200.000
11.21676 173.000
11.23671 212.000
11.25666 209.000
11.27661 195.000
11.29655 190.000
11.31650 186.000
11.33645 190.000
11.35639 170.000
11.37634 197.000
11.39629 225.000
11.41623 172.000
11.43618 186.000
11.45613 232.000
11.47608 206.000
11.49602 194.000
11.51597 194.000
11.53592 194.000
11.55586 223.000
11.57581 176.000
11.59576 216.000
11.61570 172.000
11.63565 219.000
11.65560 198.000
11.67554 177.000
11.69549 217.000
11.71544 212.000
11.73539 211.000
11.75533 201.000
11.77528 197.000
11.79523 180.000
11.81517 201.000
11.83512 184.000
11.85507 192.000
11.87501 204.000
11.89496 221.000
11.91491 206.000
11.93486 203.000
11.95480 207.000
11.97475 196.000
11.99470 209.000
12.01464 180.000
12.03459 195.000
12.05454 192.000
12.07448 237.000
12.09443 206.000
12.11438 208.000
12.13432 211.000
12.15427 202.000
12.17422 187.000
12.19417 184.000
12.21411 212.000
12.23406 187.000
12.25401 204.000
12.27395 211.000
12.29390 207.000
12.31385 192.000
12.33379 210.000
12.35374 202.000
12.37369 210.000
12.39364 216.000
12.41358 197.000
12.43353 207.000
12.45348 203.000
12.47342 210.000
12.49337 185.000
12.51332 196.000
12.53326 212.000
12.55321 188.000
12.57316 222.000
12.59311 197.000
12.61305 207.000
12.63300 191.000
12.65295 200.000
12.67289 204.000
12.69284 209.000
12.71279 193.000
12.73273 207.000
12.75268 216.000
12.77263 205.000
12.79257 180.000
12.81252 231.000
12.83247 197.000
12.85242 191.000
12.87236 213.000
12.89231 190.000
12.91226 220.000
12.93220 229.000
12.95215 209.000
12.97210 205.000
12.99204 221.000
13.01199 184.000
13.03194 214.000
13.05189 200.000
13.07183 205.000
13.09178 208.000
13.11173 208.000
13.13167 210.000
13.15162 208.000
13.17157 198.000
13.19151 210.000
13.21146 192.000
13.23141 210.000
13.25135 221.000
13.27130 200.000
13.29125 173.000
13.31120 221.000
13.33114 204.000
13.35109 212.000
13.37104 215.000
13.39098 219.000
13.41093 193.000
13.43088 214.000
13.45082 221.000
13.47077 211.000
13.49072 211.000
13.51067 191.000
13.53061 204.000
13.55056 185.000
13.57051 181.000
13.59045 227.000
13.61040 224.000
13.63035 198.000
13.65029 237.000
13.67024 192.000
13.69019 208.000
13.71013 215.000
13.73008 198.000
13.75003 205.000
13.76998 189.000
13.78992 210.000
13.80987 201.000
13.82982 205.000
13.84976 188.000
13.86971 223.000
13.88966 238.000
13.90960 202.000
13.92955 216.000
13.94950 210.000
13.96945 225.000
13.98939 205.000
14.00934 232.000
14.02929 198.000
14.04923 214.000
14.06918 218.000
14.08913 222.000
14.10907 190.000
14.12902 215.000
14.14897 234.000
14.16892 198.000
14.18886 203.000
14.20881 196.000
14.22876 221.000
14.24870 242.000
14.26865 183.000
14.28860 208.000
14.30854 220.000
14.32849 212.000
14.34844 231.000
14.36838 213.000
14.38833 198.000
14.40828 229.000
14.42823 228.000
14.44817 197.000
14.46812 205.000
14.48807 212.000
14.50801 203.000
14.52796 208.000
14.54791 220.000
14.56785 214.000
14.58780 212.000
14.60775 230.000
14.62770 196.000
14.64764 213.000
14.66759 208.000
14.68754 227.000
14.70748 216.000
14.72743 228.000
14.74738 200.000
14.76732 243.000
14.78727 221.000
14.80722 218.000
14.82716 205.000
14.84711 217.000
14.86706 216.000
14.88701 233.000
14.90695 234.000
14.92690 226.000
14.94685 209.000
14.96679 216.000
14.98674 219.000
15.00669 234.000
15.02663 210.000
15.04658 206.000
15.06653 199.000
15.08648 237.000
15.10642 214.000
15.12637 197.000
15.14632 259.000
15.16626 221.000
15.18621 220.000
15.20616 224.000
15.22610 204.000
15.24605 226.000
15.26600 199.000
15.28594 222.000
15.30589 222.000
15.32584 237.000
15.34579 212.000
15.36573 248.000
15.38568 221.000
15.40563 244.000
15.42557 247.000
15.44552 242.000
15.46547 250.000
15.48541 269.000
15.50536 285.000
15.52531 317.000
15.54526 314.000
15.56520 342.000
15.58515 350.000
15.60510 373.000
15.62504 434.000
15.64499 522.000
15.66494 644.000
15.68488 711.000
15.70483 709.000
15.72478 686.000
15.74472 641.000
15.76467 498.000
15.78462 387.000
15.80457 334.000
15.82451 276.000
15.84446 277.000
15.86441 274.000
15.88435 227.000
15.90430 226.000
15.92425 240.000
15.94419 247.000
15.96414 217.000
15.98409 234.000
16.00404 238.000
16.02398 251.000
16.04393 247.000
16.06388 221.000
16.08382 216.000
16.10377 193.000
16.12372 240.000
16.14366 242.000
16.16361 198.000
16.18356 251.000
16.20351 209.000
16.22345 234.000
16.24340 231.000
16.26335 233.000
16.28329 221.000
16.30324 225.000
16.32319 231.000
16.34313 211.000
16.36308 246.000
16.38303 225.000
16.40297 250.000
16.42292 240.000
16.44287 218.000
16.46282 228.000
16.48276 205.000
16.50271 239.000
16.52266 239.000
16.54260 215.000
16.56255 241.000
16.58250 225.000
16.60244 225.000
16.62239 267.000
16.64234 252.000
16.66229 233.000
16.68223 243.000
16.70218 253.000
16.72213 255.000
16.74207 264.000
16.76202 248.000
16.78197 275.000
16.80191 246.000
16.82186 229.000
16.84181 224.000
16.86175 249.000
16.88170 230.000
16.90165 219.000
16.92160 207.000
16.94154 247.000
16.96149 203.000
16.98144 214.000
17.00138 231.000
17.02133 244.000
17.04128 218.000
17.06122 206.000
17.08117 212.000
17.10112 260.000
17.12107 239.000
17.14101 223.000
17.16096 241.000
17.18091 239.000
17.20085 243.000
17.22080 223.000
17.24075 225.000
17.26069 225.000
17.28064 227.000
17.30059 246.000
17.32053 256.000
17.34048 214.000
17.36043 228.000
17.38038 223.000
17.40032 246.000
17.42027 203.000
17.44022 236.000
17.46016 262.000
17.48011 225.000
17.50006 204.000
17.52000 230.000
17.53995 223.000
17.55990 231.000
17.57985 219.000
17.59979 220.000
17.61974 226.000
17.63969 242.000
17.65963 218.000
17.67958 239.000
17.69953 215.000
17.71947 226.000
17.73942 206.000
17.75937 228.000
17.77932 253.000
17.79926 226.000
17.81921 211.000
17.83916 229.000
17.85910 241.000
17.87905 250.000
17.89900 216.000
17.91894 234.000
17.93889 237.000
17.95884 224.000
17.97878 234.000
17.99873 248.000
18.01868 215.000
18.03863 261.000
18.05857 221.000
18.07852 235.000
18.09847 243.000
18.11841 250.000
18.13836 277.000
18.15831 273.000
18.17825 279.000
18.19820 341.000
18.21815 437.000
18.23810 486.000
18.25804 609.000
18.27799 688.000
18.29794 731.000
18.31788 644.000
18.33783 494.000
18.35778 426.000
18.37772 336.000
18.39767 261.000
18.41762 235.000
18.43756 248.000
18.45751 233.000
18.47746 246.000
18.49741 244.000
18.51735 232.000
18.53730 283.000
18.55725 242.000
18.57719 220.000
18.59714 228.000
18.61709 241.000
18.63703 205.000
18.65698 234.000
18.67693 224.000
18.69688 249.000
18.71682 202.000
18.73677 214.000
18.75672 222.000
18.77666 232.000
18.79661 238.000
18.81656 225.000
18.83650 198.000
18.85645 219.000
18.87640 213.000
18.89634 209.000
18.91629 215.000
18.93624 201.000
18.95619 255.000
18.97613 252.000
18.99608 259.000
19.01603 248.000
19.03597 221.000
19.05592 234.000
19.07587 236.000
19.09581 224.000
19.11576 208.000
19.13571 210.000
19.15566 215.000
19.17560 228.000
19.19555 232.000
19.21550 248.000
19.23544 232.000
19.25539 214.000
19.27534 240.000
19.29528 248.000
19.31523 238.000
19.33518 217.000
19.35513 222.000
19.37507 235.000
19.39502 252.000
19.41497 226.000
19.43491 241.000
19.45486 246.000
19.47481 225.000
19.49475 227.000
19.51470 229.000
19.53465 230.000
19.55459 235.000
19.57454 233.000
19.59449 214.000
19.61444 210.000
19.63438 228.000
19.65433 218.000
19.67428 226.000
19.69422 219.000
19.71417 265.000
19.73412 215.000
19.75406 226.000
19.77401 230.000
19.79396 235.000
19.81391 222.000
19.83385 211.000
19.85380 226.000
19.87375 244.000
19.89369 234.000
19.91364 212.000
19.93359 230.000
19.95353 208.000
19.97348 284.000
19.99343 228.000
20.01337 219.000
20.03332 247.000
20.05327 254.000
20.07322 240.000
20.09316 247.000
20.11311 232.000
20.13306 237.000
20.15300 212.000
20.17295 244.000
20.19290 241.000
20.21284 250.000
20.23279 220.000
20.25274 245.000
20.27269 233.000
20.29263 254.000
20.31258 208.000
20.33253 252.000
20.35247 254.000
20.37242 250.000
20.39237 215.000
20.41231 249.000
20.43226 230.000
20.45221 221.000
20.47215 244.000
20.49210 263.000
20.51205 250.000
20.53200 251.000
20.55194 249.000
20.57189 235.000
20.59184 225.000
20.61178 218.000
20.63173 261.000
20.65168 226.000
20.67162 213.000
20.69157 268.000
20.71152 230.000
20.73147 242.000
20.75141 262.000
20.77136 277.000
20.79131 281.000
20.81125 308.000
20.83120 313.000
20.85115 338.000
20.87109 352.000
20.89104 390.000
20.91099 411.000
20.93094 417.000
20.95088 470.000
20.97083 438.000
20.99078 422.000
21.01072 399.000
21.03067 397.000
21.05062 333.000
21.07056 293.000
21.09051 270.000
21.11046 288.000
21.13040 258.000
21.15035 276.000
21.17030 274.000
21.19025 273.000
21.21019 237.000
21.23014 240.000
21.25009 241.000
21.27003 234.000
21.28998 237.000
21.30993 252.000
21.32987 263.000
21.34982 236.000
21.36977 234.000
21.38972 250.000
21.40966 237.000
21.42961 278.000
21.44956 249.000
21.46950 239.000
21.48945 250.000
21.50940 262.000
21.52934 233.000
21.54929 237.000
21.56924 247.000
21.58918 223.000
21.60913 250.000
21.62908 225.000
21.64903 234.000
21.66897 232.000
21.68892 252.000
21.70887 208.000
21.72881 255.000
21.74876 279.000
21.76871 210.000
21.78865 238.000
21.80860 262.000
21.82855 258.000
21.84850 265.000
21.86844 232.000
21.88839 232.000
21.90834 222.000
21.92828 249.000
21.94823 247.000
21.96818 248.000
21.98812 234.000
22.00807 287.000
22.02802 233.000
22.04796 228.000
22.06791 240.000
22.08786 256.000
22.10781 240.000
22.12775 261.000
22.14770 240.000
22.16765 279.000
22.18759 237.000
22.20754 269.000
22.22749 251.000
22.24743 235.000
22.26738 273.000
22.28733 243.000
22.30728 252.000
22.32722 266.000
22.34717 236.000
22.36712 248.000
22.38706 250.000
22.40701 236.000
22.42696 265.000
22.44690 250.000
22.46685 261.000
22.48680 246.000
22.50675 246.000
22.52669 234.000
22.54664 261.000
22.56659 232.000
22.58653 212.000
22.60648 299.000
22.62643 233.000
22.64637 250.000
22.66632 224.000
22.68627 251.000
22.70621 236.000
22.72616 232.000
22.74611 262.000
22.76606 249.000
22.78600 228.000
22.80595 249.000
22.82590 225.000
22.84584 260.000
22.86579 237.000
22.88574 272.000
22.90568 233.000
22.92563 247.000
22.94558 233.000
22.96553 266.000
22.98547 256.000
23.00542 228.000
23.02537 266.000
23.04531 247.000
23.06526 264.000
23.08521 221.000
23.10515 241.000
23.12510 222.000
23.14505 215.000
23.16499 253.000
23.18494 253.000
23.20489 271.000
23.22484 277.000
23.24478 252.000
23.26473 280.000
23.28468 249.000
23.30462 258.000
23.32457 258.000
23.34452 232.000
23.36446 264.000
23.38441 273.000
23.40436 226.000
23.42431 256.000
23.44425 242.000
23.46420 229.000
23.48415 239.000
23.50409 217.000
23.52404 274.000
23.54399 223.000
23.56393 245.000
23.58388 258.000
23.60383 282.000
23.62377 241.000
23.64372 217.000
23.66367 252.000
23.68362 243.000
23.70356 226.000
23.72351 251.000
23.74346 234.000
23.76340 237.000
23.78335 236.000
23.80330 253.000
23.82324 245.000
23.84319 289.000
23.86314 254.000
23.88309 235.000
23.90303 253.000
23.92298 258.000
23.94293 261.000
23.96287 220.000
23.98282 277.000
24.00277 244.000
24.02271 243.000
24.04266 251.000
24.06261 260.000
24.08256 252.000
24.10250 240.000
24.12245 276.000
24.14240 238.000
24.16234 263.000
24.18229 235.000
24.20224 229.000
24.22218 263.000
24.24213 232.000
24.26208 262.000
24.28202 254.000
24.30197 262.000
24.32192 278.000
24.34187 255.000
24.36181 261.000
24.38176 229.000
24.40171 251.000
24.42165 238.000
24.44160 280.000
24.46155 243.000
24.48149 264.000
24.50144 278.000
24.52139 254.000
24.54134 264.000
24.56128 250.000
24.58123 261.000
24.60118 278.000
24.62112 250.000
24.64107 254.000
24.66102 269.000
24.68096 254.000
24.70091 260.000
24.72086 277.000
24.74080 271.000
24.76075 248.000
24.78070 259.000
24.80065 270.000
24.82059 259.000
24.84054 273.000
24.86049 265.000
24.88043 279.000
24.90038 263.000
24.92033 271.000
24.94027 260.000
24.96022 286.000
24.98017 275.000
25.00012 255.000
25.02006 275.000
25.04001 257.000
25.05996 243.000
25.07990 265.000
25.09985 248.000
25.11980 272.000
25.13974 297.000
25.15969 279.000
25.17964 249.000
25.19958 236.000
25.21953 270.000
25.23948 274.000
25.25943 257.000
25.27937 247.000
25.29932 270.000
25.31927 221.000
25.33921 298.000
25.35916 277.000
25.37911 225.000
25.39905 249.000
25.41900 262.000
25.43895 245.000
25.45890 263.000
25.47884 256.000
25.49879 277.000
25.51874 252.000
25.53868 263.000
25.55863 256.000
25.57858 260.000
25.59852 277.000
25.61847 277.000
25.63842 258.000
25.65837 249.000
25.67831 299.000
25.69826 264.000
25.71821 269.000
25.73815 276.000
25.75810 236.000
25.77805 249.000
25.79799 260.000
25.81794 263.000
25.83789 277.000
25.85783 277.000
25.87778 253.000
25.89773 266.000
25.91768 252.000
25.93762 267.000
25.95757 273.000
25.97752 305.000
25.99746 283.000
26.01741 246.000
26.03736 256.000
26.05730 260.000
26.07725 254.000
26.09720 306.000
26.11715 246.000
26.13709 224.000
26.15704 254.000
26.17699 249.000
26.19693 250.000
26.21688 280.000
26.23683 267.000
26.25677 283.000
26.27672 253.000
26.29667 283.000
26.31661 261.000
26.33656 266.000
26.35651 246.000
26.37646 293.000
26.39640 264.000
26.41635 286.000
26.43630 254.000
26.45624 271.000
26.47619 270.000
26.49614 287.000
26.51608 282.000
26.53603 253.000
26.55598 294.000
26.57593 259.000
26.59587 275.000
26.61582 269.000
26.63577 300.000
26.65571 286.000
26.67566 287.000
26.69561 275.000
26.71555 277.000
26.73550 266.000
26.75545 303.000
26.77539 269.000
26.79534 295.000
26.81529 282.000
26.83524 269.000
26.85518 281.000
26.87513 261.000
26.89508 273.000
26.91502 283.000
26.93497 273.000
26.95492 283.000
26.97486 287.000
26.99481 279.000
27.01476 254.000
27.03471 296.000
27.05465 284.000
27.07460 274.000
27.09455 278.000
27.11449 280.000
27.13444 259.000
27.15439 298.000
27.17433 293.000
27.19428 268.000
27.21423 259.000
27.23417 283.000
27.25412 277.000
27.27407 261.000
27.29402 272.000
27.31396 302.000
27.33391 293.000
27.35386 285.000
27.37380 261.000
27.39375 273.000
27.41370 293.000
27.43364 246.000
27.45359 274.000
27.47354 302.000
27.49349 272.000
27.51343 295.000
27.53338 305.000
27.55333 258.000
27.57327 274.000
27.59322 300.000
27.61317 288.000
27.63311 278.000
27.65306 297.000
27.67301 301.000
27.69296 278.000
27.71290 308.000
27.73285 271.000
27.75280 296.000
27.77274 296.000
27.79269 282.000
27.81264 286.000
27.83258 307.000
27.85253 297.000
27.87248 251.000
27.89242 263.000
27.91237 283.000
27.93232 261.000
27.95227 297.000
27.97221 283.000
27.99216 282.000
28.01211 298.000
28.03205 321.000
28.05200 263.000
28.07195 281.000
28.09189 316.000
28.11184 288.000
28.13179 276.000
28.15174 290.000
28.17168 259.000
28.19163 304.000
28.21158 248.000
28.23152 271.000
28.25147 251.000
28.27142 292.000
28.29136 277.000
28.31131 290.000
28.33126 265.000
28.35120 284.000
28.37115 269.000
28.39110 269.000
28.41105 292.000
28.43099 284.000
28.45094 296.000
28.47089 292.000
28.49083 285.000
28.51078 304.000
28.53073 282.000
28.55067 279.000
28.57062 259.000
28.59057 304.000
28.61052 281.000
28.63046 266.000
28.65041 286.000
28.67036 295.000
28.69030 303.000
28.71025 297.000
28.73020 303.000
28.75014 300.000
28.77009 305.000
28.79004 283.000
28.80998 302.000
28.82993 300.000
28.84988 308.000
28.86983 327.000
28.88977 303.000
28.90972 270.000
28.92967 299.000
28.94961 290.000
28.96956 292.000
28.98951 254.000
29.00945 294.000
29.02940 309.000
29.04935 334.000
29.06930 297.000
29.08924 292.000
29.10919 307.000
29.12914 320.000
29.14908 337.000
29.16903 319.000
29.18898 359.000
29.20892 350.000
29.22887 331.000
29.24882 358.000
29.26877 311.000
29.28871 345.000
29.30866 338.000
29.32861 321.000
29.34855 324.000
29.36850 368.000
29.38845 302.000
29.40839 329.000
29.42834 351.000
29.44829 309.000
29.46823 317.000
29.48818 337.000
29.50813 303.000
29.52808 302.000
29.54802 319.000
29.56797 314.000
29.58792 278.000
29.60786 309.000
29.62781 262.000
29.64776 305.000
29.66770 313.000
29.68765 316.000
29.70760 301.000
29.72755 302.000
29.74749 304.000
29.76744 333.000
29.78739 334.000
29.80733 314.000
29.82728 322.000
29.84723 281.000
29.86717 342.000
29.88712 346.000
29.90707 342.000
29.92701 378.000
29.94696 401.000
29.96691 351.000
29.98686 401.000
30.00680 397.000
30.02675 418.000
30.04670 465.000
30.06664 553.000
30.08659 673.000
30.10654 858.000
30.12648 1212.000
30.14643 1529.000
30.16638 1564.000
30.18633 1369.000
30.20627 1207.000
30.22622 1074.000
30.24617 978.000
30.26611 725.000
30.28606 604.000
30.30601 483.000
30.32595 379.000
30.34590 344.000
30.36585 348.000
30.38579 342.000
30.40574 350.000
30.42569 346.000
30.44564 327.000
30.46558 309.000
30.48553 302.000
30.50548 298.000
30.52542 318.000
30.54537 331.000
30.56532 307.000
30.58526 298.000
30.60521 331.000
30.62516 298.000
30.64511 307.000
30.66505 291.000
30.68500 322.000
30.70495 287.000
30.72489 310.000
30.74484 312.000
30.76479 308.000
30.78473 311.000
30.80468 302.000
30.82463 270.000
30.84458 286.000
30.86452 303.000
30.88447 308.000
30.90442 297.000
30.92436 294.000
30.94431 279.000
30.96426 313.000
30.98420 319.000
31.00415 294.000
31.02410 306.000
31.04404 294.000
31.06399 313.000
31.08394 308.000
31.10389 307.000
31.12383 312.000
31.14378 298.000
31.16373 301.000
31.18367 332.000
31.20362 323.000
31.22357 313.000
31.24351 289.000
31.26346 296.000
31.28341 310.000
31.30336 299.000
31.32330 332.000
31.34325 292.000
31.36320 289.000
31.38314 328.000
31.40309 270.000
31.42304 292.000
31.44298 318.000
31.46293 300.000
31.48288 307.000
31.50282 292.000
31.52277 293.000
31.54272 319.000
31.56267 324.000
31.58261 302.000
31.60256 267.000
31.62251 301.000
31.64245 274.000
31.66240 303.000
31.68235 326.000
31.70229 315.000
31.72224 339.000
31.74219 314.000
31.76214 314.000
31.78208 330.000
31.80203 345.000
31.82198 305.000
31.84192 354.000
31.86187 356.000
31.88182 356.000
31.90176 334.000
31.92171 359.000
31.94166 321.000
31.96160 313.000
31.98155 300.000
32.00150 322.000
32.02145 271.000
32.04139 314.000
32.06134 319.000
32.08129 313.000
32.10123 271.000
32.12118 295.000
32.14113 307.000
32.16107 292.000
32.18102 313.000
32.20097 306.000
32.22092 357.000
32.24086 329.000
32.26081 334.000
32.28076 310.000
32.30070 348.000
32.32065 372.000
32.34060 344.000
32.36054 354.000
32.38049 351.000
32.40044 343.000
32.42039 380.000
32.44033 385.000
32.46028 340.000
32.48023 352.000
32.50017 314.000
32.52012 324.000
32.54007 328.000
32.56001 318.000
32.57996 337.000
32.59991 281.000
32.61985 311.000
32.63980 330.000
32.65975 300.000
32.67970 293.000
32.69964 308.000
32.71959 298.000
32.73954 314.000
32.75948 315.000
32.77943 267.000
32.79938 278.000
32.81932 305.000
32.83927 288.000
32.85922 316.000
32.87917 314.000
32.89911 300.000
32.91906 309.000
32.93901 314.000
32.95895 301.000
32.97890 304.000
32.99885 272.000
33.01879 291.000
33.03874 300.000
33.05869 309.000
33.07863 274.000
33.09858 307.000
33.11853 285.000
33.13848 277.000
33.15842 310.000
33.17837 285.000
33.19832 307.000
33.21826 279.000
33.23821 280.000
33.25816 295.000
33.27810 319.000
33.29805 284.000
33.31800 262.000
33.33795 285.000
33.35789 284.000
33.37784 323.000
33.39779 303.000
33.41773 313.000
33.43768 292.000
33.45763 303.000
33.47757 320.000
33.49752 305.000
33.51747 319.000
33.53741 269.000
33.55736 306.000
33.57731 336.000
33.59726 279.000
33.61720 333.000
33.63715 311.000
33.65710 317.000
33.67704 286.000
33.69699 305.000
33.71694 293.000
33.73688 296.000
33.75683 283.000
33.77678 315.000
33.79673 299.000
33.81667 303.000
33.83662 313.000
33.85657 321.000
33.87651 283.000
33.89646 322.000
33.91641 303.000
33.93635 271.000
33.95630 278.000
33.97625 315.000
33.99620 304.000
34.01614 311.000
34.03609 326.000
34.05604 271.000
34.07598 305.000
34.09593 296.000
34.11588 295.000
34.13582 315.000
34.15577 273.000
34.17572 344.000
34.19566 312.000
34.21561 344.000
34.23556 330.000
34.25551 341.000
34.27545 334.000
34.29540 340.000
34.31535 323.000
34.33529 344.000
34.35524 319.000
34.37519 316.000
34.39513 401.000
34.41508 370.000
34.43503 386.000
34.45498 420.000
34.47492 368.000
34.49487 384.000
34.51482 379.000
34.53476 419.000
34.55471 456.000
34.57466 435.000
34.59460 455.000
34.61455 488.000
34.63450 404.000
34.65444 460.000
34.67439 453.000
34.69434 414.000
34.71429 437.000
34.73423 441.000
34.75418 451.000
34.77413 424.000
34.79407 412.000
34.81402 390.000
34.83397 376.000
34.85391 392.000
34.87386 375.000
34.89381 381.000
34.91376 353.000
34.93370 370.000
34.95365 371.000
34.97360 363.000
34.99354 377.000
35.01349 374.000
35.03344 392.000
35.05338 431.000
35.07333 407.000
35.09328 459.000
35.11322 411.000
35.13317 456.000
35.15312 453.000
35.17307 474.000
35.19301 512.000
35.21296 574.000
35.23291 629.000
35.25285 652.000
35.27280 719.000
35.29275 827.000
35.31269 946.000
35.33264 1036.000
35.35259 1075.000
35.37254 1173.000
35.39248 1309.000
35.41243 1396.000
35.43238 1561.000
35.45232 1755.000
35.47227 2084.000
35.49222 2747.000
35.51216 3549.000
35.53211 4425.000
35.55206 4753.000
35.57201 4154.000
35.59195 3425.000
35.61190 2994.000
35.63185 2978.000
35.65179 2738.000
35.67174 2056.000
35.69169 1380.000
35.71163 1063.000
35.73158 787.000
35.75153 735.000
35.77147 580.000
35.79142 562.000
35.81137 525.000
35.83132 445.000
35.85126 412.000
35.87121 390.000
35.89116 400.000
35.91110 394.000
35.93105 377.000
35.95100 394.000
35.97094 369.000
35.99089 372.000
36.01084 372.000
36.03079 363.000
36.05073 370.000
36.07068 360.000
36.09063 316.000
36.11057 377.000
36.13052 348.000
36.15047 375.000
36.17041 381.000
36.19036 370.000
36.21031 329.000
36.23025 324.000
36.25020 331.000
36.27015 336.000
36.29010 330.000
36.31004 341.000
36.32999 336.000
36.34994 332.000
36.36988 339.000
36.38983 352.000
36.40978 382.000
36.42972 330.000
36.44967 331.000
36.46962 294.000
36.48957 322.000
36.50951 323.000
36.52946 321.000
36.54941 284.000
36.56935 327.000
36.58930 307.000
36.60925 369.000
36.62919 319.000
36.64914 324.000
36.66909 319.000
36.68903 302.000
36.70898 344.000
36.72893 336.000
36.74888 326.000
36.76882 350.000
36.78877 381.000
36.80872 392.000
36.82866 369.000
36.84861 450.000
36.86856 451.000
36.88850 494.000
36.90845 538.000
36.92840 657.000
36.94835 793.000
36.96829 848.000
36.98824 1064.000
37.00819 1130.000
37.02813 1167.000
37.04808 1114.000
37.06803 1046.000
37.08797 1084.000
37.10792 967.000
37.12787 933.000
37.14781 897.000
37.16776 900.000
37.18771 813.000
37.20766 741.000
37.22760 647.000
37.24755 611.000
37.26750 553.000
37.28744 467.000
37.30739 451.000
37.32734 443.000
37.34728 403.000
37.36723 391.000
37.38718 366.000
37.40713 330.000
37.42707 345.000
37.44702 354.000
37.46697 324.000
37.48691 318.000
37.50686 320.000
37.52681 294.000
37.54675 285.000
37.56670 328.000
37.58665 336.000
37.60660 294.000
37.62654 311.000
37.64649 305.000
37.66644 321.000
37.68638 286.000
37.70633 293.000
37.72628 344.000
37.74622 291.000
37.76617 273.000
37.78612 302.000
37.80606 323.000
37.82601 317.000
37.84596 298.000
37.86591 307.000
37.88585 317.000
37.90580 326.000
37.92575 325.000
37.94569 307.000
37.96564 301.000
37.98559 329.000
38.00553 313.000
38.02548 295.000
38.04543 359.000
38.06538 302.000
38.08532 293.000
38.10527 307.000
38.12522 331.000
38.14516 337.000
38.16511 313.000
38.18506 362.000
38.20500 365.000
38.22495 348.000
38.24490 387.000
38.26484 386.000
38.28479 375.000
38.30474 402.000
38.32469 399.000
38.34463 393.000
38.36458 450.000
38.38453 453.000
38.40447 471.000
38.42442 513.000
38.44437 549.000
38.46431 631.000
38.48426 723.000
38.50421 756.000
38.52416 804.000
38.54410 864.000
38.56405 901.000
38.58400 864.000
38.60394 875.000
38.62389 818.000
38.64384 784.000
38.66378 752.000
38.68373 646.000
38.70368 657.000
38.72362 602.000
38.74357 538.000
38.76352 525.000
38.78347 486.000
38.80341 503.000
38.82336 486.000
38.84331 506.000
38.86325 518.000
38.88320 503.000
38.90315 454.000
38.92309 467.000
38.94304 468.000
38.96299 413.000
38.98294 399.000
39.00288 408.000
39.02283 403.000
39.04278 355.000
39.06272 388.000
39.08267 357.000
39.10262 348.000
39.12256 352.000
39.14251 349.000
39.16246 348.000
39.18241 358.000
39.20235 376.000
39.22230 361.000
39.24225 355.000
39.26219 377.000
39.28214 346.000
39.30209 367.000
39.32203 339.000
39.34198 370.000
39.36193 341.000
39.38187 333.000
39.40182 305.000
39.42177 281.000
39.44172 320.000
39.46166 316.000
39.48161 277.000
39.50156 281.000
39.52150 294.000
39.54145 294.000
39.56140 271.000
39.58134 267.000
39.60129 309.000
39.62124 280.000
39.64119 276.000
39.66113 273.000
39.68108 281.000
39.70103 317.000
39.72097 272.000
39.74092 315.000
39.76087 308.000
39.78081 292.000
39.80076 266.000
39.82071 292.000
39.84065 282.000
39.86060 245.000
39.88055 269.000
39.90050 255.000
39.92044 291.000
39.94039 295.000
39.96034 316.000
39.98028 268.000
40.00023 282.000
40.02018 282.000
40.04012 273.000
40.06007 273.000
40.08002 286.000
40.09997 292.000
40.11991 233.000
40.13986 285.000
40.15981 271.000
40.17975 306.000
40.19970 269.000
40.21965 277.000
40.23959 296.000
40.25954 279.000
40.27949 299.000
40.29943 258.000
40.31938 252.000
40.33933 271.000
40.35928 269.000
40.37922 274.000
40.39917 254.000
40.41912 248.000
40.43906 305.000
40.45901 290.000
40.47896 268.000
40.49890 249.000
40.51885 290.000
40.53880 270.000
40.55875 280.000
40.57869 288.000
40.59864 285.000
40.61859 273.000
40.63853 273.000
40.65848 267.000
40.67843 264.000
40.69837 282.000
40.71832 299.000
40.73827 294.000
40.75822 239.000
40.77816 263.000
40.79811 292.000
40.81806 283.000
40.83800 263.000
40.85795 313.000
40.87790 274.000
40.89784 281.000
40.91779 262.000
40.93774 280.000
40.95768 275.000
40.97763 271.000
40.99758 242.000
41.01753 286.000
41.03747 289.000
41.05742 290.000
41.07737 282.000
41.09731 272.000
41.11726 283.000
41.13721 282.000
41.15715 259.000
41.17710 293.000
41.19705 288.000
41.21700 253.000
41.23694 275.000
41.25689 271.000
41.27684 280.000
41.29678 260.000
41.31673 263.000
41.33668 241.000
41.35662 303.000
41.37657 277.000
41.39652 282.000
41.41646 276.000
41.43641 242.000
41.45636 276.000
41.47631 262.000
41.49625 297.000
41.51620 291.000
41.53615 254.000
41.55609 285.000
41.57604 291.000
41.59599 285.000
41.61593 258.000
41.63588 269.000
41.65583 292.000
41.67578 297.000
41.69572 284.000
41.71567 287.000
41.73562 277.000
41.75556 258.000
41.77551 277.000
41.79546 237.000
41.81540 297.000
41.83535 250.000
41.85530 284.000
41.87524 253.000
41.89519 278.000
41.91514 279.000
41.93509 276.000
41.95503 270.000
41.97498 295.000
41.99493 238.000
42.01487 276.000
42.03482 280.000
42.05477 298.000
42.07471 293.000
42.09466 272.000
42.11461 263.000
42.13456 288.000
42.15450 305.000
42.17445 267.000
42.19440 284.000
42.21434 287.000
42.23429 289.000
42.25424 282.000
42.27418 285.000
42.29413 257.000
42.31408 246.000
42.33403 291.000
42.35397 279.000
42.37392 303.000
42.39387 318.000
42.41381 256.000
42.43376 293.000
42.45371 326.000
42.47365 293.000
42.49360 297.000
42.51355 285.000
42.53349 333.000
42.55344 279.000
42.57339 311.000
42.59334 345.000
42.61328 349.000
42.63323 343.000
42.65318 330.000
42.67312 346.000
42.69307 366.000
42.71302 382.000
42.73296 396.000
42.75291 404.000
42.77286 414.000
42.79281 475.000
42.81275 533.000
42.83270 534.000
42.85265 560.000
42.87259 658.000
42.89254 683.000
42.91249 677.000
42.93243 869.000
42.95238 927.000
42.97233 1065.000
42.99227 1115.000
43.01222 1159.000
43.03217 1237.000
43.05212 1225.000
43.07206 1310.000
43.09201 1222.000
43.11196 1232.000
43.13190 1207.000
43.15185 1263.000
43.17180 1309.000
43.19174 1414.000
43.21169 1424.000
43.23164 1486.000
43.25159 1381.000
43.27153 1249.000
43.29148 1082.000
43.31143 1028.000
43.33137 951.000
43.35132 851.000
43.37127 831.000
43.39121 697.000
43.41116 590.000
43.43111 472.000
43.45105 398.000
43.47100 402.000
43.49095 404.000
43.51090 368.000
43.53084 327.000
43.55079 334.000
43.57074 325.000
43.59068 325.000
43.61063 345.000
43.63058 302.000
43.65052 301.000
43.67047 303.000
43.69042 322.000
43.71037 314.000
43.73031 295.000
43.75026 314.000
43.77021 304.000
43.79015 300.000
43.81010 295.000
43.83005 267.000
43.84999 254.000
43.86994 298.000
43.88989 285.000
43.90984 292.000
43.92978 286.000
43.94973 256.000
43.96968 269.000
43.98962 264.000
44.00957 285.000
44.02952 289.000
44.04946 276.000
44.06941 270.000
44.08936 281.000
44.10930 273.000
44.12925 314.000
44.14920 253.000
44.16915 271.000
44.18909 271.000
44.20904 303.000
44.22899 274.000
44.24893 277.000
44.26888 265.000
44.28883 297.000
44.30877 267.000
44.32872 261.000
44.34867 274.000
44.36862 289.000
44.38856 272.000
44.40851 277.000
44.42846 261.000
44.44840 272.000
44.46835 276.000
44.48830 301.000
44.50824 268.000
44.52819 282.000
44.54814 252.000
44.56808 283.000
44.58803 263.000
44.60798 252.000
44.62793 274.000
44.64787 311.000
44.66782 249.000
44.68777 271.000
44.70771 267.000
44.72766 287.000
44.74761 286.000
44.76755 281.000
44.78750 242.000
44.80745 278.000
44.82740 262.000
44.84734 290.000
44.86729 251.000
44.88724 291.000
44.90718 298.000
44.92713 295.000
44.94708 281.000
44.96702 294.000
44.98697 283.000
45.00692 264.000
45.02686 331.000
45.04681 300.000
45.06676 289.000
45.08671 289.000
45.10665 274.000
45.12660 272.000
45.14655 286.000
45.16649 259.000
45.18644 288.000
45.20639 257.000
45.22633 305.000
45.24628 259.000
45.26623 281.000
45.28618 284.000
45.30612 236.000
45.32607 269.000
45.34602 271.000
45.36596 248.000
45.38591 322.000
45.40586 254.000
45.42580 268.000
45.44575 238.000
45.46570 262.000
45.48565 269.000
45.50559 253.000
45.52554 281.000
45.54549 281.000
45.56543 254.000
45.58538 245.000
45.60533 277.000
45.62527 283.000
45.64522 280.000
45.66517 257.000
45.68511 271.000
45.70506 270.000
45.72501 259.000
45.74496 259.000
45.76490 291.000
45.78485 263.000
45.80480 243.000
45.82474 270.000
45.84469 260.000
45.86464 277.000
45.88458 264.000
45.90453 262.000
45.92448 214.000
45.94443 256.000
45.96437 244.000
45.98432 259.000
46.00427 254.000
46.02421 215.000
46.04416 254.000
46.06411 253.000
46.08405 291.000
46.10400 296.000
46.12395 276.000
46.14389 253.000
46.16384 261.000
46.18379 289.000
46.20374 269.000
46.22368 269.000
46.24363 255.000
46.26358 244.000
46.28352 230.000
46.30347 261.000
46.32342 247.000
46.34336 234.000
46.36331 224.000
46.38326 245.000
46.40321 251.000
46.42315 262.000
46.44310 251.000
46.46305 236.000
46.48299 250.000
46.50294 225.000
46.52289 261.000
46.54283 270.000
46.56278 253.000
46.58273 249.000
46.60267 246.000
46.62262 263.000
46.64257 250.000
46.66252 248.000
46.68246 252.000
46.70241 266.000
46.72236 263.000
46.74230 270.000
46.76225 275.000
46.78220 234.000
46.80214 258.000
46.82209 246.000
46.84204 265.000
46.86199 283.000
46.88193 248.000
46.90188 248.000
46.92183 276.000
46.94177 241.000
46.96172 239.000
46.98167 263.000
47.00161 271.000
47.02156 287.000
47.04151 255.000
47.06146 261.000
47.08140 244.000
47.10135 253.000
47.12130 265.000
47.14124 280.000
47.16119 268.000
47.18114 230.000
47.20108 292.000
47.22103 273.000
47.24098 234.000
47.26092 239.000
47.28087 259.000
47.30082 243.000
47.32077 254.000
47.34071 275.000
47.36066 267.000
47.38061 278.000
47.40055 236.000
47.42050 256.000
47.44045 256.000
47.46039 279.000
47.48034 263.000
47.50029 243.000
47.52024 270.000
47.54018 233.000
47.56013 258.000
47.58008 288.000
47.60002 245.000
47.61997 290.000
47.63992 262.000
47.65986 232.000
47.67981 277.000
47.69976 286.000
47.71970 271.000
47.73965 263.000
47.75960 253.000
47.77955 263.000
47.79949 262.000
47.81944 230.000
47.83939 265.000
47.85933 229.000
47.87928 287.000
47.89923 281.000
47.91917 304.000
47.93912 266.000
47.95907 271.000
47.97902 286.000
47.99896 264.000
48.01891 233.000
48.03886 274.000
48.05880 249.000
48.07875 274.000
48.09870 257.000
48.11864 313.000
48.13859 235.000
48.15854 278.000
48.17848 295.000
48.19843 283.000
48.21838 269.000
48.23833 268.000
48.25827 223.000
48.27822 317.000
48.29817 277.000
48.31811 272.000
48.33806 267.000
48.35801 290.000
48.37795 273.000
48.39790 274.000
48.41785 291.000
48.43780 265.000
48.45774 299.000
48.47769 315.000
48.49764 310.000
48.51758 348.000
48.53753 337.000
48.55748 362.000
48.57742 367.000
48.59737 375.000
48.61732 383.000
48.63726 377.000
48.65721 430.000
48.67716 422.000
48.69711 403.000
48.71705 399.000
48.73700 421.000
48.75695 416.000
48.77689 478.000
48.79684 418.000
48.81679 420.000
48.83673 413.000
48.85668 366.000
48.87663 368.000
48.89658 376.000
48.91652 347.000
48.93647 338.000
48.95642 318.000
48.97636 310.000
48.99631 302.000
49.01626 296.000
49.03620 300.000
49.05615 295.000
49.07610 273.000
49.09605 274.000
49.11599 282.000
49.13594 266.000
49.15589 265.000
49.17583 284.000
49.19578 261.000
49.21573 254.000
49.23567 268.000
49.25562 288.000
49.27557 279.000
49.29551 256.000
49.31546 259.000
49.33541 287.000
49.35536 276.000
49.37530 273.000
49.39525 288.000
49.41520 230.000
49.43514 263.000
49.45509 261.000
49.47504 291.000
49.49498 261.000
49.51493 291.000
49.53488 254.000
49.55483 248.000
49.57477 258.000
49.59472 262.000
49.61467 241.000
49.63461 272.000
49.65456 250.000
49.67451 240.000
49.69445 251.000
49.71440 260.000
49.73435 266.000
49.75429 264.000
49.77424 267.000
49.79419 257.000
49.81414 262.000
49.83408 252.000
49.85403 267.000
49.87398 282.000
49.89392 267.000
49.91387 261.000
49.93382 232.000
49.95376 234.000
49.97371 237.000
49.99366 249.000
50.01361 257.000
50.03355 229.000
50.05350 269.000
50.07345 227.000
50.09339 288.000
50.11334 251.000
50.13329 258.000
50.15323 275.000
50.17318 250.000
50.19313 286.000
50.21307 239.000
50.23302 249.000
50.25297 270.000
50.27292 248.000
50.29286 277.000
50.31281 259.000
50.33276 257.000
50.35270 268.000
50.37265 241.000
50.39260 271.000
50.41254 255.000
50.43249 248.000
50.45244 255.000
50.47239 268.000
50.49233 287.000
50.51228 277.000
50.53223 245.000
50.55217 293.000
50.57212 237.000
50.59207 258.000
50.61201 252.000
50.63196 255.000
50.65191 265.000
50.67186 267.000
50.69180 238.000
50.71175 255.000
50.73170 241.000
50.75164 257.000
50.77159 270.000
50.79154 258.000
50.81148 243.000
50.83143 240.000
50.85138 244.000
50.87132 269.000
50.89127 246.000
50.91122 248.000
50.93117 264.000
50.95111 248.000
50.97106 235.000
50.99101 271.000
51.01095 267.000
51.03090 255.000
51.05085 271.000
51.07079 254.000
51.09074 265.000
51.11069 253.000
51.13064 282.000
51.15058 267.000
51.17053 264.000
51.19048 223.000
51.21042 276.000
51.23037 254.000
51.25032 250.000
51.27026 247.000
51.29021 268.000
51.31016 273.000
51.33010 248.000
51.35005 246.000
51.37000 257.000
51.38995 254.000
51.40989 232.000
51.42984 270.000
51.44979 262.000
51.46973 247.000
51.48968 252.000
51.50963 227.000
51.52957 255.000
51.54952 259.000
51.56947 236.000
51.58942 249.000
51.60936 275.000
51.62931 226.000
51.64926 248.000
51.66920 221.000
51.68915 272.000
51.70910 231.000
51.72904 261.000
51.74899 265.000
51.76894 248.000
51.78888 251.000
51.80883 265.000
51.82878 263.000
51.84873 267.000
51.86867 250.000
51.88862 268.000
51.90857 277.000
51.92851 268.000
51.94846 286.000
51.96841 258.000
51.98835 257.000
52.00830 269.000
52.02825 248.000
52.04820 241.000
52.06814 282.000
52.08809 278.000
52.10804 266.000
52.12798 260.000
52.14793 259.000
52.16788 272.000
52.18782 274.000
52.20777 259.000
52.22772 250.000
52.24767 221.000
52.26761 264.000
52.28756 230.000
52.30751 264.000
52.32745 236.000
52.34740 245.000
52.36735 252.000
52.38729 257.000
52.40724 251.000
52.42719 266.000
52.44713 250.000
52.46708 261.000
52.48703 288.000
52.50698 244.000
52.52692 281.000
52.54687 250.000
52.56682 240.000
52.58676 275.000
52.60671 272.000
52.62666 298.000
52.64660 266.000
52.66655 241.000
52.68650 256.000
52.70645 247.000
52.72639 264.000
52.74634 267.000
52.76629 218.000
52.78623 277.000
52.80618 273.000
52.82613 255.000
52.84607 307.000
52.86602 258.000
52.88597 269.000
52.90591 269.000
52.92586 273.000
52.94581 263.000
52.96576 256.000
52.98570 264.000
53.00565 294.000
53.02560 288.000
53.04554 256.000
53.06549 279.000
53.08544 284.000
53.10538 287.000
53.12533 284.000
53.14528 256.000
53.16523 288.000
53.18517 302.000
53.20512 252.000
53.22507 248.000
53.24501 275.000
53.26496 306.000
53.28491 303.000
53.30485 304.000
53.32480 301.000
53.34475 269.000
53.36469 285.000
53.38464 303.000
53.40459 262.000
53.42454 299.000
53.44448 286.000
53.46443 295.000
53.48438 314.000
53.50432 289.000
53.52427 295.000
53.54422 300.000
53.56416 318.000
53.58411 359.000
53.60406 379.000
53.62401 452.000
53.64395 520.000
53.66390 564.000
53.68385 528.000
53.70379 495.000
53.72374 436.000
53.74369 403.000
53.76363 414.000
53.78358 414.000
53.80353 447.000
53.82348 448.000
53.84342 424.000
53.86337 354.000
53.88332 328.000
53.90326 313.000
53.92321 298.000
53.94316 296.000
53.96310 250.000
53.98305 291.000
54.00300 275.000
54.02294 283.000
54.04289 265.000
54.06284 267.000
54.08279 250.000
54.10273 268.000
54.12268 294.000
54.14263 256.000
54.16257 220.000
54.18252 245.000
54.20247 248.000
54.22241 245.000
54.24236 241.000
54.26231 270.000
54.28226 259.000
54.30220 277.000
54.32215 278.000
54.34210 253.000
54.36204 283.000
54.38199 235.000
54.40194 258.000
54.42188 225.000
54.44183 249.000
54.46178 252.000
54.48172 239.000
54.50167 257.000
54.52162 265.000
54.54157 262.000
54.56151 249.000
54.58146 273.000
54.60141 260.000
54.62135 241.000
54.64130 237.000
54.66125 262.000
54.68119 240.000
54.70114 263.000
54.72109 289.000
54.74104 255.000
54.76098 272.000
54.78093 250.000
54.80088 261.000
54.82082 250.000
54.84077 247.000
54.86072 256.000
54.88066 259.000
54.90061 264.000
54.92056 251.000
54.94050 260.000
54.96045 246.000
54.98040 268.000
55.00035 227.000
55.02029 281.000
55.04024 247.000
55.06019 293.000
55.08013 270.000
55.10008 251.000
55.12003 231.000
55.13997 262.000
55.15992 250.000
55.17987 240.000
55.19982 233.000
55.21976 242.000
55.23971 261.000
55.25966 260.000
55.27960 235.000
55.29955 241.000
55.31950 243.000
55.33944 275.000
55.35939 256.000
55.37934 253.000
55.39929 228.000
55.41923 241.000
55.43918 250.000
55.45913 257.000
55.47907 244.000
55.49902 240.000
55.51897 264.000
55.53891 235.000
55.55886 252.000
55.57881 250.000
55.59875 264.000
55.61870 258.000
55.63865 266.000
55.65860 246.000
55.67854 214.000
55.69849 238.000
55.71844 264.000
55.73838 249.000
55.75833 279.000
55.77828 255.000
55.79822 261.000
55.81817 258.000
55.83812 264.000
55.85807 235.000
55.87801 278.000
55.89796 244.000
55.91791 272.000
55.93785 252.000
55.95780 259.000
55.97775 269.000
55.99769 256.000
56.01764 251.000
56.03759 247.000
56.05753 244.000
56.07748 267.000
56.09743 253.000
56.11738 294.000
56.13732 226.000
56.15727 268.000
56.17722 253.000
56.19716 245.000
56.21711 236.000
56.23706 271.000
56.25700 254.000
56.27695 284.000
56.29690 222.000
56.31685 246.000
56.33679 257.000
56.35674 285.000
56.37669 242.000
56.39663 234.000
56.41658 255.000
56.43653 233.000
56.45647 255.000
56.47642 217.000
56.49637 235.000
56.51631 262.000
56.53626 294.000
56.55621 250.000
56.57616 273.000
56.59610 280.000
56.61605 306.000
56.63600 245.000
56.65594 269.000
56.67589 269.000
56.69584 270.000
56.71578 268.000
56.73573 273.000
56.75568 265.000
56.77563 305.000
56.79557 253.000
56.81552 274.000
56.83547 296.000
56.85541 306.000
56.87536 285.000
56.89531 286.000
56.91525 311.000
56.93520 336.000
56.95515 352.000
56.97510 278.000
56.99504 346.000
57.01499 339.000
57.03494 315.000
57.05488 368.000
57.07483 398.000
57.09478 426.000
57.11472 443.000
57.13467 552.000
57.15462 675.000
57.17456 868.000
57.19451 985.000
57.21446 1170.000
57.23441 1219.000
57.25435 1062.000
57.27430 950.000
57.29425 806.000
57.31419 753.000
57.33414 706.000
57.35409 778.000
57.37403 826.000
57.39398 776.000
57.41393 731.000
57.43388 599.000
57.45382 489.000
57.47377 451.000
57.49372 395.000
57.51366 337.000
57.53361 341.000
57.55356 325.000
57.57350 305.000
57.59345 308.000
57.61340 293.000
57.63334 271.000
57.65329 274.000
57.67324 298.000
57.69319 296.000
57.71313 252.000
57.73308 269.000
57.75303 306.000
57.77297 268.000
57.79292 264.000
57.81287 289.000
57.83281 284.000
57.85276 276.000
57.87271 284.000
57.89266 290.000
57.91260 314.000
57.93255 292.000
57.95250 261.000
57.97244 286.000
57.99239 249.000
58.01234 314.000
58.03228 303.000
58.05223 292.000
58.07218 325.000
58.09212 293.000
58.11207 337.000
58.13202 314.000
58.15197 307.000
58.17191 315.000
58.19186 327.000
58.21181 321.000
58.23175 307.000
58.25170 305.000
58.27165 305.000
58.29159 323.000
58.31154 296.000
58.33149 299.000
58.35144 288.000
58.37138 294.000
58.39133 290.000
58.41128 280.000
58.43122 251.000
58.45117 272.000
58.47112 246.000
58.49106 264.000
58.51101 260.000
58.53096 265.000
58.55090 267.000
58.57085 230.000
58.59080 273.000
58.61075 272.000
58.63069 242.000
58.65064 276.000
58.67059 261.000
58.69053 275.000
58.71048 253.000
58.73043 259.000
58.75037 212.000
58.77032 256.000
58.79027 263.000
58.81022 241.000
58.83016 232.000
58.85011 232.000
58.87006 252.000
58.89000 262.000
58.90995 264.000
58.92990 234.000
58.94984 264.000
58.96979 244.000
58.98974 264.000
59.00969 242.000
59.02963 255.000
59.04958 235.000
59.06953 238.000
59.08947 260.000
59.10942 249.000
59.12937 227.000
59.14931 257.000
59.16926 238.000
59.18921 257.000
59.20915 265.000
59.22910 257.000
59.24905 252.000
59.26900 255.000
59.28894 258.000
59.30889 225.000
59.32884 249.000
59.34878 255.000
59.36873 255.000
59.38868 268.000
59.40862 235.000
59.42857 258.000
59.44852 192.000
59.46847 255.000
59.48841 273.000
59.50836 242.000
59.52831 246.000
59.54825 255.000
59.56820 254.000
59.58815 264.000
59.60809 247.000
59.62804 264.000
59.64799 237.000
59.66793 265.000
59.68788 232.000
59.70783 260.000
59.72778 264.000
59.74772 271.000
59.76767 242.000
59.78762 254.000
59.80756 281.000
59.82751 289.000
59.84746 242.000
59.86740 250.000
59.88735 237.000
59.90730 286.000
59.92725 267.000
59.94719 274.000
59.96714 255.000
59.98709 255.000
60.00703 245.000
60.02698 242.000
60.04693 259.000
60.06687 280.000
60.08682 245.000
60.10677 232.000
60.12671 238.000
60.14666 240.000
60.16661 275.000
60.18656 253.000
60.20650 265.000
60.22645 252.000
60.24640 281.000
60.26634 276.000
60.28629 264.000
60.30624 225.000
60.32618 262.000
60.34613 229.000
60.36608 243.000
60.38603 234.000
60.40597 238.000
60.42592 248.000
60.44587 259.000
60.46581 276.000
60.48576 261.000
60.50571 253.000
60.52565 255.000
60.54560 233.000
60.56555 256.000
60.58550 247.000
60.60544 249.000
60.62539 244.000
60.64534 263.000
60.66528 244.000
60.68523 230.000
60.70518 255.000
60.72512 258.000
60.74507 260.000
60.76502 254.000
60.78496 279.000
60.80491 265.000
60.82486 275.000
60.84481 252.000
60.86475 272.000
60.88470 263.000
60.90465 296.000
60.92459 253.000
60.94454 246.000
60.96449 263.000
60.98443 289.000
61.00438 242.000
61.02433 293.000
61.04428 277.000
61.06422 249.000
61.08417 253.000
61.10412 264.000
61.12406 280.000
61.14401 266.000
61.16396 288.000
61.18390 276.000
61.20385 286.000
61.22380 320.000
61.24374 315.000
61.26369 288.000
61.28364 285.000
61.30359 315.000
61.32353 291.000
61.34348 316.000
61.36343 330.000
61.38337 348.000
61.40332 304.000
61.42327 362.000
61.44321 356.000
61.46316 364.000
61.48311 370.000
61.50306 344.000
61.52300 338.000
61.54295 351.000
61.56290 360.000
61.58284 353.000
61.60279 338.000
61.62274 319.000
61.64268 336.000
61.66263 346.000
61.68258 323.000
61.70252 333.000
61.72247 317.000
61.74242 313.000
61.76237 313.000
61.78231 332.000
61.80226 306.000
61.82221 282.000
61.84215 298.000
61.86210 335.000
61.88205 287.000
61.90199 327.000
61.92194 306.000
61.94189 324.000
61.96184 289.000
61.98178 301.000
62.00173 292.000
62.02168 295.000
62.04162 272.000
62.06157 311.000
62.08152 307.000
62.10146 326.000
62.12141 328.000
62.14136 322.000
62.16131 336.000
62.18125 316.000
62.20120 330.000
62.22115 363.000
62.24109 327.000
62.26104 343.000
62.28099 339.000
62.30093 328.000
62.32088 360.000
62.34083 419.000
62.36077 396.000
62.38072 439.000
62.40067 437.000
62.42062 474.000
62.44056 570.000
62.46051 551.000
62.48046 612.000
62.50040 631.000
62.52035 660.000
62.54030 687.000
62.56024 701.000
62.58019 722.000
62.60014 735.000
62.62009 756.000
62.64003 760.000
62.65998 748.000
62.67993 753.000
62.69987 759.000
62.71982 739.000
62.73977 760.000
62.75971 806.000
62.77966 917.000
62.79961 1089.000
62.81955 1231.000
62.83950 1447.000
62.85945 1557.000
62.87940 1528.000
62.89934 1281.000
62.91929 1136.000
62.93924 966.000
62.95918 858.000
62.97913 798.000
62.99908 943.000
63.01902 965.000
63.03897 974.000
63.05892 956.000
63.07887 775.000
63.09881 637.000
63.11876 541.000
63.13871 476.000
63.15865 425.000
63.17860 381.000
63.19855 356.000
63.21849 353.000
63.23844 316.000
63.25839 302.000
63.27833 288.000
63.29828 300.000
63.31823 268.000
63.33818 285.000
63.35812 280.000
63.37807 296.000
63.39802 289.000
63.41796 292.000
63.43791 257.000
63.45786 268.000
63.47780 286.000
63.49775 247.000
63.51770 260.000
63.53765 269.000
63.55759 249.000
63.57754 301.000
63.59749 281.000
63.61743 297.000
63.63738 264.000
63.65733 248.000
63.67727 270.000
63.69722 247.000
63.71717 284.000
63.73712 303.000
63.75706 252.000
63.77701 243.000
63.79696 259.000
63.81690 253.000
63.83685 241.000
63.85680 261.000
63.87674 240.000
63.89669 270.000
63.91664 300.000
63.93658 283.000
63.95653 290.000
63.97648 284.000
63.99643 255.000
64.01637 250.000
64.03632 267.000
64.05627 260.000
64.07621 279.000
64.09616 287.000
64.11611 249.000
64.13605 261.000
64.15600 283.000
64.17595 274.000
64.19590 247.000
64.21584 309.000
64.23579 267.000
64.25574 266.000
64.27568 249.000
64.29563 264.000
64.31558 293.000
64.33552 256.000
64.35547 302.000
64.37542 272.000
64.39536 269.000
64.41531 255.000
64.43526 266.000
64.45521 272.000
64.47515 253.000
64.49510 262.000
64.51505 283.000
64.53499 273.000
64.55494 273.000
64.57489 295.000
64.59483 269.000
64.61478 275.000
64.63473 264.000
64.65468 253.000
64.67462 248.000
64.69457 266.000
64.71452 250.000
64.73446 286.000
64.75441 268.000
64.77436 237.000
64.79430 260.000
64.81425 266.000
64.83420 245.000
64.85414 242.000
64.87409 278.000
64.89404 269.000
64.91399 257.000
64.93393 260.000
64.95388 261.000
64.97383 222.000
64.99377 261.000
65.01372 255.000
65.03367 229.000
65.05361 255.000
65.07356 275.000
65.09351 268.000
65.11346 266.000
65.13340 262.000
65.15335 258.000
65.17330 253.000
65.19324 264.000
65.21319 270.000
65.23314 269.000
65.25308 250.000
65.27303 299.000
65.29298 277.000
65.31293 268.000
65.33287 248.000
65.35282 285.000
65.37277 286.000
65.39271 313.000
65.41266 288.000
65.43261 321.000
65.45255 269.000
65.47250 294.000
65.49245 294.000
65.51239 319.000
65.53234 293.000
65.55229 278.000
65.57224 324.000
65.59218 298.000
65.61213 322.000
65.63208 311.000
65.65202 314.000
65.67197 265.000
65.69192 310.000
65.71186 334.000
65.73181 286.000
65.75176 284.000
65.77171 315.000
65.79165 314.000
65.81160 296.000
65.83155 311.000
65.85149 300.000
65.87144 276.000
65.89139 278.000
65.91133 307.000
65.93128 305.000
65.95123 298.000
65.97117 321.000
65.99112 305.000
66.01107 302.000
66.03102 300.000
66.05096 324.000
66.07091 320.000
66.09086 327.000
66.11080 298.000
66.13075 323.000
66.15070 352.000
66.17064 309.000
66.19059 357.000
66.21054 329.000
66.23049 357.000
66.25043 334.000
66.27038 335.000
66.29033 363.000
66.31027 346.000
66.33022 319.000
66.35017 323.000
66.37011 317.000
66.39006 301.000
66.41001 313.000
66.42995 305.000
66.44990 331.000
66.46985 311.000
66.48980 340.000
66.50974 286.000
66.52969 301.000
66.54964 287.000
66.56958 295.000
66.58953 295.000
66.60948 293.000
66.62942 258.000
66.64937 290.000
66.66932 270.000
66.68927 269.000
66.70921 292.000
66.72916 279.000
66.74911 301.000
66.76905 273.000
66.78900 318.000
66.80895 257.000
66.82889 247.000
66.84884 271.000
66.86879 276.000
66.88874 252.000
66.90868 243.000
66.92863 276.000
66.94858 277.000
66.96852 263.000
66.98847 274.000
67.00842 270.000
67.02836 287.000
67.04831 256.000
67.06826 284.000
67.08820 254.000
67.10815 260.000
67.12810 256.000
67.14805 268.000
67.16799 252.000
67.18794 258.000
67.20789 259.000
67.22783 229.000
67.24778 237.000
67.26773 222.000
67.28767 258.000
67.30762 264.000
67.32757 253.000
67.34752 273.000
67.36746 259.000
67.38741 266.000
67.40736 272.000
67.42730 261.000
67.44725 256.000
67.46720 296.000
67.48714 285.000
67.50709 242.000
67.52704 277.000
67.54698 291.000
67.56693 306.000
67.58688 295.000
67.60683 272.000
67.62677 301.000
67.64672 292.000
67.66667 298.000
67.68661 295.000
67.70656 274.000
67.72651 298.000
67.74645 297.000
67.76640 295.000
67.78635 318.000
67.80630 308.000
67.82624 308.000
67.84619 321.000
67.86614 334.000
67.88608 338.000
67.90603 341.000
67.92598 307.000
67.94592 328.000
67.96587 311.000
67.98582 331.000
68.00576 306.000
68.02571 330.000
68.04566 300.000
68.06561 321.000
68.08555 280.000
68.10550 311.000
68.12545 300.000
68.14539 313.000
68.16534 285.000
68.18529 271.000
68.20523 282.000
68.22518 260.000
68.24513 307.000
68.26508 263.000
68.28502 277.000
68.30497 259.000
68.32492 272.000
68.34486 242.000
68.36481 265.000
68.38476 245.000
68.40470 249.000
68.42465 272.000
68.44460 239.000
68.46455 242.000
68.48449 250.000
68.50444 275.000
68.52439 241.000
68.54433 259.000
68.56428 245.000
68.58423 252.000
68.60417 245.000
68.62412 250.000
68.64407 276.000
68.66401 232.000
68.68396 268.000
68.70391 247.000
68.72386 243.000
68.74380 239.000
68.76375 259.000
68.78370 220.000
68.80364 271.000
68.82359 249.000
68.84354 246.000
68.86348 239.000
68.88343 253.000
68.90338 244.000
68.92333 247.000
68.94327 258.000
68.96322 236.000
68.98317 236.000
69.00311 236.000
69.02306 225.000
69.04301 225.000
69.06295 249.000
69.08290 265.000
69.10285 229.000
69.12279 250.000
69.14274 255.000
69.16269 242.000
69.18264 198.000
69.20258 262.000
69.22253 232.000
69.24248 220.000
69.26242 245.000
69.28237 265.000
69.30232 255.000
69.32226 262.000
69.34221 222.000
69.36216 234.000
69.38211 235.000
69.40205 269.000
69.42200 254.000
69.44195 256.000
69.46189 231.000
69.48184 241.000
69.50179 249.000
69.52173 261.000
69.54168 235.000
69.56163 234.000
69.58157 254.000
69.60152 239.000
69.62147 286.000
69.64142 224.000
69.66136 230.000
69.68131 275.000
69.70126 251.000
69.72120 219.000
69.74115 267.000
69.76110 237.000
69.78104 245.000
69.80099 216.000
69.82094 239.000
69.84089 237.000
69.86083 245.000
69.88078 238.000
69.90073 255.000
69.92067 236.000
69.94062 251.000
69.96057 238.000
69.98051 236.000
70.00046 231.000
70.02041 256.000
70.04035 229.000
70.06030 249.000
70.08025 216.000
70.10020 254.000
70.12014 244.000
70.14009 223.000
70.16004 224.000
70.17998 251.000
70.19993 234.000
70.21988 275.000
70.23982 244.000
70.25977 271.000
70.27972 237.000
70.29967 253.000
70.31961 250.000
70.33956 237.000
70.35951 240.000
70.37945 247.000
70.39940 266.000
70.41935 225.000
70.43929 226.000
70.45924 238.000
70.47919 239.000
70.49914 227.000
70.51908 227.000
70.53903 264.000
70.55898 224.000
70.57892 256.000
70.59887 251.000
70.61882 251.000
70.63876 230.000
70.65871 260.000
70.67866 233.000
70.69860 230.000
70.71855 254.000
70.73850 227.000
70.75845 222.000
70.77839 249.000
70.79834 247.000
70.81829 242.000
70.83823 243.000
70.85818 212.000
70.87813 233.000
70.89807 235.000
70.91802 225.000
70.93797 245.000
70.95792 247.000
70.97786 256.000
70.99781 283.000
71.01776 243.000
71.03770 243.000
71.05765 264.000
71.07760 262.000
71.09754 258.000
71.11749 241.000
71.13744 265.000
71.15738 260.000
71.17733 239.000
71.19728 260.000
71.21723 247.000
71.23717 248.000
71.25712 291.000
71.27707 294.000
71.29701 289.000
71.31696 319.000
71.33691 330.000
71.35685 351.000
71.37680 325.000
71.39675 340.000
71.41670 331.000
71.43664 259.000
71.45659 271.000
71.47654 284.000
71.49648 278.000
71.51643 261.000
71.53638 275.000
71.55632 259.000
71.57627 323.000
71.59622 289.000
71.61616 283.000
71.63611 267.000
71.65606 253.000
71.67601 273.000
71.69595 265.000
71.71590 262.000
71.73585 248.000
71.75579 272.000
71.77574 249.000
71.79569 253.000
71.81563 268.000
71.83558 239.000
71.85553 267.000
71.87548 252.000
71.89542 244.000
71.91537 251.000
71.93532 246.000
71.95526 247.000
71.97521 265.000
71.99516 264.000
72.01510 249.000
72.03505 212.000
72.05500 237.000
72.07495 260.000
72.09489 280.000
72.11484 229.000
72.13479 260.000
72.15473 267.000
72.17468 280.000
72.19463 227.000
72.21457 252.000
72.23452 244.000
72.25447 277.000
72.27441 276.000
72.29436 265.000
72.31431 287.000
72.33426 267.000
72.35420 300.000
72.37415 287.000
72.39410 263.000
72.41404 259.000
72.43399 257.000
72.45394 268.000
72.47388 288.000
72.49383 258.000
72.51378 280.000
72.53373 268.000
72.55367 282.000
72.57362 242.000
72.59357 236.000
72.61351 241.000
72.63346 261.000
72.65341 270.000
72.67335 245.000
72.69330 227.000
72.71325 243.000
72.73319 249.000
72.75314 235.000
72.77309 287.000
72.79304 278.000
72.81298 238.000
72.83293 224.000
72.85288 252.000
72.87282 255.000
72.89277 253.000
72.91272 259.000
72.93266 239.000
72.95261 213.000
72.97256 261.000
72.99251 225.000
73.01245 269.000
73.03240 212.000
73.05235 246.000
73.07229 232.000
73.09224 251.000
73.11219 227.000
73.13213 258.000
73.15208 256.000
73.17203 249.000
73.19197 256.000
73.21192 276.000
73.23187 245.000
73.25182 250.000
73.27176 230.000
73.29171 232.000
73.31166 266.000
73.33160 252.000
73.35155 256.000
73.37150 259.000
73.39144 251.000
73.41139 244.000
73.43134 243.000
73.45129 245.000
73.47123 262.000
73.49118 251.000
73.51113 241.000
73.53107 273.000
73.55102 229.000
73.57097 256.000
73.59091 264.000
73.61086 242.000
73.63081 205.000
73.65076 237.000
73.67070 266.000
73.69065 244.000
73.71060 243.000
73.73054 264.000
73.75049 267.000
73.77044 251.000
73.79038 230.000
73.81033 290.000
73.83028 223.000
73.85022 267.000
73.87017 219.000
73.89012 234.000
73.91007 251.000
73.93001 260.000
73.94996 252.000
73.96991 230.000
73.98985 273.000
74.00980 257.000
74.02975 232.000
74.04969 258.000
74.06964 249.000
74.08959 275.000
74.10954 269.000
74.12948 230.000
74.14943 246.000
74.16938 266.000
74.18932 226.000
74.20927 257.000
74.22922 287.000
74.24916 256.000
74.26911 287.000
74.28906 277.000
74.30900 328.000
74.32895 356.000
74.34890 382.000
74.36885 406.000
74.38879 512.000
74.40874 506.000
74.42869 517.000
74.44863 463.000
74.46858 398.000
74.48853 388.000
74.50847 395.000
74.52842 350.000
74.54837 373.000
74.56832 363.000
74.58826 370.000
74.60821 412.000
74.62816 373.000
74.64810 383.000
74.66805 363.000
74.68800 332.000
74.70794 338.000
74.72789 326.000
74.74784 349.000
74.76778 287.000
74.78773 303.000
74.80768 319.000
74.82763 383.000
74.84757 352.000
74.86752 332.000
74.88747 353.000
74.90741 351.000
74.92736 377.000
74.94731 379.000
74.96725 354.000
74.98720 346.000
75.00715 399.000
75.02710 400.000
75.04704 400.000
75.06699 418.000
75.08694 404.000
75.10688 364.000
75.12683 404.000
75.14678 419.000
75.16672 353.000
75.18667 368.000
75.20662 396.000
75.22657 381.000
75.24651 384.000
75.26646 359.000
75.28641 329.000
75.30635 366.000
75.32630 384.000
75.34625 384.000
75.36619 400.000
75.38614 384.000
75.40609 383.000
75.42603 375.000
75.44598 355.000
75.46593 352.000
75.48588 360.000
75.50582 349.000
75.52577 350.000
75.54572 290.000
75.56566 336.000
75.58561 287.000
75.60556 340.000
75.62550 344.000
75.64545 320.000
75.66540 327.000
75.68535 295.000
75.70529 268.000
75.72524 271.000
75.74519 285.000
75.76513 261.000
75.78508 239.000
75.80503 250.000
75.82497 272.000
75.84492 283.000
75.86487 237.000
75.88481 250.000
75.90476 270.000
75.92471 245.000
75.94466 250.000
75.96460 268.000
75.98455 221.000
76.00450 233.000
76.02444 234.000
76.04439 256.000
76.06434 271.000
76.08428 258.000
76.10423 257.000
76.12418 259.000
76.14413 264.000
76.16407 282.000
76.18402 269.000
76.20397 235.000
76.22391 242.000
76.24386 227.000
76.26381 283.000
76.28375 250.000
76.30370 269.000
76.32365 272.000
76.34359 235.000
76.36354 277.000
76.38349 239.000
76.40344 242.000
76.42338 220.000
76.44333 241.000
76.46328 215.000
76.48322 235.000
76.50317 260.000
76.52312 267.000
76.54306 218.000
76.56301 228.000
76.58296 246.000
76.60291 248.000
76.62285 258.000
76.64280 273.000
76.66275 263.000
76.68269 205.000
76.70264 247.000
76.72259 293.000
76.74253 256.000
76.76248 242.000
76.78243 231.000
76.80238 241.000
76.82232 279.000
76.84227 232.000
76.86222 231.000
76.88216 252.000
76.90211 253.000
76.92206 238.000
76.94200 211.000
76.96195 258.000
76.98190 245.000
77.00184 259.000
77.02179 242.000
77.04174 258.000
77.06169 252.000
77.08163 231.000
77.10158 236.000
77.12153 241.000
77.14147 244.000
77.16142 247.000
77.18137 242.000
77.20131 228.000
77.22126 252.000
77.24121 241.000
77.26116 234.000
77.28110 244.000
77.30105 239.000
77.32100 219.000
77.34094 246.000
77.36089 254.000
77.38084 243.000
77.40078 228.000
77.42073 249.000
77.44068 238.000
77.46062 250.000
77.48057 233.000
77.50052 237.000
77.52047 242.000
77.54041 245.000
77.56036 248.000
77.58031 248.000
77.60025 239.000
77.62020 231.000
77.64015 243.000
77.66009 239.000
77.68004 232.000
77.69999 229.000
77.71994 237.000
77.73988 253.000
77.75983 242.000
77.77978 257.000
77.79972 239.000
77.81967 227.000
77.83962 228.000
77.85956 214.000
77.87951 211.000
77.89946 253.000
77.91940 245.000
77.93935 253.000
77.95930 239.000
77.97925 250.000
77.99919 228.000
78.01914 283.000
78.03909 239.000
78.05903 275.000
78.07898 251.000
78.09893 231.000
78.11887 247.000
78.13882 263.000
78.15877 278.000
78.17872 213.000
78.19866 246.000
78.21861 230.000
78.23856 242.000
78.25850 231.000
78.27845 236.000
78.29840 240.000
78.31834 238.000
78.33829 235.000
78.35824 272.000
78.37819 250.000
78.39813 223.000
78.41808 240.000
78.43803 225.000
78.45797 249.000
78.47792 226.000
78.49787 243.000
78.51781 212.000
78.53776 242.000
78.55771 216.000
78.57765 244.000
78.59760 248.000
78.61755 224.000
78.63750 239.000
78.65744 240.000
78.67739 246.000
78.69734 231.000
78.71728 262.000
78.73723 292.000
78.75718 261.000
78.77712 301.000
78.79707 280.000
78.81702 268.000
78.83697 253.000
78.85691 268.000
78.87686 280.000
78.89681 321.000
78.91675 316.000
78.93670 292.000
78.95665 303.000
78.97659 338.000
78.99654 329.000
79.01649 329.000
79.03643 334.000
79.05638 290.000
79.07633 330.000
79.09628 337.000
79.11622 336.000
79.13617 330.000
79.15612 323.000
79.17606 331.000
79.19601 330.000
79.21596 284.000
79.23590 310.000
79.25585 299.000
79.27580 340.000
79.29575 344.000
79.31569 326.000
79.33564 340.000
79.35559 328.000
79.37553 324.000
79.39548 332.000
79.41543 300.000
79.43537 321.000
79.45532 313.000
79.47527 302.000
79.49521 310.000
79.51516 285.000
79.53511 284.000
79.55506 267.000
79.57500 275.000
79.59495 283.000
79.61490 247.000
79.63484 315.000
79.65479 277.000
79.67474 294.000
79.69468 247.000
79.71463 277.000
79.73458 267.000
79.75453 236.000
79.77447 258.000
79.79442 263.000
79.81437 257.000
79.83431 243.000
79.85426 265.000
79.87421 215.000
79.89415 244.000
79.91410 231.000
79.93405 262.000
79.95399 216.000
79.97394 218.000
79.99389 246.000
80.01384 261.000
80.03378 247.000
80.05373 217.000
80.07368 228.000
80.09362 232.000
80.11357 244.000
80.13352 222.000
80.15346 236.000
80.17341 246.000
80.19336 250.000
80.21331 255.000
80.23325 254.000
80.25320 241.000
80.27315 255.000
80.29309 258.000
80.31304 226.000
80.33299 241.000
80.35293 270.000
80.37288 242.000
80.39283 253.000
80.41278 262.000
80.43272 232.000
80.45267 230.000
80.47262 266.000
80.49256 245.000
80.51251 237.000
80.53246 228.000
80.55240 206.000
80.57235 230.000
80.59230 243.000
80.61224 281.000
80.63219 230.000
80.65214 218.000
80.67209 248.000
80.69203 248.000
80.71198 238.000
80.73193 264.000
80.75187 243.000
80.77182 237.000
80.79177 238.000
80.81171 224.000
80.83166 249.000
80.85161 256.000
80.87156 242.000
80.89150 251.000
80.91145 256.000
80.93140 252.000
80.95134 235.000
80.97129 209.000
80.99124 249.000
81.01118 234.000
81.03113 240.000
81.05108 241.000
81.07102 240.000
81.09097 255.000
81.11092 217.000
81.13087 262.000
81.15081 246.000
81.17076 243.000
81.19071 218.000
81.21065 218.000
81.23060 235.000
81.25055 219.000
81.27049 212.000
81.29044 245.000
81.31039 239.000
81.33034 246.000
81.35028 225.000
81.37023 242.000
81.39018 222.000
81.41012 229.000
81.43007 243.000
81.45002 257.000
81.46996 272.000
81.48991 224.000
81.50986 268.000
81.52980 234.000
81.54975 237.000
81.56970 222.000
81.58965 251.000
81.60959 254.000
81.62954 237.000
81.64949 237.000
81.66943 249.000
81.68938 227.000
81.70933 233.000
81.72927 236.000
81.74922 253.000
81.76917 241.000
81.78912 208.000
81.80906 235.000
81.82901 237.000
81.84896 241.000
81.86890 240.000
81.88885 227.000
81.90880 202.000
81.92874 232.000
81.94869 226.000
81.96864 242.000
81.98859 227.000
82.00853 240.000
82.02848 238.000
82.04843 240.000
82.06837 235.000
82.08832 241.000
82.10827 256.000
82.12821 258.000
82.14816 233.000
82.16811 222.000
82.18805 249.000
82.20800 222.000
82.22795 275.000
82.24790 253.000
82.26784 240.000
82.28779 228.000
82.30774 250.000
82.32768 283.000
82.34763 258.000
82.36758 273.000
82.38752 264.000
82.40747 264.000
82.42742 274.000
82.44737 284.000
82.46731 251.000
82.48726 245.000
82.50721 258.000
82.52715 282.000
82.54710 294.000
82.56705 285.000
82.58699 248.000
82.60694 266.000
82.62689 287.000
82.64683 302.000
82.66678 261.000
82.68673 248.000
82.70668 258.000
82.72662 269.000
82.74657 246.000
82.76652 261.000
82.78646 272.000
82.80641 253.000
82.82636 253.000
82.84630 262.000
82.86625 270.000
82.88620 263.000
82.90615 238.000
82.92609 257.000
82.94604 256.000
82.96599 255.000
82.98593 272.000
83.00588 239.000
83.02583 243.000
83.04577 244.000
83.06572 235.000
83.08567 246.000
83.10561 266.000
83.12556 270.000
83.14551 277.000
83.16546 273.000
83.18540 254.000
83.20535 270.000
83.22530 240.000
83.24524 237.000
83.26519 240.000
83.28514 235.000
83.30508 242.000
83.32503 236.000
83.34498 247.000
83.36493 228.000
83.38487 241.000
83.40482 245.000
83.42477 258.000
83.44471 224.000
83.46466 264.000
83.48461 246.000
83.50455 244.000
83.52450 238.000
83.54445 242.000
83.56440 212.000
83.58434 264.000
83.60429 263.000
83.62424 259.000
83.64418 231.000
83.66413 235.000
83.68408 237.000
83.70402 242.000
83.72397 262.000
83.74392 256.000
83.76386 230.000
83.78381 229.000
83.80376 242.000
83.82371 253.000
83.84365 226.000
83.86360 273.000
83.88355 247.000
83.90349 249.000
83.92344 232.000
83.94339 246.000
83.96333 239.000
83.98328 210.000
84.00323 257.000
84.02318 253.000
84.04312 259.000
84.06307 262.000
84.08302 207.000
84.10296 242.000
84.12291 243.000
84.14286 246.000
84.16280 233.000
84.18275 246.000
84.20270 241.000
84.22264 219.000
84.24259 234.000
84.26254 233.000
84.28249 224.000
84.30243 231.000
84.32238 231.000
84.34233 241.000
84.36227 217.000
84.38222 244.000
84.40217 282.000
84.42211 238.000
84.44206 211.000
84.46201 235.000
84.48196 236.000
84.50190 227.000
84.52185 250.000
84.54180 221.000
84.56174 230.000
84.58169 269.000
84.60164 253.000
84.62158 244.000
84.64153 230.000
84.66148 242.000
84.68142 273.000
84.70137 240.000
84.72132 233.000
84.74127 228.000
84.76121 250.000
84.78116 225.000
84.80111 225.000
84.82105 269.000
84.84100 259.000
84.86095 236.000
84.88089 237.000
84.90084 258.000
84.92079 229.000
84.94074 222.000
84.96068 254.000
84.98063 232.000
85.00058 246.000
85.02052 226.000
85.04047 239.000
85.06042 250.000
85.08036 235.000
85.10031 222.000
85.12026 247.000
85.14021 212.000
85.16015 233.000
85.18010 256.000
85.20005 222.000
85.21999 252.000
85.23994 244.000
85.25989 225.000
85.27983 255.000
85.29978 248.000
85.31973 217.000
85.33967 240.000
85.35962 238.000
85.37957 216.000
85.39952 240.000
85.41946 244.000
85.43941 223.000
85.45936 232.000
85.47930 243.000
85.49925 235.000
85.51920 226.000
85.53914 240.000
85.55909 268.000
85.57904 242.000
85.59899 228.000
85.61893 235.000
85.63888 235.000
85.65883 251.000
85.67877 241.000
85.69872 250.000
85.71867 247.000
85.73861 237.000
85.75856 224.000
85.77851 215.000
85.79845 223.000
85.81840 211.000
85.83835 225.000
85.85830 235.000
85.87824 265.000
85.89819 231.000
85.91814 237.000
85.93808 242.000
85.95803 221.000
85.97798 231.000
85.99792 233.000
86.01787 243.000
86.03782 278.000
86.05777 233.000
86.07771 255.000
86.09766 227.000
86.11761 237.000
86.13755 250.000
86.15750 248.000
86.17745 232.000
86.19739 232.000
86.21734 224.000
86.23729 241.000
86.25723 235.000
86.27718 224.000
86.29713 230.000
86.31708 245.000
86.33702 209.000
86.35697 232.000
86.37692 250.000
86.39686 254.000
86.41681 244.000
86.43676 226.000
86.45670 249.000
86.47665 233.000
86.49660 234.000
86.51655 276.000
86.53649 222.000
86.55644 222.000
86.57639 233.000
86.59633 222.000
86.61628 269.000
86.63623 253.000
86.65617 255.000
86.67612 224.000
86.69607 221.000
86.71602 250.000
86.73596 265.000
86.75591 256.000
86.77586 276.000
86.79580 242.000
86.81575 238.000
86.83570 256.000
86.85564 246.000
86.87559 236.000
86.89554 238.000
86.91548 223.000
86.93543 235.000
86.95538 219.000
86.97533 278.000
86.99527 229.000
87.01522 255.000
87.03517 262.000
87.05511 237.000
87.07506 251.000
87.09501 238.000
87.11495 282.000
87.13490 273.000
87.15485 248.000
87.17480 253.000
87.19474 267.000
87.21469 251.000
87.23464 296.000
87.25458 300.000
87.27453 302.000
87.29448 313.000
87.31442 336.000
87.33437 346.000
87.35432 302.000
87.37426 268.000
87.39421 278.000
87.41416 290.000
87.43411 282.000
87.45405 262.000
87.47400 252.000
87.49395 261.000
87.51389 258.000
87.53384 288.000
87.55379 256.000
87.57373 316.000
87.59368 281.000
87.61363 277.000
87.63358 274.000
87.65352 256.000
87.67347 273.000
87.69342 244.000
87.71336 265.000
87.73331 245.000
87.75326 252.000
87.77320 255.000
87.79315 261.000
87.81310 238.000
87.83304 238.000
87.85299 245.000
87.87294 247.000
87.89289 257.000
87.91283 250.000
87.93278 236.000
87.95273 254.000
87.97267 241.000
87.99262 214.000
88.01257 243.000
88.03251 241.000
88.05246 251.000
88.07241 235.000
88.09236 277.000
88.11230 263.000
88.13225 246.000
88.15220 248.000
88.17214 216.000
88.19209 245.000
88.21204 239.000
88.23198 249.000
88.25193 257.000
88.27188 242.000
88.29183 238.000
88.31177 216.000
88.33172 234.000
88.35167 256.000
88.37161 209.000
88.39156 224.000
88.41151 237.000
88.43145 198.000
88.45140 211.000
88.47135 219.000
88.49129 244.000
88.51124 255.000
88.53119 242.000
88.55114 213.000
88.57108 262.000
88.59103 240.000
88.61098 230.000
88.63092 230.000
88.65087 251.000
88.67082 246.000
88.69076 243.000
88.71071 238.000
88.73066 238.000
88.75061 246.000
88.77055 250.000
88.79050 246.000
88.81045 258.000
88.83039 251.000
88.85034 234.000
88.87029 253.000
88.89023 236.000
88.91018 229.000
88.93013 255.000
88.95007 241.000
88.97002 231.000
88.98997 255.000
89.00992 243.000
89.02986 254.000
89.04981 240.000
89.06976 254.000
89.08970 226.000
89.10965 227.000
89.12960 238.000
89.14954 256.000
89.16949 256.000
89.18944 245.000
89.20939 239.000
89.22933 241.000
89.24928 235.000
89.26923 249.000
89.28917 234.000
89.30912 236.000
89.32907 245.000
89.34901 239.000
89.36896 243.000
89.38891 225.000
89.40885 251.000
89.42880 242.000
89.44875 281.000
89.46870 275.000
89.48864 257.000
89.50859 269.000
89.52854 248.000
89.54848 231.000
89.56843 270.000
89.58838 257.000
89.60832 236.000
89.62827 239.000
89.64822 245.000
89.66817 238.000
89.68811 239.000
89.70806 240.000
89.72801 272.000
89.74795 260.000
89.76790 241.000
89.78785 255.000
89.80779 254.000
89.82774 226.000
89.84769 274.000
89.86764 244.000
89.88758 276.000
89.90753 259.000
89.92748 292.000
89.94742 258.000
89.96737 311.000
89.98732 263.000
90.00726 296.000
