10.00000 324.000
10.01995 319.000
10.03989 330.000
10.05984 307.000
10.07979 307.000
10.09973 326.000
10.11968 318.000
10.13963 301.000
10.15958 328.000
10.17952 320.000
10.19947 292.000
10.21942 305.000
10.23936 278.000
10.25931 322.000
10.27926 312.000
10.29920 291.000
10.31915 294.000
10.33910 340.000
10.35905 290.000
10.37899 315.000
10.39894 316.000
10.41889 347.000
10.43883 297.000
10.45878 337.000
10.47873 312.000
10.49867 309.000
10.51862 292.000
10.53857 298.000
10.55851 331.000
10.57846 341.000
10.59841 322.000
10.61836 273.000
10.63830 300.000
10.65825 291.000
10.67820 298.000
10.69814 332.000
10.71809 283.000
10.73804 279.000
10.75798 337.000
10.77793 321.000
10.79788 311.000
10.81783 317.000
10.83777 322.000
10.85772 309.000
10.87767 292.000
10.89761 320.000
10.91756 302.000
10.93751 333.000
10.95745 333.000
10.97740 299.000
10.99735 310.000
11.01730 324.000
11.03724 306.000
11.05719 300.000
11.07714 323.000
11.09708 282.000
11.11703 339.000
11.13698 307.000
11.15692 324.000
11.17687 295.000
11.19682 304.000
11.21676 289.000
11.23671 310.000
11.25666 334.000
11.27661 315.000
11.29655 304.000
11.31650 315.000
11.33645 284.000
11.35639 305.000
11.37634 321.000
11.39629 298.000
11.41623 296.000
11.43618 317.000
11.45613 317.000
11.47608 327.000
11.49602 303.000
11.51597 314.000
11.53592 327.000
11.55586 312.000
11.57581 325.000
11.59576 289.000
11.61570 330.000
11.63565 330.000
11.65560 320.000
11.67554 293.000
11.69549 340.000
11.71544 291.000
11.73539 324.000
11.75533 312.000
11.77528 332.000
11.79523 324.000
11.81517 305.000
11.83512 311.000
11.85507 316.000
11.87501 310.000
11.89496 299.000
11.91491 313.000
11.93486 294.000
11.95480 337.000
11.97475 337.000
11.99470 296.000
12.01464 318.000
12.03459 325.000
12.05454 340.000
12.07448 294.000
12.09443 352.000
12.11438 316.000
12.13432 339.000
12.15427 332.000
12.17422 291.000
12.19417 329.000
12.21411 332.000
12.23406 336.000
12.25401 321.000
12.27395 285.000
12.29390 291.000
12.31385 322.000
12.33379 331.000
12.35374 334.000
12.37369 314.000
12.39364 325.000
12.41358 300.000
12.43353 313.000
12.45348 287.000
12.47342 309.000
12.49337 333.000
12.51332 319.000
12.53326 344.000
12.55321 311.000
12.57316 296.000
12.59311 304.000
12.61305 283.000
12.63300 316.000
12.65295 328.000
12.67289 307.000
12.69284 326.000
12.71279 326.000
12.73273 308.000
12.75268 317.000
12.77263 324.000
12.79257 318.000
12.81252 339.000
12.83247 288.000
12.85242 350.000
12.87236 321.000
12.89231 311.000
12.91226 316.000
12.93220 306.000
12.95215 319.000
12.97210 337.000
12.99204 301.000
13.01199 314.000
13.03194 327.000
13.05189 313.000
13.07183 327.000
13.09178 334.000
13.11173 304.000
13.13167 312.000
13.15162 322.000
13.17157 328.000
13.19151 306.000
13.21146 315.000
13.23141 336.000
13.25135 314.000
13.27130 328.000
13.29125 333.000
13.31120 318.000
13.33114 325.000
13.35109 310.000
13.37104 306.000
13.39098 319.000
13.41093 338.000
13.43088 315.000
13.45082 266.000
13.47077 351.000
13.49072 338.000
13.51067 333.000
13.53061 320.000
13.55056 345.000
13.57051 311.000
13.59045 316.000
13.61040 311.000
13.63035 310.000
13.65029 353.000
13.67024 285.000
13.69019 324.000
13.71013 323.000
13.73008 349.000
13.75003 315.000
13.76998 299.000
13.78992 366.000
13.80987 333.000
13.82982 346.000
13.84976 341.000
13.86971 342.000
13.88966 344.000
13.90960 309.000
13.92955 311.000
13.94950 331.000
13.96945 308.000
13.98939 346.000
14.00934 346.000
14.02929 330.000
14.04923 302.000
14.06918 333.000
14.08913 295.000
14.10907 332.000
14.12902 302.000
14.14897 320.000
14.16892 296.000
14.18886 358.000
14.20881 299.000
14.22876 314.000
14.24870 304.000
14.26865 320.000
14.28860 318.000
14.30854 316.000
14.32849 366.000
14.34844 331.000
14.36838 320.000
14.38833 288.000
14.40828 292.000
14.42823 342.000
14.44817 319.000
14.46812 318.000
14.48807 316.000
14.50801 363.000
14.52796 317.000
14.54791 308.000
14.56785 344.000
14.58780 294.000
14.60775 338.000
14.62770 333.000
14.64764 325.000
14.66759 317.000
14.68754 348.000
14.70748 326.000
14.72743 331.000
14.74738 307.000
14.76732 304.000
14.78727 333.000
14.80722 306.000
14.82716 338.000
14.84711 287.000
14.86706 329.000
14.88701 318.000
14.90695 353.000
14.92690 339.000
14.94685 320.000
14.96679 304.000
14.98674 324.000
15.00669 348.000
15.02663 340.000
15.04658 326.000
15.06653 313.000
15.08648 302.000
15.10642 342.000
15.12637 331.000
15.14632 345.000
15.16626 327.000
15.18621 336.000
15.20616 370.000
15.22610 322.000
15.24605 354.000
15.26600 325.000
15.28594 331.000
15.30589 365.000
15.32584 348.000
15.34579 370.000
15.36573 355.000
15.38568 374.000
15.40563 352.000
15.42557 385.000
15.44552 340.000
15.46547 373.000
15.48541 384.000
15.50536 380.000
15.52531 395.000
15.54526 427.000
15.56520 425.000
15.58515 420.000
15.60510 498.000
15.62504 480.000
15.64499 577.000
15.66494 594.000
15.68488 782.000
15.70483 1013.000
15.72478 1386.000
15.74472 1972.000
15.76467 3054.000
15.78462 4293.000
15.80457 5601.000
15.82451 5756.000
15.84446 5029.000
15.86441 3393.000
15.88435 2077.000
15.90430 1169.000
15.92425 654.000
15.94419 599.000
15.96414 490.000
15.98409 449.000
16.00404 445.000
16.02398 419.000
16.04393 371.000
16.06388 392.000
16.08382 381.000
16.10377 407.000
16.12372 356.000
16.14366 373.000
16.16361 377.000
16.18356 340.000
16.20351 371.000
16.22345 340.000
16.24340 332.000
16.26335 358.000
16.28329 339.000
16.30324 354.000
16.32319 340.000
16.34313 343.000
16.36308 367.000
16.38303 377.000
16.40297 325.000
16.42292 328.000
16.44287 322.000
16.46282 310.000
16.48276 345.000
16.50271 363.000
16.52266 348.000
16.54260 308.000
16.56255 328.000
16.58250 340.000
16.60244 349.000
16.62239 327.000
16.64234 316.000
16.66229 295.000
16.68223 323.000
16.70218 380.000
16.72213 316.000
16.74207 344.000
16.76202 350.000
16.78197 327.000
16.80191 349.000
16.82186 338.000
16.84181 312.000
16.86175 296.000
16.88170 324.000
16.90165 340.000
16.92160 326.000
16.94154 368.000
16.96149 329.000
16.98144 301.000
17.00138 349.000
17.02133 297.000
17.04128 298.000
17.06122 339.000
17.08117 315.000
17.10112 328.000
17.12107 315.000
17.14101 340.000
17.16096 323.000
17.18091 323.000
17.20085 338.000
17.22080 342.000
17.24075 327.000
17.26069 348.000
17.28064 309.000
17.30059 324.000
17.32053 305.000
17.34048 288.000
17.36043 346.000
17.38038 332.000
17.40032 311.000
17.42027 316.000
17.44022 317.000
17.46016 299.000
17.48011 312.000
17.50006 293.000
17.52000 315.000
17.53995 334.000
17.55990 339.000
17.57985 327.000
17.59979 324.000
17.61974 325.000
17.63969 303.000
17.65963 296.000
17.67958 322.000
17.69953 327.000
17.71947 331.000
17.73942 301.000
17.75937 349.000
17.77932 292.000
17.79926 339.000
17.81921 344.000
17.83916 309.000
17.85910 318.000
17.87905 331.000
17.89900 336.000
17.91894 316.000
17.93889 320.000
17.95884 325.000
17.97878 326.000
17.99873 297.000
18.01868 302.000
18.03863 321.000
18.05857 295.000
18.07852 335.000
18.09847 336.000
18.11841 321.000
18.13836 322.000
18.15831 335.000
18.17825 346.000
18.19820 347.000
18.21815 318.000
18.23810 307.000
18.25804 370.000
18.27799 323.000
18.29794 350.000
18.31788 327.000
18.33783 347.000
18.35778 344.000
18.37772 322.000
18.39767 324.000
18.41762 318.000
18.43756 337.000
18.45751 337.000
18.47746 355.000
18.49741 360.000
18.51735 382.000
18.53730 420.000
18.55725 368.000
18.57719 388.000
18.59714 367.000
18.61709 326.000
18.63703 338.000
18.65698 323.000
18.67693 334.000
18.69688 340.000
18.71682 338.000
18.73677 310.000
18.75672 362.000
18.77666 334.000
18.79661 314.000
18.81656 319.000
18.83650 304.000
18.85645 325.000
18.87640 308.000
18.89634 363.000
18.91629 316.000
18.93624 331.000
18.95619 295.000
18.97613 336.000
18.99608 295.000
19.01603 314.000
19.03597 320.000
19.05592 308.000
19.07587 344.000
19.09581 317.000
19.11576 339.000
19.13571 299.000
19.15566 344.000
19.17560 318.000
19.19555 318.000
19.21550 320.000
19.23544 360.000
19.25539 333.000
19.27534 337.000
19.29528 331.000
19.31523 344.000
19.33518 351.000
19.35513 339.000
19.37507 306.000
19.39502 340.000
19.41497 321.000
19.43491 319.000
19.45486 342.000
19.47481 341.000
19.49475 340.000
19.51470 317.000
19.53465 385.000
19.55459 336.000
19.57454 361.000
19.59449 340.000
19.61444 305.000
19.63438 333.000
19.65433 328.000
19.67428 373.000
19.69422 314.000
19.71417 341.000
19.73412 310.000
19.75406 338.000
19.77401 328.000
19.79396 308.000
19.81391 345.000
19.83385 326.000
19.85380 302.000
19.87375 318.000
19.89369 365.000
19.91364 303.000
19.93359 389.000
19.95353 329.000
19.97348 340.000
19.99343 326.000
20.01337 376.000
20.03332 331.000
20.05327 322.000
20.07322 357.000
20.09316 323.000
20.11311 328.000
20.13306 338.000
20.15300 315.000
20.17295 328.000
20.19290 311.000
20.21284 352.000
20.23279 319.000
20.25274 336.000
20.27269 331.000
20.29263 319.000
20.31258 331.000
20.33253 314.000
20.35247 335.000
20.37242 301.000
20.39237 323.000
20.41231 317.000
20.43226 337.000
20.45221 346.000
20.47215 309.000
20.49210 361.000
20.51205 337.000
20.53200 331.000
20.55194 341.000
20.57189 317.000
20.59184 336.000
20.61178 334.000
20.63173 329.000
20.65168 325.000
20.67162 342.000
20.69157 314.000
20.71152 366.000
20.73147 336.000
20.75141 349.000
20.77136 322.000
20.79131 358.000
20.81125 333.000
20.83120 334.000
20.85115 349.000
20.87109 305.000
20.89104 330.000
20.91099 320.000
20.93094 340.000
20.95088 368.000
20.97083 323.000
20.99078 352.000
21.01072 360.000
21.03067 317.000
21.05062 356.000
21.07056 351.000
21.09051 369.000
21.11046 370.000
21.13040 367.000
21.15035 380.000
21.17030 379.000
21.19025 368.000
21.21019 349.000
21.23014 372.000
21.25009 345.000
21.27003 340.000
21.28998 374.000
21.30993 332.000
21.32987 325.000
21.34982 326.000
21.36977 327.000
21.38972 344.000
21.40966 358.000
21.42961 347.000
21.44956 342.000
21.46950 343.000
21.48945 328.000
21.50940 319.000
21.52934 331.000
21.54929 336.000
21.56924 339.000
21.58918 369.000
21.60913 330.000
21.62908 321.000
21.64903 334.000
21.66897 321.000
21.68892 330.000
21.70887 327.000
21.72881 309.000
21.74876 358.000
21.76871 299.000
21.78865 345.000
21.80860 334.000
21.82855 366.000
21.84850 316.000
21.86844 336.000
21.88839 298.000
21.90834 333.000
21.92828 334.000
21.94823 350.000
21.96818 321.000
21.98812 345.000
22.00807 360.000
22.02802 362.000
22.04796 349.000
22.06791 367.000
22.08786 338.000
22.10781 336.000
22.12775 334.000
22.14770 347.000
22.16765 343.000
22.18759 354.000
22.20754 361.000
22.22749 356.000
22.24743 329.000
22.26738 324.000
22.28733 403.000
22.30728 308.000
22.32722 330.000
22.34717 323.000
22.36712 340.000
22.38706 309.000
22.40701 340.000
22.42696 356.000
22.44690 342.000
22.46685 326.000
22.48680 334.000
22.50675 364.000
22.52669 321.000
22.54664 338.000
22.56659 365.000
22.58653 329.000
22.60648 322.000
22.62643 349.000
22.64637 331.000
22.66632 387.000
22.68627 311.000
22.70621 345.000
22.72616 326.000
22.74611 320.000
22.76606 306.000
22.78600 337.000
22.80595 358.000
22.82590 322.000
22.84584 370.000
22.86579 349.000
22.88574 341.000
22.90568 341.000
22.92563 331.000
22.94558 366.000
22.96553 330.000
22.98547 328.000
23.00542 357.000
23.02537 353.000
23.04531 365.000
23.06526 337.000
23.08521 353.000
23.10515 294.000
23.12510 332.000
23.14505 314.000
23.16499 365.000
23.18494 323.000
23.20489 337.000
23.22484 381.000
23.24478 347.000
23.26473 323.000
23.28468 339.000
23.30462 361.000
23.32457 329.000
23.34452 333.000
23.36446 324.000
23.38441 336.000
23.40436 341.000
23.42431 336.000
23.44425 316.000
23.46420 367.000
23.48415 320.000
23.50409 332.000
23.52404 325.000
23.54399 320.000
23.56393 372.000
23.58388 345.000
23.60383 350.000
23.62377 320.000
23.64372 347.000
23.66367 324.000
23.68362 356.000
23.70356 325.000
23.72351 323.000
23.74346 336.000
23.76340 327.000
23.78335 333.000
23.80330 355.000
23.82324 355.000
23.84319 356.000
23.86314 319.000
23.88309 332.000
23.90303 384.000
23.92298 384.000
23.94293 330.000
23.96287 364.000
23.98282 308.000
24.00277 357.000
24.02271 338.000
24.04266 316.000
24.06261 342.000
24.08256 352.000
24.10250 374.000
24.12245 359.000
24.14240 315.000
24.16234 363.000
24.18229 324.000
24.20224 351.000
24.22218 305.000
24.24213 346.000
24.26208 303.000
24.28202 344.000
24.30197 328.000
24.32192 335.000
24.34187 336.000
24.36181 306.000
24.38176 346.000
24.40171 350.000
24.42165 321.000
24.44160 350.000
24.46155 364.000
24.48149 376.000
24.50144 346.000
24.52139 310.000
24.54134 346.000
24.56128 351.000
24.58123 381.000
24.60118 379.000
24.62112 372.000
24.64107 324.000
24.66102 343.000
24.68096 351.000
24.70091 334.000
24.72086 308.000
24.74080 327.000
24.76075 330.000
24.78070 348.000
24.80065 366.000
24.82059 348.000
24.84054 332.000
24.86049 361.000
24.88043 313.000
24.90038 326.000
24.92033 356.000
24.94027 319.000
24.96022 340.000
24.98017 352.000
25.00012 341.000
25.02006 310.000
25.04001 360.000
25.05996 369.000
25.07990 329.000
25.09985 353.000
25.11980 346.000
25.13974 332.000
25.15969 329.000
25.17964 342.000
25.19958 326.000
25.21953 390.000
25.23948 340.000
25.25943 329.000
25.27937 339.000
25.29932 327.000
25.31927 305.000
25.33921 358.000
25.35916 336.000
25.37911 332.000
25.39905 359.000
25.41900 361.000
25.43895 341.000
25.45890 345.000
25.47884 353.000
25.49879 352.000
25.51874 346.000
25.53868 329.000
25.55863 315.000
25.57858 348.000
25.59852 356.000
25.61847 355.000
25.63842 383.000
25.65837 378.000
25.67831 369.000
25.69826 330.000
25.71821 335.000
25.73815 363.000
25.75810 341.000
25.77805 322.000
25.79799 366.000
25.81794 349.000
25.83789 361.000
25.85783 344.000
25.87778 317.000
25.89773 342.000
25.91768 351.000
25.93762 387.000
25.95757 349.000
25.97752 357.000
25.99746 386.000
26.01741 336.000
26.03736 364.000
26.05730 376.000
26.07725 359.000
26.09720 326.000
26.11715 324.000
26.13709 363.000
26.15704 345.000
26.17699 351.000
26.19693 390.000
26.21688 396.000
26.23683 331.000
26.25677 329.000
26.27672 361.000
26.29667 354.000
26.31661 352.000
26.33656 366.000
26.35651 363.000
26.37646 329.000
26.39640 322.000
26.41635 366.000
26.43630 340.000
26.45624 370.000
26.47619 337.000
26.49614 355.000
26.51608 378.000
26.53603 368.000
26.55598 372.000
26.57593 341.000
26.59587 368.000
26.61582 384.000
26.63577 370.000
26.65571 360.000
26.67566 373.000
26.69561 362.000
26.71555 373.000
26.73550 372.000
26.75545 364.000
26.77539 377.000
26.79534 351.000
26.81529 337.000
26.83524 385.000
26.85518 356.000
26.87513 342.000
26.89508 346.000
26.91502 382.000
26.93497 359.000
26.95492 362.000
26.97486 363.000
26.99481 348.000
27.01476 350.000
27.03471 328.000
27.05465 355.000
27.07460 367.000
27.09455 338.000
27.11449 371.000
27.13444 365.000
27.15439 372.000
27.17433 360.000
27.19428 374.000
27.21423 351.000
27.23417 382.000
27.25412 380.000
27.27407 341.000
27.29402 353.000
27.31396 357.000
27.33391 373.000
27.35386 331.000
27.37380 367.000
27.39375 320.000
27.41370 374.000
27.43364 372.000
27.45359 341.000
27.47354 379.000
27.49349 345.000
27.51343 335.000
27.53338 364.000
27.55333 349.000
27.57327 341.000
27.59322 317.000
27.61317 363.000
27.63311 360.000
27.65306 361.000
27.67301 327.000
27.69296 356.000
27.71290 384.000
27.73285 359.000
27.75280 336.000
27.77274 350.000
27.79269 364.000
27.81264 347.000
27.83258 363.000
27.85253 361.000
27.87248 375.000
27.89242 368.000
27.91237 360.000
27.93232 353.000
27.95227 358.000
27.97221 352.000
27.99216 342.000
28.01211 356.000
28.03205 382.000
28.05200 362.000
28.07195 354.000
28.09189 353.000
28.11184 381.000
28.13179 355.000
28.15174 361.000
28.17168 382.000
28.19163 367.000
28.21158 390.000
28.23152 395.000
28.25147 360.000
28.27142 352.000
28.29136 388.000
28.31131 360.000
28.33126 375.000
28.35120 401.000
28.37115 362.000
28.39110 404.000
28.41105 416.000
28.43099 376.000
28.45094 358.000
28.47089 372.000
28.49083 336.000
28.51078 380.000
28.53073 366.000
28.55067 332.000
28.57062 359.000
28.59057 365.000
28.61052 364.000
28.63046 358.000
28.65041 327.000
28.67036 376.000
28.69030 397.000
28.71025 373.000
28.73020 362.000
28.75014 391.000
28.77009 379.000
28.79004 369.000
28.80998 371.000
28.82993 384.000
28.84988 371.000
28.86983 370.000
28.88977 367.000
28.90972 339.000
28.92967 371.000
28.94961 374.000
28.96956 343.000
28.98951 355.000
29.00945 366.000
29.02940 353.000
29.04935 327.000
29.06930 341.000
29.08924 341.000
29.10919 363.000
29.12914 372.000
29.14908 353.000
29.16903 391.000
29.18898 339.000
29.20892 369.000
29.22887 357.000
29.24882 380.000
29.26877 387.000
29.28871 377.000
29.30866 345.000
29.32861 392.000
29.34855 379.000
29.36850 387.000
29.38845 401.000
29.40839 357.000
29.42834 356.000
29.44829 402.000
29.46823 374.000
29.48818 371.000
29.50813 372.000
29.52808 371.000
29.54802 360.000
29.56797 364.000
29.58792 350.000
29.60786 350.000
29.62781 356.000
29.64776 382.000
29.66770 371.000
29.68765 405.000
29.70760 368.000
29.72755 372.000
29.74749 385.000
29.76744 341.000
29.78739 408.000
29.80733 383.000
29.82728 349.000
29.84723 370.000
29.86717 379.000
29.88712 357.000
29.90707 341.000
29.92701 378.000
29.94696 370.000
29.96691 364.000
29.98686 373.000
30.00680 381.000
30.02675 351.000
30.04670 384.000
30.06664 401.000
30.08659 390.000
30.10654 400.000
30.12648 340.000
30.14643 362.000
30.16638 332.000
30.18633 349.000
30.20627 381.000
30.22622 366.000
30.24617 422.000
30.26611 386.000
30.28606 371.000
30.30601 434.000
30.32595 353.000
30.34590 403.000
30.36585 397.000
30.38579 388.000
30.40574 447.000
30.42569 440.000
30.44564 482.000
30.46558 465.000
30.48553 471.000
30.50548 479.000
30.52542 506.000
30.54537 516.000
30.56532 452.000
30.58526 463.000
30.60521 446.000
30.62516 434.000
30.64511 437.000
30.66505 416.000
30.68500 391.000
30.70495 391.000
30.72489 356.000
30.74484 414.000
30.76479 366.000
30.78473 389.000
30.80468 380.000
30.82463 342.000
30.84458 329.000
30.86452 373.000
30.88447 376.000
30.90442 363.000
30.92436 390.000
30.94431 356.000
30.96426 402.000
30.98420 389.000
31.00415 436.000
31.02410 345.000
31.04404 427.000
31.06399 371.000
31.08394 348.000
31.10389 365.000
31.12383 364.000
31.14378 378.000
31.16373 368.000
31.18367 364.000
31.20362 377.000
31.22357 395.000
31.24351 354.000
31.26346 380.000
31.28341 332.000
31.30336 368.000
31.32330 383.000
31.34325 402.000
31.36320 413.000
31.38314 376.000
31.40309 357.000
31.42304 374.000
31.44298 377.000
31.46293 366.000
31.48288 401.000
31.50282 386.000
31.52277 395.000
31.54272 388.000
31.56267 376.000
31.58261 373.000
31.60256 383.000
31.62251 361.000
31.64245 400.000
31.66240 405.000
31.68235 388.000
31.70229 397.000
31.72224 443.000
31.74219 377.000
31.76214 408.000
31.78208 422.000
31.80203 439.000
31.82198 470.000
31.84192 495.000
31.86187 490.000
31.88182 547.000
31.90176 642.000
31.92171 700.000
31.94166 791.000
31.96160 770.000
31.98155 751.000
32.00150 759.000
32.02145 688.000
32.04139 577.000
32.06134 544.000
32.08129 531.000
32.10123 480.000
32.12118 450.000
32.14113 415.000
32.16107 383.000
32.18102 398.000
32.20097 374.000
32.22092 377.000
32.24086 394.000
32.26081 370.000
32.28076 431.000
32.30070 384.000
32.32065 395.000
32.34060 399.000
32.36054 372.000
32.38049 379.000
32.40044 407.000
32.42039 363.000
32.44033 398.000
32.46028 404.000
32.48023 434.000
32.50017 404.000
32.52012 461.000
32.54007 414.000
32.56001 385.000
32.57996 438.000
32.59991 385.000
32.61985 375.000
32.63980 378.000
32.65975 383.000
32.67970 393.000
32.69964 393.000
32.71959 390.000
32.73954 375.000
32.75948 390.000
32.77943 341.000
32.79938 349.000
32.81932 413.000
32.83927 395.000
32.85922 394.000
32.87917 351.000
32.89911 379.000
32.91906 363.000
32.93901 389.000
32.95895 325.000
32.97890 380.000
32.99885 407.000
33.01879 348.000
33.03874 406.000
33.05869 371.000
33.07863 359.000
33.09858 361.000
33.11853 358.000
33.13848 357.000
33.15842 385.000
33.17837 325.000
33.19832 366.000
33.21826 367.000
33.23821 373.000
33.25816 370.000
33.27810 372.000
33.29805 392.000
33.31800 342.000
33.33795 359.000
33.35789 382.000
33.37784 348.000
33.39779 352.000
33.41773 339.000
33.43768 361.000
33.45763 368.000
33.47757 383.000
33.49752 374.000
33.51747 395.000
33.53741 342.000
33.55736 329.000
33.57731 363.000
33.59726 372.000
33.61720 374.000
33.63715 367.000
33.65710 380.000
33.67704 337.000
33.69699 390.000
33.71694 364.000
33.73688 404.000
33.75683 353.000
33.77678 382.000
33.79673 376.000
33.81667 391.000
33.83662 372.000
33.85657 376.000
33.87651 362.000
33.89646 434.000
33.91641 397.000
33.93635 352.000
33.95630 349.000
33.97625 330.000
33.99620 360.000
34.01614 372.000
34.03609 369.000
34.05604 354.000
34.07598 395.000
34.09593 359.000
34.11588 347.000
34.13582 388.000
34.15577 394.000
34.17572 368.000
34.19566 381.000
34.21561 381.000
34.23556 365.000
34.25551 409.000
34.27545 401.000
34.29540 368.000
34.31535 364.000
34.33529 317.000
34.35524 367.000
34.37519 371.000
34.39513 365.000
34.41508 367.000
34.43503 329.000
34.45498 336.000
34.47492 366.000
34.49487 369.000
34.51482 393.000
34.53476 358.000
34.55471 373.000
34.57466 371.000
34.59460 382.000
34.61455 405.000
34.63450 381.000
34.65444 337.000
34.67439 385.000
34.69434 381.000
34.71429 388.000
34.73423 375.000
34.75418 401.000
34.77413 377.000
34.79407 372.000
34.81402 414.000
34.83397 394.000
34.85391 418.000
34.87386 376.000
34.89381 405.000
34.91376 391.000
34.93370 395.000
34.95365 428.000
34.97360 388.000
34.99354 370.000
35.01349 429.000
35.03344 388.000
35.05338 423.000
35.07333 385.000
35.09328 378.000
35.11322 405.000
35.13317 394.000
35.15312 403.000
35.17307 424.000
35.19301 410.000
35.21296 445.000
35.23291 421.000
35.25285 454.000
35.27280 475.000
35.29275 465.000
35.31269 522.000
35.33264 514.000
35.35259 555.000
35.37254 588.000
35.39248 611.000
35.41243 652.000
35.43238 641.000
35.45232 717.000
35.47227 747.000
35.49222 730.000
35.51216 821.000
35.53211 808.000
35.55206 827.000
35.57201 859.000
35.59195 844.000
35.61190 789.000
35.63185 792.000
35.65179 807.000
35.67174 775.000
35.69169 762.000
35.71163 775.000
35.73158 728.000
35.75153 696.000
35.77147 769.000
35.79142 741.000
35.81137 817.000
35.83132 846.000
35.85126 886.000
35.87121 1002.000
35.89116 1126.000
35.91110 1369.000
35.93105 1425.000
35.95100 1390.000
35.97094 1207.000
35.99089 1169.000
36.01084 1046.000
36.03079 909.000
36.05073 874.000
36.07068 750.000
36.09063 576.000
36.11057 548.000
36.13052 502.000
36.15047 511.000
36.17041 494.000
36.19036 484.000
36.21031 474.000
36.23025 452.000
36.25020 435.000
36.27015 472.000
36.29010 474.000
36.31004 403.000
36.32999 483.000
36.34994 451.000
36.36988 468.000
36.38983 455.000
36.40978 424.000
36.42972 440.000
36.44967 470.000
36.46962 456.000
36.48957 456.000
36.50951 426.000
36.52946 475.000
36.54941 450.000
36.56935 468.000
36.58930 467.000
36.60925 499.000
36.62919 441.000
36.64914 489.000
36.66909 503.000
36.68903 477.000
36.70898 531.000
36.72893 535.000
36.74888 545.000
36.76882 530.000
36.78877 536.000
36.80872 610.000
36.82866 604.000
36.84861 666.000
36.86856 705.000
36.88850 700.000
36.90845 787.000
36.92840 846.000
36.94835 873.000
36.96829 1039.000
36.98824 1137.000
37.00819 1441.000
37.02813 1848.000
37.04808 2608.000
37.06803 3660.000
37.08797 5074.000
37.10792 5933.000
37.12787 5966.000
37.14781 5556.000
37.16776 4964.000
37.18771 4800.000
37.20766 4480.000
37.22760 3878.000
37.24755 3034.000
37.26750 2405.000
37.28744 1761.000
37.30739 1324.000
37.32734 1085.000
37.34728 840.000
37.36723 770.000
37.38718 650.000
37.40713 620.000
37.42707 580.000
37.44702 535.000
37.46697 591.000
37.48691 530.000
37.50686 507.000
37.52681 538.000
37.54675 485.000
37.56670 496.000
37.58665 530.000
37.60660 499.000
37.62654 515.000
37.64649 462.000
37.66644 443.000
37.68638 438.000
37.70633 414.000
37.72628 427.000
37.74622 423.000
37.76617 404.000
37.78612 469.000
37.80606 441.000
37.82601 419.000
37.84596 435.000
37.86591 396.000
37.88585 374.000
37.90580 357.000
37.92575 414.000
37.94569 432.000
37.96564 424.000
37.98559 416.000
38.00553 400.000
38.02548 415.000
38.04543 396.000
38.06538 398.000
38.08532 436.000
38.10527 427.000
38.12522 407.000
38.14516 415.000
38.16511 391.000
38.18506 404.000
38.20500 461.000
38.22495 444.000
38.24490 415.000
38.26484 435.000
38.28479 440.000
38.30474 464.000
38.32469 403.000
38.34463 480.000
38.36458 462.000
38.38453 477.000
38.40447 476.000
38.42442 497.000
38.44437 498.000
38.46431 553.000
38.48426 552.000
38.50421 538.000
38.52416 575.000
38.54410 561.000
38.56405 616.000
38.58400 601.000
38.60394 703.000
38.62389 690.000
38.64384 742.000
38.66378 760.000
38.68373 789.000
38.70368 722.000
38.72362 771.000
38.74357 770.000
38.76352 789.000
38.78347 754.000
38.80341 775.000
38.82336 781.000
38.84331 746.000
38.86325 765.000
38.88320 721.000
38.90315 725.000
38.92309 719.000
38.94304 642.000
38.96299 639.000
38.98294 630.000
39.00288 584.000
39.02283 605.000
39.04278 559.000
39.06272 554.000
39.08267 542.000
39.10262 526.000
39.12256 506.000
39.14251 526.000
39.16246 518.000
39.18241 548.000
39.20235 487.000
39.22230 464.000
39.24225 480.000
39.26219 462.000
39.28214 525.000
39.30209 501.000
39.32203 546.000
39.34198 557.000
39.36193 634.000
39.38187 681.000
39.40182 797.000
39.42177 917.000
39.44172 1152.000
39.46166 1429.000
39.48161 1525.000
39.50156 1517.000
39.52150 1296.000
39.54145 1090.000
39.56140 1126.000
39.58134 1093.000
39.60129 1000.000
39.62124 847.000
39.64119 664.000
39.66113 588.000
39.68108 563.000
39.70103 498.000
39.72097 495.000
39.74092 448.000
39.76087 412.000
39.78081 432.000
39.80076 425.000
39.82071 422.000
39.84065 384.000
39.86060 426.000
39.88055 400.000
39.90050 405.000
39.92044 376.000
39.94039 410.000
39.96034 406.000
39.98028 393.000
40.00023 405.000
40.02018 405.000
40.04012 398.000
40.06007 383.000
40.08002 356.000
40.09997 400.000
40.11991 385.000
40.13986 395.000
40.15981 423.000
40.17975 366.000
40.19970 403.000
40.21965 344.000
40.23959 377.000
40.25954 366.000
40.27949 399.000
40.29943 387.000
40.31938 346.000
40.33933 360.000
40.35928 366.000
40.37922 381.000
40.39917 347.000
40.41912 381.000
40.43906 388.000
40.45901 349.000
40.47896 370.000
40.49890 398.000
40.51885 393.000
40.53880 413.000
40.55875 367.000
40.57869 389.000
40.59864 383.000
40.61859 335.000
40.63853 383.000
40.65848 394.000
40.67843 394.000
40.69837 345.000
40.71832 345.000
40.73827 368.000
40.75822 381.000
40.77816 389.000
40.79811 389.000
40.81806 342.000
40.83800 378.000
40.85795 368.000
40.87790 355.000
40.89784 355.000
40.91779 368.000
40.93774 392.000
40.95768 369.000
40.97763 340.000
40.99758 346.000
41.01753 383.000
41.03747 338.000
41.05742 382.000
41.07737 378.000
41.09731 380.000
41.11726 374.000
41.13721 386.000
41.15715 364.000
41.17710 368.000
41.19705 392.000
41.21700 389.000
41.23694 379.000
41.25689 383.000
41.27684 366.000
41.29678 359.000
41.31673 348.000
41.33668 389.000
41.35662 385.000
41.37657 352.000
41.39652 341.000
41.41646 344.000
41.43641 394.000
41.45636 375.000
41.47631 387.000
41.49625 406.000
41.51620 370.000
41.53615 409.000
41.55609 373.000
41.57604 400.000
41.59599 394.000
41.61593 371.000
41.63588 379.000
41.65583 386.000
41.67578 352.000
41.69572 343.000
41.71567 380.000
41.73562 399.000
41.75556 373.000
41.77551 360.000
41.79546 383.000
41.81540 376.000
41.83535 377.000
41.85530 410.000
41.87524 382.000
41.89519 365.000
41.91514 388.000
41.93509 395.000
41.95503 422.000
41.97498 420.000
41.99493 382.000
42.01487 415.000
42.03482 369.000
42.05477 369.000
42.07471 401.000
42.09466 398.000
42.11461 402.000
42.13456 397.000
42.15450 457.000
42.17445 398.000
42.19440 434.000
42.21434 412.000
42.23429 410.000
42.25424 397.000
42.27418 385.000
42.29413 444.000
42.31408 431.000
42.33403 411.000
42.35397 441.000
42.37392 413.000
42.39387 438.000
42.41381 469.000
42.43376 440.000
42.45371 452.000
42.47365 457.000
42.49360 451.000
42.51355 456.000
42.53349 461.000
42.55344 545.000
42.57339 468.000
42.59334 541.000
42.61328 509.000
42.63323 497.000
42.65318 528.000
42.67312 518.000
42.69307 558.000
42.71302 610.000
42.73296 651.000
42.75291 642.000
42.77286 679.000
42.79281 770.000
42.81275 784.000
42.83270 889.000
42.85265 934.000
42.87259 1063.000
42.89254 1178.000
42.91249 1296.000
42.93243 1587.000
42.95238 1845.000
42.97233 2170.000
42.99227 2428.000
43.01222 2778.000
43.03217 3189.000
43.05212 3701.000
43.07206 4161.000
43.09201 4696.000
43.11196 5259.000
43.13190 5669.000
43.15185 5737.000
43.17180 5936.000
43.19174 5520.000
43.21169 5305.000
43.23164 4803.000
43.25159 4630.000
43.27153 4167.000
43.29148 3729.000
43.31143 3327.000
43.33137 2889.000
43.35132 2427.000
43.37127 2070.000
43.39121 1688.000
43.41116 1521.000
43.43111 1375.000
43.45105 1149.000
43.47100 1130.000
43.49095 1074.000
43.51090 961.000
43.53084 982.000
43.55079 1045.000
43.57074 1043.000
43.59068 1018.000
43.61063 927.000
43.63058 852.000
43.65052 799.000
43.67047 779.000
43.69042 767.000
43.71037 737.000
43.73031 606.000
43.75026 570.000
43.77021 554.000
43.79015 545.000
43.81010 502.000
43.83005 530.000
43.84999 493.000
43.86994 418.000
43.88989 439.000
43.90984 488.000
43.92978 417.000
43.94973 442.000
43.96968 458.000
43.98962 396.000
44.00957 404.000
44.02952 429.000
44.04946 404.000
44.06941 387.000
44.08936 418.000
44.10930 430.000
44.12925 438.000
44.14920 408.000
44.16915 419.000
44.18909 417.000
44.20904 422.000
44.22899 456.000
44.24893 388.000
44.26888 389.000
44.28883 392.000
44.30877 381.000
44.32872 407.000
44.34867 387.000
44.36862 373.000
44.38856 372.000
44.40851 386.000
44.42846 398.000
44.44840 375.000
44.46835 383.000
44.48830 423.000
44.50824 372.000
44.52819 379.000
44.54814 379.000
44.56808 385.000
44.58803 369.000
44.60798 362.000
44.62793 394.000
44.64787 430.000
44.66782 386.000
44.68777 373.000
44.70771 392.000
44.72766 384.000
44.74761 417.000
44.76755 412.000
44.78750 393.000
44.80745 381.000
44.82740 366.000
44.84734 424.000
44.86729 397.000
44.88724 423.000
44.90718 401.000
44.92713 379.000
44.94708 380.000
44.96702 387.000
44.98697 373.000
45.00692 407.000
45.02686 398.000
45.04681 400.000
45.06676 407.000
45.08671 375.000
45.10665 436.000
45.12660 419.000
45.14655 427.000
45.16649 437.000
45.18644 404.000
45.20639 417.000
45.22633 432.000
45.24628 447.000
45.26623 392.000
45.28618 391.000
45.30612 396.000
45.32607 418.000
45.34602 405.000
45.36596 400.000
45.38591 409.000
45.40586 393.000
45.42580 364.000
45.44575 361.000
45.46570 344.000
45.48565 398.000
45.50559 365.000
45.52554 357.000
45.54549 345.000
45.56543 391.000
45.58538 343.000
45.60533 368.000
45.62527 358.000
45.64522 379.000
45.66517 385.000
45.68511 372.000
45.70506 361.000
45.72501 377.000
45.74496 362.000
45.76490 359.000
45.78485 371.000
45.80480 348.000
45.82474 378.000
45.84469 375.000
45.86464 381.000
45.88458 385.000
45.90453 384.000
45.92448 357.000
45.94443 365.000
45.96437 344.000
45.98432 342.000
46.00427 382.000
46.02421 343.000
46.04416 371.000
46.06411 325.000
46.08405 336.000
46.10400 358.000
46.12395 379.000
46.14389 362.000
46.16384 389.000
46.18379 366.000
46.20374 361.000
46.22368 386.000
46.24363 349.000
46.26358 366.000
46.28352 348.000
46.30347 410.000
46.32342 375.000
46.34336 385.000
46.36331 372.000
46.38326 394.000
46.40321 342.000
46.42315 404.000
46.44310 366.000
46.46305 357.000
46.48299 349.000
46.50294 367.000
46.52289 400.000
46.54283 371.000
46.56278 332.000
46.58273 344.000
46.60267 363.000
46.62262 383.000
46.64257 376.000
46.66252 340.000
46.68246 356.000
46.70241 348.000
46.72236 401.000
46.74230 374.000
46.76225 362.000
46.78220 380.000
46.80214 380.000
46.82209 347.000
46.84204 352.000
46.86199 350.000
46.88193 358.000
46.90188 322.000
46.92183 375.000
46.94177 359.000
46.96172 338.000
46.98167 372.000
47.00161 360.000
47.02156 336.000
47.04151 404.000
47.06146 352.000
47.08140 373.000
47.10135 369.000
47.12130 346.000
47.14124 378.000
47.16119 346.000
47.18114 342.000
47.20108 371.000
47.22103 360.000
47.24098 359.000
47.26092 336.000
47.28087 336.000
47.30082 364.000
47.32077 361.000
47.34071 356.000
47.36066 337.000
47.38061 371.000
47.40055 375.000
47.42050 337.000
47.44045 372.000
47.46039 333.000
47.48034 363.000
47.50029 366.000
47.52024 375.000
47.54018 344.000
47.56013 354.000
47.58008 357.000
47.60002 370.000
47.61997 349.000
47.63992 339.000
47.65986 332.000
47.67981 380.000
47.69976 383.000
47.71970 358.000
47.73965 355.000
47.75960 363.000
47.77955 360.000
47.79949 371.000
47.81944 369.000
47.83939 323.000
47.85933 339.000
47.87928 385.000
47.89923 367.000
47.91917 385.000
47.93912 377.000
47.95907 358.000
47.97902 351.000
47.99896 359.000
48.01891 356.000
48.03886 389.000
48.05880 403.000
48.07875 323.000
48.09870 387.000
48.11864 338.000
48.13859 383.000
48.15854 349.000
48.17848 372.000
48.19843 372.000
48.21838 392.000
48.23833 384.000
48.25827 401.000
48.27822 376.000
48.29817 374.000
48.31811 408.000
48.33806 387.000
48.35801 425.000
48.37795 396.000
48.39790 420.000
48.41785 420.000
48.43780 446.000
48.45774 419.000
48.47769 466.000
48.49764 468.000
48.51758 451.000
48.53753 438.000
48.55748 451.000
48.57742 505.000
48.59737 504.000
48.61732 486.000
48.63726 530.000
48.65721 513.000
48.67716 551.000
48.69711 594.000
48.71705 634.000
48.73700 721.000
48.75695 750.000
48.77689 904.000
48.79684 1137.000
48.81679 1348.000
48.83673 1413.000
48.85668 1350.000
48.87663 1186.000
48.89658 1091.000
48.91652 979.000
48.93647 1033.000
48.95642 924.000
48.97636 947.000
48.99631 918.000
49.01626 735.000
49.03620 636.000
49.05615 539.000
49.07610 532.000
49.09605 505.000
49.11599 478.000
49.13594 441.000
49.15589 445.000
49.17583 409.000
49.19578 418.000
49.21573 403.000
49.23567 401.000
49.25562 373.000
49.27557 362.000
49.29551 387.000
49.31546 385.000
49.33541 425.000
49.35536 346.000
49.37530 365.000
49.39525 358.000
49.41520 377.000
49.43514 400.000
49.45509 336.000
49.47504 376.000
49.49498 377.000
49.51493 433.000
49.53488 360.000
49.55483 363.000
49.57477 366.000
49.59472 341.000
49.61467 378.000
49.63461 364.000
49.65456 359.000
49.67451 363.000
49.69445 374.000
49.71440 389.000
49.73435 380.000
49.75429 359.000
49.77424 370.000
49.79419 346.000
49.81414 353.000
49.83408 358.000
49.85403 360.000
49.87398 375.000
49.89392 359.000
49.91387 366.000
49.93382 347.000
49.95376 365.000
49.97371 356.000
49.99366 375.000
50.01361 353.000
50.03355 368.000
50.05350 373.000
50.07345 393.000
50.09339 359.000
50.11334 357.000
50.13329 386.000
50.15323 345.000
50.17318 343.000
50.19313 324.000
50.21307 354.000
50.23302 365.000
50.25297 361.000
50.27292 354.000
50.29286 360.000
50.31281 345.000
50.33276 344.000
50.35270 371.000
50.37265 361.000
50.39260 369.000
50.41254 350.000
50.43249 321.000
50.45244 342.000
50.47239 334.000
50.49233 328.000
50.51228 368.000
50.53223 338.000
50.55217 349.000
50.57212 346.000
50.59207 365.000
50.61201 392.000
50.63196 377.000
50.65191 363.000
50.67186 331.000
50.69180 332.000
50.71175 339.000
50.73170 347.000
50.75164 351.000
50.77159 357.000
50.79154 340.000
50.81148 339.000
50.83143 347.000
50.85138 344.000
50.87132 350.000
50.89127 351.000
50.91122 326.000
50.93117 370.000
50.95111 346.000
50.97106 379.000
50.99101 366.000
51.01095 371.000
51.03090 357.000
51.05085 369.000
51.07079 331.000
51.09074 347.000
51.11069 368.000
51.13064 353.000
51.15058 359.000
51.17053 336.000
51.19048 384.000
51.21042 330.000
51.23037 337.000
51.25032 352.000
51.27026 383.000
51.29021 308.000
51.31016 347.000
51.33010 329.000
51.35005 380.000
51.37000 332.000
51.38995 343.000
51.40989 330.000
51.42984 317.000
51.44979 350.000
51.46973 340.000
51.48968 325.000
51.50963 321.000
51.52957 342.000
51.54952 321.000
51.56947 356.000
51.58942 365.000
51.60936 350.000
51.62931 327.000
51.64926 382.000
51.66920 376.000
51.68915 348.000
51.70910 341.000
51.72904 341.000
51.74899 335.000
51.76894 381.000
51.78888 377.000
51.80883 317.000
51.82878 324.000
51.84873 347.000
51.86867 354.000
51.88862 339.000
51.90857 347.000
51.92851 351.000
51.94846 336.000
51.96841 366.000
51.98835 371.000
52.00830 379.000
52.02825 347.000
52.04820 361.000
52.06814 345.000
52.08809 347.000
52.10804 356.000
52.12798 355.000
52.14793 339.000
52.16788 378.000
52.18782 397.000
52.20777 337.000
52.22772 338.000
52.24767 360.000
52.26761 350.000
52.28756 316.000
52.30751 366.000
52.32745 318.000
52.34740 347.000
52.36735 329.000
52.38729 322.000
52.40724 350.000
52.42719 346.000
52.44713 360.000
52.46708 344.000
52.48703 341.000
52.50698 320.000
52.52692 343.000
52.54687 369.000
52.56682 354.000
52.58676 372.000
52.60671 367.000
52.62666 337.000
52.64660 396.000
52.66655 375.000
52.68650 368.000
52.70645 343.000
52.72639 344.000
52.74634 365.000
52.76629 367.000
52.78623 384.000
52.80618 371.000
52.82613 354.000
52.84607 363.000
52.86602 367.000
52.88597 362.000
52.90591 343.000
52.92586 323.000
52.94581 348.000
52.96576 382.000
52.98570 345.000
53.00565 348.000
53.02560 346.000
53.04554 364.000
53.06549 345.000
53.08544 362.000
53.10538 371.000
53.12533 339.000
53.14528 326.000
53.16523 331.000
53.18517 355.000
53.20512 400.000
53.22507 353.000
53.24501 373.000
53.26496 417.000
53.28491 366.000
53.30485 363.000
53.32480 375.000
53.34475 359.000
53.36469 379.000
53.38464 367.000
53.40459 353.000
53.42454 378.000
53.44448 360.000
53.46443 376.000
53.48438 357.000
53.50432 372.000
53.52427 341.000
53.54422 371.000
53.56416 376.000
53.58411 371.000
53.60406 375.000
53.62401 370.000
53.64395 336.000
53.66390 329.000
53.68385 385.000
53.70379 358.000
53.72374 368.000
53.74369 366.000
53.76363 362.000
53.78358 358.000
53.80353 383.000
53.82348 381.000
53.84342 417.000
53.86337 385.000
53.88332 373.000
53.90326 351.000
53.92321 381.000
53.94316 352.000
53.96310 385.000
53.98305 374.000
54.00300 359.000
54.02294 364.000
54.04289 371.000
54.06284 374.000
54.08279 403.000
54.10273 342.000
54.12268 364.000
54.14263 389.000
54.16257 355.000
54.18252 371.000
54.20247 423.000
54.22241 379.000
54.24236 367.000
54.26231 382.000
54.28226 384.000
54.30220 363.000
54.32215 395.000
54.34210 371.000
54.36204 383.000
54.38199 359.000
54.40194 361.000
54.42188 342.000
54.44183 383.000
54.46178 370.000
54.48172 360.000
54.50167 330.000
54.52162 381.000
54.54157 347.000
54.56151 341.000
54.58146 338.000
54.60141 335.000
54.62135 355.000
54.64130 332.000
54.66125 326.000
54.68119 349.000
54.70114 366.000
54.72109 350.000
54.74104 339.000
54.76098 386.000
54.78093 341.000
54.80088 323.000
54.82082 391.000
54.84077 360.000
54.86072 382.000
54.88066 362.000
54.90061 378.000
54.92056 382.000
54.94050 342.000
54.96045 373.000
54.98040 337.000
55.00035 352.000
55.02029 355.000
55.04024 341.000
55.06019 358.000
55.08013 341.000
55.10008 335.000
55.12003 356.000
55.13997 322.000
55.15992 358.000
55.17987 333.000
55.19982 329.000
55.21976 339.000
55.23971 373.000
55.25966 373.000
55.27960 333.000
55.29955 357.000
55.31950 332.000
55.33944 308.000
55.35939 354.000
55.37934 382.000
55.39929 401.000
55.41923 344.000
55.43918 353.000
55.45913 366.000
55.47907 373.000
55.49902 328.000
55.51897 341.000
55.53891 346.000
55.55886 288.000
55.57881 327.000
55.59875 339.000
55.61870 341.000
55.63865 351.000
55.65860 346.000
55.67854 373.000
55.69849 351.000
55.71844 353.000
55.73838 360.000
55.75833 356.000
55.77828 383.000
55.79822 360.000
55.81817 331.000
55.83812 329.000
55.85807 319.000
55.87801 353.000
55.89796 354.000
55.91791 293.000
55.93785 355.000
55.95780 344.000
55.97775 340.000
55.99769 335.000
56.01764 328.000
56.03759 353.000
56.05753 365.000
56.07748 377.000
56.09743 357.000
56.11738 352.000
56.13732 350.000
56.15727 336.000
56.17722 370.000
56.19716 348.000
56.21711 331.000
56.23706 329.000
56.25700 341.000
56.27695 319.000
56.29690 334.000
56.31685 360.000
56.33679 357.000
56.35674 352.000
56.37669 373.000
56.39663 361.000
56.41658 326.000
56.43653 362.000
56.45647 356.000
56.47642 348.000
56.49637 330.000
56.51631 318.000
56.53626 366.000
56.55621 369.000
56.57616 368.000
56.59610 383.000
56.61605 333.000
56.63600 353.000
56.65594 341.000
56.67589 348.000
56.69584 337.000
56.71578 376.000
56.73573 325.000
56.75568 365.000
56.77563 318.000
56.79557 383.000
56.81552 367.000
56.83547 346.000
56.85541 348.000
56.87536 330.000
56.89531 395.000
56.91525 324.000
56.93520 342.000
56.95515 351.000
56.97510 364.000
56.99504 363.000
57.01499 334.000
57.03494 374.000
57.05488 371.000
57.07483 370.000
57.09478 353.000
57.11472 365.000
57.13467 364.000
57.15462 371.000
57.17456 387.000
57.19451 414.000
57.21446 401.000
57.23441 387.000
57.25435 352.000
57.27430 359.000
57.29425 391.000
57.31419 348.000
57.33414 385.000
57.35409 343.000
57.37403 377.000
57.39398 414.000
57.41393 357.000
57.43388 421.000
57.45382 368.000
57.47377 376.000
57.49372 356.000
57.51366 372.000
57.53361 350.000
57.55356 377.000
57.57350 401.000
57.59345 400.000
57.61340 364.000
57.63334 376.000
57.65329 418.000
57.67324 428.000
57.69319 410.000
57.71313 436.000
57.73308 424.000
57.75303 441.000
57.77297 404.000
57.79292 452.000
57.81287 420.000
57.83281 449.000
57.85276 458.000
57.87271 453.000
57.89266 457.000
57.91260 420.000
57.93255 430.000
57.95250 408.000
57.97244 437.000
57.99239 433.000
58.01234 426.000
58.03228 390.000
58.05223 401.000
58.07218 423.000
58.09212 396.000
58.11207 388.000
58.13202 387.000
58.15197 423.000
58.17191 428.000
58.19186 388.000
58.21181 404.000
58.23175 451.000
58.25170 387.000
58.27165 390.000
58.29159 417.000
58.31154 413.000
58.33149 427.000
58.35144 418.000
58.37138 407.000
58.39133 388.000
58.41128 387.000
58.43122 383.000
58.45117 409.000
58.47112 371.000
58.49106 368.000
58.51101 370.000
58.53096 343.000
58.55090 384.000
58.57085 363.000
58.59080 390.000
58.61075 348.000
58.63069 372.000
58.65064 313.000
58.67059 356.000
58.69053 344.000
58.71048 366.000
58.73043 348.000
58.75037 328.000
58.77032 354.000
58.79027 360.000
58.81022 384.000
58.83016 359.000
58.85011 370.000
58.87006 367.000
58.89000 375.000
58.90995 384.000
58.92990 367.000
58.94984 373.000
58.96979 377.000
58.98974 355.000
59.00969 365.000
59.02963 372.000
59.04958 353.000
59.06953 350.000
59.08947 408.000
59.10942 412.000
59.12937 351.000
59.14931 333.000
59.16926 357.000
59.18921 360.000
59.20915 375.000
59.22910 365.000
59.24905 360.000
59.26900 398.000
59.28894 357.000
59.30889 358.000
59.32884 406.000
59.34878 387.000
59.36873 383.000
59.38868 333.000
59.40862 371.000
59.42857 348.000
59.44852 396.000
59.46847 376.000
59.48841 380.000
59.50836 342.000
59.52831 366.000
59.54825 331.000
59.56820 340.000
59.58815 354.000
59.60809 395.000
59.62804 376.000
59.64799 343.000
59.66793 372.000
59.68788 354.000
59.70783 332.000
59.72778 374.000
59.74772 341.000
59.76767 370.000
59.78762 333.000
59.80756 393.000
59.82751 349.000
59.84746 421.000
59.86740 344.000
59.88735 376.000
59.90730 350.000
59.92725 374.000
59.94719 329.000
59.96714 382.000
59.98709 406.000
60.00703 361.000
60.02698 380.000
60.04693 373.000
60.06687 343.000
60.08682 397.000
60.10677 346.000
60.12671 369.000
60.14666 344.000
60.16661 362.000
60.18656 360.000
60.20650 362.000
60.22645 357.000
60.24640 350.000
60.26634 375.000
60.28629 376.000
60.30624 352.000
60.32618 371.000
60.34613 366.000
60.36608 363.000
60.38603 406.000
60.40597 344.000
60.42592 389.000
60.44587 380.000
60.46581 360.000
60.48576 358.000
60.50571 361.000
60.52565 360.000
60.54560 359.000
60.56555 370.000
60.58550 370.000
60.60544 393.000
60.62539 368.000
60.64534 353.000
60.66528 348.000
60.68523 352.000
60.70518 331.000
60.72512 371.000
60.74507 388.000
60.76502 358.000
60.78496 359.000
60.80491 337.000
60.82486 380.000
60.84481 336.000
60.86475 351.000
60.88470 409.000
60.90465 340.000
60.92459 373.000
60.94454 393.000
60.96449 361.000
60.98443 355.000
61.00438 407.000
61.02433 350.000
61.04428 393.000
61.06422 400.000
61.08417 351.000
61.10412 382.000
61.12406 377.000
61.14401 396.000
61.16396 416.000
61.18390 367.000
61.20385 388.000
61.22380 409.000
61.24374 392.000
61.26369 379.000
61.28364 394.000
61.30359 428.000
61.32353 401.000
61.34348 394.000
61.36343 402.000
61.38337 407.000
61.40332 414.000
61.42327 398.000
61.44321 460.000
61.46316 434.000
61.48311 465.000
61.50306 425.000
61.52300 437.000
61.54295 424.000
61.56290 460.000
61.58284 434.000
61.60279 424.000
61.62274 472.000
61.64268 464.000
61.66263 459.000
61.68258 480.000
61.70252 476.000
61.72247 496.000
61.74242 476.000
61.76237 472.000
61.78231 473.000
61.80226 442.000
61.82221 514.000
61.84215 498.000
61.86210 516.000
61.88205 501.000
61.90199 520.000
61.92194 578.000
61.94189 545.000
61.96184 587.000
61.98178 639.000
62.00173 680.000
62.02168 720.000
62.04162 734.000
62.06157 701.000
62.08152 723.000
62.10146 716.000
62.12141 708.000
62.14136 704.000
62.16131 687.000
62.18125 665.000
62.20120 662.000
62.22115 702.000
62.24109 679.000
62.26104 704.000
62.28099 700.000
62.30093 697.000
62.32088 705.000
62.34083 711.000
62.36077 726.000
62.38072 769.000
62.40067 824.000
62.42062 918.000
62.44056 989.000
62.46051 1022.000
62.48046 1134.000
62.50040 1253.000
62.52035 1514.000
62.54030 1608.000
62.56024 1890.000
62.58019 2160.000
62.60014 2265.000
62.62009 2548.000
62.64003 2667.000
62.65998 2787.000
62.67993 2686.000
62.69987 2619.000
62.71982 2472.000
62.73977 2422.000
62.75971 2387.000
62.77966 2281.000
62.79961 2247.000
62.81955 2026.000
62.83950 1935.000
62.85945 1736.000
62.87940 1685.000
62.89934 1465.000
62.91929 1305.000
62.93924 1198.000
62.95918 1054.000
62.97913 921.000
62.99908 873.000
63.01902 773.000
63.03897 701.000
63.05892 672.000
63.07887 647.000
63.09881 596.000
63.11876 574.000
63.13871 558.000
63.15865 573.000
63.17860 531.000
63.19855 481.000
63.21849 478.000
63.23844 471.000
63.25839 484.000
63.27833 474.000
63.29828 470.000
63.31823 437.000
63.33818 449.000
63.35812 485.000
63.37807 514.000
63.39802 496.000
63.41796 426.000
63.43791 443.000
63.45786 515.000
63.47780 488.000
63.49775 487.000
63.51770 463.000
63.53765 499.000
63.55759 472.000
63.57754 487.000
63.59749 467.000
63.61743 463.000
63.63738 416.000
63.65733 412.000
63.67727 440.000
63.69722 445.000
63.71717 398.000
63.73712 461.000
63.75706 390.000
63.77701 385.000
63.79696 399.000
63.81690 441.000
63.83685 408.000
63.85680 415.000
63.87674 360.000
63.89669 408.000
63.91664 401.000
63.93658 384.000
63.95653 358.000
63.97648 365.000
63.99643 401.000
64.01637 420.000
64.03632 410.000
64.05627 411.000
64.07621 389.000
64.09616 395.000
64.11611 380.000
64.13605 386.000
64.15600 397.000
64.17595 395.000
64.19590 364.000
64.21584 426.000
64.23579 384.000
64.25574 369.000
64.27568 422.000
64.29563 393.000
64.31558 404.000
64.33552 421.000
64.35547 423.000
64.37542 442.000
64.39536 390.000
64.41531 416.000
64.43526 441.000
64.45521 474.000
64.47515 467.000
64.49510 483.000
64.51505 558.000
64.53499 589.000
64.55494 613.000
64.57489 664.000
64.59483 644.000
64.61478 690.000
64.63473 667.000
64.65468 637.000
64.67462 569.000
64.69457 538.000
64.71452 541.000
64.73446 491.000
64.75441 543.000
64.77436 507.000
64.79430 508.000
64.81425 513.000
64.83420 462.000
64.85414 503.000
64.87409 471.000
64.89404 409.000
64.91399 415.000
64.93393 392.000
64.95388 390.000
64.97383 367.000
64.99377 402.000
65.01372 369.000
65.03367 395.000
65.05361 373.000
65.07356 400.000
65.09351 376.000
65.11346 336.000
65.13340 427.000
65.15335 373.000
65.17330 379.000
65.19324 380.000
65.21319 386.000
65.23314 379.000
65.25308 377.000
65.27303 421.000
65.29298 381.000
65.31293 409.000
65.33287 375.000
65.35282 361.000
65.37277 364.000
65.39271 353.000
65.41266 373.000
65.43261 391.000
65.45255 353.000
65.47250 405.000
65.49245 392.000
65.51239 415.000
65.53234 383.000
65.55229 373.000
65.57224 432.000
65.59218 365.000
65.61213 373.000
65.63208 371.000
65.65202 396.000
65.67197 384.000
65.69192 408.000
65.71186 402.000
65.73181 398.000
65.75176 354.000
65.77171 379.000
65.79165 375.000
65.81160 419.000
65.83155 396.000
65.85149 409.000
65.87144 396.000
65.89139 420.000
65.91133 410.000
65.93128 408.000
65.95123 389.000
65.97117 371.000
65.99112 439.000
66.01107 469.000
66.03102 404.000
66.05096 373.000
66.07091 397.000
66.09086 422.000
66.11080 413.000
66.13075 422.000
66.15070 435.000
66.17064 427.000
66.19059 444.000
66.21054 407.000
66.23049 415.000
66.25043 432.000
66.27038 414.000
66.29033 440.000
66.31027 442.000
66.33022 451.000
66.35017 424.000
66.37011 413.000
66.39006 475.000
66.41001 413.000
66.42995 444.000
66.44990 402.000
66.46985 407.000
66.48980 420.000
66.50974 394.000
66.52969 451.000
66.54964 417.000
66.56958 394.000
66.58953 435.000
66.60948 373.000
66.62942 421.000
66.64937 402.000
66.66932 435.000
66.68927 453.000
66.70921 434.000
66.72916 441.000
66.74911 454.000
66.76905 432.000
66.78900 459.000
66.80895 459.000
66.82889 481.000
66.84884 505.000
66.86879 499.000
66.88874 545.000
66.90868 548.000
66.92863 543.000
66.94858 574.000
66.96852 595.000
66.98847 573.000
67.00842 574.000
67.02836 576.000
67.04831 563.000
67.06826 503.000
67.08820 438.000
67.10815 443.000
67.12810 526.000
67.14805 495.000
67.16799 458.000
67.18794 481.000
67.20789 462.000
67.22783 396.000
67.24778 429.000
67.26773 398.000
67.28767 391.000
67.30762 406.000
67.32757 362.000
67.34752 410.000
67.36746 423.000
67.38741 362.000
67.40736 412.000
67.42730 387.000
67.44725 370.000
67.46720 382.000
67.48714 364.000
67.50709 376.000
67.52704 399.000
67.54698 355.000
67.56693 337.000
67.58688 361.000
67.60683 402.000
67.62677 390.000
67.64672 389.000
67.66667 390.000
67.68661 391.000
67.70656 382.000
67.72651 390.000
67.74645 380.000
67.76640 390.000
67.78635 380.000
67.80630 380.000
67.82624 385.000
67.84619 386.000
67.86614 414.000
67.88608 352.000
67.90603 398.000
67.92598 408.000
67.94592 367.000
67.96587 378.000
67.98582 367.000
68.00576 427.000
68.02571 418.000
68.04566 392.000
68.06561 422.000
68.08555 391.000
68.10550 423.000
68.12545 349.000
68.14539 422.000
68.16534 372.000
68.18529 386.000
68.20523 388.000
68.22518 431.000
68.24513 393.000
68.26508 434.000
68.28502 400.000
68.30497 392.000
68.32492 400.000
68.34486 400.000
68.36481 396.000
68.38476 431.000
68.40470 350.000
68.42465 405.000
68.44460 408.000
68.46455 378.000
68.48449 351.000
68.50444 394.000
68.52439 379.000
68.54433 384.000
68.56428 405.000
68.58423 378.000
68.60417 380.000
68.62412 390.000
68.64407 355.000
68.66401 352.000
68.68396 368.000
68.70391 412.000
68.72386 380.000
68.74380 373.000
68.76375 367.000
68.78370 327.000
68.80364 347.000
68.82359 359.000
68.84354 348.000
68.86348 363.000
68.88343 380.000
68.90338 386.000
68.92333 371.000
68.94327 396.000
68.96322 390.000
68.98317 371.000
69.00311 354.000
69.02306 364.000
69.04301 358.000
69.06295 359.000
69.08290 389.000
69.10285 356.000
69.12279 338.000
69.14274 340.000
69.16269 331.000
69.18264 366.000
69.20258 353.000
69.22253 379.000
69.24248 359.000
69.26242 346.000
69.28237 354.000
69.30232 395.000
69.32226 379.000
69.34221 341.000
69.36216 365.000
69.38211 354.000
69.40205 346.000
69.42200 356.000
69.44195 373.000
69.46189 357.000
69.48184 358.000
69.50179 382.000
69.52173 349.000
69.54168 347.000
69.56163 386.000
69.58157 359.000
69.60152 353.000
69.62147 322.000
69.64142 348.000
69.66136 362.000
69.68131 383.000
69.70126 359.000
69.72120 355.000
69.74115 382.000
69.76110 363.000
69.78104 365.000
69.80099 369.000
69.82094 358.000
69.84089 346.000
69.86083 367.000
69.88078 352.000
69.90073 399.000
69.92067 338.000
69.94062 363.000
69.96057 346.000
69.98051 351.000
70.00046 329.000
70.02041 343.000
70.04035 347.000
70.06030 357.000
70.08025 373.000
70.10020 368.000
70.12014 365.000
70.14009 328.000
70.16004 322.000
70.17998 356.000
70.19993 356.000
70.21988 371.000
70.23982 366.000
70.25977 359.000
70.27972 338.000
70.29967 376.000
70.31961 377.000
70.33956 402.000
70.35951 354.000
70.37945 337.000
70.39940 321.000
70.41935 358.000
70.43929 358.000
70.45924 334.000
70.47919 360.000
70.49914 369.000
70.51908 362.000
70.53903 373.000
70.55898 338.000
70.57892 333.000
70.59887 365.000
70.61882 340.000
70.63876 308.000
70.65871 343.000
70.67866 348.000
70.69860 368.000
70.71855 362.000
70.73850 375.000
70.75845 386.000
70.77839 350.000
70.79834 362.000
70.81829 383.000
70.83823 371.000
70.85818 363.000
70.87813 353.000
70.89807 339.000
70.91802 336.000
70.93797 387.000
70.95792 353.000
70.97786 342.000
70.99781 317.000
71.01776 354.000
71.03770 359.000
71.05765 339.000
71.07760 380.000
71.09754 349.000
71.11749 354.000
71.13744 349.000
71.15738 339.000
71.17733 335.000
71.19728 334.000
71.21723 341.000
71.23717 353.000
71.25712 371.000
71.27707 355.000
71.29701 384.000
71.31696 353.000
71.33691 330.000
71.35685 340.000
71.37680 362.000
71.39675 336.000
71.41670 336.000
71.43664 350.000
71.45659 360.000
71.47654 328.000
71.49648 387.000
71.51643 380.000
71.53638 329.000
71.55632 382.000
71.57627 367.000
71.59622 327.000
71.61616 340.000
71.63611 370.000
71.65606 380.000
71.67601 380.000
71.69595 355.000
71.71590 362.000
71.73585 319.000
71.75579 353.000
71.77574 363.000
71.79569 361.000
71.81563 343.000
71.83558 373.000
71.85553 320.000
71.87548 368.000
71.89542 352.000
71.91537 325.000
71.93532 367.000
71.95526 367.000
71.97521 385.000
71.99516 398.000
72.01510 374.000
72.03505 343.000
72.05500 391.000
72.07495 359.000
72.09489 411.000
72.11484 379.000
72.13479 403.000
72.15473 327.000
72.17468 369.000
72.19463 359.000
72.21457 381.000
72.23452 417.000
72.25447 354.000
72.27441 387.000
72.29436 359.000
72.31431 353.000
72.33426 354.000
72.35420 368.000
72.37415 380.000
72.39410 358.000
72.41404 369.000
72.43399 356.000
72.45394 395.000
72.47388 381.000
72.49383 364.000
72.51378 372.000
72.53373 349.000
72.55367 363.000
72.57362 368.000
72.59357 382.000
72.61351 359.000
72.63346 388.000
72.65341 357.000
72.67335 363.000
72.69330 387.000
72.71325 349.000
72.73319 395.000
72.75314 400.000
72.77309 362.000
72.79304 351.000
72.81298 369.000
72.83293 354.000
72.85288 368.000
72.87282 381.000
72.89277 393.000
72.91272 356.000
72.93266 354.000
72.95261 347.000
72.97256 366.000
72.99251 367.000
73.01245 345.000
73.03240 373.000
73.05235 335.000
73.07229 365.000
73.09224 337.000
73.11219 363.000
73.13213 368.000
73.15208 335.000
73.17203 367.000
73.19197 368.000
73.21192 349.000
73.23187 327.000
73.25182 356.000
73.27176 358.000
73.29171 383.000
73.31166 377.000
73.33160 398.000
73.35155 356.000
73.37150 341.000
73.39144 367.000
73.41139 340.000
73.43134 368.000
73.45129 371.000
73.47123 379.000
73.49118 377.000
73.51113 361.000
73.53107 417.000
73.55102 366.000
73.57097 397.000
73.59091 366.000
73.61086 364.000
73.63081 377.000
73.65076 351.000
73.67070 377.000
73.69065 408.000
73.71060 395.000
73.73054 392.000
73.75049 399.000
73.77044 359.000
73.79038 404.000
73.81033 425.000
73.83028 421.000
73.85022 440.000
73.87017 425.000
73.89012 441.000
73.91007 470.000
73.93001 435.000
73.94996 408.000
73.96991 430.000
73.98985 430.000
74.00980 419.000
74.02975 436.000
74.04969 384.000
74.06964 411.000
74.08959 371.000
74.10954 418.000
74.12948 435.000
74.14943 400.000
74.16938 399.000
74.18932 382.000
74.20927 384.000
74.22922 406.000
74.24916 393.000
74.26911 382.000
74.28906 372.000
74.30900 385.000
74.32895 399.000
74.34890 373.000
74.36885 376.000
74.38879 364.000
74.40874 376.000
74.42869 405.000
74.44863 383.000
74.46858 399.000
74.48853 395.000
74.50847 424.000
74.52842 398.000
74.54837 399.000
74.56832 420.000
74.58826 423.000
74.60821 398.000
74.62816 444.000
74.64810 442.000
74.66805 441.000
74.68800 435.000
74.70794 430.000
74.72789 450.000
74.74784 490.000
74.76778 464.000
74.78773 479.000
74.80768 525.000
74.82763 546.000
74.84757 549.000
74.86752 575.000
74.88747 574.000
74.90741 675.000
74.92736 714.000
74.94731 700.000
74.96725 715.000
74.98720 834.000
75.00715 883.000
75.02710 843.000
75.04704 896.000
75.06699 996.000
75.08694 1017.000
75.10688 976.000
75.12683 1090.000
75.14678 1083.000
75.16672 1071.000
75.18667 1046.000
75.20662 1075.000
75.22657 1037.000
75.24651 1028.000
75.26646 1042.000
75.28641 1042.000
75.30635 970.000
75.32630 902.000
75.34625 895.000
75.36619 887.000
75.38614 860.000
75.40609 780.000
75.42603 782.000
75.44598 783.000
75.46593 727.000
75.48588 713.000
75.50582 659.000
75.52577 608.000
75.54572 577.000
75.56566 575.000
75.58561 580.000
75.60556 536.000
75.62550 533.000
75.64545 489.000
75.66540 468.000
75.68535 445.000
75.70529 460.000
75.72524 431.000
75.74519 407.000
75.76513 432.000
75.78508 442.000
75.80503 400.000
75.82497 404.000
75.84492 419.000
75.86487 379.000
75.88481 381.000
75.90476 419.000
75.92471 435.000
75.94466 404.000
75.96460 388.000
75.98455 373.000
76.00450 370.000
76.02444 393.000
76.04439 425.000
76.06434 412.000
76.08428 352.000
76.10423 428.000
76.12418 397.000
76.14413 379.000
76.16407 359.000
76.18402 397.000
76.20397 395.000
76.22391 388.000
76.24386 429.000
76.26381 386.000
76.28375 413.000
76.30370 413.000
76.32365 415.000
76.34359 349.000
76.36354 381.000
76.38349 397.000
76.40344 384.000
76.42338 367.000
76.44333 387.000
76.46328 363.000
76.48322 395.000
76.50317 375.000
76.52312 352.000
76.54306 364.000
76.56301 357.000
76.58296 362.000
76.60291 427.000
76.62285 375.000
76.64280 380.000
76.66275 368.000
76.68269 403.000
76.70264 380.000
76.72259 358.000
76.74253 373.000
76.76248 322.000
76.78243 361.000
76.80238 375.000
76.82232 373.000
76.84227 358.000
76.86222 400.000
76.88216 358.000
76.90211 366.000
76.92206 363.000
76.94200 393.000
76.96195 390.000
76.98190 353.000
77.00184 360.000
77.02179 348.000
77.04174 365.000
77.06169 382.000
77.08163 371.000
77.10158 386.000
77.12153 348.000
77.14147 373.000
77.16142 367.000
77.18137 357.000
77.20131 422.000
77.22126 323.000
77.24121 368.000
77.26116 322.000
77.28110 369.000
77.30105 369.000
77.32100 357.000
77.34094 367.000
77.36089 372.000
77.38084 334.000
77.40078 371.000
77.42073 335.000
77.44068 355.000
77.46062 384.000
77.48057 379.000
77.50052 378.000
77.52047 376.000
77.54041 350.000
77.56036 361.000
77.58031 380.000
77.60025 356.000
77.62020 394.000
77.64015 377.000
77.66009 359.000
77.68004 364.000
77.69999 382.000
77.71994 372.000
77.73988 348.000
77.75983 379.000
77.77978 371.000
77.79972 405.000
77.81967 359.000
77.83962 368.000
77.85956 407.000
77.87951 362.000
77.89946 363.000
77.91940 381.000
77.93935 397.000
77.95930 321.000
77.97925 386.000
77.99919 373.000
78.01914 377.000
78.03909 447.000
78.05903 374.000
78.07898 411.000
78.09893 379.000
78.11887 399.000
78.13882 428.000
78.15877 420.000
78.17872 443.000
78.19866 472.000
78.21861 427.000
78.23856 477.000
78.25850 419.000
78.27845 462.000
78.29840 443.000
78.31834 439.000
78.33829 458.000
78.35824 523.000
78.37819 468.000
78.39813 486.000
78.41808 465.000
78.43803 489.000
78.45797 475.000
78.47792 463.000
78.49787 469.000
78.51781 457.000
78.53776 451.000
78.55771 429.000
78.57765 464.000
78.59760 428.000
78.61755 417.000
78.63750 465.000
78.65744 464.000
78.67739 460.000
78.69734 447.000
78.71728 421.000
78.73723 410.000
78.75718 443.000
78.77712 491.000
78.79707 492.000
78.81702 464.000
78.83697 493.000
78.85691 497.000
78.87686 487.000
78.89681 541.000
78.91675 526.000
78.93670 567.000
78.95665 596.000
78.97659 660.000
78.99654 770.000
79.01649 744.000
79.03643 890.000
79.05638 952.000
79.07633 1000.000
79.09628 887.000
79.11622 862.000
79.13617 929.000
79.15612 901.000
79.17606 829.000
79.19601 854.000
79.21596 812.000
79.23590 843.000
79.25585 789.000
79.27580 814.000
79.29575 763.000
79.31569 806.000
79.33564 762.000
79.35559 724.000
79.37553 692.000
79.39548 649.000
79.41543 622.000
79.43537 595.000
79.45532 546.000
79.47527 519.000
79.49521 510.000
79.51516 496.000
79.53511 442.000
79.55506 456.000
79.57500 439.000
79.59495 442.000
79.61490 397.000
79.63484 425.000
79.65479 421.000
79.67474 419.000
79.69468 381.000
79.71463 403.000
79.73458 399.000
79.75453 394.000
79.77447 391.000
79.79442 359.000
79.81437 395.000
79.83431 362.000
79.85426 372.000
79.87421 388.000
79.89415 395.000
79.91410 367.000
79.93405 369.000
79.95399 366.000
79.97394 385.000
79.99389 362.000
80.01384 369.000
80.03378 367.000
80.05373 373.000
80.07368 391.000
80.09362 345.000
80.11357 371.000
80.13352 365.000
80.15346 359.000
80.17341 357.000
80.19336 377.000
80.21331 413.000
80.23325 399.000
80.25320 382.000
80.27315 347.000
80.29309 363.000
80.31304 391.000
80.33299 350.000
80.35293 357.000
80.37288 366.000
80.39283 347.000
80.41278 365.000
80.43272 365.000
80.45267 366.000
80.47262 349.000
80.49256 343.000
80.51251 359.000
80.53246 376.000
80.55240 398.000
80.57235 345.000
80.59230 353.000
80.61224 405.000
80.63219 395.000
80.65214 372.000
80.67209 356.000
80.69203 358.000
80.71198 365.000
80.73193 338.000
80.75187 388.000
80.77182 321.000
80.79177 356.000
80.81171 349.000
80.83166 368.000
80.85161 372.000
80.87156 369.000
80.89150 330.000
80.91145 363.000
80.93140 366.000
80.95134 364.000
80.97129 353.000
80.99124 367.000
81.01118 374.000
81.03113 360.000
81.05108 338.000
81.07102 332.000
81.09097 363.000
81.11092 345.000
81.13087 357.000
81.15081 370.000
81.17076 348.000
81.19071 364.000
81.21065 324.000
81.23060 372.000
81.25055 400.000
81.27049 360.000
81.29044 336.000
81.31039 384.000
81.33034 327.000
81.35028 366.000
81.37023 351.000
81.39018 394.000
81.41012 341.000
81.43007 363.000
81.45002 346.000
81.46996 359.000
81.48991 356.000
81.50986 335.000
81.52980 338.000
81.54975 362.000
81.56970 346.000
81.58965 323.000
81.60959 389.000
81.62954 363.000
81.64949 355.000
81.66943 385.000
81.68938 317.000
81.70933 355.000
81.72927 342.000
81.74922 357.000
81.76917 369.000
81.78912 348.000
81.80906 365.000
81.82901 374.000
81.84896 373.000
81.86890 346.000
81.88885 365.000
81.90880 388.000
81.92874 363.000
81.94869 353.000
81.96864 319.000
81.98859 351.000
82.00853 360.000
82.02848 340.000
82.04843 327.000
82.06837 326.000
82.08832 359.000
82.10827 346.000
82.12821 329.000
82.14816 321.000
82.16811 340.000
82.18805 352.000
82.20800 336.000
82.22795 392.000
82.24790 374.000
82.26784 391.000
82.28779 361.000
82.30774 364.000
82.32768 365.000
82.34763 385.000
82.36758 381.000
82.38752 381.000
82.40747 337.000
82.42742 377.000
82.44737 382.000
82.46731 382.000
82.48726 360.000
82.50721 372.000
82.52715 350.000
82.54710 370.000
82.56705 379.000
82.58699 373.000
82.60694 399.000
82.62689 362.000
82.64683 392.000
82.66678 354.000
82.68673 401.000
82.70668 363.000
82.72662 397.000
82.74657 368.000
82.76652 375.000
82.78646 406.000
82.80641 374.000
82.82636 386.000
82.84630 349.000
82.86625 375.000
82.88620 361.000
82.90615 363.000
82.92609 393.000
82.94604 336.000
82.96599 347.000
82.98593 392.000
83.00588 366.000
83.02583 350.000
83.04577 357.000
83.06572 378.000
83.08567 390.000
83.10561 400.000
83.12556 353.000
83.14551 352.000
83.16546 339.000
83.18540 370.000
83.20535 359.000
83.22530 343.000
83.24524 334.000
83.26519 361.000
83.28514 370.000
83.30508 364.000
83.32503 364.000
83.34498 352.000
83.36493 351.000
83.38487 358.000
83.40482 367.000
83.42477 380.000
83.44471 360.000
83.46466 400.000
83.48461 372.000
83.50455 333.000
83.52450 318.000
83.54445 377.000
83.56440 398.000
83.58434 360.000
83.60429 371.000
83.62424 332.000
83.64418 347.000
83.66413 351.000
83.68408 356.000
83.70402 355.000
83.72397 344.000
83.74392 363.000
83.76386 374.000
83.78381 382.000
83.80376 347.000
83.82371 327.000
83.84365 333.000
83.86360 389.000
83.88355 384.000
83.90349 340.000
83.92344 338.000
83.94339 345.000
83.96333 354.000
83.98328 342.000
84.00323 376.000
84.02318 400.000
84.04312 350.000
84.06307 378.000
84.08302 373.000
84.10296 342.000
84.12291 378.000
84.14286 357.000
84.16280 393.000
84.18275 358.000
84.20270 382.000
84.22264 359.000
84.24259 358.000
84.26254 357.000
84.28249 345.000
84.30243 342.000
84.32238 399.000
84.34233 355.000
84.36227 342.000
84.38222 321.000
84.40217 355.000
84.42211 349.000
84.44206 355.000
84.46201 309.000
84.48196 343.000
84.50190 379.000
84.52185 371.000
84.54180 367.000
84.56174 359.000
84.58169 339.000
84.60164 382.000
84.62158 322.000
84.64153 363.000
84.66148 357.000
84.68142 361.000
84.70137 385.000
84.72132 365.000
84.74127 398.000
84.76121 373.000
84.78116 383.000
84.80111 374.000
84.82105 356.000
84.84100 357.000
84.86095 407.000
84.88089 358.000
84.90084 422.000
84.92079 399.000
84.94074 428.000
84.96068 415.000
84.98063 454.000
85.00058 444.000
85.02052 416.000
85.04047 425.000
85.06042 409.000
85.08036 451.000
85.10031 419.000
85.12026 411.000
85.14021 389.000
85.16015 378.000
85.18010 401.000
85.20005 387.000
85.21999 405.000
85.23994 398.000
85.25989 385.000
85.27983 368.000
85.29978 423.000
85.31973 428.000
85.33967 412.000
85.35962 384.000
85.37957 416.000
85.39952 354.000
85.41946 375.000
85.43941 392.000
85.45936 360.000
85.47930 358.000
85.49925 342.000
85.51920 360.000
85.53914 359.000
85.55909 348.000
85.57904 331.000
85.59899 357.000
85.61893 349.000
85.63888 379.000
85.65883 335.000
85.67877 361.000
85.69872 383.000
85.71867 371.000
85.73861 329.000
85.75856 350.000
85.77851 353.000
85.79845 353.000
85.81840 373.000
85.83835 361.000
85.85830 378.000
85.87824 363.000
85.89819 356.000
85.91814 344.000
85.93808 355.000
85.95803 346.000
85.97798 344.000
85.99792 374.000
86.01787 370.000
86.03782 343.000
86.05777 331.000
86.07771 352.000
86.09766 344.000
86.11761 360.000
86.13755 353.000
86.15750 363.000
86.17745 324.000
86.19739 347.000
86.21734 332.000
86.23729 370.000
86.25723 330.000
86.27718 350.000
86.29713 326.000
86.31708 393.000
86.33702 371.000
86.35697 377.000
86.37692 382.000
86.39686 348.000
86.41681 342.000
86.43676 353.000
86.45670 350.000
86.47665 350.000
86.49660 369.000
86.51655 321.000
86.53649 357.000
86.55644 382.000
86.57639 354.000
86.59633 392.000
86.61628 329.000
86.63623 336.000
86.65617 330.000
86.67612 357.000
86.69607 361.000
86.71602 344.000
86.73596 368.000
86.75591 364.000
86.77586 355.000
86.79580 376.000
86.81575 334.000
86.83570 368.000
86.85564 360.000
86.87559 358.000
86.89554 420.000
86.91548 336.000
86.93543 382.000
86.95538 354.000
86.97533 358.000
86.99527 343.000
87.01522 357.000
87.03517 365.000
87.05511 349.000
87.07506 352.000
87.09501 402.000
87.11495 335.000
87.13490 367.000
87.15485 362.000
87.17480 365.000
87.19474 398.000
87.21469 328.000
87.23464 378.000
87.25458 392.000
87.27453 327.000
87.29448 376.000
87.31442 357.000
87.33437 360.000
87.35432 349.000
87.37426 330.000
87.39421 379.000
87.41416 367.000
87.43411 357.000
87.45405 359.000
87.47400 382.000
87.49395 359.000
87.51389 352.000
87.53384 404.000
87.55379 359.000
87.57373 349.000
87.59368 354.000
87.61363 353.000
87.63358 365.000
87.65352 386.000
87.67347 342.000
87.69342 360.000
87.71336 369.000
87.73331 358.000
87.75326 331.000
87.77320 378.000
87.79315 374.000
87.81310 366.000
87.83304 346.000
87.85299 360.000
87.87294 345.000
87.89289 361.000
87.91283 335.000
87.93278 366.000
87.95273 387.000
87.97267 335.000
87.99262 351.000
88.01257 344.000
88.03251 351.000
88.05246 344.000
88.07241 335.000
88.09236 357.000
88.11230 350.000
88.13225 386.000
88.15220 338.000
88.17214 387.000
88.19209 340.000
88.21204 346.000
88.23198 371.000
88.25193 381.000
88.27188 331.000
88.29183 309.000
88.31177 330.000
88.33172 355.000
88.35167 385.000
88.37161 365.000
88.39156 372.000
88.41151 345.000
88.43145 331.000
88.45140 358.000
88.47135 355.000
88.49129 314.000
88.51124 374.000
88.53119 338.000
88.55114 329.000
88.57108 338.000
88.59103 354.000
88.61098 329.000
88.63092 360.000
88.65087 348.000
88.67082 323.000
88.69076 332.000
88.71071 363.000
88.73066 341.000
88.75061 340.000
88.77055 354.000
88.79050 338.000
88.81045 348.000
88.83039 330.000
88.85034 332.000
88.87029 336.000
88.89023 343.000
88.91018 353.000
88.93013 350.000
88.95007 352.000
88.97002 336.000
88.98997 352.000
89.00992 340.000
89.02986 354.000
89.04981 320.000
89.06976 348.000
89.08970 384.000
89.10965 358.000
89.12960 368.000
89.14954 360.000
89.16949 348.000
89.18944 355.000
89.20939 346.000
89.22933 369.000
89.24928 351.000
89.26923 367.000
89.28917 355.000
89.30912 369.000
89.32907 384.000
89.34901 353.000
89.36896 381.000
89.38891 379.000
89.40885 354.000
89.42880 350.000
89.44875 343.000
89.46870 371.000
89.48864 389.000
89.50859 383.000
89.52854 357.000
89.54848 383.000
89.56843 345.000
89.58838 358.000
89.60832 342.000
89.62827 367.000
89.64822 383.000
89.66817 372.000
89.68811 341.000
89.70806 356.000
89.72801 366.000
89.74795 338.000
89.76790 358.000
89.78785 343.000
89.80779 360.000
89.82774 358.000
89.84769 357.000
89.86764 377.000
89.88758 356.000
89.90753 351.000
89.92748 308.000
89.94742 370.000
89.96737 368.000
89.98732 350.000
90.00726 370.000
