10.00000 294.000
10.01995 256.000
10.03989 300.000
10.05984 315.000
10.07979 259.000
10.09973 267.000
10.11968 265.000
10.13963 265.000
10.15958 263.000
10.17952 285.000
10.19947 252.000
10.21942 283.000
10.23936 279.000
10.25931 265.000
10.27926 274.000
10.29920 257.000
10.31915 260.000
10.33910 275.000
10.35905 250.000
10.37899 272.000
10.39894 282.000
10.41889 258.000
10.43883 298.000
10.45878 271.000
10.47873 278.000
10.49867 288.000
10.51862 300.000
10.53857 272.000
10.55851 277.000
10.57846 274.000
10.59841 259.000
10.61836 270.000
10.63830 268.000
10.65825 269.000
10.67820 279.000
10.69814 250.000
10.71809 256.000
10.73804 268.000
10.75798 275.000
10.77793 269.000
10.79788 298.000
10.81783 262.000
10.83777 283.000
10.85772 264.000
10.87767 276.000
10.89761 274.000
10.91756 256.000
10.93751 247.000
10.95745 271.000
10.97740 271.000
10.99735 252.000
11.01730 269.000
11.03724 293.000
11.05719 289.000
11.07714 292.000
11.09708 258.000
11.11703 285.000
11.13698 279.000
11.15692 304.000
11.17687 284.000
11.19682 273.000
11.21676 286.000
11.23671 276.000
11.25666 273.000
11.27661 275.000
11.29655 261.000
11.31650 289.000
11.33645 276.000
11.35639 283.000
11.37634 308.000
11.39629 311.000
11.41623 275.000
11.43618 276.000
11.45613 291.000
11.47608 283.000
11.49602 288.000
11.51597 308.000
11.53592 281.000
11.55586 261.000
11.57581 273.000
11.59576 288.000
11.61570 284.000
11.63565 302.000
11.65560 283.000
11.67554 287.000
11.69549 255.000
11.71544 251.000
11.73539 289.000
11.75533 274.000
11.77528 269.000
11.79523 300.000
11.81517 271.000
11.83512 267.000
11.85507 273.000
11.87501 310.000
11.89496 304.000
11.91491 291.000
11.93486 266.000
11.95480 274.000
11.97475 285.000
11.99470 257.000
12.01464 292.000
12.03459 278.000
12.05454 306.000
12.07448 307.000
12.09443 306.000
12.11438 279.000
12.13432 291.000
12.15427 280.000
12.17422 295.000
12.19417 299.000
12.21411 274.000
12.23406 307.000
12.25401 269.000
12.27395 271.000
12.29390 314.000
12.31385 286.000
12.33379 263.000
12.35374 311.000
12.37369 307.000
12.39364 273.000
12.41358 304.000
12.43353 301.000
12.45348 274.000
12.47342 277.000
12.49337 299.000
12.51332 297.000
12.53326 293.000
12.55321 306.000
12.57316 272.000
12.59311 302.000
12.61305 298.000
12.63300 309.000
12.65295 289.000
12.67289 272.000
12.69284 307.000
12.71279 302.000
12.73273 303.000
12.75268 283.000
12.77263 307.000
12.79257 285.000
12.81252 270.000
12.83247 270.000
12.85242 291.000
12.87236 294.000
12.89231 299.000
12.91226 291.000
12.93220 294.000
12.95215 286.000
12.97210 284.000
12.99204 295.000
13.01199 298.000
13.03194 288.000
13.05189 264.000
13.07183 273.000
13.09178 264.000
13.11173 282.000
13.13167 287.000
13.15162 289.000
13.17157 276.000
13.19151 298.000
13.21146 281.000
13.23141 326.000
13.25135 291.000
13.27130 293.000
13.29125 250.000
13.31120 316.000
13.33114 315.000
13.35109 265.000
13.37104 307.000
13.39098 300.000
13.41093 293.000
13.43088 288.000
13.45082 295.000
13.47077 280.000
13.49072 279.000
13.51067 284.000
13.53061 310.000
13.55056 284.000
13.57051 283.000
13.59045 312.000
13.61040 284.000
13.63035 284.000
13.65029 318.000
13.67024 289.000
13.69019 260.000
13.71013 292.000
13.73008 295.000
13.75003 290.000
13.76998 292.000
13.78992 280.000
13.80987 306.000
13.82982 262.000
13.84976 281.000
13.86971 264.000
13.88966 306.000
13.90960 281.000
13.92955 270.000
13.94950 280.000
13.96945 285.000
13.98939 315.000
14.00934 251.000
14.02929 306.000
14.04923 303.000
14.06918 300.000
14.08913 287.000
14.10907 288.000
14.12902 315.000
14.14897 328.000
14.16892 263.000
14.18886 286.000
14.20881 305.000
14.22876 311.000
14.24870 315.000
14.26865 270.000
14.28860 296.000
14.30854 304.000
14.32849 273.000
14.34844 283.000
14.36838 271.000
14.38833 290.000
14.40828 283.000
14.42823 325.000
14.44817 269.000
14.46812 297.000
14.48807 258.000
14.50801 288.000
14.52796 335.000
14.54791 273.000
14.56785 265.000
14.58780 286.000
14.60775 288.000
14.62770 302.000
14.64764 312.000
14.66759 310.000
14.68754 289.000
14.70748 308.000
14.72743 314.000
14.74738 300.000
14.76732 286.000
14.78727 301.000
14.80722 267.000
14.82716 305.000
14.84711 317.000
14.86706 289.000
14.88701 264.000
14.90695 281.000
14.92690 307.000
14.94685 316.000
14.96679 253.000
14.98674 301.000
15.00669 290.000
15.02663 311.000
15.04658 305.000
15.06653 319.000
15.08648 304.000
15.10642 299.000
15.12637 285.000
15.14632 268.000
15.16626 288.000
15.18621 283.000
15.20616 295.000
15.22610 285.000
15.24605 295.000
15.26600 278.000
15.28594 325.000
15.30589 286.000
15.32584 293.000
15.34579 300.000
15.36573 309.000
15.38568 280.000
15.40563 282.000
15.42557 257.000
15.44552 265.000
15.46547 332.000
15.48541 296.000
15.50536 297.000
15.52531 330.000
15.54526 286.000
15.56520 296.000
15.58515 289.000
15.60510 322.000
15.62504 309.000
15.64499 310.000
15.66494 300.000
15.68488 288.000
15.70483 277.000
15.72478 283.000
15.74472 282.000
15.76467 294.000
15.78462 263.000
15.80457 289.000
15.82451 303.000
15.84446 324.000
15.86441 301.000
15.88435 296.000
15.90430 278.000
15.92425 317.000
15.94419 284.000
15.96414 275.000
15.98409 290.000
16.00404 299.000
16.02398 278.000
16.04393 296.000
16.06388 307.000
16.08382 321.000
16.10377 278.000
16.12372 312.000
16.14366 273.000
16.16361 298.000
16.18356 306.000
16.20351 303.000
16.22345 313.000
16.24340 260.000
16.26335 319.000
16.28329 321.000
16.30324 290.000
16.32319 297.000
16.34313 300.000
16.36308 281.000
16.38303 307.000
16.40297 292.000
16.42292 290.000
16.44287 299.000
16.46282 298.000
16.48276 317.000
16.50271 264.000
16.52266 277.000
16.54260 288.000
16.56255 270.000
16.58250 317.000
16.60244 302.000
16.62239 313.000
16.64234 301.000
16.66229 320.000
16.68223 306.000
16.70218 300.000
16.72213 300.000
16.74207 295.000
16.76202 329.000
16.78197 299.000
16.80191 281.000
16.82186 313.000
16.84181 288.000
16.86175 327.000
16.88170 316.000
16.90165 310.000
16.92160 292.000
16.94154 307.000
16.96149 301.000
16.98144 282.000
17.00138 293.000
17.02133 293.000
17.04128 298.000
17.06122 303.000
17.08117 324.000
17.10112 293.000
17.12107 302.000
17.14101 293.000
17.16096 316.000
17.18091 332.000
17.20085 278.000
17.22080 280.000
17.24075 313.000
17.26069 307.000
17.28064 298.000
17.30059 270.000
17.32053 295.000
17.34048 301.000
17.36043 318.000
17.38038 287.000
17.40032 327.000
17.42027 315.000
17.44022 299.000
17.46016 338.000
17.48011 282.000
17.50006 317.000
17.52000 267.000
17.53995 339.000
17.55990 293.000
17.57985 320.000
17.59979 319.000
17.61974 295.000
17.63969 306.000
17.65963 305.000
17.67958 314.000
17.69953 310.000
17.71947 343.000
17.73942 306.000
17.75937 304.000
17.77932 299.000
17.79926 298.000
17.81921 327.000
17.83916 296.000
17.85910 295.000
17.87905 315.000
17.89900 284.000
17.91894 304.000
17.93889 329.000
17.95884 285.000
17.97878 296.000
17.99873 312.000
18.01868 299.000
18.03863 296.000
18.05857 286.000
18.07852 268.000
18.09847 283.000
18.11841 314.000
18.13836 298.000
18.15831 339.000
18.17825 324.000
18.19820 293.000
18.21815 319.000
18.23810 336.000
18.25804 350.000
18.27799 328.000
18.29794 300.000
18.31788 347.000
18.33783 341.000
18.35778 393.000
18.37772 394.000
18.39767 360.000
18.41762 349.000
18.43756 317.000
18.45751 341.000
18.47746 329.000
18.49741 301.000
18.51735 337.000
18.53730 315.000
18.55725 304.000
18.57719 287.000
18.59714 303.000
18.61709 308.000
18.63703 272.000
18.65698 333.000
18.67693 305.000
18.69688 302.000
18.71682 301.000
18.73677 309.000
18.75672 302.000
18.77666 274.000
18.79661 284.000
18.81656 301.000
18.83650 300.000
18.85645 296.000
18.87640 330.000
18.89634 294.000
18.91629 285.000
18.93624 305.000
18.95619 324.000
18.97613 296.000
18.99608 297.000
19.01603 339.000
19.03597 293.000
19.05592 298.000
19.07587 333.000
19.09581 280.000
19.11576 308.000
19.13571 302.000
19.15566 292.000
19.17560 330.000
19.19555 331.000
19.21550 297.000
19.23544 314.000
19.25539 317.000
19.27534 341.000
19.29528 280.000
19.31523 304.000
19.33518 282.000
19.35513 307.000
19.37507 290.000
19.39502 279.000
19.41497 289.000
19.43491 335.000
19.45486 307.000
19.47481 303.000
19.49475 324.000
19.51470 295.000
19.53465 307.000
19.55459 302.000
19.57454 293.000
19.59449 312.000
19.61444 305.000
19.63438 301.000
19.65433 295.000
19.67428 285.000
19.69422 299.000
19.71417 308.000
19.73412 315.000
19.75406 320.000
19.77401 325.000
19.79396 315.000
19.81391 316.000
19.83385 297.000
19.85380 298.000
19.87375 328.000
19.89369 296.000
19.91364 339.000
19.93359 283.000
19.95353 295.000
19.97348 278.000
19.99343 300.000
20.01337 288.000
20.03332 361.000
20.05327 299.000
20.07322 311.000
20.09316 331.000
20.11311 297.000
20.13306 315.000
20.15300 338.000
20.17295 321.000
20.19290 265.000
20.21284 346.000
20.23279 302.000
20.25274 312.000
20.27269 280.000
20.29263 325.000
20.31258 303.000
20.33253 303.000
20.35247 313.000
20.37242 329.000
20.39237 323.000
20.41231 337.000
20.43226 308.000
20.45221 278.000
20.47215 287.000
20.49210 343.000
20.51205 304.000
20.53200 331.000
20.55194 319.000
20.57189 321.000
20.59184 370.000
20.61178 364.000
20.63173 390.000
20.65168 415.000
20.67162 426.000
20.69157 466.000
20.71152 493.000
20.73147 473.000
20.75141 462.000
20.77136 516.000
20.79131 442.000
20.81125 506.000
20.83120 416.000
20.85115 430.000
20.87109 436.000
20.89104 386.000
20.91099 380.000
20.93094 386.000
20.95088 369.000
20.97083 393.000
20.99078 351.000
21.01072 324.000
21.03067 365.000
21.05062 330.000
21.07056 355.000
21.09051 338.000
21.11046 358.000
21.13040 353.000
21.15035 360.000
21.17030 315.000
21.19025 306.000
21.21019 286.000
21.23014 343.000
21.25009 308.000
21.27003 343.000
21.28998 321.000
21.30993 326.000
21.32987 340.000
21.34982 316.000
21.36977 289.000
21.38972 333.000
21.40966 317.000
21.42961 323.000
21.44956 331.000
21.46950 311.000
21.48945 308.000
21.50940 299.000
21.52934 313.000
21.54929 335.000
21.56924 291.000
21.58918 284.000
21.60913 317.000
21.62908 305.000
21.64903 297.000
21.66897 309.000
21.68892 279.000
21.70887 292.000
21.72881 322.000
21.74876 336.000
21.76871 341.000
21.78865 314.000
21.80860 282.000
21.82855 316.000
21.84850 305.000
21.86844 352.000
21.88839 346.000
21.90834 315.000
21.92828 325.000
21.94823 336.000
21.96818 308.000
21.98812 321.000
22.00807 292.000
22.02802 299.000
22.04796 323.000
22.06791 295.000
22.08786 301.000
22.10781 325.000
22.12775 331.000
22.14770 298.000
22.16765 299.000
22.18759 346.000
22.20754 344.000
22.22749 334.000
22.24743 320.000
22.26738 319.000
22.28733 334.000
22.30728 288.000
22.32722 312.000
22.34717 363.000
22.36712 328.000
22.38706 290.000
22.40701 312.000
22.42696 323.000
22.44690 329.000
22.46685 296.000
22.48680 319.000
22.50675 328.000
22.52669 301.000
22.54664 300.000
22.56659 311.000
22.58653 361.000
22.60648 293.000
22.62643 326.000
22.64637 318.000
22.66632 346.000
22.68627 304.000
22.70621 309.000
22.72616 325.000
22.74611 322.000
22.76606 287.000
22.78600 336.000
22.80595 333.000
22.82590 293.000
22.84584 327.000
22.86579 324.000
22.88574 327.000
22.90568 294.000
22.92563 336.000
22.94558 302.000
22.96553 301.000
22.98547 307.000
23.00542 314.000
23.02537 293.000
23.04531 322.000
23.06526 306.000
23.08521 326.000
23.10515 325.000
23.12510 324.000
23.14505 317.000
23.16499 341.000
23.18494 318.000
23.20489 326.000
23.22484 328.000
23.24478 313.000
23.26473 324.000
23.28468 307.000
23.30462 342.000
23.32457 353.000
23.34452 350.000
23.36446 376.000
23.38441 306.000
23.40436 306.000
23.42431 310.000
23.44425 327.000
23.46420 305.000
23.48415 351.000
23.50409 338.000
23.52404 315.000
23.54399 363.000
23.56393 313.000
23.58388 304.000
23.60383 335.000
23.62377 320.000
23.64372 318.000
23.66367 317.000
23.68362 330.000
23.70356 330.000
23.72351 310.000
23.74346 320.000
23.76340 317.000
23.78335 335.000
23.80330 328.000
23.82324 319.000
23.84319 326.000
23.86314 313.000
23.88309 340.000
23.90303 336.000
23.92298 291.000
23.94293 342.000
23.96287 325.000
23.98282 300.000
24.00277 337.000
24.02271 332.000
24.04266 290.000
24.06261 316.000
24.08256 338.000
24.10250 324.000
24.12245 341.000
24.14240 319.000
24.16234 337.000
24.18229 308.000
24.20224 319.000
24.22218 307.000
24.24213 314.000
24.26208 323.000
24.28202 307.000
24.30197 333.000
24.32192 303.000
24.34187 344.000
24.36181 292.000
24.38176 311.000
24.40171 345.000
24.42165 332.000
24.44160 337.000
24.46155 317.000
24.48149 335.000
24.50144 316.000
24.52139 361.000
24.54134 329.000
24.56128 320.000
24.58123 361.000
24.60118 314.000
24.62112 324.000
24.64107 306.000
24.66102 330.000
24.68096 325.000
24.70091 328.000
24.72086 334.000
24.74080 327.000
24.76075 335.000
24.78070 338.000
24.80065 323.000
24.82059 329.000
24.84054 329.000
24.86049 299.000
24.88043 350.000
24.90038 338.000
24.92033 341.000
24.94027 355.000
24.96022 328.000
24.98017 369.000
25.00012 310.000
25.02006 303.000
25.04001 318.000
25.05996 344.000
25.07990 320.000
25.09985 300.000
25.11980 310.000
25.13974 340.000
25.15969 315.000
25.17964 312.000
25.19958 325.000
25.21953 370.000
25.23948 341.000
25.25943 315.000
25.27937 350.000
25.29932 315.000
25.31927 358.000
25.33921 315.000
25.35916 327.000
25.37911 346.000
25.39905 306.000
25.41900 341.000
25.43895 314.000
25.45890 348.000
25.47884 348.000
25.49879 314.000
25.51874 347.000
25.53868 331.000
25.55863 287.000
25.57858 380.000
25.59852 333.000
25.61847 342.000
25.63842 345.000
25.65837 349.000
25.67831 318.000
25.69826 326.000
25.71821 308.000
25.73815 325.000
25.75810 341.000
25.77805 341.000
25.79799 370.000
25.81794 336.000
25.83789 344.000
25.85783 333.000
25.87778 349.000
25.89773 318.000
25.91768 362.000
25.93762 363.000
25.95757 326.000
25.97752 315.000
25.99746 325.000
26.01741 334.000
26.03736 299.000
26.05730 329.000
26.07725 343.000
26.09720 356.000
26.11715 312.000
26.13709 346.000
26.15704 351.000
26.17699 343.000
26.19693 308.000
26.21688 362.000
26.23683 325.000
26.25677 319.000
26.27672 306.000
26.29667 346.000
26.31661 334.000
26.33656 321.000
26.35651 350.000
26.37646 340.000
26.39640 358.000
26.41635 355.000
26.43630 348.000
26.45624 342.000
26.47619 347.000
26.49614 376.000
26.51608 324.000
26.53603 364.000
26.55598 362.000
26.57593 354.000
26.59587 347.000
26.61582 340.000
26.63577 339.000
26.65571 340.000
26.67566 335.000
26.69561 328.000
26.71555 328.000
26.73550 334.000
26.75545 345.000
26.77539 348.000
26.79534 318.000
26.81529 359.000
26.83524 359.000
26.85518 329.000
26.87513 349.000
26.89508 336.000
26.91502 362.000
26.93497 353.000
26.95492 308.000
26.97486 372.000
26.99481 319.000
27.01476 322.000
27.03471 350.000
27.05465 333.000
27.07460 357.000
27.09455 349.000
27.11449 348.000
27.13444 324.000
27.15439 350.000
27.17433 336.000
27.19428 340.000
27.21423 351.000
27.23417 371.000
27.25412 376.000
27.27407 346.000
27.29402 383.000
27.31396 385.000
27.33391 366.000
27.35386 311.000
27.37380 345.000
27.39375 358.000
27.41370 320.000
27.43364 371.000
27.45359 344.000
27.47354 359.000
27.49349 296.000
27.51343 322.000
27.53338 347.000
27.55333 380.000
27.57327 317.000
27.59322 341.000
27.61317 356.000
27.63311 333.000
27.65306 328.000
27.67301 353.000
27.69296 340.000
27.71290 363.000
27.73285 343.000
27.75280 390.000
27.77274 356.000
27.79269 343.000
27.81264 366.000
27.83258 396.000
27.85253 364.000
27.87248 343.000
27.89242 361.000
27.91237 330.000
27.93232 360.000
27.95227 318.000
27.97221 368.000
27.99216 321.000
28.01211 331.000
28.03205 356.000
28.05200 364.000
28.07195 323.000
28.09189 354.000
28.11184 351.000
28.13179 343.000
28.15174 342.000
28.17168 368.000
28.19163 363.000
28.21158 333.000
28.23152 355.000
28.25147 324.000
28.27142 352.000
28.29136 358.000
28.31131 334.000
28.33126 343.000
28.35120 335.000
28.37115 351.000
28.39110 368.000
28.41105 358.000
28.43099 311.000
28.45094 346.000
28.47089 353.000
28.49083 364.000
28.51078 370.000
28.53073 350.000
28.55067 394.000
28.57062 343.000
28.59057 327.000
28.61052 355.000
28.63046 344.000
28.65041 365.000
28.67036 345.000
28.69030 368.000
28.71025 372.000
28.73020 356.000
28.75014 389.000
28.77009 386.000
28.79004 323.000
28.80998 341.000
28.82993 323.000
28.84988 319.000
28.86983 345.000
28.88977 337.000
28.90972 356.000
28.92967 371.000
28.94961 334.000
28.96956 353.000
28.98951 387.000
29.00945 377.000
29.02940 354.000
29.04935 334.000
29.06930 345.000
29.08924 363.000
29.10919 351.000
29.12914 356.000
29.14908 351.000
29.16903 372.000
29.18898 376.000
29.20892 363.000
29.22887 343.000
29.24882 361.000
29.26877 374.000
29.28871 388.000
29.30866 357.000
29.32861 389.000
29.34855 393.000
29.36850 370.000
29.38845 362.000
29.40839 382.000
29.42834 378.000
29.44829 402.000
29.46823 359.000
29.48818 376.000
29.50813 339.000
29.52808 383.000
29.54802 377.000
29.56797 347.000
29.58792 373.000
29.60786 387.000
29.62781 364.000
29.64776 404.000
29.66770 386.000
29.68765 354.000
29.70760 396.000
29.72755 348.000
29.74749 363.000
29.76744 375.000
29.78739 351.000
29.80733 371.000
29.82728 349.000
29.84723 410.000
29.86717 370.000
29.88712 390.000
29.90707 375.000
29.92701 353.000
29.94696 374.000
29.96691 392.000
29.98686 397.000
30.00680 397.000
30.02675 391.000
30.04670 416.000
30.06664 388.000
30.08659 423.000
30.10654 439.000
30.12648 405.000
30.14643 461.000
30.16638 456.000
30.18633 501.000
30.20627 521.000
30.22622 569.000
30.24617 596.000
30.26611 558.000
30.28606 557.000
30.30601 532.000
30.32595 492.000
30.34590 487.000
30.36585 437.000
30.38579 419.000
30.40574 398.000
30.42569 406.000
30.44564 402.000
30.46558 373.000
30.48553 368.000
30.50548 435.000
30.52542 397.000
30.54537 331.000
30.56532 320.000
30.58526 373.000
30.60521 390.000
30.62516 378.000
30.64511 360.000
30.66505 368.000
30.68500 332.000
30.70495 388.000
30.72489 351.000
30.74484 358.000
30.76479 323.000
30.78473 383.000
30.80468 383.000
30.82463 381.000
30.84458 336.000
30.86452 347.000
30.88447 348.000
30.90442 364.000
30.92436 355.000
30.94431 406.000
30.96426 355.000
30.98420 376.000
31.00415 406.000
31.02410 373.000
31.04404 375.000
31.06399 380.000
31.08394 359.000
31.10389 318.000
31.12383 362.000
31.14378 325.000
31.16373 345.000
31.18367 343.000
31.20362 360.000
31.22357 359.000
31.24351 348.000
31.26346 367.000
31.28341 374.000
31.30336 358.000
31.32330 373.000
31.34325 381.000
31.36320 370.000
31.38314 345.000
31.40309 356.000
31.42304 345.000
31.44298 375.000
31.46293 378.000
31.48288 378.000
31.50282 370.000
31.52277 392.000
31.54272 344.000
31.56267 351.000
31.58261 415.000
31.60256 360.000
31.62251 386.000
31.64245 373.000
31.66240 372.000
31.68235 349.000
31.70229 323.000
31.72224 361.000
31.74219 362.000
31.76214 340.000
31.78208 350.000
31.80203 351.000
31.82198 340.000
31.84192 327.000
31.86187 376.000
31.88182 363.000
31.90176 351.000
31.92171 310.000
31.94166 380.000
31.96160 373.000
31.98155 364.000
32.00150 321.000
32.02145 361.000
32.04139 351.000
32.06134 362.000
32.08129 344.000
32.10123 348.000
32.12118 352.000
32.14113 368.000
32.16107 370.000
32.18102 367.000
32.20097 364.000
32.22092 344.000
32.24086 354.000
32.26081 369.000
32.28076 373.000
32.30070 363.000
32.32065 356.000
32.34060 333.000
32.36054 357.000
32.38049 336.000
32.40044 356.000
32.42039 398.000
32.44033 389.000
32.46028 346.000
32.48023 357.000
32.50017 413.000
32.52012 393.000
32.54007 376.000
32.56001 365.000
32.57996 386.000
32.59991 319.000
32.61985 371.000
32.63980 396.000
32.65975 370.000
32.67970 386.000
32.69964 397.000
32.71959 339.000
32.73954 366.000
32.75948 336.000
32.77943 374.000
32.79938 341.000
32.81932 370.000
32.83927 376.000
32.85922 342.000
32.87917 376.000
32.89911 339.000
32.91906 376.000
32.93901 339.000
32.95895 346.000
32.97890 388.000
32.99885 361.000
33.01879 339.000
33.03874 384.000
33.05869 410.000
33.07863 352.000
33.09858 351.000
33.11853 364.000
33.13848 382.000
33.15842 369.000
33.17837 334.000
33.19832 320.000
33.21826 328.000
33.23821 314.000
33.25816 415.000
33.27810 381.000
33.29805 361.000
33.31800 400.000
33.33795 393.000
33.35789 384.000
33.37784 351.000
33.39779 374.000
33.41773 354.000
33.43768 365.000
33.45763 366.000
33.47757 335.000
33.49752 375.000
33.51747 363.000
33.53741 370.000
33.55736 337.000
33.57731 358.000
33.59726 367.000
33.61720 373.000
33.63715 380.000
33.65710 347.000
33.67704 396.000
33.69699 374.000
33.71694 372.000
33.73688 370.000
33.75683 345.000
33.77678 388.000
33.79673 374.000
33.81667 376.000
33.83662 353.000
33.85657 406.000
33.87651 387.000
33.89646 400.000
33.91641 401.000
33.93635 393.000
33.95630 387.000
33.97625 420.000
33.99620 449.000
34.01614 421.000
34.03609 421.000
34.05604 439.000
34.07598 486.000
34.09593 467.000
34.11588 514.000
34.13582 505.000
34.15577 564.000
34.17572 572.000
34.19566 539.000
34.21561 630.000
34.23556 662.000
34.25551 649.000
34.27545 591.000
34.29540 587.000
34.31535 584.000
34.33529 607.000
34.35524 560.000
34.37519 537.000
34.39513 537.000
34.41508 492.000
34.43503 493.000
34.45498 506.000
34.47492 464.000
34.49487 471.000
34.51482 450.000
34.53476 457.000
34.55471 419.000
34.57466 450.000
34.59460 447.000
34.61455 427.000
34.63450 409.000
34.65444 437.000
34.67439 422.000
34.69434 409.000
34.71429 437.000
34.73423 424.000
34.75418 443.000
34.77413 443.000
34.79407 419.000
34.81402 434.000
34.83397 461.000
34.85391 443.000
34.87386 442.000
34.89381 461.000
34.91376 463.000
34.93370 422.000
34.95365 432.000
34.97360 455.000
34.99354 439.000
35.01349 456.000
35.03344 495.000
35.05338 467.000
35.07333 449.000
35.09328 509.000
35.11322 447.000
35.13317 497.000
35.15312 470.000
35.17307 478.000
35.19301 487.000
35.21296 520.000
35.23291 513.000
35.25285 494.000
35.27280 493.000
35.29275 490.000
35.31269 502.000
35.33264 541.000
35.35259 495.000
35.37254 526.000
35.39248 541.000
35.41243 526.000
35.43238 520.000
35.45232 540.000
35.47227 573.000
35.49222 630.000
35.51216 654.000
35.53211 680.000
35.55206 742.000
35.57201 843.000
35.59195 932.000
35.61190 1051.000
35.63185 1129.000
35.65179 1168.000
35.67174 1048.000
35.69169 971.000
35.71163 957.000
35.73158 816.000
35.75153 841.000
35.77147 694.000
35.79142 627.000
35.81137 630.000
35.83132 609.000
35.85126 608.000
35.87121 535.000
35.89116 505.000
35.91110 583.000
35.93105 541.000
35.95100 545.000
35.97094 563.000
35.99089 524.000
36.01084 555.000
36.03079 547.000
36.05073 478.000
36.07068 566.000
36.09063 574.000
36.11057 584.000
36.13052 596.000
36.15047 573.000
36.17041 584.000
36.19036 629.000
36.21031 627.000
36.23025 615.000
36.25020 642.000
36.27015 671.000
36.29010 701.000
36.31004 677.000
36.32999 721.000
36.34994 729.000
36.36988 770.000
36.38983 789.000
36.40978 739.000
36.42972 816.000
36.44967 866.000
36.46962 836.000
36.48957 867.000
36.50951 921.000
36.52946 903.000
36.54941 966.000
36.56935 994.000
36.58930 1114.000
36.60925 1138.000
36.62919 1251.000
36.64914 1395.000
36.66909 1439.000
36.68903 1520.000
36.70898 1653.000
36.72893 1852.000
36.74888 2050.000
36.76882 2185.000
36.78877 2428.000
36.80872 2570.000
36.82866 2676.000
36.84861 2553.000
36.86856 2676.000
36.88850 2566.000
36.90845 2470.000
36.92840 2202.000
36.94835 2204.000
36.96829 2037.000
36.98824 1901.000
37.00819 1707.000
37.02813 1678.000
37.04808 1671.000
37.06803 1567.000
37.08797 1705.000
37.10792 1666.000
37.12787 1637.000
37.14781 1535.000
37.16776 1430.000
37.18771 1392.000
37.20766 1240.000
37.22760 1171.000
37.24755 1061.000
37.26750 966.000
37.28744 848.000
37.30739 763.000
37.32734 788.000
37.34728 651.000
37.36723 618.000
37.38718 564.000
37.40713 625.000
37.42707 552.000
37.44702 551.000
37.46697 522.000
37.48691 519.000
37.50686 478.000
37.52681 487.000
37.54675 485.000
37.56670 454.000
37.58665 472.000
37.60660 476.000
37.62654 460.000
37.64649 448.000
37.66644 442.000
37.68638 449.000
37.70633 423.000
37.72628 431.000
37.74622 438.000
37.76617 407.000
37.78612 427.000
37.80606 434.000
37.82601 418.000
37.84596 419.000
37.86591 448.000
37.88585 416.000
37.90580 451.000
37.92575 462.000
37.94569 423.000
37.96564 431.000
37.98559 394.000
38.00553 427.000
38.02548 394.000
38.04543 371.000
38.06538 407.000
38.08532 400.000
38.10527 398.000
38.12522 409.000
38.14516 382.000
38.16511 360.000
38.18506 417.000
38.20500 394.000
38.22495 407.000
38.24490 398.000
38.26484 420.000
38.28479 407.000
38.30474 422.000
38.32469 399.000
38.34463 411.000
38.36458 402.000
38.38453 389.000
38.40447 395.000
38.42442 404.000
38.44437 386.000
38.46431 394.000
38.48426 380.000
38.50421 436.000
38.52416 401.000
38.54410 433.000
38.56405 394.000
38.58400 400.000
38.60394 460.000
38.62389 389.000
38.64384 398.000
38.66378 430.000
38.68373 453.000
38.70368 428.000
38.72362 413.000
38.74357 436.000
38.76352 436.000
38.78347 402.000
38.80341 420.000
38.82336 407.000
38.84331 429.000
38.86325 429.000
38.88320 398.000
38.90315 394.000
38.92309 435.000
38.94304 397.000
38.96299 401.000
38.98294 415.000
39.00288 407.000
39.02283 375.000
39.04278 397.000
39.06272 407.000
39.08267 395.000
39.10262 392.000
39.12256 410.000
39.14251 398.000
39.16246 396.000
39.18241 409.000
39.20235 372.000
39.22230 390.000
39.24225 389.000
39.26219 376.000
39.28214 402.000
39.30209 391.000
39.32203 380.000
39.34198 398.000
39.36193 428.000
39.38187 373.000
39.40182 389.000
39.42177 373.000
39.44172 379.000
39.46166 373.000
39.48161 378.000
39.50156 390.000
39.52150 427.000
39.54145 386.000
39.56140 376.000
39.58134 390.000
39.60129 403.000
39.62124 382.000
39.64119 368.000
39.66113 411.000
39.68108 406.000
39.70103 391.000
39.72097 422.000
39.74092 358.000
39.76087 419.000
39.78081 425.000
39.80076 380.000
39.82071 386.000
39.84065 404.000
39.86060 383.000
39.88055 438.000
39.90050 401.000
39.92044 371.000
39.94039 391.000
39.96034 420.000
39.98028 385.000
40.00023 372.000
40.02018 367.000
40.04012 381.000
40.06007 401.000
40.08002 400.000
40.09997 375.000
40.11991 417.000
40.13986 410.000
40.15981 441.000
40.17975 391.000
40.19970 432.000
40.21965 383.000
40.23959 414.000
40.25954 384.000
40.27949 428.000
40.29943 355.000
40.31938 404.000
40.33933 392.000
40.35928 368.000
40.37922 441.000
40.39917 443.000
40.41912 430.000
40.43906 398.000
40.45901 412.000
40.47896 421.000
40.49890 401.000
40.51885 392.000
40.53880 401.000
40.55875 424.000
40.57869 446.000
40.59864 437.000
40.61859 437.000
40.63853 440.000
40.65848 412.000
40.67843 426.000
40.69837 437.000
40.71832 435.000
40.73827 457.000
40.75822 419.000
40.77816 438.000
40.79811 431.000
40.81806 411.000
40.83800 444.000
40.85795 416.000
40.87790 449.000
40.89784 466.000
40.91779 489.000
40.93774 498.000
40.95768 425.000
40.97763 478.000
40.99758 500.000
41.01753 436.000
41.03747 457.000
41.05742 469.000
41.07737 483.000
41.09731 489.000
41.11726 486.000
41.13721 504.000
41.15715 501.000
41.17710 495.000
41.19705 500.000
41.21700 486.000
41.23694 499.000
41.25689 528.000
41.27684 520.000
41.29678 500.000
41.31673 516.000
41.33668 488.000
41.35662 521.000
41.37657 510.000
41.39652 546.000
41.41646 536.000
41.43641 541.000
41.45636 536.000
41.47631 537.000
41.49625 552.000
41.51620 571.000
41.53615 570.000
41.55609 550.000
41.57604 583.000
41.59599 529.000
41.61593 556.000
41.63588 565.000
41.65583 552.000
41.67578 543.000
41.69572 585.000
41.71567 631.000
41.73562 660.000
41.75556 633.000
41.77551 691.000
41.79546 639.000
41.81540 696.000
41.83535 651.000
41.85530 710.000
41.87524 676.000
41.89519 674.000
41.91514 616.000
41.93509 654.000
41.95503 663.000
41.97498 666.000
41.99493 620.000
42.01487 627.000
42.03482 635.000
42.05477 627.000
42.07471 633.000
42.09466 698.000
42.11461 660.000
42.13456 705.000
42.15450 716.000
42.17445 715.000
42.19440 748.000
42.21434 829.000
42.23429 790.000
42.25424 767.000
42.27418 806.000
42.29413 845.000
42.31408 878.000
42.33403 890.000
42.35397 920.000
42.37392 986.000
42.39387 950.000
42.41381 1001.000
42.43376 1001.000
42.45371 1137.000
42.47365 1154.000
42.49360 1200.000
42.51355 1217.000
42.53349 1374.000
42.55344 1338.000
42.57339 1476.000
42.59334 1499.000
42.61328 1572.000
42.63323 1663.000
42.65318 1793.000
42.67312 1749.000
42.69307 1916.000
42.71302 1979.000
42.73296 2114.000
42.75291 2214.000
42.77286 2242.000
42.79281 2326.000
42.81275 2426.000
42.83270 2429.000
42.85265 2433.000
42.87259 2476.000
42.89254 2433.000
42.91249 2387.000
42.93243 2364.000
42.95238 2357.000
42.97233 2311.000
42.99227 2346.000
43.01222 2313.000
43.03217 2326.000
43.05212 2298.000
43.07206 2181.000
43.09201 2101.000
43.11196 2100.000
43.13190 2028.000
43.15185 2027.000
43.17180 1956.000
43.19174 1785.000
43.21169 1821.000
43.23164 1732.000
43.25159 1637.000
43.27153 1493.000
43.29148 1488.000
43.31143 1391.000
43.33137 1364.000
43.35132 1159.000
43.37127 1134.000
43.39121 1051.000
43.41116 974.000
43.43111 924.000
43.45105 853.000
43.47100 829.000
43.49095 754.000
43.51090 761.000
43.53084 714.000
43.55079 677.000
43.57074 640.000
43.59068 634.000
43.61063 639.000
43.63058 577.000
43.65052 574.000
43.67047 539.000
43.69042 516.000
43.71037 569.000
43.73031 542.000
43.75026 501.000
43.77021 537.000
43.79015 544.000
43.81010 481.000
43.83005 520.000
43.84999 556.000
43.86994 492.000
43.88989 501.000
43.90984 455.000
43.92978 517.000
43.94973 463.000
43.96968 461.000
43.98962 489.000
44.00957 435.000
44.02952 485.000
44.04946 443.000
44.06941 466.000
44.08936 485.000
44.10930 452.000
44.12925 378.000
44.14920 435.000
44.16915 454.000
44.18909 430.000
44.20904 430.000
44.22899 419.000
44.24893 434.000
44.26888 441.000
44.28883 446.000
44.30877 378.000
44.32872 405.000
44.34867 428.000
44.36862 409.000
44.38856 453.000
44.40851 439.000
44.42846 400.000
44.44840 399.000
44.46835 418.000
44.48830 428.000
44.50824 429.000
44.52819 368.000
44.54814 417.000
44.56808 428.000
44.58803 422.000
44.60798 418.000
44.62793 402.000
44.64787 401.000
44.66782 435.000
44.68777 406.000
44.70771 404.000
44.72766 409.000
44.74761 386.000
44.76755 375.000
44.78750 444.000
44.80745 426.000
44.82740 394.000
44.84734 431.000
44.86729 382.000
44.88724 405.000
44.90718 390.000
44.92713 383.000
44.94708 426.000
44.96702 431.000
44.98697 390.000
45.00692 414.000
45.02686 430.000
45.04681 420.000
45.06676 378.000
45.08671 365.000
45.10665 370.000
45.12660 380.000
45.14655 393.000
45.16649 371.000
45.18644 398.000
45.20639 376.000
45.22633 426.000
45.24628 374.000
45.26623 384.000
45.28618 388.000
45.30612 352.000
45.32607 367.000
45.34602 371.000
45.36596 376.000
45.38591 376.000
45.40586 408.000
45.42580 383.000
45.44575 355.000
45.46570 414.000
45.48565 368.000
45.50559 394.000
45.52554 394.000
45.54549 380.000
45.56543 426.000
45.58538 393.000
45.60533 392.000
45.62527 365.000
45.64522 366.000
45.66517 373.000
45.68511 376.000
45.70506 402.000
45.72501 398.000
45.74496 385.000
45.76490 390.000
45.78485 367.000
45.80480 374.000
45.82474 361.000
45.84469 393.000
45.86464 365.000
45.88458 361.000
45.90453 375.000
45.92448 358.000
45.94443 364.000
45.96437 332.000
45.98432 394.000
46.00427 382.000
46.02421 405.000
46.04416 374.000
46.06411 396.000
46.08405 349.000
46.10400 355.000
46.12395 358.000
46.14389 360.000
46.16384 381.000
46.18379 388.000
46.20374 336.000
46.22368 361.000
46.24363 365.000
46.26358 381.000
46.28352 375.000
46.30347 369.000
46.32342 355.000
46.34336 356.000
46.36331 352.000
46.38326 374.000
46.40321 364.000
46.42315 356.000
46.44310 357.000
46.46305 367.000
46.48299 398.000
46.50294 333.000
46.52289 371.000
46.54283 374.000
46.56278 369.000
46.58273 349.000
46.60267 356.000
46.62262 324.000
46.64257 383.000
46.66252 350.000
46.68246 357.000
46.70241 346.000
46.72236 351.000
46.74230 365.000
46.76225 353.000
46.78220 348.000
46.80214 353.000
46.82209 344.000
46.84204 323.000
46.86199 370.000
46.88193 365.000
46.90188 385.000
46.92183 397.000
46.94177 363.000
46.96172 373.000
46.98167 338.000
47.00161 371.000
47.02156 354.000
47.04151 348.000
47.06146 360.000
47.08140 345.000
47.10135 323.000
47.12130 346.000
47.14124 345.000
47.16119 332.000
47.18114 342.000
47.20108 396.000
47.22103 372.000
47.24098 374.000
47.26092 372.000
47.28087 358.000
47.30082 357.000
47.32077 347.000
47.34071 344.000
47.36066 335.000
47.38061 361.000
47.40055 335.000
47.42050 346.000
47.44045 368.000
47.46039 357.000
47.48034 340.000
47.50029 346.000
47.52024 351.000
47.54018 364.000
47.56013 338.000
47.58008 346.000
47.60002 397.000
47.61997 317.000
47.63992 335.000
47.65986 352.000
47.67981 335.000
47.69976 337.000
47.71970 324.000
47.73965 338.000
47.75960 346.000
47.77955 337.000
47.79949 358.000
47.81944 390.000
47.83939 314.000
47.85933 390.000
47.87928 347.000
47.89923 356.000
47.91917 367.000
47.93912 377.000
47.95907 349.000
47.97902 340.000
47.99896 369.000
48.01891 307.000
48.03886 361.000
48.05880 346.000
48.07875 311.000
48.09870 333.000
48.11864 339.000
48.13859 366.000
48.15854 350.000
48.17848 323.000
48.19843 368.000
48.21838 359.000
48.23833 326.000
48.25827 387.000
48.27822 365.000
48.29817 381.000
48.31811 326.000
48.33806 382.000
48.35801 352.000
48.37795 332.000
48.39790 343.000
48.41785 370.000
48.43780 340.000
48.45774 376.000
48.47769 367.000
48.49764 356.000
48.51758 325.000
48.53753 376.000
48.55748 334.000
48.57742 378.000
48.59737 328.000
48.61732 344.000
48.63726 344.000
48.65721 331.000
48.67716 344.000
48.69711 328.000
48.71705 371.000
48.73700 353.000
48.75695 330.000
48.77689 357.000
48.79684 367.000
48.81679 315.000
48.83673 359.000
48.85668 331.000
48.87663 345.000
48.89658 354.000
48.91652 348.000
48.93647 352.000
48.95642 345.000
48.97636 334.000
48.99631 344.000
49.01626 347.000
49.03620 394.000
49.05615 330.000
49.07610 369.000
49.09605 358.000
49.11599 412.000
49.13594 378.000
49.15589 401.000
49.17583 385.000
49.19578 369.000
49.21573 418.000
49.23567 358.000
49.25562 386.000
49.27557 349.000
49.29551 329.000
49.31546 359.000
49.33541 368.000
49.35536 384.000
49.37530 389.000
49.39525 359.000
49.41520 315.000
49.43514 357.000
49.45509 343.000
49.47504 372.000
49.49498 363.000
49.51493 361.000
49.53488 351.000
49.55483 357.000
49.57477 352.000
49.59472 356.000
49.61467 326.000
49.63461 363.000
49.65456 352.000
49.67451 342.000
49.69445 337.000
49.71440 341.000
49.73435 338.000
49.75429 339.000
49.77424 331.000
49.79419 341.000
49.81414 357.000
49.83408 337.000
49.85403 354.000
49.87398 334.000
49.89392 342.000
49.91387 306.000
49.93382 323.000
49.95376 361.000
49.97371 320.000
49.99366 342.000
50.01361 327.000
50.03355 325.000
50.05350 333.000
50.07345 339.000
50.09339 354.000
50.11334 341.000
50.13329 338.000
50.15323 356.000
50.17318 366.000
50.19313 342.000
50.21307 377.000
50.23302 345.000
50.25297 323.000
50.27292 336.000
50.29286 304.000
50.31281 337.000
50.33276 354.000
50.35270 342.000
50.37265 344.000
50.39260 341.000
50.41254 353.000
50.43249 328.000
50.45244 331.000
50.47239 301.000
50.49233 362.000
50.51228 376.000
50.53223 296.000
50.55217 363.000
50.57212 333.000
50.59207 362.000
50.61201 342.000
50.63196 335.000
50.65191 334.000
50.67186 348.000
50.69180 332.000
50.71175 339.000
50.73170 297.000
50.75164 353.000
50.77159 347.000
50.79154 346.000
50.81148 323.000
50.83143 317.000
50.85138 325.000
50.87132 306.000
50.89127 341.000
50.91122 345.000
50.93117 349.000
50.95111 309.000
50.97106 364.000
50.99101 343.000
51.01095 363.000
51.03090 321.000
51.05085 337.000
51.07079 363.000
51.09074 344.000
51.11069 346.000
51.13064 353.000
51.15058 336.000
51.17053 350.000
51.19048 309.000
51.21042 328.000
51.23037 320.000
51.25032 340.000
51.27026 330.000
51.29021 347.000
51.31016 319.000
51.33010 328.000
51.35005 347.000
51.37000 333.000
51.38995 365.000
51.40989 366.000
51.42984 331.000
51.44979 344.000
51.46973 362.000
51.48968 351.000
51.50963 341.000
51.52957 330.000
51.54952 330.000
51.56947 329.000
51.58942 329.000
51.60936 349.000
51.62931 362.000
51.64926 323.000
51.66920 341.000
51.68915 321.000
51.70910 326.000
51.72904 345.000
51.74899 332.000
51.76894 335.000
51.78888 327.000
51.80883 325.000
51.82878 330.000
51.84873 370.000
51.86867 324.000
51.88862 335.000
51.90857 316.000
51.92851 343.000
51.94846 334.000
51.96841 357.000
51.98835 347.000
52.00830 324.000
52.02825 330.000
52.04820 350.000
52.06814 328.000
52.08809 362.000
52.10804 349.000
52.12798 356.000
52.14793 326.000
52.16788 327.000
52.18782 348.000
52.20777 335.000
52.22772 341.000
52.24767 291.000
52.26761 339.000
52.28756 356.000
52.30751 341.000
52.32745 340.000
52.34740 320.000
52.36735 348.000
52.38729 344.000
52.40724 336.000
52.42719 348.000
52.44713 329.000
52.46708 320.000
52.48703 313.000
52.50698 319.000
52.52692 362.000
52.54687 358.000
52.56682 304.000
52.58676 369.000
52.60671 336.000
52.62666 334.000
52.64660 321.000
52.66655 367.000
52.68650 337.000
52.70645 304.000
52.72639 349.000
52.74634 330.000
52.76629 347.000
52.78623 312.000
52.80618 348.000
52.82613 355.000
52.84607 312.000
52.86602 339.000
52.88597 333.000
52.90591 311.000
52.92586 331.000
52.94581 295.000
52.96576 317.000
52.98570 317.000
53.00565 356.000
53.02560 351.000
53.04554 330.000
53.06549 345.000
53.08544 334.000
53.10538 307.000
53.12533 323.000
53.14528 363.000
53.16523 339.000
53.18517 353.000
53.20512 348.000
53.22507 326.000
53.24501 328.000
53.26496 336.000
53.28491 327.000
53.30485 368.000
53.32480 344.000
53.34475 339.000
53.36469 323.000
53.38464 345.000
53.40459 376.000
53.42454 352.000
53.44448 349.000
53.46443 321.000
53.48438 344.000
53.50432 329.000
53.52427 350.000
53.54422 366.000
53.56416 348.000
53.58411 364.000
53.60406 353.000
53.62401 357.000
53.64395 354.000
53.66390 377.000
53.68385 362.000
53.70379 365.000
53.72374 355.000
53.74369 414.000
53.76363 358.000
53.78358 420.000
53.80353 375.000
53.82348 390.000
53.84342 383.000
53.86337 375.000
53.88332 407.000
53.90326 358.000
53.92321 377.000
53.94316 366.000
53.96310 385.000
53.98305 386.000
54.00300 341.000
54.02294 369.000
54.04289 350.000
54.06284 367.000
54.08279 329.000
54.10273 328.000
54.12268 351.000
54.14263 330.000
54.16257 366.000
54.18252 359.000
54.20247 318.000
54.22241 339.000
54.24236 337.000
54.26231 360.000
54.28226 379.000
54.30220 346.000
54.32215 336.000
54.34210 379.000
54.36204 349.000
54.38199 362.000
54.40194 340.000
54.42188 343.000
54.44183 326.000
54.46178 368.000
54.48172 316.000
54.50167 317.000
54.52162 361.000
54.54157 344.000
54.56151 306.000
54.58146 332.000
54.60141 335.000
54.62135 348.000
54.64130 375.000
54.66125 372.000
54.68119 315.000
54.70114 354.000
54.72109 348.000
54.74104 326.000
54.76098 326.000
54.78093 385.000
54.80088 339.000
54.82082 327.000
54.84077 328.000
54.86072 332.000
54.88066 328.000
54.90061 336.000
54.92056 333.000
54.94050 340.000
54.96045 347.000
54.98040 345.000
55.00035 358.000
55.02029 338.000
55.04024 329.000
55.06019 374.000
55.08013 319.000
55.10008 314.000
55.12003 307.000
55.13997 336.000
55.15992 354.000
55.17987 310.000
55.19982 317.000
55.21976 335.000
55.23971 340.000
55.25966 352.000
55.27960 317.000
55.29955 315.000
55.31950 326.000
55.33944 338.000
55.35939 351.000
55.37934 347.000
55.39929 331.000
55.41923 362.000
55.43918 342.000
55.45913 340.000
55.47907 349.000
55.49902 339.000
55.51897 347.000
55.53891 320.000
55.55886 362.000
55.57881 349.000
55.59875 324.000
55.61870 308.000
55.63865 341.000
55.65860 358.000
55.67854 347.000
55.69849 346.000
55.71844 365.000
55.73838 311.000
55.75833 370.000
55.77828 338.000
55.79822 355.000
55.81817 329.000
55.83812 343.000
55.85807 355.000
55.87801 334.000
55.89796 324.000
55.91791 323.000
55.93785 347.000
55.95780 345.000
55.97775 354.000
55.99769 309.000
56.01764 318.000
56.03759 328.000
56.05753 337.000
56.07748 321.000
56.09743 330.000
56.11738 316.000
56.13732 338.000
56.15727 349.000
56.17722 345.000
56.19716 327.000
56.21711 353.000
56.23706 363.000
56.25700 352.000
56.27695 301.000
56.29690 355.000
56.31685 392.000
56.33679 331.000
56.35674 282.000
56.37669 303.000
56.39663 342.000
56.41658 342.000
56.43653 313.000
56.45647 335.000
56.47642 353.000
56.49637 325.000
56.51631 341.000
56.53626 337.000
56.55621 358.000
56.57616 315.000
56.59610 340.000
56.61605 379.000
56.63600 343.000
56.65594 350.000
56.67589 351.000
56.69584 319.000
56.71578 339.000
56.73573 328.000
56.75568 362.000
56.77563 337.000
56.79557 332.000
56.81552 353.000
56.83547 355.000
56.85541 347.000
56.87536 333.000
56.89531 333.000
56.91525 348.000
56.93520 338.000
56.95515 340.000
56.97510 345.000
56.99504 376.000
57.01499 337.000
57.03494 352.000
57.05488 380.000
57.07483 363.000
57.09478 372.000
57.11472 339.000
57.13467 421.000
57.15462 432.000
57.17456 432.000
57.19451 387.000
57.21446 388.000
57.23441 457.000
57.25435 423.000
57.27430 433.000
57.29425 481.000
57.31419 504.000
57.33414 494.000
57.35409 462.000
57.37403 452.000
57.39398 461.000
57.41393 444.000
57.43388 465.000
57.45382 436.000
57.47377 400.000
57.49372 407.000
57.51366 448.000
57.53361 343.000
57.55356 413.000
57.57350 366.000
57.59345 345.000
57.61340 409.000
57.63334 374.000
57.65329 363.000
57.67324 377.000
57.69319 371.000
57.71313 331.000
57.73308 359.000
57.75303 347.000
57.77297 361.000
57.79292 367.000
57.81287 388.000
57.83281 327.000
57.85276 376.000
57.87271 352.000
57.89266 351.000
57.91260 376.000
57.93255 362.000
57.95250 341.000
57.97244 345.000
57.99239 337.000
58.01234 357.000
58.03228 333.000
58.05223 360.000
58.07218 340.000
58.09212 378.000
58.11207 343.000
58.13202 337.000
58.15197 366.000
58.17191 359.000
58.19186 362.000
58.21181 341.000
58.23175 334.000
58.25170 328.000
58.27165 372.000
58.29159 360.000
58.31154 343.000
58.33149 347.000
58.35144 375.000
58.37138 348.000
58.39133 353.000
58.41128 356.000
58.43122 339.000
58.45117 312.000
58.47112 346.000
58.49106 347.000
58.51101 363.000
58.53096 345.000
58.55090 320.000
58.57085 358.000
58.59080 371.000
58.61075 370.000
58.63069 354.000
58.65064 381.000
58.67059 377.000
58.69053 355.000
58.71048 325.000
58.73043 360.000
58.75037 337.000
58.77032 369.000
58.79027 375.000
58.81022 374.000
58.83016 381.000
58.85011 349.000
58.87006 373.000
58.89000 365.000
58.90995 406.000
58.92990 342.000
58.94984 379.000
58.96979 345.000
58.98974 364.000
59.00969 323.000
59.02963 366.000
59.04958 303.000
59.06953 334.000
59.08947 351.000
59.10942 377.000
59.12937 355.000
59.14931 364.000
59.16926 356.000
59.18921 372.000
59.20915 342.000
59.22910 319.000
59.24905 353.000
59.26900 371.000
59.28894 365.000
59.30889 394.000
59.32884 359.000
59.34878 359.000
59.36873 369.000
59.38868 359.000
59.40862 364.000
59.42857 385.000
59.44852 356.000
59.46847 354.000
59.48841 352.000
59.50836 398.000
59.52831 362.000
59.54825 370.000
59.56820 365.000
59.58815 354.000
59.60809 366.000
59.62804 371.000
59.64799 392.000
59.66793 373.000
59.68788 384.000
59.70783 369.000
59.72778 389.000
59.74772 383.000
59.76767 408.000
59.78762 387.000
59.80756 370.000
59.82751 371.000
59.84746 392.000
59.86740 418.000
59.88735 409.000
59.90730 395.000
59.92725 394.000
59.94719 393.000
59.96714 414.000
59.98709 419.000
60.00703 437.000
60.02698 374.000
60.04693 396.000
60.06687 371.000
60.08682 387.000
60.10677 419.000
60.12671 381.000
60.14666 414.000
60.16661 377.000
60.18656 357.000
60.20650 374.000
60.22645 375.000
60.24640 344.000
60.26634 379.000
60.28629 404.000
60.30624 381.000
60.32618 381.000
60.34613 371.000
60.36608 375.000
60.38603 403.000
60.40597 364.000
60.42592 377.000
60.44587 370.000
60.46581 382.000
60.48576 435.000
60.50571 435.000
60.52565 397.000
60.54560 416.000
60.56555 400.000
60.58550 360.000
60.60544 400.000
60.62539 425.000
60.64534 413.000
60.66528 408.000
60.68523 394.000
60.70518 387.000
60.72512 381.000
60.74507 429.000
60.76502 406.000
60.78496 422.000
60.80491 401.000
60.82486 400.000
60.84481 440.000
60.86475 411.000
60.88470 399.000
60.90465 435.000
60.92459 441.000
60.94454 424.000
60.96449 442.000
60.98443 415.000
61.00438 410.000
61.02433 466.000
61.04428 436.000
61.06422 428.000
61.08417 458.000
61.10412 451.000
61.12406 478.000
61.14401 488.000
61.16396 446.000
61.18390 471.000
61.20385 489.000
61.22380 470.000
61.24374 470.000
61.26369 525.000
61.28364 475.000
61.30359 510.000
61.32353 462.000
61.34348 490.000
61.36343 555.000
61.38337 512.000
61.40332 516.000
61.42327 567.000
61.44321 561.000
61.46316 559.000
61.48311 586.000
61.50306 568.000
61.52300 603.000
61.54295 631.000
61.56290 623.000
61.58284 584.000
61.60279 602.000
61.62274 650.000
61.64268 694.000
61.66263 664.000
61.68258 696.000
61.70252 677.000
61.72247 667.000
61.74242 692.000
61.76237 727.000
61.78231 722.000
61.80226 718.000
61.82221 764.000
61.84215 754.000
61.86210 810.000
61.88205 778.000
61.90199 842.000
61.92194 851.000
61.94189 907.000
61.96184 912.000
61.98178 950.000
62.00173 998.000
62.02168 999.000
62.04162 1035.000
62.06157 1121.000
62.08152 1071.000
62.10146 1246.000
62.12141 1181.000
62.14136 1174.000
62.16131 1180.000
62.18125 1195.000
62.20120 1235.000
62.22115 1205.000
62.24109 1303.000
62.26104 1272.000
62.28099 1252.000
62.30093 1278.000
62.32088 1253.000
62.34083 1258.000
62.36077 1216.000
62.38072 1229.000
62.40067 1168.000
62.42062 1181.000
62.44056 1121.000
62.46051 1165.000
62.48046 1138.000
62.50040 1104.000
62.52035 1106.000
62.54030 1033.000
62.56024 1096.000
62.58019 1097.000
62.60014 1113.000
62.62009 1093.000
62.64003 1139.000
62.65998 1075.000
62.67993 1037.000
62.69987 1077.000
62.71982 1068.000
62.73977 1004.000
62.75971 998.000
62.77966 998.000
62.79961 967.000
62.81955 912.000
62.83950 916.000
62.85945 929.000
62.87940 877.000
62.89934 823.000
62.91929 854.000
62.93924 873.000
62.95918 853.000
62.97913 809.000
62.99908 778.000
63.01902 767.000
63.03897 701.000
63.05892 682.000
63.07887 693.000
63.09881 660.000
63.11876 620.000
63.13871 650.000
63.15865 603.000
63.17860 566.000
63.19855 560.000
63.21849 543.000
63.23844 541.000
63.25839 548.000
63.27833 499.000
63.29828 459.000
63.31823 438.000
63.33818 479.000
63.35812 468.000
63.37807 492.000
63.39802 429.000
63.41796 479.000
63.43791 410.000
63.45786 448.000
63.47780 425.000
63.49775 423.000
63.51770 380.000
63.53765 416.000
63.55759 439.000
63.57754 395.000
63.59749 441.000
63.61743 389.000
63.63738 383.000
63.65733 457.000
63.67727 431.000
63.69722 369.000
63.71717 406.000
63.73712 385.000
63.75706 395.000
63.77701 372.000
63.79696 370.000
63.81690 408.000
63.83685 389.000
63.85680 393.000
63.87674 355.000
63.89669 376.000
63.91664 383.000
63.93658 381.000
63.95653 377.000
63.97648 386.000
63.99643 387.000
64.01637 408.000
64.03632 407.000
64.05627 382.000
64.07621 377.000
64.09616 375.000
64.11611 394.000
64.13605 374.000
64.15600 343.000
64.17595 372.000
64.19590 361.000
64.21584 358.000
64.23579 390.000
64.25574 379.000
64.27568 343.000
64.29563 384.000
64.31558 359.000
64.33552 363.000
64.35547 347.000
64.37542 389.000
64.39536 382.000
64.41531 381.000
64.43526 331.000
64.45521 373.000
64.47515 363.000
64.49510 354.000
64.51505 354.000
64.53499 373.000
64.55494 384.000
64.57489 352.000
64.59483 348.000
64.61478 329.000
64.63473 321.000
64.65468 343.000
64.67462 358.000
64.69457 319.000
64.71452 374.000
64.73446 335.000
64.75441 341.000
64.77436 365.000
64.79430 386.000
64.81425 360.000
64.83420 360.000
64.85414 393.000
64.87409 375.000
64.89404 389.000
64.91399 329.000
64.93393 384.000
64.95388 349.000
64.97383 358.000
64.99377 406.000
65.01372 339.000
65.03367 375.000
65.05361 363.000
65.07356 364.000
65.09351 359.000
65.11346 339.000
65.13340 366.000
65.15335 337.000
65.17330 372.000
65.19324 342.000
65.21319 384.000
65.23314 336.000
65.25308 342.000
65.27303 384.000
65.29298 348.000
65.31293 384.000
65.33287 387.000
65.35282 357.000
65.37277 381.000
65.39271 334.000
65.41266 347.000
65.43261 355.000
65.45255 349.000
65.47250 336.000
65.49245 341.000
65.51239 385.000
65.53234 350.000
65.55229 363.000
65.57224 352.000
65.59218 369.000
65.61213 375.000
65.63208 370.000
65.65202 358.000
65.67197 328.000
65.69192 378.000
65.71186 364.000
65.73181 340.000
65.75176 365.000
65.77171 369.000
65.79165 363.000
65.81160 356.000
65.83155 353.000
65.85149 355.000
65.87144 344.000
65.89139 326.000
65.91133 360.000
65.93128 353.000
65.95123 334.000
65.97117 381.000
65.99112 295.000
66.01107 381.000
66.03102 387.000
66.05096 342.000
66.07091 366.000
66.09086 358.000
66.11080 339.000
66.13075 345.000
66.15070 325.000
66.17064 396.000
66.19059 349.000
66.21054 386.000
66.23049 336.000
66.25043 370.000
66.27038 357.000
66.29033 379.000
66.31027 343.000
66.33022 355.000
66.35017 374.000
66.37011 339.000
66.39006 380.000
66.41001 344.000
66.42995 383.000
66.44990 355.000
66.46985 369.000
66.48980 343.000
66.50974 365.000
66.52969 354.000
66.54964 346.000
66.56958 346.000
66.58953 353.000
66.60948 354.000
66.62942 355.000
66.64937 388.000
66.66932 349.000
66.68927 371.000
66.70921 362.000
66.72916 339.000
66.74911 357.000
66.76905 343.000
66.78900 341.000
66.80895 316.000
66.82889 341.000
66.84884 326.000
66.86879 345.000
66.88874 360.000
66.90868 324.000
66.92863 389.000
66.94858 332.000
66.96852 342.000
66.98847 360.000
67.00842 366.000
67.02836 349.000
67.04831 358.000
67.06826 341.000
67.08820 321.000
67.10815 353.000
67.12810 327.000
67.14805 346.000
67.16799 352.000
67.18794 337.000
67.20789 345.000
67.22783 319.000
67.24778 413.000
67.26773 338.000
67.28767 347.000
67.30762 316.000
67.32757 368.000
67.34752 324.000
67.36746 326.000
67.38741 345.000
67.40736 348.000
67.42730 364.000
67.44725 377.000
67.46720 311.000
67.48714 330.000
67.50709 376.000
67.52704 328.000
67.54698 331.000
67.56693 388.000
67.58688 354.000
67.60683 318.000
67.62677 328.000
67.64672 333.000
67.66667 353.000
67.68661 349.000
67.70656 358.000
67.72651 351.000
67.74645 360.000
67.76640 355.000
67.78635 335.000
67.80630 358.000
67.82624 358.000
67.84619 373.000
67.86614 356.000
67.88608 348.000
67.90603 363.000
67.92598 364.000
67.94592 369.000
67.96587 367.000
67.98582 359.000
68.00576 337.000
68.02571 358.000
68.04566 316.000
68.06561 363.000
68.08555 356.000
68.10550 331.000
68.12545 351.000
68.14539 324.000
68.16534 307.000
68.18529 381.000
68.20523 330.000
68.22518 378.000
68.24513 384.000
68.26508 353.000
68.28502 330.000
68.30497 342.000
68.32492 340.000
68.34486 329.000
68.36481 347.000
68.38476 328.000
68.40470 342.000
68.42465 390.000
68.44460 321.000
68.46455 362.000
68.48449 340.000
68.50444 372.000
68.52439 329.000
68.54433 355.000
68.56428 351.000
68.58423 334.000
68.60417 335.000
68.62412 355.000
68.64407 372.000
68.66401 343.000
68.68396 343.000
68.70391 335.000
68.72386 337.000
68.74380 352.000
68.76375 328.000
68.78370 333.000
68.80364 356.000
68.82359 336.000
68.84354 322.000
68.86348 358.000
68.88343 308.000
68.90338 367.000
68.92333 316.000
68.94327 356.000
68.96322 330.000
68.98317 329.000
69.00311 357.000
69.02306 377.000
69.04301 352.000
69.06295 363.000
69.08290 335.000
69.10285 355.000
69.12279 346.000
69.14274 342.000
69.16269 358.000
69.18264 324.000
69.20258 314.000
69.22253 333.000
69.24248 357.000
69.26242 344.000
69.28237 336.000
69.30232 344.000
69.32226 366.000
69.34221 314.000
69.36216 304.000
69.38211 334.000
69.40205 348.000
69.42200 353.000
69.44195 340.000
69.46189 349.000
69.48184 319.000
69.50179 363.000
69.52173 332.000
69.54168 316.000
69.56163 313.000
69.58157 354.000
69.60152 365.000
69.62147 331.000
69.64142 348.000
69.66136 348.000
69.68131 344.000
69.70126 363.000
69.72120 353.000
69.74115 355.000
69.76110 337.000
69.78104 335.000
69.80099 354.000
69.82094 309.000
69.84089 379.000
69.86083 361.000
69.88078 301.000
69.90073 393.000
69.92067 350.000
69.94062 352.000
69.96057 376.000
69.98051 365.000
70.00046 358.000
70.02041 342.000
70.04035 361.000
70.06030 350.000
70.08025 348.000
70.10020 381.000
70.12014 337.000
70.14009 336.000
70.16004 337.000
70.17998 327.000
70.19993 334.000
70.21988 375.000
70.23982 348.000
70.25977 375.000
70.27972 342.000
70.29967 324.000
70.31961 319.000
70.33956 339.000
70.35951 349.000
70.37945 304.000
70.39940 359.000
70.41935 318.000
70.43929 344.000
70.45924 333.000
70.47919 342.000
70.49914 356.000
70.51908 357.000
70.53903 343.000
70.55898 332.000
70.57892 366.000
70.59887 331.000
70.61882 362.000
70.63876 324.000
70.65871 334.000
70.67866 337.000
70.69860 338.000
70.71855 352.000
70.73850 346.000
70.75845 369.000
70.77839 351.000
70.79834 363.000
70.81829 353.000
70.83823 338.000
70.85818 347.000
70.87813 326.000
70.89807 313.000
70.91802 375.000
70.93797 356.000
70.95792 367.000
70.97786 306.000
70.99781 344.000
71.01776 321.000
71.03770 378.000
71.05765 367.000
71.07760 338.000
71.09754 365.000
71.11749 390.000
71.13744 350.000
71.15738 332.000
71.17733 327.000
71.19728 321.000
71.21723 379.000
71.23717 370.000
71.25712 341.000
71.27707 372.000
71.29701 347.000
71.31696 366.000
71.33691 354.000
71.35685 345.000
71.37680 370.000
71.39675 370.000
71.41670 404.000
71.43664 366.000
71.45659 383.000
71.47654 354.000
71.49648 358.000
71.51643 371.000
71.53638 370.000
71.55632 349.000
71.57627 385.000
71.59622 343.000
71.61616 344.000
71.63611 368.000
71.65606 348.000
71.67601 342.000
71.69595 392.000
71.71590 362.000
71.73585 316.000
71.75579 339.000
71.77574 360.000
71.79569 355.000
71.81563 376.000
71.83558 362.000
71.85553 402.000
71.87548 377.000
71.89542 349.000
71.91537 385.000
71.93532 345.000
71.95526 346.000
71.97521 386.000
71.99516 391.000
72.01510 374.000
72.03505 388.000
72.05500 379.000
72.07495 375.000
72.09489 364.000
72.11484 379.000
72.13479 356.000
72.15473 365.000
72.17468 355.000
72.19463 352.000
72.21457 367.000
72.23452 378.000
72.25447 341.000
72.27441 393.000
72.29436 361.000
72.31431 343.000
72.33426 386.000
72.35420 348.000
72.37415 368.000
72.39410 355.000
72.41404 338.000
72.43399 398.000
72.45394 364.000
72.47388 396.000
72.49383 381.000
72.51378 370.000
72.53373 385.000
72.55367 376.000
72.57362 380.000
72.59357 367.000
72.61351 338.000
72.63346 345.000
72.65341 348.000
72.67335 395.000
72.69330 322.000
72.71325 400.000
72.73319 416.000
72.75314 369.000
72.77309 394.000
72.79304 366.000
72.81298 388.000
72.83293 367.000
72.85288 387.000
72.87282 378.000
72.89277 364.000
72.91272 374.000
72.93266 372.000
72.95261 351.000
72.97256 365.000
72.99251 362.000
73.01245 358.000
73.03240 375.000
73.05235 361.000
73.07229 374.000
73.09224 422.000
73.11219 385.000
73.13213 405.000
73.15208 391.000
73.17203 346.000
73.19197 377.000
73.21192 376.000
73.23187 381.000
73.25182 366.000
73.27176 378.000
73.29171 395.000
73.31166 387.000
73.33160 357.000
73.35155 371.000
73.37150 356.000
73.39144 356.000
73.41139 339.000
73.43134 395.000
73.45129 376.000
73.47123 382.000
73.49118 409.000
73.51113 341.000
73.53107 389.000
73.55102 365.000
73.57097 368.000
73.59091 376.000
73.61086 393.000
73.63081 391.000
73.65076 393.000
73.67070 381.000
73.69065 418.000
73.71060 385.000
73.73054 405.000
73.75049 392.000
73.77044 391.000
73.79038 407.000
73.81033 414.000
73.83028 419.000
73.85022 360.000
73.87017 422.000
73.89012 430.000
73.91007 427.000
73.93001 433.000
73.94996 452.000
73.96991 416.000
73.98985 426.000
74.00980 418.000
74.02975 415.000
74.04969 406.000
74.06964 439.000
74.08959 410.000
74.10954 455.000
74.12948 421.000
74.14943 422.000
74.16938 427.000
74.18932 445.000
74.20927 505.000
74.22922 489.000
74.24916 488.000
74.26911 485.000
74.28906 498.000
74.30900 508.000
74.32895 529.000
74.34890 525.000
74.36885 544.000
74.38879 583.000
74.40874 539.000
74.42869 576.000
74.44863 587.000
74.46858 594.000
74.48853 593.000
74.50847 631.000
74.52842 637.000
74.54837 642.000
74.56832 602.000
74.58826 593.000
74.60821 653.000
74.62816 615.000
74.64810 617.000
74.66805 625.000
74.68800 634.000
74.70794 586.000
74.72789 713.000
74.74784 636.000
74.76778 617.000
74.78773 587.000
74.80768 659.000
74.82763 605.000
74.84757 651.000
74.86752 580.000
74.88747 587.000
74.90741 604.000
74.92736 585.000
74.94731 638.000
74.96725 577.000
74.98720 587.000
75.00715 562.000
75.02710 563.000
75.04704 586.000
75.06699 620.000
75.08694 596.000
75.10688 574.000
75.12683 586.000
75.14678 565.000
75.16672 609.000
75.18667 544.000
75.20662 549.000
75.22657 595.000
75.24651 536.000
75.26646 512.000
75.28641 487.000
75.30635 527.000
75.32630 502.000
75.34625 522.000
75.36619 492.000
75.38614 520.000
75.40609 482.000
75.42603 447.000
75.44598 457.000
75.46593 471.000
75.48588 438.000
75.50582 491.000
75.52577 431.000
75.54572 483.000
75.56566 450.000
75.58561 395.000
75.60556 432.000
75.62550 420.000
75.64545 378.000
75.66540 432.000
75.68535 403.000
75.70529 399.000
75.72524 428.000
75.74519 375.000
75.76513 385.000
75.78508 399.000
75.80503 413.000
75.82497 397.000
75.84492 403.000
75.86487 405.000
75.88481 398.000
75.90476 402.000
75.92471 372.000
75.94466 427.000
75.96460 367.000
75.98455 352.000
76.00450 371.000
76.02444 394.000
76.04439 376.000
76.06434 359.000
76.08428 393.000
76.10423 404.000
76.12418 385.000
76.14413 356.000
76.16407 348.000
76.18402 365.000
76.20397 358.000
76.22391 361.000
76.24386 384.000
76.26381 375.000
76.28375 378.000
76.30370 373.000
76.32365 334.000
76.34359 368.000
76.36354 343.000
76.38349 336.000
76.40344 364.000
76.42338 368.000
76.44333 361.000
76.46328 391.000
76.48322 366.000
76.50317 370.000
76.52312 372.000
76.54306 358.000
76.56301 344.000
76.58296 384.000
76.60291 330.000
76.62285 358.000
76.64280 333.000
76.66275 340.000
76.68269 347.000
76.70264 356.000
76.72259 352.000
76.74253 348.000
76.76248 337.000
76.78243 364.000
76.80238 408.000
76.82232 385.000
76.84227 352.000
76.86222 355.000
76.88216 377.000
76.90211 398.000
76.92206 343.000
76.94200 374.000
76.96195 361.000
76.98190 379.000
77.00184 370.000
77.02179 412.000
77.04174 362.000
77.06169 396.000
77.08163 393.000
77.10158 378.000
77.12153 389.000
77.14147 405.000
77.16142 356.000
77.18137 382.000
77.20131 361.000
77.22126 383.000
77.24121 401.000
77.26116 395.000
77.28110 390.000
77.30105 372.000
77.32100 353.000
77.34094 391.000
77.36089 391.000
77.38084 400.000
77.40078 395.000
77.42073 387.000
77.44068 361.000
77.46062 369.000
77.48057 348.000
77.50052 403.000
77.52047 365.000
77.54041 357.000
77.56036 373.000
77.58031 364.000
77.60025 387.000
77.62020 394.000
77.64015 358.000
77.66009 406.000
77.68004 376.000
77.69999 371.000
77.71994 380.000
77.73988 389.000
77.75983 424.000
77.77978 392.000
77.79972 423.000
77.81967 370.000
77.83962 397.000
77.85956 410.000
77.87951 388.000
77.89946 430.000
77.91940 418.000
77.93935 401.000
77.95930 406.000
77.97925 434.000
77.99919 436.000
78.01914 404.000
78.03909 457.000
78.05903 419.000
78.07898 427.000
78.09893 451.000
78.11887 419.000
78.13882 451.000
78.15877 437.000
78.17872 431.000
78.19866 477.000
78.21861 456.000
78.23856 472.000
78.25850 474.000
78.27845 417.000
78.29840 477.000
78.31834 523.000
78.33829 515.000
78.35824 516.000
78.37819 535.000
78.39813 526.000
78.41808 486.000
78.43803 557.000
78.45797 599.000
78.47792 537.000
78.49787 529.000
78.51781 530.000
78.53776 565.000
78.55771 541.000
78.57765 590.000
78.59760 561.000
78.61755 522.000
78.63750 529.000
78.65744 565.000
78.67739 552.000
78.69734 548.000
78.71728 525.000
78.73723 527.000
78.75718 485.000
78.77712 559.000
78.79707 514.000
78.81702 527.000
78.83697 521.000
78.85691 508.000
78.87686 520.000
78.89681 495.000
78.91675 486.000
78.93670 462.000
78.95665 499.000
78.97659 510.000
78.99654 498.000
79.01649 486.000
79.03643 484.000
79.05638 445.000
79.07633 531.000
79.09628 497.000
79.11622 549.000
79.13617 550.000
79.15612 469.000
79.17606 512.000
79.19601 512.000
79.21596 473.000
79.23590 476.000
79.25585 505.000
79.27580 482.000
79.29575 498.000
79.31569 459.000
79.33564 424.000
79.35559 440.000
79.37553 448.000
79.39548 428.000
79.41543 447.000
79.43537 430.000
79.45532 435.000
79.47527 443.000
79.49521 419.000
79.51516 429.000
79.53511 396.000
79.55506 397.000
79.57500 390.000
79.59495 418.000
79.61490 394.000
79.63484 384.000
79.65479 350.000
79.67474 369.000
79.69468 391.000
79.71463 378.000
79.73458 392.000
79.75453 367.000
79.77447 402.000
79.79442 374.000
79.81437 382.000
79.83431 367.000
79.85426 381.000
79.87421 345.000
79.89415 347.000
79.91410 398.000
79.93405 380.000
79.95399 333.000
79.97394 349.000
79.99389 348.000
80.01384 365.000
80.03378 337.000
80.05373 369.000
80.07368 350.000
80.09362 359.000
80.11357 342.000
80.13352 346.000
80.15346 331.000
80.17341 313.000
80.19336 310.000
80.21331 381.000
80.23325 359.000
80.25320 344.000
80.27315 370.000
80.29309 368.000
80.31304 346.000
80.33299 333.000
80.35293 357.000
80.37288 351.000
80.39283 313.000
80.41278 356.000
80.43272 381.000
80.45267 350.000
80.47262 327.000
80.49256 355.000
80.51251 350.000
80.53246 313.000
80.55240 367.000
80.57235 388.000
80.59230 343.000
80.61224 331.000
80.63219 334.000
80.65214 328.000
80.67209 381.000
80.69203 383.000
80.71198 302.000
80.73193 352.000
80.75187 322.000
80.77182 358.000
80.79177 305.000
80.81171 323.000
80.83166 339.000
80.85161 353.000
80.87156 347.000
80.89150 337.000
80.91145 338.000
80.93140 320.000
80.95134 329.000
80.97129 351.000
80.99124 364.000
81.01118 372.000
81.03113 338.000
81.05108 300.000
81.07102 360.000
81.09097 315.000
81.11092 361.000
81.13087 356.000
81.15081 354.000
81.17076 362.000
81.19071 319.000
81.21065 304.000
81.23060 306.000
81.25055 325.000
81.27049 353.000
81.29044 353.000
81.31039 338.000
81.33034 342.000
81.35028 323.000
81.37023 342.000
81.39018 360.000
81.41012 349.000
81.43007 349.000
81.45002 331.000
81.46996 310.000
81.48991 355.000
81.50986 324.000
81.52980 368.000
81.54975 355.000
81.56970 335.000
81.58965 333.000
81.60959 349.000
81.62954 347.000
81.64949 317.000
81.66943 377.000
81.68938 351.000
81.70933 327.000
81.72927 349.000
81.74922 341.000
81.76917 340.000
81.78912 320.000
81.80906 322.000
81.82901 364.000
81.84896 346.000
81.86890 320.000
81.88885 322.000
81.90880 351.000
81.92874 309.000
81.94869 299.000
81.96864 303.000
81.98859 336.000
82.00853 365.000
82.02848 336.000
82.04843 353.000
82.06837 340.000
82.08832 328.000
82.10827 311.000
82.12821 301.000
82.14816 335.000
82.16811 338.000
82.18805 354.000
82.20800 302.000
82.22795 325.000
82.24790 343.000
82.26784 335.000
82.28779 290.000
82.30774 349.000
82.32768 361.000
82.34763 349.000
82.36758 359.000
82.38752 333.000
82.40747 355.000
82.42742 300.000
82.44737 321.000
82.46731 366.000
82.48726 321.000
82.50721 332.000
82.52715 332.000
82.54710 343.000
82.56705 333.000
82.58699 312.000
82.60694 339.000
82.62689 304.000
82.64683 343.000
82.66678 314.000
82.68673 362.000
82.70668 355.000
82.72662 348.000
82.74657 359.000
82.76652 318.000
82.78646 383.000
82.80641 314.000
82.82636 385.000
82.84630 318.000
82.86625 374.000
82.88620 373.000
82.90615 336.000
82.92609 342.000
82.94604 318.000
82.96599 335.000
82.98593 312.000
83.00588 360.000
83.02583 347.000
83.04577 366.000
83.06572 333.000
83.08567 299.000
83.10561 366.000
83.12556 334.000
83.14551 341.000
83.16546 342.000
83.18540 317.000
83.20535 325.000
83.22530 341.000
83.24524 336.000
83.26519 334.000
83.28514 341.000
83.30508 334.000
83.32503 357.000
83.34498 320.000
83.36493 327.000
83.38487 351.000
83.40482 354.000
83.42477 368.000
83.44471 331.000
83.46466 339.000
83.48461 347.000
83.50455 356.000
83.52450 311.000
83.54445 376.000
83.56440 351.000
83.58434 339.000
83.60429 345.000
83.62424 318.000
83.64418 331.000
83.66413 332.000
83.68408 335.000
83.70402 308.000
83.72397 343.000
83.74392 324.000
83.76386 306.000
83.78381 358.000
83.80376 335.000
83.82371 358.000
83.84365 309.000
83.86360 350.000
83.88355 313.000
83.90349 308.000
83.92344 360.000
83.94339 343.000
83.96333 326.000
83.98328 346.000
84.00323 310.000
84.02318 330.000
84.04312 307.000
84.06307 344.000
84.08302 350.000
84.10296 355.000
84.12291 305.000
84.14286 331.000
84.16280 310.000
84.18275 301.000
84.20270 343.000
84.22264 360.000
84.24259 331.000
84.26254 343.000
84.28249 338.000
84.30243 347.000
84.32238 353.000
84.34233 362.000
84.36227 335.000
84.38222 338.000
84.40217 298.000
84.42211 342.000
84.44206 318.000
84.46201 331.000
84.48196 317.000
84.50190 319.000
84.52185 325.000
84.54180 328.000
84.56174 343.000
84.58169 326.000
84.60164 343.000
84.62158 314.000
84.64153 338.000
84.66148 334.000
84.68142 297.000
84.70137 369.000
84.72132 322.000
84.74127 371.000
84.76121 372.000
84.78116 345.000
84.80111 347.000
84.82105 330.000
84.84100 313.000
84.86095 342.000
84.88089 364.000
84.90084 329.000
84.92079 353.000
84.94074 340.000
84.96068 359.000
84.98063 352.000
85.00058 363.000
85.02052 358.000
85.04047 298.000
85.06042 348.000
85.08036 346.000
85.10031 333.000
85.12026 321.000
85.14021 314.000
85.16015 342.000
85.18010 346.000
85.20005 351.000
85.21999 319.000
85.23994 333.000
85.25989 312.000
85.27983 330.000
85.29978 342.000
85.31973 300.000
85.33967 297.000
85.35962 348.000
85.37957 333.000
85.39952 312.000
85.41946 333.000
85.43941 343.000
85.45936 325.000
85.47930 332.000
85.49925 338.000
85.51920 325.000
85.53914 335.000
85.55909 303.000
85.57904 337.000
85.59899 321.000
85.61893 333.000
85.63888 341.000
85.65883 350.000
85.67877 327.000
85.69872 315.000
85.71867 323.000
85.73861 309.000
85.75856 300.000
85.77851 330.000
85.79845 325.000
85.81840 297.000
85.83835 316.000
85.85830 319.000
85.87824 346.000
85.89819 305.000
85.91814 353.000
85.93808 329.000
85.95803 374.000
85.97798 365.000
85.99792 334.000
86.01787 350.000
86.03782 324.000
86.05777 336.000
86.07771 322.000
86.09766 322.000
86.11761 343.000
86.13755 347.000
86.15750 367.000
86.17745 325.000
86.19739 296.000
86.21734 350.000
86.23729 349.000
86.25723 339.000
86.27718 335.000
86.29713 346.000
86.31708 330.000
86.33702 337.000
86.35697 313.000
86.37692 313.000
86.39686 370.000
86.41681 329.000
86.43676 358.000
86.45670 321.000
86.47665 327.000
86.49660 334.000
86.51655 365.000
86.53649 319.000
86.55644 327.000
86.57639 331.000
86.59633 322.000
86.61628 333.000
86.63623 336.000
86.65617 349.000
86.67612 327.000
86.69607 324.000
86.71602 301.000
86.73596 315.000
86.75591 338.000
86.77586 334.000
86.79580 322.000
86.81575 315.000
86.83570 347.000
86.85564 324.000
86.87559 349.000
86.89554 311.000
86.91548 347.000
86.93543 339.000
86.95538 341.000
86.97533 363.000
86.99527 329.000
87.01522 351.000
87.03517 325.000
87.05511 368.000
87.07506 311.000
87.09501 341.000
87.11495 339.000
87.13490 318.000
87.15485 299.000
87.17480 355.000
87.19474 328.000
87.21469 323.000
87.23464 348.000
87.25458 328.000
87.27453 333.000
87.29448 353.000
87.31442 344.000
87.33437 342.000
87.35432 348.000
87.37426 403.000
87.39421 357.000
87.41416 339.000
87.43411 352.000
87.45405 362.000
87.47400 338.000
87.49395 358.000
87.51389 339.000
87.53384 348.000
87.55379 351.000
87.57373 334.000
87.59368 365.000
87.61363 337.000
87.63358 346.000
87.65352 346.000
87.67347 326.000
87.69342 328.000
87.71336 331.000
87.73331 319.000
87.75326 340.000
87.77320 354.000
87.79315 333.000
87.81310 333.000
87.83304 345.000
87.85299 361.000
87.87294 369.000
87.89289 373.000
87.91283 351.000
87.93278 332.000
87.95273 316.000
87.97267 358.000
87.99262 318.000
88.01257 346.000
88.03251 340.000
88.05246 319.000
88.07241 310.000
88.09236 357.000
88.11230 327.000
88.13225 337.000
88.15220 320.000
88.17214 319.000
88.19209 349.000
88.21204 348.000
88.23198 327.000
88.25193 349.000
88.27188 308.000
88.29183 344.000
88.31177 340.000
88.33172 331.000
88.35167 354.000
88.37161 343.000
88.39156 349.000
88.41151 329.000
88.43145 341.000
88.45140 320.000
88.47135 322.000
88.49129 345.000
88.51124 361.000
88.53119 314.000
88.55114 317.000
88.57108 371.000
88.59103 354.000
88.61098 331.000
88.63092 350.000
88.65087 355.000
88.67082 307.000
88.69076 325.000
88.71071 322.000
88.73066 297.000
88.75061 365.000
88.77055 296.000
88.79050 329.000
88.81045 329.000
88.83039 360.000
88.85034 342.000
88.87029 357.000
88.89023 323.000
88.91018 316.000
88.93013 356.000
88.95007 343.000
88.97002 318.000
88.98997 352.000
89.00992 366.000
89.02986 324.000
89.04981 324.000
89.06976 327.000
89.08970 329.000
89.10965 346.000
89.12960 360.000
89.14954 340.000
89.16949 319.000
89.18944 357.000
89.20939 334.000
89.22933 314.000
89.24928 323.000
89.26923 353.000
89.28917 336.000
89.30912 344.000
89.32907 318.000
89.34901 334.000
89.36896 309.000
89.38891 335.000
89.40885 339.000
89.42880 347.000
89.44875 311.000
89.46870 342.000
89.48864 325.000
89.50859 366.000
89.52854 314.000
89.54848 340.000
89.56843 340.000
89.58838 348.000
89.60832 325.000
89.62827 362.000
89.64822 340.000
89.66817 350.000
89.68811 340.000
89.70806 359.000
89.72801 344.000
89.74795 351.000
89.76790 335.000
89.78785 352.000
89.80779 365.000
89.82774 352.000
89.84769 342.000
89.86764 343.000
89.88758 303.000
89.90753 358.000
89.92748 329.000
89.94742 332.000
89.96737 318.000
89.98732 327.000
90.00726 336.000
