10.00000 73.000
10.01995 70.000
10.03989 70.000
10.05984 65.000
10.07979 54.000
10.09973 78.000
10.11968 63.000
10.13963 74.000
10.15958 71.000
10.17952 60.000
10.19947 66.000
10.21942 66.000
10.23936 76.000
10.25931 52.000
10.27926 55.000
10.29920 61.000
10.31915 65.000
10.33910 79.000
10.35905 76.000
10.37899 75.000
10.39894 64.000
10.41889 55.000
10.43883 66.000
10.45878 75.000
10.47873 65.000
10.49867 65.000
10.51862 78.000
10.53857 63.000
10.55851 67.000
10.57846 73.000
10.59841 53.000
10.61836 58.000
10.63830 77.000
10.65825 64.000
10.67820 67.000
10.69814 66.000
10.71809 73.000
10.73804 63.000
10.75798 85.000
10.77793 75.000
10.79788 68.000
10.81783 71.000
10.83777 76.000
10.85772 63.000
10.87767 73.000
10.89761 73.000
10.91756 74.000
10.93751 61.000
10.95745 70.000
10.97740 80.000
10.99735 70.000
11.01730 74.000
11.03724 57.000
11.05719 75.000
11.07714 66.000
11.09708 64.000
11.11703 71.000
11.13698 69.000
11.15692 71.000
11.17687 76.000
11.19682 71.000
11.21676 83.000
11.23671 56.000
11.25666 75.000
11.27661 67.000
11.29655 69.000
11.31650 80.000
11.33645 62.000
11.35639 65.000
11.37634 65.000
11.39629 81.000
11.41623 50.000
11.43618 62.000
11.45613 88.000
11.47608 69.000
11.49602 71.000
11.51597 73.000
11.53592 70.000
11.55586 56.000
11.57581 68.000
11.59576 79.000
11.61570 77.000
11.63565 55.000
11.65560 73.000
11.67554 77.000
11.69549 74.000
11.71544 84.000
11.73539 75.000
11.75533 62.000
11.77528 80.000
11.79523 89.000
11.81517 74.000
11.83512 70.000
11.85507 72.000
11.87501 82.000
11.89496 80.000
11.91491 58.000
11.93486 66.000
11.95480 79.000
11.97475 81.000
11.99470 50.000
12.01464 75.000
12.03459 74.000
12.05454 68.000
12.07448 84.000
12.09443 70.000
12.11438 74.000
12.13432 77.000
12.15427 63.000
12.17422 66.000
12.19417 72.000
12.21411 68.000
12.23406 72.000
12.25401 70.000
12.27395 71.000
12.29390 64.000
12.31385 71.000
12.33379 100.000
12.35374 70.000
12.37369 69.000
12.39364 75.000
12.41358 69.000
12.43353 65.000
12.45348 71.000
12.47342 90.000
12.49337 73.000
12.51332 78.000
12.53326 62.000
12.55321 81.000
12.57316 65.000
12.59311 72.000
12.61305 67.000
12.63300 69.000
12.65295 80.000
12.67289 66.000
12.69284 84.000
12.71279 71.000
12.73273 80.000
12.75268 62.000
12.77263 72.000
12.79257 80.000
12.81252 78.000
12.83247 80.000
12.85242 74.000
12.87236 71.000
12.89231 84.000
12.91226 84.000
12.93220 64.000
12.95215 71.000
12.97210 70.000
12.99204 80.000
13.01199 68.000
13.03194 59.000
13.05189 68.000
13.07183 79.000
13.09178 58.000
13.11173 93.000
13.13167 65.000
13.15162 78.000
13.17157 79.000
13.19151 61.000
13.21146 75.000
13.23141 82.000
13.25135 84.000
13.27130 78.000
13.29125 84.000
13.31120 71.000
13.33114 82.000
13.35109 78.000
13.37104 79.000
13.39098 78.000
13.41093 77.000
13.43088 75.000
13.45082 66.000
13.47077 69.000
13.49072 80.000
13.51067 69.000
13.53061 77.000
13.55056 85.000
13.57051 77.000
13.59045 70.000
13.61040 74.000
13.63035 80.000
13.65029 82.000
13.67024 78.000
13.69019 76.000
13.71013 66.000
13.73008 78.000
13.75003 78.000
13.76998 68.000
13.78992 86.000
13.80987 76.000
13.82982 77.000
13.84976 78.000
13.86971 70.000
13.88966 86.000
13.90960 83.000
13.92955 84.000
13.94950 76.000
13.96945 64.000
13.98939 100.000
14.00934 80.000
14.02929 79.000
14.04923 75.000
14.06918 52.000
14.08913 64.000
14.10907 75.000
14.12902 80.000
14.14897 91.000
14.16892 84.000
14.18886 86.000
14.20881 96.000
14.22876 78.000
14.24870 94.000
14.26865 97.000
14.28860 68.000
14.30854 79.000
14.32849 73.000
14.34844 82.000
14.36838 97.000
14.38833 88.000
14.40828 89.000
14.42823 73.000
14.44817 67.000
14.46812 91.000
14.48807 86.000
14.50801 84.000
14.52796 78.000
14.54791 80.000
14.56785 77.000
14.58780 86.000
14.60775 70.000
14.62770 69.000
14.64764 71.000
14.66759 75.000
14.68754 67.000
14.70748 94.000
14.72743 85.000
14.74738 92.000
14.76732 93.000
14.78727 82.000
14.80722 84.000
14.82716 99.000
14.84711 73.000
14.86706 89.000
14.88701 87.000
14.90695 84.000
14.92690 93.000
14.94685 71.000
14.96679 82.000
14.98674 75.000
15.00669 93.000
15.02663 102.000
15.04658 90.000
15.06653 88.000
15.08648 95.000
15.10642 84.000
15.12637 96.000
15.14632 102.000
15.16626 101.000
15.18621 88.000
15.20616 95.000
15.22610 93.000
15.24605 109.000
15.26600 97.000
15.28594 98.000
15.30589 84.000
15.32584 98.000
15.34579 104.000
15.36573 116.000
15.38568 111.000
15.40563 101.000
15.42557 118.000
15.44552 141.000
15.46547 107.000
15.48541 117.000
15.50536 119.000
15.52531 106.000
15.54526 114.000
15.56520 130.000
15.58515 148.000
15.60510 150.000
15.62504 135.000
15.64499 154.000
15.66494 147.000
15.68488 161.000
15.70483 160.000
15.72478 160.000
15.74472 193.000
15.76467 234.000
15.78462 257.000
15.80457 301.000
15.82451 479.000
15.84446 666.000
15.86441 1017.000
15.88435 1373.000
15.90430 1817.000
15.92425 2438.000
15.94419 2579.000
15.96414 2715.000
15.98409 2859.000
16.00404 3002.000
16.02398 3035.000
16.04393 2611.000
16.06388 2020.000
16.08382 1293.000
16.10377 711.000
16.12372 462.000
16.14366 345.000
16.16361 261.000
16.18356 288.000
16.20351 256.000
16.22345 303.000
16.24340 333.000
16.26335 332.000
16.28329 333.000
16.30324 374.000
16.32319 345.000
16.34313 294.000
16.36308 300.000
16.38303 269.000
16.40297 182.000
16.42292 171.000
16.44287 156.000
16.46282 132.000
16.48276 127.000
16.50271 112.000
16.52266 121.000
16.54260 120.000
16.56255 108.000
16.58250 108.000
16.60244 85.000
16.62239 82.000
16.64234 91.000
16.66229 86.000
16.68223 113.000
16.70218 91.000
16.72213 84.000
16.74207 112.000
16.76202 96.000
16.78197 97.000
16.80191 97.000
16.82186 98.000
16.84181 96.000
16.86175 113.000
16.88170 97.000
16.90165 86.000
16.92160 111.000
16.94154 91.000
16.96149 120.000
16.98144 110.000
17.00138 82.000
17.02133 72.000
17.04128 82.000
17.06122 97.000
17.08117 82.000
17.10112 99.000
17.12107 95.000
17.14101 86.000
17.16096 85.000
17.18091 86.000
17.20085 92.000
17.22080 97.000
17.24075 88.000
17.26069 84.000
17.28064 80.000
17.30059 97.000
17.32053 91.000
17.34048 88.000
17.36043 97.000
17.38038 83.000
17.40032 79.000
17.42027 94.000
17.44022 85.000
17.46016 84.000
17.48011 69.000
17.50006 84.000
17.52000 84.000
17.53995 81.000
17.55990 87.000
17.57985 76.000
17.59979 77.000
17.61974 81.000
17.63969 75.000
17.65963 92.000
17.67958 86.000
17.69953 109.000
17.71947 80.000
17.73942 72.000
17.75937 81.000
17.77932 92.000
17.79926 78.000
17.81921 83.000
17.83916 102.000
17.85910 98.000
17.87905 112.000
17.89900 70.000
17.91894 98.000
17.93889 94.000
17.95884 91.000
17.97878 85.000
17.99873 93.000
18.01868 70.000
18.03863 99.000
18.05857 108.000
18.07852 103.000
18.09847 106.000
18.11841 101.000
18.13836 83.000
18.15831 95.000
18.17825 83.000
18.19820 89.000
18.21815 105.000
18.23810 87.000
18.25804 86.000
18.27799 83.000
18.29794 85.000
18.31788 95.000
18.33783 94.000
18.35778 112.000
18.37772 107.000
18.39767 134.000
18.41762 142.000
18.43756 183.000
18.45751 172.000
18.47746 164.000
18.49741 186.000
18.51735 182.000
18.53730 199.000
18.55725 222.000
18.57719 166.000
18.59714 139.000
18.61709 110.000
18.63703 104.000
18.65698 88.000
18.67693 97.000
18.69688 102.000
18.71682 79.000
18.73677 100.000
18.75672 87.000
18.77666 104.000
18.79661 79.000
18.81656 95.000
18.83650 89.000
18.85645 76.000
18.87640 94.000
18.89634 92.000
18.91629 94.000
18.93624 95.000
18.95619 110.000
18.97613 95.000
18.99608 83.000
19.01603 86.000
19.03597 96.000
19.05592 88.000
19.07587 87.000
19.09581 94.000
19.11576 74.000
19.13571 89.000
19.15566 93.000
19.17560 99.000
19.19555 84.000
19.21550 108.000
19.23544 79.000
19.25539 102.000
19.27534 94.000
19.29528 91.000
19.31523 100.000
19.33518 95.000
19.35513 85.000
19.37507 73.000
19.39502 101.000
19.41497 98.000
19.43491 77.000
19.45486 90.000
19.47481 101.000
19.49475 99.000
19.51470 81.000
19.53465 97.000
19.55459 82.000
19.57454 87.000
19.59449 107.000
19.61444 79.000
19.63438 105.000
19.65433 77.000
19.67428 97.000
19.69422 86.000
19.71417 98.000
19.73412 110.000
19.75406 99.000
19.77401 78.000
19.79396 83.000
19.81391 86.000
19.83385 102.000
19.85380 87.000
19.87375 96.000
19.89369 115.000
19.91364 100.000
19.93359 86.000
19.95353 99.000
19.97348 86.000
19.99343 94.000
20.01337 85.000
20.03332 100.000
20.05327 87.000
20.07322 81.000
20.09316 93.000
20.11311 79.000
20.13306 101.000
20.15300 116.000
20.17295 97.000
20.19290 85.000
20.21284 108.000
20.23279 97.000
20.25274 110.000
20.27269 89.000
20.29263 82.000
20.31258 107.000
20.33253 112.000
20.35247 97.000
20.37242 84.000
20.39237 103.000
20.41231 91.000
20.43226 98.000
20.45221 104.000
20.47215 112.000
20.49210 97.000
20.51205 96.000
20.53200 80.000
20.55194 107.000
20.57189 96.000
20.59184 95.000
20.61178 91.000
20.63173 111.000
20.65168 108.000
20.67162 83.000
20.69157 115.000
20.71152 97.000
20.73147 122.000
20.75141 113.000
20.77136 105.000
20.79131 120.000
20.81125 109.000
20.83120 129.000
20.85115 151.000
20.87109 146.000
20.89104 157.000
20.91099 160.000
20.93094 165.000
20.95088 172.000
20.97083 200.000
20.99078 193.000
21.01072 186.000
21.03067 202.000
21.05062 217.000
21.07056 185.000
21.09051 191.000
21.11046 191.000
21.13040 191.000
21.15035 174.000
21.17030 186.000
21.19025 180.000
21.21019 162.000
21.23014 141.000
21.25009 127.000
21.27003 114.000
21.28998 105.000
21.30993 111.000
21.32987 90.000
21.34982 135.000
21.36977 106.000
21.38972 101.000
21.40966 95.000
21.42961 84.000
21.44956 98.000
21.46950 111.000
21.48945 114.000
21.50940 116.000
21.52934 85.000
21.54929 99.000
21.56924 94.000
21.58918 105.000
21.60913 93.000
21.62908 104.000
21.64903 105.000
21.66897 110.000
21.68892 98.000
21.70887 105.000
21.72881 112.000
21.74876 92.000
21.76871 117.000
21.78865 89.000
21.80860 105.000
21.82855 109.000
21.84850 87.000
21.86844 97.000
21.88839 86.000
21.90834 76.000
21.92828 102.000
21.94823 90.000
21.96818 93.000
21.98812 99.000
22.00807 103.000
22.02802 92.000
22.04796 112.000
22.06791 106.000
22.08786 86.000
22.10781 98.000
22.12775 88.000
22.14770 89.000
22.16765 94.000
22.18759 104.000
22.20754 105.000
22.22749 115.000
22.24743 94.000
22.26738 105.000
22.28733 101.000
22.30728 93.000
22.32722 116.000
22.34717 88.000
22.36712 79.000
22.38706 98.000
22.40701 92.000
22.42696 108.000
22.44690 103.000
22.46685 102.000
22.48680 117.000
22.50675 103.000
22.52669 104.000
22.54664 123.000
22.56659 103.000
22.58653 86.000
22.60648 98.000
22.62643 88.000
22.64637 120.000
22.66632 98.000
22.68627 118.000
22.70621 105.000
22.72616 114.000
22.74611 105.000
22.76606 115.000
22.78600 93.000
22.80595 102.000
22.82590 96.000
22.84584 97.000
22.86579 106.000
22.88574 99.000
22.90568 113.000
22.92563 107.000
22.94558 92.000
22.96553 106.000
22.98547 111.000
23.00542 92.000
23.02537 103.000
23.04531 118.000
23.06526 113.000
23.08521 89.000
23.10515 77.000
23.12510 108.000
23.14505 97.000
23.16499 98.000
23.18494 119.000
23.20489 111.000
23.22484 105.000
23.24478 105.000
23.26473 96.000
23.28468 108.000
23.30462 94.000
23.32457 102.000
23.34452 101.000
23.36446 102.000
23.38441 111.000
23.40436 118.000
23.42431 118.000
23.44425 101.000
23.46420 94.000
23.48415 86.000
23.50409 77.000
23.52404 95.000
23.54399 112.000
23.56393 91.000
23.58388 120.000
23.60383 106.000
23.62377 103.000
23.64372 111.000
23.66367 111.000
23.68362 88.000
23.70356 114.000
23.72351 119.000
23.74346 118.000
23.76340 88.000
23.78335 90.000
23.80330 116.000
23.82324 89.000
23.84319 103.000
23.86314 92.000
23.88309 110.000
23.90303 109.000
23.92298 102.000
23.94293 103.000
23.96287 112.000
23.98282 92.000
24.00277 117.000
24.02271 112.000
24.04266 116.000
24.06261 107.000
24.08256 104.000
24.10250 114.000
24.12245 92.000
24.14240 113.000
24.16234 112.000
24.18229 120.000
24.20224 83.000
24.22218 87.000
24.24213 109.000
24.26208 98.000
24.28202 114.000
24.30197 120.000
24.32192 124.000
24.34187 99.000
24.36181 121.000
24.38176 101.000
24.40171 109.000
24.42165 117.000
24.44160 121.000
24.46155 97.000
24.48149 102.000
24.50144 96.000
24.52139 118.000
24.54134 99.000
24.56128 124.000
24.58123 103.000
24.60118 102.000
24.62112 110.000
24.64107 106.000
24.66102 108.000
24.68096 106.000
24.70091 99.000
24.72086 97.000
24.74080 109.000
24.76075 82.000
24.78070 109.000
24.80065 99.000
24.82059 107.000
24.84054 112.000
24.86049 121.000
24.88043 109.000
24.90038 123.000
24.92033 106.000
24.94027 121.000
24.96022 100.000
24.98017 119.000
25.00012 122.000
25.02006 119.000
25.04001 137.000
25.05996 113.000
25.07990 114.000
25.09985 105.000
25.11980 109.000
25.13974 115.000
25.15969 119.000
25.17964 112.000
25.19958 112.000
25.21953 106.000
25.23948 121.000
25.25943 103.000
25.27937 116.000
25.29932 119.000
25.31927 119.000
25.33921 103.000
25.35916 114.000
25.37911 77.000
25.39905 105.000
25.41900 116.000
25.43895 98.000
25.45890 129.000
25.47884 102.000
25.49879 118.000
25.51874 93.000
25.53868 108.000
25.55863 116.000
25.57858 100.000
25.59852 113.000
25.61847 113.000
25.63842 102.000
25.65837 122.000
25.67831 115.000
25.69826 113.000
25.71821 123.000
25.73815 100.000
25.75810 121.000
25.77805 115.000
25.79799 96.000
25.81794 90.000
25.83789 111.000
25.85783 124.000
25.87778 114.000
25.89773 113.000
25.91768 102.000
25.93762 115.000
25.95757 115.000
25.97752 105.000
25.99746 116.000
26.01741 133.000
26.03736 123.000
26.05730 129.000
26.07725 106.000
26.09720 127.000
26.11715 128.000
26.13709 112.000
26.15704 111.000
26.17699 96.000
26.19693 99.000
26.21688 117.000
26.23683 110.000
26.25677 101.000
26.27672 115.000
26.29667 117.000
26.31661 110.000
26.33656 92.000
26.35651 110.000
26.37646 124.000
26.39640 119.000
26.41635 123.000
26.43630 131.000
26.45624 120.000
26.47619 114.000
26.49614 115.000
26.51608 134.000
26.53603 111.000
26.55598 97.000
26.57593 126.000
26.59587 125.000
26.61582 112.000
26.63577 128.000
26.65571 147.000
26.67566 126.000
26.69561 123.000
26.71555 117.000
26.73550 112.000
26.75545 109.000
26.77539 128.000
26.79534 135.000
26.81529 108.000
26.83524 123.000
26.85518 122.000
26.87513 106.000
26.89508 121.000
26.91502 127.000
26.93497 134.000
26.95492 121.000
26.97486 123.000
26.99481 133.000
27.01476 116.000
27.03471 109.000
27.05465 125.000
27.07460 118.000
27.09455 121.000
27.11449 123.000
27.13444 120.000
27.15439 81.000
27.17433 112.000
27.19428 141.000
27.21423 127.000
27.23417 112.000
27.25412 133.000
27.27407 111.000
27.29402 135.000
27.31396 120.000
27.33391 115.000
27.35386 121.000
27.37380 108.000
27.39375 118.000
27.41370 130.000
27.43364 126.000
27.45359 114.000
27.47354 109.000
27.49349 123.000
27.51343 110.000
27.53338 136.000
27.55333 131.000
27.57327 101.000
27.59322 111.000
27.61317 137.000
27.63311 134.000
27.65306 107.000
27.67301 120.000
27.69296 109.000
27.71290 119.000
27.73285 120.000
27.75280 131.000
27.77274 125.000
27.79269 143.000
27.81264 148.000
27.83258 100.000
27.85253 122.000
27.87248 123.000
27.89242 112.000
27.91237 108.000
27.93232 126.000
27.95227 146.000
27.97221 114.000
27.99216 133.000
28.01211 143.000
28.03205 130.000
28.05200 135.000
28.07195 125.000
28.09189 149.000
28.11184 122.000
28.13179 115.000
28.15174 128.000
28.17168 128.000
28.19163 130.000
28.21158 112.000
28.23152 108.000
28.25147 133.000
28.27142 128.000
28.29136 150.000
28.31131 124.000
28.33126 123.000
28.35120 132.000
28.37115 126.000
28.39110 118.000
28.41105 117.000
28.43099 127.000
28.45094 146.000
28.47089 120.000
28.49083 119.000
28.51078 118.000
28.53073 115.000
28.55067 121.000
28.57062 141.000
28.59057 123.000
28.61052 122.000
28.63046 127.000
28.65041 120.000
28.67036 130.000
28.69030 112.000
28.71025 117.000
28.73020 134.000
28.75014 124.000
28.77009 136.000
28.79004 130.000
28.80998 110.000
28.82993 126.000
28.84988 129.000
28.86983 127.000
28.88977 133.000
28.90972 120.000
28.92967 127.000
28.94961 134.000
28.96956 131.000
28.98951 105.000
29.00945 130.000
29.02940 119.000
29.04935 142.000
29.06930 136.000
29.08924 126.000
29.10919 124.000
29.12914 98.000
29.14908 145.000
29.16903 127.000
29.18898 133.000
29.20892 106.000
29.22887 134.000
29.24882 119.000
29.26877 134.000
29.28871 139.000
29.30866 146.000
29.32861 170.000
29.34855 127.000
29.36850 133.000
29.38845 168.000
29.40839 151.000
29.42834 149.000
29.44829 164.000
29.46823 149.000
29.48818 154.000
29.50813 192.000
29.52808 159.000
29.54802 155.000
29.56797 147.000
29.58792 138.000
29.60786 141.000
29.62781 138.000
29.64776 133.000
29.66770 162.000
29.68765 134.000
29.70760 134.000
29.72755 134.000
29.74749 139.000
29.76744 119.000
29.78739 128.000
29.80733 122.000
29.82728 127.000
29.84723 130.000
29.86717 135.000
29.88712 122.000
29.90707 122.000
29.92701 150.000
29.94696 156.000
29.96691 125.000
29.98686 131.000
30.00680 124.000
30.02675 131.000
30.04670 137.000
30.06664 153.000
30.08659 131.000
30.10654 149.000
30.12648 126.000
30.14643 151.000
30.16638 157.000
30.18633 131.000
30.20627 150.000
30.22622 175.000
30.24617 189.000
30.26611 243.000
30.28606 266.000
30.30601 318.000
30.32595 373.000
30.34590 366.000
30.36585 468.000
30.38579 554.000
30.40574 546.000
30.42569 496.000
30.44564 379.000
30.46558 384.000
30.48553 319.000
30.50548 288.000
30.52542 199.000
30.54537 166.000
30.56532 148.000
30.58526 150.000
30.60521 165.000
30.62516 138.000
30.64511 123.000
30.66505 153.000
30.68500 137.000
30.70495 122.000
30.72489 124.000
30.74484 142.000
30.76479 132.000
30.78473 130.000
30.80468 145.000
30.82463 146.000
30.84458 121.000
30.86452 135.000
30.88447 133.000
30.90442 129.000
30.92436 136.000
30.94431 127.000
30.96426 140.000
30.98420 119.000
31.00415 119.000
31.02410 135.000
31.04404 137.000
31.06399 149.000
31.08394 140.000
31.10389 134.000
31.12383 152.000
31.14378 135.000
31.16373 144.000
31.18367 133.000
31.20362 154.000
31.22357 119.000
31.24351 144.000
31.26346 133.000
31.28341 111.000
31.30336 134.000
31.32330 138.000
31.34325 154.000
31.36320 109.000
31.38314 130.000
31.40309 139.000
31.42304 135.000
31.44298 139.000
31.46293 131.000
31.48288 127.000
31.50282 135.000
31.52277 127.000
31.54272 145.000
31.56267 120.000
31.58261 135.000
31.60256 140.000
31.62251 127.000
31.64245 137.000
31.66240 127.000
31.68235 156.000
31.70229 154.000
31.72224 145.000
31.74219 125.000
31.76214 148.000
31.78208 142.000
31.80203 150.000
31.82198 134.000
31.84192 134.000
31.86187 146.000
31.88182 140.000
31.90176 132.000
31.92171 180.000
31.94166 165.000
31.96160 156.000
31.98155 168.000
32.00150 198.000
32.02145 205.000
32.04139 251.000
32.06134 253.000
32.08129 291.000
32.10123 318.000
32.12118 391.000
32.14113 385.000
32.16107 472.000
32.18102 468.000
32.20097 533.000
32.22092 627.000
32.24086 623.000
32.26081 559.000
32.28076 519.000
32.30070 448.000
32.32065 366.000
32.34060 331.000
32.36054 278.000
32.38049 198.000
32.40044 181.000
32.42039 158.000
32.44033 148.000
32.46028 163.000
32.48023 156.000
32.50017 148.000
32.52012 160.000
32.54007 143.000
32.56001 143.000
32.57996 155.000
32.59991 152.000
32.61985 132.000
32.63980 149.000
32.65975 171.000
32.67970 169.000
32.69964 164.000
32.71959 172.000
32.73954 139.000
32.75948 171.000
32.77943 169.000
32.79938 146.000
32.81932 174.000
32.83927 158.000
32.85922 151.000
32.87917 153.000
32.89911 186.000
32.91906 160.000
32.93901 132.000
32.95895 171.000
32.97890 161.000
32.99885 174.000
33.01879 149.000
33.03874 146.000
33.05869 147.000
33.07863 130.000
33.09858 127.000
33.11853 111.000
33.13848 135.000
33.15842 164.000
33.17837 132.000
33.19832 117.000
33.21826 122.000
33.23821 134.000
33.25816 147.000
33.27810 133.000
33.29805 120.000
33.31800 152.000
33.33795 145.000
33.35789 146.000
33.37784 131.000
33.39779 145.000
33.41773 121.000
33.43768 135.000
33.45763 150.000
33.47757 128.000
33.49752 131.000
33.51747 132.000
33.53741 148.000
33.55736 157.000
33.57731 146.000
33.59726 115.000
33.61720 121.000
33.63715 131.000
33.65710 140.000
33.67704 130.000
33.69699 154.000
33.71694 120.000
33.73688 150.000
33.75683 113.000
33.77678 152.000
33.79673 150.000
33.81667 146.000
33.83662 131.000
33.85657 131.000
33.87651 156.000
33.89646 126.000
33.91641 143.000
33.93635 126.000
33.95630 128.000
33.97625 157.000
33.99620 162.000
34.01614 142.000
34.03609 143.000
34.05604 152.000
34.07598 138.000
34.09593 156.000
34.11588 156.000
34.13582 157.000
34.15577 151.000
34.17572 138.000
34.19566 137.000
34.21561 145.000
34.23556 161.000
34.25551 142.000
34.27545 163.000
34.29540 167.000
34.31535 179.000
34.33529 183.000
34.35524 188.000
34.37519 210.000
34.39513 203.000
34.41508 200.000
34.43503 238.000
34.45498 221.000
34.47492 242.000
34.49487 252.000
34.51482 263.000
34.53476 272.000
34.55471 290.000
34.57466 285.000
34.59460 271.000
34.61455 279.000
34.63450 274.000
34.65444 250.000
34.67439 302.000
34.69434 244.000
34.71429 221.000
34.73423 256.000
34.75418 254.000
34.77413 219.000
34.79407 226.000
34.81402 217.000
34.83397 188.000
34.85391 219.000
34.87386 200.000
34.89381 211.000
34.91376 208.000
34.93370 213.000
34.95365 188.000
34.97360 200.000
34.99354 174.000
35.01349 185.000
35.03344 174.000
35.05338 168.000
35.07333 180.000
35.09328 152.000
35.11322 170.000
35.13317 172.000
35.15312 194.000
35.17307 161.000
35.19301 158.000
35.21296 171.000
35.23291 199.000
35.25285 181.000
35.27280 170.000
35.29275 192.000
35.31269 185.000
35.33264 182.000
35.35259 207.000
35.37254 210.000
35.39248 208.000
35.41243 226.000
35.43238 217.000
35.45232 265.000
35.47227 281.000
35.49222 338.000
35.51216 348.000
35.53211 427.000
35.55206 434.000
35.57201 567.000
35.59195 590.000
35.61190 680.000
35.63185 794.000
35.65179 944.000
35.67174 1186.000
35.69169 1362.000
35.71163 1457.000
35.73158 1414.000
35.75153 1606.000
35.77147 1790.000
35.79142 1918.000
35.81137 1668.000
35.83132 1415.000
35.85126 1229.000
35.87121 1069.000
35.89116 1026.000
35.91110 808.000
35.93105 573.000
35.95100 491.000
35.97094 354.000
35.99089 305.000
36.01084 292.000
36.03079 230.000
36.05073 222.000
36.07068 198.000
36.09063 207.000
36.11057 192.000
36.13052 195.000
36.15047 183.000
36.17041 186.000
36.19036 185.000
36.21031 186.000
36.23025 197.000
36.25020 167.000
36.27015 155.000
36.29010 165.000
36.31004 173.000
36.32999 181.000
36.34994 172.000
36.36988 188.000
36.38983 179.000
36.40978 183.000
36.42972 165.000
36.44967 184.000
36.46962 162.000
36.48957 197.000
36.50951 177.000
36.52946 182.000
36.54941 156.000
36.56935 157.000
36.58930 174.000
36.60925 167.000
36.62919 200.000
36.64914 174.000
36.66909 170.000
36.68903 176.000
36.70898 160.000
36.72893 200.000
36.74888 183.000
36.76882 211.000
36.78877 184.000
36.80872 170.000
36.82866 210.000
36.84861 196.000
36.86856 204.000
36.88850 236.000
36.90845 215.000
36.92840 253.000
36.94835 243.000
36.96829 262.000
36.98824 292.000
37.00819 313.000
37.02813 346.000
37.04808 365.000
37.06803 427.000
37.08797 432.000
37.10792 489.000
37.12787 536.000
37.14781 553.000
37.16776 572.000
37.18771 630.000
37.20766 598.000
37.22760 598.000
37.24755 567.000
37.26750 583.000
37.28744 463.000
37.30739 455.000
37.32734 427.000
37.34728 455.000
37.36723 359.000
37.38718 320.000
37.40713 340.000
37.42707 289.000
37.44702 290.000
37.46697 237.000
37.48691 238.000
37.50686 213.000
37.52681 226.000
37.54675 197.000
37.56670 164.000
37.58665 159.000
37.60660 166.000
37.62654 160.000
37.64649 179.000
37.66644 148.000
37.68638 148.000
37.70633 165.000
37.72628 162.000
37.74622 142.000
37.76617 152.000
37.78612 144.000
37.80606 147.000
37.82601 128.000
37.84596 127.000
37.86591 151.000
37.88585 127.000
37.90580 144.000
37.92575 144.000
37.94569 148.000
37.96564 136.000
37.98559 151.000
38.00553 155.000
38.02548 119.000
38.04543 160.000
38.06538 114.000
38.08532 167.000
38.10527 151.000
38.12522 147.000
38.14516 134.000
38.16511 133.000
38.18506 142.000
38.20500 154.000
38.22495 164.000
38.24490 169.000
38.26484 145.000
38.28479 156.000
38.30474 135.000
38.32469 140.000
38.34463 166.000
38.36458 144.000
38.38453 143.000
38.40447 155.000
38.42442 129.000
38.44437 168.000
38.46431 159.000
38.48426 159.000
38.50421 153.000
38.52416 155.000
38.54410 168.000
38.56405 163.000
38.58400 159.000
38.60394 189.000
38.62389 204.000
38.64384 202.000
38.66378 201.000
38.68373 197.000
38.70368 231.000
38.72362 225.000
38.74357 229.000
38.76352 270.000
38.78347 251.000
38.80341 274.000
38.82336 242.000
38.84331 260.000
38.86325 269.000
38.88320 258.000
38.90315 258.000
38.92309 249.000
38.94304 285.000
38.96299 261.000
38.98294 259.000
39.00288 265.000
39.02283 291.000
39.04278 295.000
39.06272 308.000
39.08267 333.000
39.10262 370.000
39.12256 444.000
39.14251 483.000
39.16246 543.000
39.18241 612.000
39.20235 733.000
39.22230 785.000
39.24225 902.000
39.26219 804.000
39.28214 920.000
39.30209 873.000
39.32203 897.000
39.34198 887.000
39.36193 834.000
39.38187 765.000
39.40182 720.000
39.42177 702.000
39.44172 618.000
39.46166 524.000
39.48161 496.000
39.50156 428.000
39.52150 411.000
39.54145 413.000
39.56140 373.000
39.58134 322.000
39.60129 286.000
39.62124 214.000
39.64119 225.000
39.66113 213.000
39.68108 188.000
39.70103 188.000
39.72097 179.000
39.74092 182.000
39.76087 160.000
39.78081 155.000
39.80076 153.000
39.82071 153.000
39.84065 169.000
39.86060 143.000
39.88055 160.000
39.90050 130.000
39.92044 157.000
39.94039 147.000
39.96034 179.000
39.98028 141.000
40.00023 147.000
40.02018 144.000
40.04012 156.000
40.06007 146.000
40.08002 124.000
40.09997 146.000
40.11991 125.000
40.13986 133.000
40.15981 149.000
40.17975 140.000
40.19970 126.000
40.21965 114.000
40.23959 147.000
40.25954 146.000
40.27949 148.000
40.29943 127.000
40.31938 148.000
40.33933 141.000
40.35928 148.000
40.37922 129.000
40.39917 141.000
40.41912 143.000
40.43906 135.000
40.45901 137.000
40.47896 146.000
40.49890 146.000
40.51885 148.000
40.53880 132.000
40.55875 128.000
40.57869 121.000
40.59864 131.000
40.61859 137.000
40.63853 158.000
40.65848 148.000
40.67843 138.000
40.69837 148.000
40.71832 145.000
40.73827 144.000
40.75822 148.000
40.77816 140.000
40.79811 161.000
40.81806 155.000
40.83800 158.000
40.85795 120.000
40.87790 138.000
40.89784 130.000
40.91779 131.000
40.93774 139.000
40.95768 119.000
40.97763 142.000
40.99758 127.000
41.01753 148.000
41.03747 127.000
41.05742 150.000
41.07737 151.000
41.09731 134.000
41.11726 144.000
41.13721 132.000
41.15715 156.000
41.17710 141.000
41.19705 132.000
41.21700 143.000
41.23694 126.000
41.25689 129.000
41.27684 133.000
41.29678 166.000
41.31673 143.000
41.33668 130.000
41.35662 152.000
41.37657 145.000
41.39652 147.000
41.41646 148.000
41.43641 146.000
41.45636 159.000
41.47631 159.000
41.49625 148.000
41.51620 163.000
41.53615 162.000
41.55609 154.000
41.57604 171.000
41.59599 174.000
41.61593 198.000
41.63588 190.000
41.65583 213.000
41.67578 267.000
41.69572 313.000
41.71567 307.000
41.73562 369.000
41.75556 347.000
41.77551 384.000
41.79546 365.000
41.81540 363.000
41.83535 308.000
41.85530 334.000
41.87524 296.000
41.89519 270.000
41.91514 236.000
41.93509 203.000
41.95503 193.000
41.97498 183.000
41.99493 177.000
42.01487 167.000
42.03482 182.000
42.05477 138.000
42.07471 166.000
42.09466 156.000
42.11461 145.000
42.13456 143.000
42.15450 125.000
42.17445 125.000
42.19440 150.000
42.21434 144.000
42.23429 160.000
42.25424 142.000
42.27418 156.000
42.29413 135.000
42.31408 157.000
42.33403 155.000
42.35397 144.000
42.37392 146.000
42.39387 153.000
42.41381 138.000
42.43376 141.000
42.45371 185.000
42.47365 165.000
42.49360 155.000
42.51355 178.000
42.53349 164.000
42.55344 155.000
42.57339 164.000
42.59334 158.000
42.61328 178.000
42.63323 148.000
42.65318 183.000
42.67312 169.000
42.69307 176.000
42.71302 184.000
42.73296 165.000
42.75291 193.000
42.77286 191.000
42.79281 182.000
42.81275 198.000
42.83270 197.000
42.85265 217.000
42.87259 251.000
42.89254 236.000
42.91249 248.000
42.93243 268.000
42.95238 285.000
42.97233 333.000
42.99227 363.000
43.01222 352.000
43.03217 396.000
43.05212 415.000
43.07206 474.000
43.09201 504.000
43.11196 566.000
43.13190 538.000
43.15185 620.000
43.17180 643.000
43.19174 631.000
43.21169 664.000
43.23164 695.000
43.25159 731.000
43.27153 720.000
43.29148 697.000
43.31143 765.000
43.33137 795.000
43.35132 812.000
43.37127 808.000
43.39121 851.000
43.41116 834.000
43.43111 837.000
43.45105 889.000
43.47100 884.000
43.49095 846.000
43.51090 813.000
43.53084 698.000
43.55079 592.000
43.57074 579.000
43.59068 524.000
43.61063 482.000
43.63058 414.000
43.65052 348.000
43.67047 314.000
43.69042 277.000
43.71037 267.000
43.73031 216.000
43.75026 223.000
43.77021 189.000
43.79015 189.000
43.81010 196.000
43.83005 167.000
43.84999 156.000
43.86994 146.000
43.88989 154.000
43.90984 154.000
43.92978 154.000
43.94973 145.000
43.96968 142.000
43.98962 158.000
44.00957 136.000
44.02952 153.000
44.04946 132.000
44.06941 143.000
44.08936 129.000
44.10930 126.000
44.12925 119.000
44.14920 169.000
44.16915 140.000
44.18909 152.000
44.20904 127.000
44.22899 148.000
44.24893 135.000
44.26888 132.000
44.28883 138.000
44.30877 135.000
44.32872 133.000
44.34867 137.000
44.36862 137.000
44.38856 146.000
44.40851 137.000
44.42846 145.000
44.44840 141.000
44.46835 125.000
44.48830 154.000
44.50824 133.000
44.52819 139.000
44.54814 135.000
44.56808 138.000
44.58803 129.000
44.60798 136.000
44.62793 129.000
44.64787 125.000
44.66782 126.000
44.68777 145.000
44.70771 127.000
44.72766 130.000
44.74761 128.000
44.76755 137.000
44.78750 133.000
44.80745 121.000
44.82740 160.000
44.84734 114.000
44.86729 142.000
44.88724 133.000
44.90718 140.000
44.92713 143.000
44.94708 130.000
44.96702 133.000
44.98697 120.000
45.00692 137.000
45.02686 144.000
45.04681 131.000
45.06676 149.000
45.08671 134.000
45.10665 149.000
45.12660 126.000
45.14655 149.000
45.16649 125.000
45.18644 147.000
45.20639 141.000
45.22633 134.000
45.24628 135.000
45.26623 119.000
45.28618 114.000
45.30612 135.000
45.32607 144.000
45.34602 116.000
45.36596 133.000
45.38591 135.000
45.40586 137.000
45.42580 116.000
45.44575 120.000
45.46570 137.000
45.48565 129.000
45.50559 129.000
45.52554 130.000
45.54549 130.000
45.56543 141.000
45.58538 137.000
45.60533 150.000
45.62527 131.000
45.64522 103.000
45.66517 145.000
45.68511 136.000
45.70506 137.000
45.72501 135.000
45.74496 128.000
45.76490 134.000
45.78485 139.000
45.80480 124.000
45.82474 109.000
45.84469 126.000
45.86464 134.000
45.88458 126.000
45.90453 136.000
45.92448 145.000
45.94443 131.000
45.96437 127.000
45.98432 126.000
46.00427 130.000
46.02421 114.000
46.04416 148.000
46.06411 126.000
46.08405 142.000
46.10400 142.000
46.12395 125.000
46.14389 127.000
46.16384 121.000
46.18379 117.000
46.20374 123.000
46.22368 145.000
46.24363 111.000
46.26358 115.000
46.28352 134.000
46.30347 126.000
46.32342 140.000
46.34336 123.000
46.36331 125.000
46.38326 124.000
46.40321 142.000
46.42315 113.000
46.44310 117.000
46.46305 146.000
46.48299 134.000
46.50294 124.000
46.52289 119.000
46.54283 124.000
46.56278 125.000
46.58273 137.000
46.60267 128.000
46.62262 162.000
46.64257 123.000
46.66252 127.000
46.68246 131.000
46.70241 110.000
46.72236 131.000
46.74230 126.000
46.76225 145.000
46.78220 129.000
46.80214 110.000
46.82209 127.000
46.84204 127.000
46.86199 141.000
46.88193 126.000
46.90188 131.000
46.92183 103.000
46.94177 135.000
46.96172 121.000
46.98167 135.000
47.00161 110.000
47.02156 131.000
47.04151 137.000
47.06146 143.000
47.08140 130.000
47.10135 129.000
47.12130 145.000
47.14124 143.000
47.16119 122.000
47.18114 146.000
47.20108 125.000
47.22103 133.000
47.24098 151.000
47.26092 144.000
47.28087 113.000
47.30082 138.000
47.32077 131.000
47.34071 144.000
47.36066 134.000
47.38061 142.000
47.40055 131.000
47.42050 136.000
47.44045 127.000
47.46039 142.000
47.48034 143.000
47.50029 134.000
47.52024 165.000
47.54018 138.000
47.56013 138.000
47.58008 132.000
47.60002 143.000
47.61997 129.000
47.63992 116.000
47.65986 122.000
47.67981 132.000
47.69976 131.000
47.71970 134.000
47.73965 123.000
47.75960 126.000
47.77955 122.000
47.79949 160.000
47.81944 133.000
47.83939 140.000
47.85933 149.000
47.87928 141.000
47.89923 134.000
47.91917 150.000
47.93912 140.000
47.95907 153.000
47.97902 132.000
47.99896 152.000
48.01891 127.000
48.03886 133.000
48.05880 149.000
48.07875 145.000
48.09870 143.000
48.11864 142.000
48.13859 136.000
48.15854 136.000
48.17848 167.000
48.19843 158.000
48.21838 158.000
48.23833 140.000
48.25827 163.000
48.27822 161.000
48.29817 156.000
48.31811 177.000
48.33806 176.000
48.35801 167.000
48.37795 156.000
48.39790 165.000
48.41785 186.000
48.43780 188.000
48.45774 183.000
48.47769 168.000
48.49764 211.000
48.51758 239.000
48.53753 251.000
48.55748 270.000
48.57742 295.000
48.59737 292.000
48.61732 371.000
48.63726 425.000
48.65721 476.000
48.67716 570.000
48.69711 645.000
48.71705 693.000
48.73700 780.000
48.75695 895.000
48.77689 925.000
48.79684 864.000
48.81679 882.000
48.83673 857.000
48.85668 786.000
48.87663 768.000
48.89658 677.000
48.91652 632.000
48.93647 570.000
48.95642 537.000
48.97636 470.000
48.99631 413.000
49.01626 371.000
49.03620 322.000
49.05615 270.000
49.07610 238.000
49.09605 239.000
49.11599 221.000
49.13594 204.000
49.15589 211.000
49.17583 203.000
49.19578 162.000
49.21573 163.000
49.23567 159.000
49.25562 167.000
49.27557 163.000
49.29551 154.000
49.31546 165.000
49.33541 127.000
49.35536 134.000
49.37530 168.000
49.39525 145.000
49.41520 161.000
49.43514 157.000
49.45509 178.000
49.47504 143.000
49.49498 135.000
49.51493 144.000
49.53488 139.000
49.55483 162.000
49.57477 169.000
49.59472 129.000
49.61467 146.000
49.63461 143.000
49.65456 144.000
49.67451 164.000
49.69445 147.000
49.71440 128.000
49.73435 136.000
49.75429 152.000
49.77424 157.000
49.79419 136.000
49.81414 167.000
49.83408 120.000
49.85403 125.000
49.87398 140.000
49.89392 115.000
49.91387 131.000
49.93382 141.000
49.95376 154.000
49.97371 133.000
49.99366 124.000
50.01361 150.000
50.03355 108.000
50.05350 148.000
50.07345 143.000
50.09339 139.000
50.11334 134.000
50.13329 134.000
50.15323 115.000
50.17318 118.000
50.19313 131.000
50.21307 135.000
50.23302 146.000
50.25297 134.000
50.27292 153.000
50.29286 144.000
50.31281 131.000
50.33276 122.000
50.35270 115.000
50.37265 139.000
50.39260 130.000
50.41254 134.000
50.43249 125.000
50.45244 142.000
50.47239 112.000
50.49233 122.000
50.51228 145.000
50.53223 138.000
50.55217 130.000
50.57212 126.000
50.59207 117.000
50.61201 122.000
50.63196 135.000
50.65191 117.000
50.67186 147.000
50.69180 138.000
50.71175 127.000
50.73170 118.000
50.75164 113.000
50.77159 137.000
50.79154 142.000
50.81148 128.000
50.83143 117.000
50.85138 124.000
50.87132 136.000
50.89127 149.000
50.91122 127.000
50.93117 121.000
50.95111 145.000
50.97106 117.000
50.99101 122.000
51.01095 136.000
51.03090 136.000
51.05085 114.000
51.07079 133.000
51.09074 115.000
51.11069 124.000
51.13064 130.000
51.15058 122.000
51.17053 138.000
51.19048 119.000
51.21042 113.000
51.23037 118.000
51.25032 127.000
51.27026 128.000
51.29021 146.000
51.31016 166.000
51.33010 129.000
51.35005 113.000
51.37000 112.000
51.38995 117.000
51.40989 136.000
51.42984 139.000
51.44979 121.000
51.46973 139.000
51.48968 120.000
51.50963 133.000
51.52957 141.000
51.54952 134.000
51.56947 124.000
51.58942 110.000
51.60936 138.000
51.62931 126.000
51.64926 137.000
51.66920 124.000
51.68915 133.000
51.70910 111.000
51.72904 135.000
51.74899 148.000
51.76894 137.000
51.78888 115.000
51.80883 122.000
51.82878 130.000
51.84873 132.000
51.86867 134.000
51.88862 130.000
51.90857 126.000
51.92851 129.000
51.94846 149.000
51.96841 118.000
51.98835 152.000
52.00830 132.000
52.02825 124.000
52.04820 132.000
52.06814 135.000
52.08809 133.000
52.10804 114.000
52.12798 123.000
52.14793 143.000
52.16788 119.000
52.18782 133.000
52.20777 132.000
52.22772 116.000
52.24767 118.000
52.26761 149.000
52.28756 141.000
52.30751 139.000
52.32745 123.000
52.34740 125.000
52.36735 124.000
52.38729 121.000
52.40724 143.000
52.42719 143.000
52.44713 130.000
52.46708 147.000
52.48703 130.000
52.50698 125.000
52.52692 144.000
52.54687 135.000
52.56682 129.000
52.58676 125.000
52.60671 145.000
52.62666 124.000
52.64660 132.000
52.66655 115.000
52.68650 136.000
52.70645 116.000
52.72639 133.000
52.74634 109.000
52.76629 134.000
52.78623 114.000
52.80618 131.000
52.82613 130.000
52.84607 110.000
52.86602 143.000
52.88597 130.000
52.90591 127.000
52.92586 136.000
52.94581 131.000
52.96576 133.000
52.98570 126.000
53.00565 137.000
53.02560 146.000
53.04554 146.000
53.06549 176.000
53.08544 157.000
53.10538 179.000
53.12533 144.000
53.14528 178.000
53.16523 141.000
53.18517 147.000
53.20512 168.000
53.22507 152.000
53.24501 141.000
53.26496 172.000
53.28491 157.000
53.30485 141.000
53.32480 128.000
53.34475 148.000
53.36469 139.000
53.38464 136.000
53.40459 130.000
53.42454 138.000
53.44448 142.000
53.46443 138.000
53.48438 121.000
53.50432 133.000
53.52427 140.000
53.54422 126.000
53.56416 135.000
53.58411 123.000
53.60406 137.000
53.62401 134.000
53.64395 157.000
53.66390 137.000
53.68385 136.000
53.70379 141.000
53.72374 137.000
53.74369 146.000
53.76363 141.000
53.78358 150.000
53.80353 161.000
53.82348 200.000
53.84342 194.000
53.86337 189.000
53.88332 224.000
53.90326 236.000
53.92321 237.000
53.94316 235.000
53.96310 210.000
53.98305 194.000
54.00300 182.000
54.02294 189.000
54.04289 154.000
54.06284 162.000
54.08279 172.000
54.10273 148.000
54.12268 159.000
54.14263 151.000
54.16257 120.000
54.18252 144.000
54.20247 120.000
54.22241 141.000
54.24236 139.000
54.26231 118.000
54.28226 128.000
54.30220 158.000
54.32215 122.000
54.34210 134.000
54.36204 123.000
54.38199 137.000
54.40194 133.000
54.42188 117.000
54.44183 135.000
54.46178 113.000
54.48172 144.000
54.50167 122.000
54.52162 127.000
54.54157 125.000
54.56151 123.000
54.58146 132.000
54.60141 152.000
54.62135 133.000
54.64130 133.000
54.66125 135.000
54.68119 120.000
54.70114 141.000
54.72109 120.000
54.74104 139.000
54.76098 120.000
54.78093 124.000
54.80088 118.000
54.82082 119.000
54.84077 117.000
54.86072 135.000
54.88066 128.000
54.90061 128.000
54.92056 115.000
54.94050 137.000
54.96045 141.000
54.98040 132.000
55.00035 137.000
55.02029 120.000
55.04024 136.000
55.06019 103.000
55.08013 112.000
55.10008 125.000
55.12003 139.000
55.13997 117.000
55.15992 135.000
55.17987 142.000
55.19982 128.000
55.21976 120.000
55.23971 116.000
55.25966 125.000
55.27960 136.000
55.29955 142.000
55.31950 146.000
55.33944 126.000
55.35939 136.000
55.37934 113.000
55.39929 145.000
55.41923 130.000
55.43918 152.000
55.45913 144.000
55.47907 122.000
55.49902 138.000
55.51897 144.000
55.53891 140.000
55.55886 119.000
55.57881 130.000
55.59875 123.000
55.61870 127.000
55.63865 119.000
55.65860 133.000
55.67854 144.000
55.69849 134.000
55.71844 113.000
55.73838 125.000
55.75833 121.000
55.77828 129.000
55.79822 132.000
55.81817 131.000
55.83812 113.000
55.85807 135.000
55.87801 127.000
55.89796 133.000
55.91791 129.000
55.93785 137.000
55.95780 131.000
55.97775 146.000
55.99769 122.000
56.01764 122.000
56.03759 112.000
56.05753 134.000
56.07748 120.000
56.09743 144.000
56.11738 140.000
56.13732 127.000
56.15727 139.000
56.17722 134.000
56.19716 126.000
56.21711 117.000
56.23706 107.000
56.25700 130.000
56.27695 132.000
56.29690 127.000
56.31685 118.000
56.33679 125.000
56.35674 119.000
56.37669 136.000
56.39663 138.000
56.41658 108.000
56.43653 141.000
56.45647 108.000
56.47642 136.000
56.49637 125.000
56.51631 135.000
56.53626 115.000
56.55621 113.000
56.57616 156.000
56.59610 138.000
56.61605 136.000
56.63600 142.000
56.65594 128.000
56.67589 135.000
56.69584 124.000
56.71578 122.000
56.73573 146.000
56.75568 125.000
56.77563 129.000
56.79557 125.000
56.81552 133.000
56.83547 147.000
56.85541 129.000
56.87536 134.000
56.89531 118.000
56.91525 151.000
56.93520 133.000
56.95515 139.000
56.97510 143.000
56.99504 136.000
57.01499 120.000
57.03494 129.000
57.05488 147.000
57.07483 141.000
57.09478 151.000
57.11472 135.000
57.13467 158.000
57.15462 148.000
57.17456 164.000
57.19451 137.000
57.21446 177.000
57.23441 152.000
57.25435 201.000
57.27430 200.000
57.29425 207.000
57.31419 221.000
57.33414 235.000
57.35409 280.000
57.37403 371.000
57.39398 329.000
57.41393 399.000
57.43388 419.000
57.45382 446.000
57.47377 403.000
57.49372 436.000
57.51366 390.000
57.53361 351.000
57.55356 360.000
57.57350 324.000
57.59345 346.000
57.61340 340.000
57.63334 299.000
57.65329 289.000
57.67324 276.000
57.69319 219.000
57.71313 247.000
57.73308 217.000
57.75303 214.000
57.77297 216.000
57.79292 165.000
57.81287 177.000
57.83281 168.000
57.85276 156.000
57.87271 162.000
57.89266 182.000
57.91260 184.000
57.93255 144.000
57.95250 142.000
57.97244 137.000
57.99239 161.000
58.01234 153.000
58.03228 141.000
58.05223 134.000
58.07218 140.000
58.09212 132.000
58.11207 133.000
58.13202 149.000
58.15197 132.000
58.17191 135.000
58.19186 153.000
58.21181 135.000
58.23175 117.000
58.25170 151.000
58.27165 139.000
58.29159 132.000
58.31154 134.000
58.33149 132.000
58.35144 127.000
58.37138 155.000
58.39133 144.000
58.41128 134.000
58.43122 140.000
58.45117 127.000
58.47112 139.000
58.49106 143.000
58.51101 144.000
58.53096 133.000
58.55090 138.000
58.57085 153.000
58.59080 154.000
58.61075 120.000
58.63069 135.000
58.65064 123.000
58.67059 133.000
58.69053 123.000
58.71048 134.000
58.73043 135.000
58.75037 129.000
58.77032 135.000
58.79027 116.000
58.81022 132.000
58.83016 147.000
58.85011 134.000
58.87006 134.000
58.89000 121.000
58.90995 135.000
58.92990 145.000
58.94984 122.000
58.96979 136.000
58.98974 133.000
59.00969 133.000
59.02963 151.000
59.04958 125.000
59.06953 122.000
59.08947 134.000
59.10942 136.000
59.12937 127.000
59.14931 144.000
59.16926 147.000
59.18921 127.000
59.20915 161.000
59.22910 138.000
59.24905 118.000
59.26900 138.000
59.28894 137.000
59.30889 117.000
59.32884 140.000
59.34878 112.000
59.36873 149.000
59.38868 110.000
59.40862 152.000
59.42857 121.000
59.44852 110.000
59.46847 114.000
59.48841 145.000
59.50836 123.000
59.52831 125.000
59.54825 120.000
59.56820 135.000
59.58815 136.000
59.60809 126.000
59.62804 131.000
59.64799 116.000
59.66793 125.000
59.68788 121.000
59.70783 147.000
59.72778 136.000
59.74772 145.000
59.76767 132.000
59.78762 126.000
59.80756 143.000
59.82751 110.000
59.84746 122.000
59.86740 159.000
59.88735 143.000
59.90730 123.000
59.92725 122.000
59.94719 110.000
59.96714 135.000
59.98709 154.000
60.00703 127.000
60.02698 135.000
60.04693 135.000
60.06687 107.000
60.08682 134.000
60.10677 150.000
60.12671 147.000
60.14666 128.000
60.16661 135.000
60.18656 141.000
60.20650 138.000
60.22645 160.000
60.24640 142.000
60.26634 125.000
60.28629 137.000
60.30624 151.000
60.32618 150.000
60.34613 148.000
60.36608 134.000
60.38603 130.000
60.40597 124.000
60.42592 117.000
60.44587 115.000
60.46581 131.000
60.48576 126.000
60.50571 137.000
60.52565 148.000
60.54560 149.000
60.56555 146.000
60.58550 111.000
60.60544 121.000
60.62539 124.000
60.64534 122.000
60.66528 127.000
60.68523 125.000
60.70518 144.000
60.72512 126.000
60.74507 137.000
60.76502 160.000
60.78496 125.000
60.80491 137.000
60.82486 127.000
60.84481 128.000
60.86475 132.000
60.88470 149.000
60.90465 138.000
60.92459 121.000
60.94454 118.000
60.96449 143.000
60.98443 132.000
61.00438 119.000
61.02433 147.000
61.04428 141.000
61.06422 125.000
61.08417 149.000
61.10412 136.000
61.12406 160.000
61.14401 142.000
61.16396 120.000
61.18390 136.000
61.20385 129.000
61.22380 145.000
61.24374 132.000
61.26369 159.000
61.28364 152.000
61.30359 120.000
61.32353 134.000
61.34348 156.000
61.36343 171.000
61.38337 153.000
61.40332 172.000
61.42327 165.000
61.44321 139.000
61.46316 136.000
61.48311 152.000
61.50306 175.000
61.52300 185.000
61.54295 156.000
61.56290 199.000
61.58284 178.000
61.60279 171.000
61.62274 181.000
61.64268 183.000
61.66263 191.000
61.68258 172.000
61.70252 196.000
61.72247 184.000
61.74242 191.000
61.76237 174.000
61.78231 203.000
61.80226 222.000
61.82221 190.000
61.84215 248.000
61.86210 238.000
61.88205 235.000
61.90199 225.000
61.92194 240.000
61.94189 229.000
61.96184 315.000
61.98178 328.000
62.00173 353.000
62.02168 327.000
62.04162 446.000
62.06157 492.000
62.08152 444.000
62.10146 488.000
62.12141 506.000
62.14136 471.000
62.16131 471.000
62.18125 437.000
62.20120 477.000
62.22115 445.000
62.24109 424.000
62.26104 390.000
62.28099 387.000
62.30093 375.000
62.32088 347.000
62.34083 389.000
62.36077 357.000
62.38072 319.000
62.40067 289.000
62.42062 272.000
62.44056 298.000
62.46051 300.000
62.48046 275.000
62.50040 313.000
62.52035 292.000
62.54030 321.000
62.56024 284.000
62.58019 350.000
62.60014 345.000
62.62009 338.000
62.64003 344.000
62.65998 387.000
62.67993 344.000
62.69987 354.000
62.71982 335.000
62.73977 357.000
62.75971 387.000
62.77966 387.000
62.79961 358.000
62.81955 343.000
62.83950 351.000
62.85945 344.000
62.87940 382.000
62.89934 337.000
62.91929 373.000
62.93924 386.000
62.95918 387.000
62.97913 429.000
62.99908 449.000
63.01902 507.000
63.03897 559.000
63.05892 569.000
63.07887 574.000
63.09881 635.000
63.11876 557.000
63.13871 548.000
63.15865 497.000
63.17860 463.000
63.19855 383.000
63.21849 435.000
63.23844 403.000
63.25839 382.000
63.27833 382.000
63.29828 349.000
63.31823 296.000
63.33818 280.000
63.35812 289.000
63.37807 224.000
63.39802 213.000
63.41796 198.000
63.43791 185.000
63.45786 165.000
63.47780 177.000
63.49775 181.000
63.51770 157.000
63.53765 210.000
63.55759 161.000
63.57754 196.000
63.59749 153.000
63.61743 165.000
63.63738 168.000
63.65733 163.000
63.67727 206.000
63.69722 191.000
63.71717 200.000
63.73712 217.000
63.75706 217.000
63.77701 190.000
63.79696 244.000
63.81690 221.000
63.83685 253.000
63.85680 249.000
63.87674 265.000
63.89669 287.000
63.91664 274.000
63.93658 303.000
63.95653 296.000
63.97648 259.000
63.99643 294.000
64.01637 258.000
64.03632 264.000
64.05627 275.000
64.07621 283.000
64.09616 243.000
64.11611 285.000
64.13605 269.000
64.15600 256.000
64.17595 279.000
64.19590 227.000
64.21584 265.000
64.23579 238.000
64.25574 235.000
64.27568 248.000
64.29563 227.000
64.31558 224.000
64.33552 211.000
64.35547 218.000
64.37542 211.000
64.39536 194.000
64.41531 207.000
64.43526 203.000
64.45521 177.000
64.47515 189.000
64.49510 205.000
64.51505 193.000
64.53499 175.000
64.55494 177.000
64.57489 176.000
64.59483 149.000
64.61478 152.000
64.63473 141.000
64.65468 151.000
64.67462 147.000
64.69457 163.000
64.71452 132.000
64.73446 165.000
64.75441 121.000
64.77436 134.000
64.79430 137.000
64.81425 143.000
64.83420 135.000
64.85414 142.000
64.87409 149.000
64.89404 156.000
64.91399 136.000
64.93393 138.000
64.95388 123.000
64.97383 159.000
64.99377 140.000
65.01372 139.000
65.03367 132.000
65.05361 116.000
65.07356 128.000
65.09351 141.000
65.11346 139.000
65.13340 126.000
65.15335 143.000
65.17330 127.000
65.19324 143.000
65.21319 150.000
65.23314 134.000
65.25308 147.000
65.27303 164.000
65.29298 157.000
65.31293 148.000
65.33287 140.000
65.35282 138.000
65.37277 155.000
65.39271 156.000
65.41266 145.000
65.43261 153.000
65.45255 141.000
65.47250 155.000
65.49245 152.000
65.51239 158.000
65.53234 159.000
65.55229 162.000
65.57224 176.000
65.59218 184.000
65.61213 163.000
65.63208 164.000
65.65202 147.000
65.67197 163.000
65.69192 168.000
65.71186 168.000
65.73181 180.000
65.75176 159.000
65.77171 160.000
65.79165 156.000
65.81160 148.000
65.83155 172.000
65.85149 154.000
65.87144 155.000
65.89139 168.000
65.91133 174.000
65.93128 171.000
65.95123 176.000
65.97117 157.000
65.99112 159.000
66.01107 158.000
66.03102 155.000
66.05096 187.000
66.07091 192.000
66.09086 166.000
66.11080 169.000
66.13075 163.000
66.15070 173.000
66.17064 204.000
66.19059 221.000
66.21054 177.000
66.23049 190.000
66.25043 215.000
66.27038 215.000
66.29033 196.000
66.31027 231.000
66.33022 237.000
66.35017 231.000
66.37011 267.000
66.39006 233.000
66.41001 238.000
66.42995 228.000
66.44990 242.000
66.46985 228.000
66.48980 235.000
66.50974 237.000
66.52969 243.000
66.54964 213.000
66.56958 260.000
66.58953 235.000
66.60948 258.000
66.62942 222.000
66.64937 205.000
66.66932 220.000
66.68927 207.000
66.70921 189.000
66.72916 200.000
66.74911 165.000
66.76905 178.000
66.78900 198.000
66.80895 179.000
66.82889 179.000
66.84884 172.000
66.86879 163.000
66.88874 140.000
66.90868 183.000
66.92863 173.000
66.94858 144.000
66.96852 170.000
66.98847 153.000
67.00842 175.000
67.02836 153.000
67.04831 156.000
67.06826 182.000
67.08820 166.000
67.10815 168.000
67.12810 168.000
67.14805 179.000
67.16799 180.000
67.18794 168.000
67.20789 167.000
67.22783 198.000
67.24778 185.000
67.26773 186.000
67.28767 186.000
67.30762 168.000
67.32757 213.000
67.34752 197.000
67.36746 149.000
67.38741 169.000
67.40736 175.000
67.42730 164.000
67.44725 174.000
67.46720 152.000
67.48714 149.000
67.50709 120.000
67.52704 159.000
67.54698 152.000
67.56693 151.000
67.58688 127.000
67.60683 141.000
67.62677 137.000
67.64672 147.000
67.66667 153.000
67.68661 123.000
67.70656 131.000
67.72651 136.000
67.74645 131.000
67.76640 147.000
67.78635 140.000
67.80630 128.000
67.82624 154.000
67.84619 153.000
67.86614 132.000
67.88608 158.000
67.90603 160.000
67.92598 143.000
67.94592 139.000
67.96587 138.000
67.98582 144.000
68.00576 157.000
68.02571 181.000
68.04566 155.000
68.06561 177.000
68.08555 156.000
68.10550 158.000
68.12545 154.000
68.14539 165.000
68.16534 159.000
68.18529 129.000
68.20523 138.000
68.22518 157.000
68.24513 149.000
68.26508 136.000
68.28502 147.000
68.30497 158.000
68.32492 157.000
68.34486 162.000
68.36481 132.000
68.38476 128.000
68.40470 130.000
68.42465 145.000
68.44460 131.000
68.46455 177.000
68.48449 144.000
68.50444 138.000
68.52439 129.000
68.54433 127.000
68.56428 139.000
68.58423 138.000
68.60417 136.000
68.62412 145.000
68.64407 153.000
68.66401 131.000
68.68396 132.000
68.70391 154.000
68.72386 145.000
68.74380 146.000
68.76375 110.000
68.78370 149.000
68.80364 145.000
68.82359 142.000
68.84354 148.000
68.86348 145.000
68.88343 137.000
68.90338 148.000
68.92333 148.000
68.94327 152.000
68.96322 117.000
68.98317 119.000
69.00311 104.000
69.02306 141.000
69.04301 126.000
69.06295 141.000
69.08290 136.000
69.10285 137.000
69.12279 134.000
69.14274 135.000
69.16269 143.000
69.18264 128.000
69.20258 113.000
69.22253 118.000
69.24248 107.000
69.26242 119.000
69.28237 140.000
69.30232 123.000
69.32226 124.000
69.34221 120.000
69.36216 129.000
69.38211 115.000
69.40205 131.000
69.42200 122.000
69.44195 139.000
69.46189 135.000
69.48184 125.000
69.50179 119.000
69.52173 132.000
69.54168 127.000
69.56163 149.000
69.58157 155.000
69.60152 123.000
69.62147 132.000
69.64142 116.000
69.66136 108.000
69.68131 94.000
69.70126 146.000
69.72120 121.000
69.74115 128.000
69.76110 126.000
69.78104 129.000
69.80099 130.000
69.82094 114.000
69.84089 149.000
69.86083 131.000
69.88078 130.000
69.90073 124.000
69.92067 116.000
69.94062 114.000
69.96057 136.000
69.98051 131.000
70.00046 110.000
70.02041 136.000
70.04035 132.000
70.06030 119.000
70.08025 132.000
70.10020 135.000
70.12014 117.000
70.14009 126.000
70.16004 126.000
70.17998 135.000
70.19993 140.000
70.21988 144.000
70.23982 124.000
70.25977 141.000
70.27972 126.000
70.29967 120.000
70.31961 107.000
70.33956 146.000
70.35951 132.000
70.37945 110.000
70.39940 127.000
70.41935 110.000
70.43929 122.000
70.45924 131.000
70.47919 135.000
70.49914 131.000
70.51908 130.000
70.53903 114.000
70.55898 114.000
70.57892 115.000
70.59887 114.000
70.61882 131.000
70.63876 131.000
70.65871 144.000
70.67866 126.000
70.69860 144.000
70.71855 121.000
70.73850 130.000
70.75845 122.000
70.77839 143.000
70.79834 116.000
70.81829 86.000
70.83823 119.000
70.85818 108.000
70.87813 106.000
70.89807 132.000
70.91802 154.000
70.93797 118.000
70.95792 131.000
70.97786 132.000
70.99781 118.000
71.01776 132.000
71.03770 125.000
71.05765 128.000
71.07760 118.000
71.09754 125.000
71.11749 129.000
71.13744 141.000
71.15738 128.000
71.17733 125.000
71.19728 130.000
71.21723 128.000
71.23717 132.000
71.25712 134.000
71.27707 147.000
71.29701 141.000
71.31696 132.000
71.33691 130.000
71.35685 145.000
71.37680 118.000
71.39675 141.000
71.41670 123.000
71.43664 128.000
71.45659 142.000
71.47654 143.000
71.49648 141.000
71.51643 146.000
71.53638 151.000
71.55632 148.000
71.57627 181.000
71.59622 138.000
71.61616 160.000
71.63611 171.000
71.65606 145.000
71.67601 136.000
71.69595 160.000
71.71590 157.000
71.73585 162.000
71.75579 141.000
71.77574 153.000
71.79569 128.000
71.81563 151.000
71.83558 138.000
71.85553 158.000
71.87548 152.000
71.89542 131.000
71.91537 116.000
71.93532 125.000
71.95526 124.000
71.97521 147.000
71.99516 132.000
72.01510 129.000
72.03505 122.000
72.05500 131.000
72.07495 125.000
72.09489 136.000
72.11484 132.000
72.13479 135.000
72.15473 120.000
72.17468 124.000
72.19463 132.000
72.21457 139.000
72.23452 127.000
72.25447 121.000
72.27441 135.000
72.29436 142.000
72.31431 125.000
72.33426 131.000
72.35420 140.000
72.37415 162.000
72.39410 111.000
72.41404 119.000
72.43399 140.000
72.45394 143.000
72.47388 139.000
72.49383 121.000
72.51378 119.000
72.53373 146.000
72.55367 144.000
72.57362 122.000
72.59357 134.000
72.61351 131.000
72.63346 116.000
72.65341 138.000
72.67335 126.000
72.69330 136.000
72.71325 133.000
72.73319 135.000
72.75314 129.000
72.77309 151.000
72.79304 125.000
72.81298 136.000
72.83293 159.000
72.85288 159.000
72.87282 149.000
72.89277 157.000
72.91272 145.000
72.93266 150.000
72.95261 146.000
72.97256 148.000
72.99251 169.000
73.01245 135.000
73.03240 150.000
73.05235 135.000
73.07229 146.000
73.09224 131.000
73.11219 154.000
73.13213 151.000
73.15208 151.000
73.17203 167.000
73.19197 142.000
73.21192 160.000
73.23187 170.000
73.25182 162.000
73.27176 167.000
73.29171 186.000
73.31166 152.000
73.33160 189.000
73.35155 156.000
73.37150 182.000
73.39144 173.000
73.41139 194.000
73.43134 203.000
73.45129 171.000
73.47123 193.000
73.49118 197.000
73.51113 168.000
73.53107 199.000
73.55102 198.000
73.57097 162.000
73.59091 179.000
73.61086 176.000
73.63081 186.000
73.65076 172.000
73.67070 180.000
73.69065 165.000
73.71060 141.000
73.73054 153.000
73.75049 158.000
73.77044 147.000
73.79038 149.000
73.81033 153.000
73.83028 162.000
73.85022 142.000
73.87017 174.000
73.89012 141.000
73.91007 144.000
73.93001 147.000
73.94996 141.000
73.96991 143.000
73.98985 118.000
74.00980 134.000
74.02975 137.000
74.04969 133.000
74.06964 133.000
74.08959 147.000
74.10954 134.000
74.12948 142.000
74.14943 135.000
74.16938 136.000
74.18932 120.000
74.20927 125.000
74.22922 159.000
74.24916 114.000
74.26911 147.000
74.28906 156.000
74.30900 128.000
74.32895 140.000
74.34890 137.000
74.36885 142.000
74.38879 117.000
74.40874 149.000
74.42869 144.000
74.44863 147.000
74.46858 139.000
74.48853 152.000
74.50847 166.000
74.52842 172.000
74.54837 177.000
74.56832 188.000
74.58826 200.000
74.60821 213.000
74.62816 222.000
74.64810 231.000
74.66805 213.000
74.68800 203.000
74.70794 231.000
74.72789 187.000
74.74784 197.000
74.76778 197.000
74.78773 191.000
74.80768 197.000
74.82763 211.000
74.84757 224.000
74.86752 209.000
74.88747 203.000
74.90741 216.000
74.92736 179.000
74.94731 171.000
74.96725 189.000
74.98720 184.000
75.00715 224.000
75.02710 196.000
75.04704 206.000
75.06699 184.000
75.08694 207.000
75.10688 202.000
75.12683 226.000
75.14678 193.000
75.16672 197.000
75.18667 225.000
75.20662 193.000
75.22657 236.000
75.24651 196.000
75.26646 190.000
75.28641 212.000
75.30635 233.000
75.32630 204.000
75.34625 238.000
75.36619 203.000
75.38614 218.000
75.40609 223.000
75.42603 203.000
75.44598 210.000
75.46593 191.000
75.48588 203.000
75.50582 199.000
75.52577 213.000
75.54572 188.000
75.56566 187.000
75.58561 232.000
75.60556 188.000
75.62550 208.000
75.64545 207.000
75.66540 196.000
75.68535 181.000
75.70529 182.000
75.72524 154.000
75.74519 172.000
75.76513 165.000
75.78508 168.000
75.80503 174.000
75.82497 170.000
75.84492 179.000
75.86487 159.000
75.88481 137.000
75.90476 155.000
75.92471 141.000
75.94466 177.000
75.96460 170.000
75.98455 122.000
76.00450 126.000
76.02444 130.000
76.04439 166.000
76.06434 117.000
76.08428 130.000
76.10423 133.000
76.12418 124.000
76.14413 151.000
76.16407 130.000
76.18402 118.000
76.20397 122.000
76.22391 137.000
76.24386 129.000
76.26381 133.000
76.28375 113.000
76.30370 133.000
76.32365 116.000
76.34359 125.000
76.36354 135.000
76.38349 121.000
76.40344 142.000
76.42338 113.000
76.44333 151.000
76.46328 134.000
76.48322 123.000
76.50317 127.000
76.52312 135.000
76.54306 130.000
76.56301 149.000
76.58296 135.000
76.60291 132.000
76.62285 120.000
76.64280 141.000
76.66275 127.000
76.68269 115.000
76.70264 160.000
76.72259 128.000
76.74253 138.000
76.76248 127.000
76.78243 110.000
76.80238 123.000
76.82232 151.000
76.84227 136.000
76.86222 139.000
76.88216 128.000
76.90211 117.000
76.92206 113.000
76.94200 147.000
76.96195 140.000
76.98190 151.000
77.00184 127.000
77.02179 156.000
77.04174 131.000
77.06169 116.000
77.08163 122.000
77.10158 140.000
77.12153 131.000
77.14147 136.000
77.16142 156.000
77.18137 120.000
77.20131 114.000
77.22126 153.000
77.24121 117.000
77.26116 132.000
77.28110 130.000
77.30105 144.000
77.32100 141.000
77.34094 156.000
77.36089 146.000
77.38084 150.000
77.40078 132.000
77.42073 150.000
77.44068 167.000
77.46062 157.000
77.48057 151.000
77.50052 147.000
77.52047 140.000
77.54041 161.000
77.56036 152.000
77.58031 175.000
77.60025 193.000
77.62020 150.000
77.64015 172.000
77.66009 155.000
77.68004 164.000
77.69999 171.000
77.71994 164.000
77.73988 189.000
77.75983 183.000
77.77978 164.000
77.79972 183.000
77.81967 165.000
77.83962 160.000
77.85956 158.000
77.87951 168.000
77.89946 159.000
77.91940 159.000
77.93935 167.000
77.95930 153.000
77.97925 160.000
77.99919 170.000
78.01914 175.000
78.03909 146.000
78.05903 150.000
78.07898 154.000
78.09893 163.000
78.11887 173.000
78.13882 163.000
78.15877 178.000
78.17872 156.000
78.19866 164.000
78.21861 198.000
78.23856 162.000
78.25850 181.000
78.27845 184.000
78.29840 189.000
78.31834 171.000
78.33829 208.000
78.35824 191.000
78.37819 172.000
78.39813 211.000
78.41808 240.000
78.43803 214.000
78.45797 215.000
78.47792 236.000
78.49787 207.000
78.51781 238.000
78.53776 221.000
78.55771 197.000
78.57765 199.000
78.59760 192.000
78.61755 214.000
78.63750 220.000
78.65744 212.000
78.67739 185.000
78.69734 189.000
78.71728 169.000
78.73723 178.000
78.75718 192.000
78.77712 188.000
78.79707 193.000
78.81702 157.000
78.83697 211.000
78.85691 189.000
78.87686 167.000
78.89681 164.000
78.91675 179.000
78.93670 186.000
78.95665 137.000
78.97659 174.000
78.99654 171.000
79.01649 182.000
79.03643 163.000
79.05638 176.000
79.07633 182.000
79.09628 151.000
79.11622 175.000
79.13617 148.000
79.15612 192.000
79.17606 169.000
79.19601 176.000
79.21596 191.000
79.23590 165.000
79.25585 169.000
79.27580 182.000
79.29575 162.000
79.31569 176.000
79.33564 197.000
79.35559 180.000
79.37553 141.000
79.39548 169.000
79.41543 163.000
79.43537 178.000
79.45532 146.000
79.47527 168.000
79.49521 148.000
79.51516 143.000
79.53511 141.000
79.55506 132.000
79.57500 147.000
79.59495 162.000
79.61490 151.000
79.63484 151.000
79.65479 149.000
79.67474 151.000
79.69468 145.000
79.71463 145.000
79.73458 141.000
79.75453 130.000
79.77447 154.000
79.79442 141.000
79.81437 144.000
79.83431 141.000
79.85426 138.000
79.87421 128.000
79.89415 116.000
79.91410 131.000
79.93405 143.000
79.95399 135.000
79.97394 139.000
79.99389 145.000
80.01384 129.000
80.03378 126.000
80.05373 119.000
80.07368 162.000
80.09362 135.000
80.11357 150.000
80.13352 136.000
80.15346 131.000
80.17341 150.000
80.19336 135.000
80.21331 126.000
80.23325 160.000
80.25320 118.000
80.27315 129.000
80.29309 128.000
80.31304 133.000
80.33299 112.000
80.35293 123.000
80.37288 130.000
80.39283 129.000
80.41278 137.000
80.43272 126.000
80.45267 140.000
80.47262 145.000
80.49256 135.000
80.51251 132.000
80.53246 125.000
80.55240 141.000
80.57235 139.000
80.59230 140.000
80.61224 121.000
80.63219 130.000
80.65214 130.000
80.67209 136.000
80.69203 134.000
80.71198 133.000
80.73193 151.000
80.75187 134.000
80.77182 130.000
80.79177 114.000
80.81171 119.000
80.83166 127.000
80.85161 117.000
80.87156 131.000
80.89150 128.000
80.91145 117.000
80.93140 138.000
80.95134 126.000
80.97129 145.000
80.99124 139.000
81.01118 132.000
81.03113 128.000
81.05108 125.000
81.07102 136.000
81.09097 121.000
81.11092 116.000
81.13087 122.000
81.15081 136.000
81.17076 140.000
81.19071 140.000
81.21065 138.000
81.23060 127.000
81.25055 159.000
81.27049 129.000
81.29044 137.000
81.31039 131.000
81.33034 99.000
81.35028 107.000
81.37023 127.000
81.39018 116.000
81.41012 108.000
81.43007 114.000
81.45002 141.000
81.46996 125.000
81.48991 132.000
81.50986 109.000
81.52980 122.000
81.54975 129.000
81.56970 115.000
81.58965 106.000
81.60959 122.000
81.62954 127.000
81.64949 109.000
81.66943 112.000
81.68938 139.000
81.70933 115.000
81.72927 153.000
81.74922 131.000
81.76917 123.000
81.78912 119.000
81.80906 145.000
81.82901 144.000
81.84896 136.000
81.86890 130.000
81.88885 116.000
81.90880 129.000
81.92874 136.000
81.94869 110.000
81.96864 118.000
81.98859 133.000
82.00853 119.000
82.02848 124.000
82.04843 134.000
82.06837 115.000
82.08832 131.000
82.10827 120.000
82.12821 112.000
82.14816 141.000
82.16811 103.000
82.18805 106.000
82.20800 121.000
82.22795 117.000
82.24790 135.000
82.26784 149.000
82.28779 143.000
82.30774 130.000
82.32768 113.000
82.34763 122.000
82.36758 137.000
82.38752 121.000
82.40747 127.000
82.42742 122.000
82.44737 134.000
82.46731 124.000
82.48726 118.000
82.50721 133.000
82.52715 151.000
82.54710 127.000
82.56705 142.000
82.58699 136.000
82.60694 145.000
82.62689 126.000
82.64683 138.000
82.66678 121.000
82.68673 142.000
82.70668 141.000
82.72662 144.000
82.74657 126.000
82.76652 127.000
82.78646 123.000
82.80641 138.000
82.82636 137.000
82.84630 127.000
82.86625 129.000
82.88620 124.000
82.90615 116.000
82.92609 128.000
82.94604 140.000
82.96599 136.000
82.98593 143.000
83.00588 138.000
83.02583 130.000
83.04577 140.000
83.06572 153.000
83.08567 107.000
83.10561 162.000
83.12556 137.000
83.14551 120.000
83.16546 141.000
83.18540 130.000
83.20535 125.000
83.22530 133.000
83.24524 109.000
83.26519 137.000
83.28514 124.000
83.30508 127.000
83.32503 121.000
83.34498 137.000
83.36493 112.000
83.38487 132.000
83.40482 121.000
83.42477 118.000
83.44471 158.000
83.46466 146.000
83.48461 142.000
83.50455 139.000
83.52450 137.000
83.54445 152.000
83.56440 141.000
83.58434 141.000
83.60429 130.000
83.62424 122.000
83.64418 114.000
83.66413 124.000
83.68408 116.000
83.70402 134.000
83.72397 145.000
83.74392 118.000
83.76386 125.000
83.78381 130.000
83.80376 115.000
83.82371 142.000
83.84365 149.000
83.86360 130.000
83.88355 115.000
83.90349 133.000
83.92344 147.000
83.94339 155.000
83.96333 135.000
83.98328 151.000
84.00323 137.000
84.02318 151.000
84.04312 156.000
84.06307 156.000
84.08302 143.000
84.10296 165.000
84.12291 172.000
84.14286 158.000
84.16280 169.000
84.18275 185.000
84.20270 177.000
84.22264 174.000
84.24259 170.000
84.26254 168.000
84.28249 182.000
84.30243 165.000
84.32238 147.000
84.34233 173.000
84.36227 185.000
84.38222 142.000
84.40217 171.000
84.42211 170.000
84.44206 198.000
84.46201 184.000
84.48196 176.000
84.50190 143.000
84.52185 166.000
84.54180 161.000
84.56174 159.000
84.58169 178.000
84.60164 161.000
84.62158 204.000
84.64153 185.000
84.66148 162.000
84.68142 155.000
84.70137 145.000
84.72132 161.000
84.74127 167.000
84.76121 152.000
84.78116 148.000
84.80111 154.000
84.82105 161.000
84.84100 142.000
84.86095 150.000
84.88089 137.000
84.90084 149.000
84.92079 148.000
84.94074 163.000
84.96068 136.000
84.98063 141.000
85.00058 136.000
85.02052 147.000
85.04047 151.000
85.06042 117.000
85.08036 124.000
85.10031 143.000
85.12026 128.000
85.14021 109.000
85.16015 148.000
85.18010 128.000
85.20005 117.000
85.21999 124.000
85.23994 118.000
85.25989 134.000
85.27983 140.000
85.29978 145.000
85.31973 113.000
85.33967 111.000
85.35962 133.000
85.37957 140.000
85.39952 116.000
85.41946 118.000
85.43941 142.000
85.45936 134.000
85.47930 132.000
85.49925 125.000
85.51920 123.000
85.53914 116.000
85.55909 116.000
85.57904 119.000
85.59899 126.000
85.61893 120.000
85.63888 131.000
85.65883 123.000
85.67877 139.000
85.69872 145.000
85.71867 126.000
85.73861 138.000
85.75856 120.000
85.77851 126.000
85.79845 126.000
85.81840 140.000
85.83835 138.000
85.85830 136.000
85.87824 138.000
85.89819 133.000
85.91814 134.000
85.93808 164.000
85.95803 99.000
85.97798 113.000
85.99792 115.000
86.01787 117.000
86.03782 131.000
86.05777 121.000
86.07771 115.000
86.09766 129.000
86.11761 126.000
86.13755 143.000
86.15750 136.000
86.17745 110.000
86.19739 116.000
86.21734 138.000
86.23729 128.000
86.25723 117.000
86.27718 121.000
86.29713 137.000
86.31708 111.000
86.33702 134.000
86.35697 134.000
86.37692 127.000
86.39686 105.000
86.41681 112.000
86.43676 118.000
86.45670 107.000
86.47665 128.000
86.49660 121.000
86.51655 125.000
86.53649 109.000
86.55644 135.000
86.57639 115.000
86.59633 147.000
86.61628 127.000
86.63623 137.000
86.65617 125.000
86.67612 128.000
86.69607 125.000
86.71602 139.000
86.73596 132.000
86.75591 149.000
86.77586 121.000
86.79580 137.000
86.81575 135.000
86.83570 140.000
86.85564 143.000
86.87559 118.000
86.89554 133.000
86.91548 126.000
86.93543 132.000
86.95538 122.000
86.97533 135.000
86.99527 150.000
87.01522 132.000
87.03517 136.000
87.05511 130.000
87.07506 121.000
87.09501 119.000
87.11495 121.000
87.13490 136.000
87.15485 121.000
87.17480 151.000
87.19474 148.000
87.21469 155.000
87.23464 135.000
87.25458 136.000
87.27453 131.000
87.29448 138.000
87.31442 150.000
87.33437 132.000
87.35432 146.000
87.37426 156.000
87.39421 151.000
87.41416 143.000
87.43411 172.000
87.45405 175.000
87.47400 160.000
87.49395 175.000
87.51389 153.000
87.53384 165.000
87.55379 151.000
87.57373 186.000
87.59368 170.000
87.61363 151.000
87.63358 142.000
87.65352 168.000
87.67347 153.000
87.69342 156.000
87.71336 139.000
87.73331 155.000
87.75326 155.000
87.77320 163.000
87.79315 128.000
87.81310 154.000
87.83304 180.000
87.85299 133.000
87.87294 148.000
87.89289 147.000
87.91283 151.000
87.93278 162.000
87.95273 124.000
87.97267 137.000
87.99262 159.000
88.01257 126.000
88.03251 140.000
88.05246 143.000
88.07241 127.000
88.09236 145.000
88.11230 130.000
88.13225 121.000
88.15220 134.000
88.17214 132.000
88.19209 120.000
88.21204 141.000
88.23198 130.000
88.25193 119.000
88.27188 130.000
88.29183 118.000
88.31177 139.000
88.33172 114.000
88.35167 133.000
88.37161 124.000
88.39156 132.000
88.41151 124.000
88.43145 117.000
88.45140 121.000
88.47135 124.000
88.49129 136.000
88.51124 137.000
88.53119 120.000
88.55114 141.000
88.57108 122.000
88.59103 130.000
88.61098 124.000
88.63092 98.000
88.65087 118.000
88.67082 127.000
88.69076 120.000
88.71071 133.000
88.73066 111.000
88.75061 114.000
88.77055 137.000
88.79050 127.000
88.81045 135.000
88.83039 119.000
88.85034 113.000
88.87029 144.000
88.89023 141.000
88.91018 131.000
88.93013 118.000
88.95007 110.000
88.97002 113.000
88.98997 137.000
89.00992 124.000
89.02986 131.000
89.04981 135.000
89.06976 117.000
89.08970 116.000
89.10965 124.000
89.12960 113.000
89.14954 132.000
89.16949 135.000
89.18944 124.000
89.20939 112.000
89.22933 117.000
89.24928 135.000
89.26923 122.000
89.28917 146.000
89.30912 126.000
89.32907 144.000
89.34901 121.000
89.36896 127.000
89.38891 122.000
89.40885 127.000
89.42880 122.000
89.44875 114.000
89.46870 121.000
89.48864 144.000
89.50859 121.000
89.52854 124.000
89.54848 125.000
89.56843 132.000
89.58838 122.000
89.60832 143.000
89.62827 123.000
89.64822 129.000
89.66817 123.000
89.68811 126.000
89.70806 140.000
89.72801 117.000
89.74795 130.000
89.76790 129.000
89.78785 122.000
89.80779 119.000
89.82774 133.000
89.84769 121.000
89.86764 120.000
89.88758 138.000
89.90753 150.000
89.92748 130.000
89.94742 144.000
89.96737 135.000
89.98732 137.000
90.00726 142.000
