10.00000 259.000
10.01995 244.000
10.03989 241.000
10.05984 234.000
10.07979 224.000
10.09973 213.000
10.11968 237.000
10.13963 252.000
10.15958 228.000
10.17952 243.000
10.19947 235.000
10.21942 252.000
10.23936 243.000
10.25931 232.000
10.27926 226.000
10.29920 236.000
10.31915 223.000
10.33910 226.000
10.35905 231.000
10.37899 235.000
10.39894 227.000
10.41889 227.000
10.43883 227.000
10.45878 221.000
10.47873 244.000
10.49867 241.000
10.51862 226.000
10.53857 234.000
10.55851 240.000
10.57846 220.000
10.59841 228.000
10.61836 231.000
10.63830 226.000
10.65825 235.000
10.67820 244.000
10.69814 226.000
10.71809 238.000
10.73804 238.000
10.75798 235.000
10.77793 268.000
10.79788 232.000
10.81783 245.000
10.83777 237.000
10.85772 234.000
10.87767 266.000
10.89761 241.000
10.91756 247.000
10.93751 246.000
10.95745 256.000
10.97740 243.000
10.99735 225.000
11.01730 219.000
11.03724 252.000
11.05719 254.000
11.07714 214.000
11.09708 231.000
11.11703 247.000
11.13698 244.000
11.15692 267.000
11.17687 250.000
11.19682 227.000
11.21676 226.000
11.23671 243.000
11.25666 225.000
11.27661 221.000
11.29655 234.000
11.31650 236.000
11.33645 220.000
11.35639 279.000
11.37634 253.000
11.39629 242.000
11.41623 242.000
11.43618 231.000
11.45613 233.000
11.47608 250.000
11.49602 211.000
11.51597 245.000
11.53592 215.000
11.55586 237.000
11.57581 246.000
11.59576 225.000
11.61570 238.000
11.63565 228.000
11.65560 261.000
11.67554 240.000
11.69549 252.000
11.71544 228.000
11.73539 233.000
11.75533 264.000
11.77528 251.000
11.79523 237.000
11.81517 216.000
11.83512 240.000
11.85507 210.000
11.87501 237.000
11.89496 235.000
11.91491 240.000
11.93486 262.000
11.95480 245.000
11.97475 236.000
11.99470 245.000
12.01464 218.000
12.03459 217.000
12.05454 240.000
12.07448 256.000
12.09443 215.000
12.11438 251.000
12.13432 257.000
12.15427 209.000
12.17422 249.000
12.19417 243.000
12.21411 239.000
12.23406 251.000
12.25401 221.000
12.27395 250.000
12.29390 244.000
12.31385 210.000
12.33379 230.000
12.35374 258.000
12.37369 240.000
12.39364 228.000
12.41358 233.000
12.43353 237.000
12.45348 232.000
12.47342 230.000
12.49337 263.000
12.51332 262.000
12.53326 261.000
12.55321 239.000
12.57316 214.000
12.59311 207.000
12.61305 226.000
12.63300 206.000
12.65295 243.000
12.67289 213.000
12.69284 222.000
12.71279 244.000
12.73273 260.000
12.75268 251.000
12.77263 245.000
12.79257 247.000
12.81252 229.000
12.83247 254.000
12.85242 233.000
12.87236 226.000
12.89231 253.000
12.91226 242.000
12.93220 221.000
12.95215 233.000
12.97210 231.000
12.99204 240.000
13.01199 252.000
13.03194 211.000
13.05189 279.000
13.07183 246.000
13.09178 250.000
13.11173 231.000
13.13167 243.000
13.15162 240.000
13.17157 255.000
13.19151 212.000
13.21146 219.000
13.23141 223.000
13.25135 239.000
13.27130 257.000
13.29125 227.000
13.31120 213.000
13.33114 219.000
13.35109 215.000
13.37104 257.000
13.39098 250.000
13.41093 217.000
13.43088 227.000
13.45082 233.000
13.47077 211.000
13.49072 236.000
13.51067 240.000
13.53061 268.000
13.55056 221.000
13.57051 273.000
13.59045 216.000
13.61040 240.000
13.63035 245.000
13.65029 258.000
13.67024 243.000
13.69019 220.000
13.71013 243.000
13.73008 217.000
13.75003 225.000
13.76998 252.000
13.78992 239.000
13.80987 232.000
13.82982 246.000
13.84976 226.000
13.86971 233.000
13.88966 266.000
13.90960 247.000
13.92955 228.000
13.94950 239.000
13.96945 225.000
13.98939 246.000
14.00934 258.000
14.02929 222.000
14.04923 244.000
14.06918 236.000
14.08913 237.000
14.10907 234.000
14.12902 247.000
14.14897 220.000
14.16892 213.000
14.18886 269.000
14.20881 233.000
14.22876 242.000
14.24870 264.000
14.26865 240.000
14.28860 235.000
14.30854 231.000
14.32849 231.000
14.34844 215.000
14.36838 250.000
14.38833 252.000
14.40828 221.000
14.42823 237.000
14.44817 249.000
14.46812 237.000
14.48807 232.000
14.50801 259.000
14.52796 244.000
14.54791 255.000
14.56785 259.000
14.58780 273.000
14.60775 220.000
14.62770 230.000
14.64764 219.000
14.66759 247.000
14.68754 243.000
14.70748 227.000
14.72743 233.000
14.74738 224.000
14.76732 261.000
14.78727 237.000
14.80722 240.000
14.82716 247.000
14.84711 223.000
14.86706 259.000
14.88701 229.000
14.90695 230.000
14.92690 251.000
14.94685 266.000
14.96679 233.000
14.98674 258.000
15.00669 241.000
15.02663 246.000
15.04658 265.000
15.06653 232.000
15.08648 291.000
15.10642 248.000
15.12637 236.000
15.14632 246.000
15.16626 251.000
15.18621 267.000
15.20616 251.000
15.22610 263.000
15.24605 250.000
15.26600 239.000
15.28594 253.000
15.30589 263.000
15.32584 265.000
15.34579 249.000
15.36573 240.000
15.38568 272.000
15.40563 251.000
15.42557 241.000
15.44552 260.000
15.46547 269.000
15.48541 270.000
15.50536 264.000
15.52531 305.000
15.54526 290.000
15.56520 295.000
15.58515 306.000
15.60510 288.000
15.62504 305.000
15.64499 336.000
15.66494 350.000
15.68488 419.000
15.70483 437.000
15.72478 517.000
15.74472 689.000
15.76467 959.000
15.78462 1143.000
15.80457 1680.000
15.82451 2242.000
15.84446 2596.000
15.86441 2696.000
15.88435 2385.000
15.90430 2008.000
15.92425 1338.000
15.94419 868.000
15.96414 628.000
15.98409 481.000
16.00404 435.000
16.02398 443.000
16.04393 458.000
16.06388 556.000
16.08382 603.000
16.10377 746.000
16.12372 812.000
16.14366 962.000
16.16361 1008.000
16.18356 917.000
16.20351 812.000
16.22345 648.000
16.24340 515.000
16.26335 477.000
16.28329 416.000
16.30324 303.000
16.32319 328.000
16.34313 299.000
16.36308 309.000
16.38303 282.000
16.40297 297.000
16.42292 277.000
16.44287 239.000
16.46282 269.000
16.48276 278.000
16.50271 265.000
16.52266 245.000
16.54260 272.000
16.56255 251.000
16.58250 265.000
16.60244 253.000
16.62239 211.000
16.64234 242.000
16.66229 288.000
16.68223 227.000
16.70218 253.000
16.72213 250.000
16.74207 272.000
16.76202 262.000
16.78197 257.000
16.80191 279.000
16.82186 233.000
16.84181 282.000
16.86175 277.000
16.88170 247.000
16.90165 235.000
16.92160 222.000
16.94154 237.000
16.96149 227.000
16.98144 240.000
17.00138 249.000
17.02133 220.000
17.04128 238.000
17.06122 277.000
17.08117 230.000
17.10112 246.000
17.12107 226.000
17.14101 221.000
17.16096 271.000
17.18091 254.000
17.20085 262.000
17.22080 259.000
17.24075 220.000
17.26069 231.000
17.28064 235.000
17.30059 241.000
17.32053 250.000
17.34048 248.000
17.36043 261.000
17.38038 225.000
17.40032 272.000
17.42027 233.000
17.44022 227.000
17.46016 245.000
17.48011 244.000
17.50006 255.000
17.52000 227.000
17.53995 256.000
17.55990 232.000
17.57985 249.000
17.59979 266.000
17.61974 242.000
17.63969 219.000
17.65963 254.000
17.67958 250.000
17.69953 256.000
17.71947 235.000
17.73942 246.000
17.75937 231.000
17.77932 266.000
17.79926 253.000
17.81921 219.000
17.83916 256.000
17.85910 240.000
17.87905 214.000
17.89900 201.000
17.91894 255.000
17.93889 225.000
17.95884 259.000
17.97878 274.000
17.99873 251.000
18.01868 241.000
18.03863 271.000
18.05857 246.000
18.07852 256.000
18.09847 243.000
18.11841 261.000
18.13836 240.000
18.15831 229.000
18.17825 237.000
18.19820 261.000
18.21815 264.000
18.23810 226.000
18.25804 248.000
18.27799 256.000
18.29794 273.000
18.31788 305.000
18.33783 335.000
18.35778 340.000
18.37772 382.000
18.39767 383.000
18.41762 354.000
18.43756 326.000
18.45751 261.000
18.47746 282.000
18.49741 252.000
18.51735 265.000
18.53730 234.000
18.55725 248.000
18.57719 221.000
18.59714 255.000
18.61709 292.000
18.63703 234.000
18.65698 240.000
18.67693 217.000
18.69688 282.000
18.71682 265.000
18.73677 260.000
18.75672 251.000
18.77666 228.000
18.79661 232.000
18.81656 242.000
18.83650 252.000
18.85645 241.000
18.87640 257.000
18.89634 264.000
18.91629 231.000
18.93624 236.000
18.95619 259.000
18.97613 232.000
18.99608 218.000
19.01603 207.000
19.03597 229.000
19.05592 228.000
19.07587 246.000
19.09581 195.000
19.11576 240.000
19.13571 215.000
19.15566 236.000
19.17560 222.000
19.19555 200.000
19.21550 235.000
19.23544 253.000
19.25539 233.000
19.27534 248.000
19.29528 224.000
19.31523 249.000
19.33518 232.000
19.35513 262.000
19.37507 248.000
19.39502 204.000
19.41497 254.000
19.43491 252.000
19.45486 246.000
19.47481 225.000
19.49475 234.000
19.51470 243.000
19.53465 222.000
19.55459 252.000
19.57454 276.000
19.59449 244.000
19.61444 224.000
19.63438 240.000
19.65433 246.000
19.67428 259.000
19.69422 230.000
19.71417 220.000
19.73412 259.000
19.75406 247.000
19.77401 245.000
19.79396 249.000
19.81391 234.000
19.83385 254.000
19.85380 276.000
19.87375 242.000
19.89369 241.000
19.91364 238.000
19.93359 238.000
19.95353 232.000
19.97348 248.000
19.99343 229.000
20.01337 278.000
20.03332 249.000
20.05327 243.000
20.07322 211.000
20.09316 239.000
20.11311 251.000
20.13306 216.000
20.15300 228.000
20.17295 235.000
20.19290 246.000
20.21284 275.000
20.23279 264.000
20.25274 238.000
20.27269 248.000
20.29263 242.000
20.31258 254.000
20.33253 245.000
20.35247 254.000
20.37242 223.000
20.39237 237.000
20.41231 239.000
20.43226 222.000
20.45221 231.000
20.47215 271.000
20.49210 227.000
20.51205 250.000
20.53200 238.000
20.55194 248.000
20.57189 254.000
20.59184 225.000
20.61178 247.000
20.63173 264.000
20.65168 284.000
20.67162 244.000
20.69157 241.000
20.71152 266.000
20.73147 273.000
20.75141 272.000
20.77136 288.000
20.79131 290.000
20.81125 319.000
20.83120 331.000
20.85115 339.000
20.87109 346.000
20.89104 341.000
20.91099 320.000
20.93094 319.000
20.95088 319.000
20.97083 359.000
20.99078 355.000
21.01072 369.000
21.03067 408.000
21.05062 385.000
21.07056 364.000
21.09051 353.000
21.11046 303.000
21.13040 315.000
21.15035 277.000
21.17030 272.000
21.19025 244.000
21.21019 240.000
21.23014 248.000
21.25009 236.000
21.27003 280.000
21.28998 275.000
21.30993 247.000
21.32987 238.000
21.34982 252.000
21.36977 241.000
21.38972 255.000
21.40966 260.000
21.42961 253.000
21.44956 264.000
21.46950 254.000
21.48945 229.000
21.50940 234.000
21.52934 276.000
21.54929 227.000
21.56924 244.000
21.58918 258.000
21.60913 249.000
21.62908 235.000
21.64903 270.000
21.66897 257.000
21.68892 256.000
21.70887 255.000
21.72881 270.000
21.74876 264.000
21.76871 236.000
21.78865 249.000
21.80860 268.000
21.82855 218.000
21.84850 236.000
21.86844 259.000
21.88839 246.000
21.90834 252.000
21.92828 230.000
21.94823 217.000
21.96818 252.000
21.98812 251.000
22.00807 272.000
22.02802 259.000
22.04796 239.000
22.06791 241.000
22.08786 239.000
22.10781 227.000
22.12775 219.000
22.14770 227.000
22.16765 255.000
22.18759 259.000
22.20754 271.000
22.22749 260.000
22.24743 254.000
22.26738 274.000
22.28733 241.000
22.30728 263.000
22.32722 234.000
22.34717 241.000
22.36712 226.000
22.38706 234.000
22.40701 231.000
22.42696 249.000
22.44690 251.000
22.46685 246.000
22.48680 236.000
22.50675 243.000
22.52669 252.000
22.54664 225.000
22.56659 234.000
22.58653 275.000
22.60648 247.000
22.62643 229.000
22.64637 257.000
22.66632 240.000
22.68627 229.000
22.70621 247.000
22.72616 238.000
22.74611 246.000
22.76606 241.000
22.78600 261.000
22.80595 258.000
22.82590 260.000
22.84584 233.000
22.86579 243.000
22.88574 267.000
22.90568 256.000
22.92563 244.000
22.94558 280.000
22.96553 245.000
22.98547 248.000
23.00542 237.000
23.02537 211.000
23.04531 245.000
23.06526 242.000
23.08521 246.000
23.10515 236.000
23.12510 240.000
23.14505 246.000
23.16499 243.000
23.18494 277.000
23.20489 245.000
23.22484 244.000
23.24478 268.000
23.26473 222.000
23.28468 284.000
23.30462 251.000
23.32457 264.000
23.34452 260.000
23.36446 256.000
23.38441 261.000
23.40436 269.000
23.42431 273.000
23.44425 226.000
23.46420 233.000
23.48415 277.000
23.50409 237.000
23.52404 267.000
23.54399 263.000
23.56393 276.000
23.58388 249.000
23.60383 286.000
23.62377 281.000
23.64372 265.000
23.66367 259.000
23.68362 279.000
23.70356 251.000
23.72351 263.000
23.74346 255.000
23.76340 273.000
23.78335 248.000
23.80330 271.000
23.82324 228.000
23.84319 226.000
23.86314 247.000
23.88309 260.000
23.90303 277.000
23.92298 241.000
23.94293 283.000
23.96287 218.000
23.98282 237.000
24.00277 260.000
24.02271 244.000
24.04266 271.000
24.06261 248.000
24.08256 259.000
24.10250 259.000
24.12245 238.000
24.14240 228.000
24.16234 245.000
24.18229 260.000
24.20224 250.000
24.22218 252.000
24.24213 242.000
24.26208 265.000
24.28202 255.000
24.30197 237.000
24.32192 238.000
24.34187 252.000
24.36181 252.000
24.38176 248.000
24.40171 262.000
24.42165 263.000
24.44160 240.000
24.46155 229.000
24.48149 254.000
24.50144 240.000
24.52139 242.000
24.54134 272.000
24.56128 234.000
24.58123 267.000
24.60118 229.000
24.62112 267.000
24.64107 271.000
24.66102 249.000
24.68096 246.000
24.70091 261.000
24.72086 270.000
24.74080 237.000
24.76075 248.000
24.78070 266.000
24.80065 275.000
24.82059 248.000
24.84054 267.000
24.86049 258.000
24.88043 290.000
24.90038 260.000
24.92033 263.000
24.94027 249.000
24.96022 274.000
24.98017 269.000
25.00012 262.000
25.02006 261.000
25.04001 280.000
25.05996 265.000
25.07990 244.000
25.09985 266.000
25.11980 282.000
25.13974 250.000
25.15969 264.000
25.17964 258.000
25.19958 243.000
25.21953 259.000
25.23948 269.000
25.25943 249.000
25.27937 260.000
25.29932 218.000
25.31927 245.000
25.33921 240.000
25.35916 274.000
25.37911 219.000
25.39905 230.000
25.41900 241.000
25.43895 244.000
25.45890 237.000
25.47884 250.000
25.49879 259.000
25.51874 252.000
25.53868 271.000
25.55863 282.000
25.57858 263.000
25.59852 243.000
25.61847 245.000
25.63842 249.000
25.65837 241.000
25.67831 223.000
25.69826 243.000
25.71821 252.000
25.73815 248.000
25.75810 263.000
25.77805 228.000
25.79799 248.000
25.81794 253.000
25.83789 267.000
25.85783 266.000
25.87778 286.000
25.89773 268.000
25.91768 245.000
25.93762 297.000
25.95757 269.000
25.97752 271.000
25.99746 233.000
26.01741 293.000
26.03736 257.000
26.05730 242.000
26.07725 275.000
26.09720 267.000
26.11715 264.000
26.13709 294.000
26.15704 269.000
26.17699 254.000
26.19693 262.000
26.21688 256.000
26.23683 256.000
26.25677 244.000
26.27672 252.000
26.29667 261.000
26.31661 269.000
26.33656 244.000
26.35651 272.000
26.37646 282.000
26.39640 259.000
26.41635 270.000
26.43630 271.000
26.45624 301.000
26.47619 240.000
26.49614 246.000
26.51608 285.000
26.53603 281.000
26.55598 257.000
26.57593 295.000
26.59587 262.000
26.61582 259.000
26.63577 260.000
26.65571 264.000
26.67566 266.000
26.69561 249.000
26.71555 269.000
26.73550 266.000
26.75545 266.000
26.77539 258.000
26.79534 245.000
26.81529 297.000
26.83524 268.000
26.85518 267.000
26.87513 263.000
26.89508 288.000
26.91502 255.000
26.93497 252.000
26.95492 260.000
26.97486 291.000
26.99481 241.000
27.01476 216.000
27.03471 283.000
27.05465 259.000
27.07460 243.000
27.09455 272.000
27.11449 290.000
27.13444 258.000
27.15439 270.000
27.17433 259.000
27.19428 264.000
27.21423 257.000
27.23417 237.000
27.25412 257.000
27.27407 282.000
27.29402 244.000
27.31396 250.000
27.33391 267.000
27.35386 279.000
27.37380 276.000
27.39375 241.000
27.41370 265.000
27.43364 287.000
27.45359 257.000
27.47354 279.000
27.49349 281.000
27.51343 252.000
27.53338 295.000
27.55333 234.000
27.57327 276.000
27.59322 305.000
27.61317 239.000
27.63311 284.000
27.65306 268.000
27.67301 280.000
27.69296 272.000
27.71290 256.000
27.73285 266.000
27.75280 268.000
27.77274 287.000
27.79269 247.000
27.81264 268.000
27.83258 237.000
27.85253 267.000
27.87248 263.000
27.89242 268.000
27.91237 288.000
27.93232 300.000
27.95227 246.000
27.97221 284.000
27.99216 258.000
28.01211 239.000
28.03205 277.000
28.05200 284.000
28.07195 265.000
28.09189 247.000
28.11184 264.000
28.13179 277.000
28.15174 244.000
28.17168 268.000
28.19163 283.000
28.21158 295.000
28.23152 239.000
28.25147 296.000
28.27142 269.000
28.29136 288.000
28.31131 275.000
28.33126 267.000
28.35120 297.000
28.37115 270.000
28.39110 265.000
28.41105 269.000
28.43099 280.000
28.45094 254.000
28.47089 239.000
28.49083 287.000
28.51078 248.000
28.53073 277.000
28.55067 274.000
28.57062 260.000
28.59057 275.000
28.61052 275.000
28.63046 302.000
28.65041 263.000
28.67036 266.000
28.69030 273.000
28.71025 261.000
28.73020 261.000
28.75014 255.000
28.77009 283.000
28.79004 269.000
28.80998 286.000
28.82993 264.000
28.84988 281.000
28.86983 275.000
28.88977 280.000
28.90972 249.000
28.92967 290.000
28.94961 284.000
28.96956 258.000
28.98951 293.000
29.00945 272.000
29.02940 289.000
29.04935 267.000
29.06930 277.000
29.08924 253.000
29.10919 260.000
29.12914 273.000
29.14908 278.000
29.16903 305.000
29.18898 231.000
29.20892 280.000
29.22887 254.000
29.24882 288.000
29.26877 282.000
29.28871 290.000
29.30866 301.000
29.32861 298.000
29.34855 290.000
29.36850 308.000
29.38845 266.000
29.40839 320.000
29.42834 304.000
29.44829 268.000
29.46823 280.000
29.48818 292.000
29.50813 300.000
29.52808 289.000
29.54802 294.000
29.56797 290.000
29.58792 296.000
29.60786 289.000
29.62781 269.000
29.64776 291.000
29.66770 287.000
29.68765 277.000
29.70760 299.000
29.72755 281.000
29.74749 311.000
29.76744 294.000
29.78739 268.000
29.80733 250.000
29.82728 305.000
29.84723 301.000
29.86717 292.000
29.88712 274.000
29.90707 283.000
29.92701 293.000
29.94696 279.000
29.96691 313.000
29.98686 284.000
30.00680 310.000
30.02675 299.000
30.04670 302.000
30.06664 284.000
30.08659 290.000
30.10654 292.000
30.12648 361.000
30.14643 343.000
30.16638 365.000
30.18633 406.000
30.20627 472.000
30.22622 522.000
30.24617 574.000
30.26611 604.000
30.28606 540.000
30.30601 521.000
30.32595 529.000
30.34590 454.000
30.36585 452.000
30.38579 383.000
30.40574 363.000
30.42569 296.000
30.44564 310.000
30.46558 312.000
30.48553 294.000
30.50548 293.000
30.52542 316.000
30.54537 299.000
30.56532 315.000
30.58526 313.000
30.60521 275.000
30.62516 282.000
30.64511 301.000
30.66505 281.000
30.68500 270.000
30.70495 293.000
30.72489 304.000
30.74484 276.000
30.76479 267.000
30.78473 271.000
30.80468 270.000
30.82463 274.000
30.84458 268.000
30.86452 296.000
30.88447 242.000
30.90442 293.000
30.92436 272.000
30.94431 299.000
30.96426 260.000
30.98420 297.000
31.00415 284.000
31.02410 253.000
31.04404 300.000
31.06399 274.000
31.08394 276.000
31.10389 285.000
31.12383 283.000
31.14378 291.000
31.16373 266.000
31.18367 271.000
31.20362 292.000
31.22357 306.000
31.24351 283.000
31.26346 280.000
31.28341 286.000
31.30336 279.000
31.32330 278.000
31.34325 268.000
31.36320 283.000
31.38314 311.000
31.40309 262.000
31.42304 300.000
31.44298 287.000
31.46293 256.000
31.48288 276.000
31.50282 270.000
31.52277 278.000
31.54272 279.000
31.56267 306.000
31.58261 284.000
31.60256 285.000
31.62251 311.000
31.64245 321.000
31.66240 290.000
31.68235 277.000
31.70229 302.000
31.72224 272.000
31.74219 278.000
31.76214 279.000
31.78208 258.000
31.80203 296.000
31.82198 289.000
31.84192 274.000
31.86187 298.000
31.88182 290.000
31.90176 321.000
31.92171 340.000
31.94166 336.000
31.96160 391.000
31.98155 402.000
32.00150 447.000
32.02145 431.000
32.04139 471.000
32.06134 473.000
32.08129 465.000
32.10123 440.000
32.12118 448.000
32.14113 388.000
32.16107 389.000
32.18102 347.000
32.20097 333.000
32.22092 315.000
32.24086 336.000
32.26081 322.000
32.28076 315.000
32.30070 288.000
32.32065 275.000
32.34060 280.000
32.36054 271.000
32.38049 305.000
32.40044 300.000
32.42039 298.000
32.44033 305.000
32.46028 275.000
32.48023 295.000
32.50017 278.000
32.52012 291.000
32.54007 275.000
32.56001 290.000
32.57996 295.000
32.59991 314.000
32.61985 347.000
32.63980 338.000
32.65975 346.000
32.67970 326.000
32.69964 305.000
32.71959 334.000
32.73954 323.000
32.75948 317.000
32.77943 304.000
32.79938 356.000
32.81932 297.000
32.83927 314.000
32.85922 307.000
32.87917 308.000
32.89911 308.000
32.91906 310.000
32.93901 300.000
32.95895 290.000
32.97890 268.000
32.99885 266.000
33.01879 293.000
33.03874 296.000
33.05869 318.000
33.07863 306.000
33.09858 291.000
33.11853 292.000
33.13848 308.000
33.15842 281.000
33.17837 288.000
33.19832 274.000
33.21826 300.000
33.23821 273.000
33.25816 285.000
33.27810 285.000
33.29805 282.000
33.31800 277.000
33.33795 257.000
33.35789 289.000
33.37784 303.000
33.39779 283.000
33.41773 286.000
33.43768 273.000
33.45763 296.000
33.47757 268.000
33.49752 265.000
33.51747 278.000
33.53741 313.000
33.55736 274.000
33.57731 254.000
33.59726 299.000
33.61720 319.000
33.63715 278.000
33.65710 315.000
33.67704 308.000
33.69699 289.000
33.71694 249.000
33.73688 303.000
33.75683 290.000
33.77678 284.000
33.79673 300.000
33.81667 294.000
33.83662 278.000
33.85657 263.000
33.87651 302.000
33.89646 311.000
33.91641 255.000
33.93635 296.000
33.95630 257.000
33.97625 295.000
33.99620 271.000
34.01614 287.000
34.03609 312.000
34.05604 270.000
34.07598 276.000
34.09593 300.000
34.11588 294.000
34.13582 325.000
34.15577 286.000
34.17572 272.000
34.19566 293.000
34.21561 316.000
34.23556 345.000
34.25551 322.000
34.27545 329.000
34.29540 369.000
34.31535 342.000
34.33529 357.000
34.35524 323.000
34.37519 335.000
34.39513 346.000
34.41508 379.000
34.43503 378.000
34.45498 338.000
34.47492 364.000
34.49487 349.000
34.51482 346.000
34.53476 366.000
34.55471 388.000
34.57466 390.000
34.59460 388.000
34.61455 397.000
34.63450 366.000
34.65444 375.000
34.67439 390.000
34.69434 436.000
34.71429 397.000
34.73423 381.000
34.75418 375.000
34.77413 345.000
34.79407 371.000
34.81402 382.000
34.83397 345.000
34.85391 358.000
34.87386 316.000
34.89381 340.000
34.91376 286.000
34.93370 338.000
34.95365 280.000
34.97360 284.000
34.99354 309.000
35.01349 313.000
35.03344 296.000
35.05338 302.000
35.07333 304.000
35.09328 293.000
35.11322 302.000
35.13317 284.000
35.15312 343.000
35.17307 289.000
35.19301 321.000
35.21296 284.000
35.23291 360.000
35.25285 339.000
35.27280 329.000
35.29275 329.000
35.31269 335.000
35.33264 380.000
35.35259 318.000
35.37254 367.000
35.39248 378.000
35.41243 403.000
35.43238 401.000
35.45232 476.000
35.47227 478.000
35.49222 521.000
35.51216 628.000
35.53211 617.000
35.55206 678.000
35.57201 811.000
35.59195 953.000
35.61190 1067.000
35.63185 1275.000
35.65179 1355.000
35.67174 1398.000
35.69169 1288.000
35.71163 1128.000
35.73158 1103.000
35.75153 1010.000
35.77147 927.000
35.79142 791.000
35.81137 757.000
35.83132 593.000
35.85126 556.000
35.87121 496.000
35.89116 443.000
35.91110 434.000
35.93105 417.000
35.95100 392.000
35.97094 407.000
35.99089 363.000
36.01084 368.000
36.03079 344.000
36.05073 367.000
36.07068 326.000
36.09063 330.000
36.11057 317.000
36.13052 293.000
36.15047 308.000
36.17041 339.000
36.19036 321.000
36.21031 342.000
36.23025 322.000
36.25020 335.000
36.27015 296.000
36.29010 328.000
36.31004 371.000
36.32999 320.000
36.34994 341.000
36.36988 326.000
36.38983 357.000
36.40978 355.000
36.42972 364.000
36.44967 351.000
36.46962 357.000
36.48957 364.000
36.50951 371.000
36.52946 366.000
36.54941 377.000
36.56935 348.000
36.58930 365.000
36.60925 361.000
36.62919 370.000
36.64914 365.000
36.66909 440.000
36.68903 368.000
36.70898 439.000
36.72893 482.000
36.74888 478.000
36.76882 483.000
36.78877 518.000
36.80872 519.000
36.82866 557.000
36.84861 653.000
36.86856 701.000
36.88850 727.000
36.90845 840.000
36.92840 897.000
36.94835 1051.000
36.96829 1211.000
36.98824 1507.000
37.00819 1863.000
37.02813 2408.000
37.04808 3038.000
37.06803 3729.000
37.08797 4512.000
37.10792 5165.000
37.12787 5159.000
37.14781 4802.000
37.16776 4430.000
37.18771 3917.000
37.20766 3435.000
37.22760 2927.000
37.24755 2391.000
37.26750 1816.000
37.28744 1345.000
37.30739 939.000
37.32734 740.000
37.34728 695.000
37.36723 563.000
37.38718 523.000
37.40713 451.000
37.42707 484.000
37.44702 427.000
37.46697 404.000
37.48691 407.000
37.50686 378.000
37.52681 369.000
37.54675 358.000
37.56670 348.000
37.58665 371.000
37.60660 344.000
37.62654 314.000
37.64649 357.000
37.66644 333.000
37.68638 330.000
37.70633 325.000
37.72628 310.000
37.74622 324.000
37.76617 306.000
37.78612 309.000
37.80606 276.000
37.82601 299.000
37.84596 288.000
37.86591 275.000
37.88585 267.000
37.90580 310.000
37.92575 288.000
37.94569 324.000
37.96564 308.000
37.98559 313.000
38.00553 317.000
38.02548 295.000
38.04543 276.000
38.06538 286.000
38.08532 314.000
38.10527 295.000
38.12522 295.000
38.14516 298.000
38.16511 270.000
38.18506 285.000
38.20500 281.000
38.22495 269.000
38.24490 296.000
38.26484 287.000
38.28479 290.000
38.30474 299.000
38.32469 281.000
38.34463 277.000
38.36458 308.000
38.38453 342.000
38.40447 304.000
38.42442 278.000
38.44437 319.000
38.46431 321.000
38.48426 304.000
38.50421 297.000
38.52416 284.000
38.54410 321.000
38.56405 281.000
38.58400 273.000
38.60394 301.000
38.62389 282.000
38.64384 290.000
38.66378 347.000
38.68373 298.000
38.70368 320.000
38.72362 277.000
38.74357 315.000
38.76352 295.000
38.78347 270.000
38.80341 284.000
38.82336 292.000
38.84331 307.000
38.86325 315.000
38.88320 339.000
38.90315 269.000
38.92309 272.000
38.94304 315.000
38.96299 297.000
38.98294 337.000
39.00288 302.000
39.02283 338.000
39.04278 290.000
39.06272 321.000
39.08267 352.000
39.10262 393.000
39.12256 418.000
39.14251 466.000
39.16246 495.000
39.18241 537.000
39.20235 505.000
39.22230 541.000
39.24225 559.000
39.26219 542.000
39.28214 591.000
39.30209 529.000
39.32203 559.000
39.34198 574.000
39.36193 584.000
39.38187 552.000
39.40182 534.000
39.42177 467.000
39.44172 491.000
39.46166 492.000
39.48161 426.000
39.50156 375.000
39.52150 419.000
39.54145 351.000
39.56140 386.000
39.58134 349.000
39.60129 333.000
39.62124 293.000
39.64119 289.000
39.66113 286.000
39.68108 295.000
39.70103 272.000
39.72097 334.000
39.74092 268.000
39.76087 323.000
39.78081 286.000
39.80076 293.000
39.82071 312.000
39.84065 317.000
39.86060 290.000
39.88055 279.000
39.90050 294.000
39.92044 285.000
39.94039 250.000
39.96034 290.000
39.98028 270.000
40.00023 275.000
40.02018 254.000
40.04012 304.000
40.06007 268.000
40.08002 298.000
40.09997 290.000
40.11991 283.000
40.13986 274.000
40.15981 281.000
40.17975 261.000
40.19970 277.000
40.21965 264.000
40.23959 277.000
40.25954 281.000
40.27949 278.000
40.29943 264.000
40.31938 281.000
40.33933 293.000
40.35928 292.000
40.37922 307.000
40.39917 283.000
40.41912 300.000
40.43906 274.000
40.45901 292.000
40.47896 270.000
40.49890 303.000
40.51885 265.000
40.53880 265.000
40.55875 264.000
40.57869 249.000
40.59864 248.000
40.61859 282.000
40.63853 275.000
40.65848 262.000
40.67843 292.000
40.69837 292.000
40.71832 297.000
40.73827 277.000
40.75822 258.000
40.77816 276.000
40.79811 278.000
40.81806 265.000
40.83800 312.000
40.85795 271.000
40.87790 251.000
40.89784 290.000
40.91779 282.000
40.93774 284.000
40.95768 276.000
40.97763 308.000
40.99758 269.000
41.01753 298.000
41.03747 269.000
41.05742 310.000
41.07737 307.000
41.09731 289.000
41.11726 260.000
41.13721 281.000
41.15715 301.000
41.17710 265.000
41.19705 309.000
41.21700 289.000
41.23694 298.000
41.25689 321.000
41.27684 305.000
41.29678 294.000
41.31673 292.000
41.33668 321.000
41.35662 302.000
41.37657 320.000
41.39652 310.000
41.41646 312.000
41.43641 280.000
41.45636 312.000
41.47631 326.000
41.49625 342.000
41.51620 365.000
41.53615 375.000
41.55609 364.000
41.57604 412.000
41.59599 429.000
41.61593 481.000
41.63588 540.000
41.65583 621.000
41.67578 675.000
41.69572 728.000
41.71567 731.000
41.73562 766.000
41.75556 668.000
41.77551 569.000
41.79546 585.000
41.81540 569.000
41.83535 527.000
41.85530 490.000
41.87524 402.000
41.89519 389.000
41.91514 368.000
41.93509 336.000
41.95503 357.000
41.97498 306.000
41.99493 334.000
42.01487 346.000
42.03482 321.000
42.05477 293.000
42.07471 299.000
42.09466 304.000
42.11461 326.000
42.13456 302.000
42.15450 307.000
42.17445 288.000
42.19440 321.000
42.21434 315.000
42.23429 334.000
42.25424 343.000
42.27418 302.000
42.29413 316.000
42.31408 328.000
42.33403 342.000
42.35397 346.000
42.37392 331.000
42.39387 381.000
42.41381 328.000
42.43376 360.000
42.45371 352.000
42.47365 385.000
42.49360 359.000
42.51355 398.000
42.53349 425.000
42.55344 396.000
42.57339 409.000
42.59334 441.000
42.61328 451.000
42.63323 440.000
42.65318 443.000
42.67312 479.000
42.69307 492.000
42.71302 560.000
42.73296 504.000
42.75291 581.000
42.77286 573.000
42.79281 620.000
42.81275 689.000
42.83270 759.000
42.85265 764.000
42.87259 938.000
42.89254 1007.000
42.91249 1121.000
42.93243 1324.000
42.95238 1434.000
42.97233 1833.000
42.99227 2096.000
43.01222 2646.000
43.03217 3307.000
43.05212 4133.000
43.07206 4840.000
43.09201 5581.000
43.11196 6213.000
43.13190 6525.000
43.15185 6521.000
43.17180 6423.000
43.19174 5900.000
43.21169 5432.000
43.23164 4790.000
43.25159 4180.000
43.27153 3708.000
43.29148 3125.000
43.31143 2567.000
43.33137 2065.000
43.35132 1631.000
43.37127 1316.000
43.39121 1135.000
43.41116 939.000
43.43111 891.000
43.45105 804.000
43.47100 787.000
43.49095 675.000
43.51090 660.000
43.53084 584.000
43.55079 521.000
43.57074 492.000
43.59068 499.000
43.61063 471.000
43.63058 445.000
43.65052 404.000
43.67047 431.000
43.69042 423.000
43.71037 357.000
43.73031 342.000
43.75026 373.000
43.77021 351.000
43.79015 317.000
43.81010 341.000
43.83005 314.000
43.84999 330.000
43.86994 315.000
43.88989 303.000
43.90984 305.000
43.92978 295.000
43.94973 290.000
43.96968 309.000
43.98962 347.000
44.00957 295.000
44.02952 324.000
44.04946 322.000
44.06941 310.000
44.08936 293.000
44.10930 309.000
44.12925 300.000
44.14920 320.000
44.16915 302.000
44.18909 278.000
44.20904 337.000
44.22899 288.000
44.24893 320.000
44.26888 275.000
44.28883 304.000
44.30877 286.000
44.32872 302.000
44.34867 306.000
44.36862 266.000
44.38856 273.000
44.40851 304.000
44.42846 316.000
44.44840 281.000
44.46835 284.000
44.48830 305.000
44.50824 319.000
44.52819 300.000
44.54814 297.000
44.56808 286.000
44.58803 296.000
44.60798 302.000
44.62793 292.000
44.64787 276.000
44.66782 296.000
44.68777 290.000
44.70771 316.000
44.72766 330.000
44.74761 291.000
44.76755 304.000
44.78750 315.000
44.80745 288.000
44.82740 278.000
44.84734 272.000
44.86729 301.000
44.88724 315.000
44.90718 323.000
44.92713 309.000
44.94708 323.000
44.96702 307.000
44.98697 298.000
45.00692 316.000
45.02686 305.000
45.04681 301.000
45.06676 329.000
45.08671 329.000
45.10665 287.000
45.12660 310.000
45.14655 327.000
45.16649 311.000
45.18644 323.000
45.20639 289.000
45.22633 323.000
45.24628 288.000
45.26623 281.000
45.28618 279.000
45.30612 306.000
45.32607 291.000
45.34602 301.000
45.36596 317.000
45.38591 282.000
45.40586 298.000
45.42580 280.000
45.44575 249.000
45.46570 270.000
45.48565 299.000
45.50559 262.000
45.52554 270.000
45.54549 268.000
45.56543 275.000
45.58538 262.000
45.60533 300.000
45.62527 295.000
45.64522 258.000
45.66517 281.000
45.68511 286.000
45.70506 296.000
45.72501 276.000
45.74496 272.000
45.76490 258.000
45.78485 240.000
45.80480 269.000
45.82474 287.000
45.84469 265.000
45.86464 261.000
45.88458 289.000
45.90453 265.000
45.92448 284.000
45.94443 287.000
45.96437 269.000
45.98432 265.000
46.00427 273.000
46.02421 260.000
46.04416 289.000
46.06411 274.000
46.08405 277.000
46.10400 261.000
46.12395 258.000
46.14389 255.000
46.16384 281.000
46.18379 309.000
46.20374 266.000
46.22368 288.000
46.24363 263.000
46.26358 267.000
46.28352 266.000
46.30347 294.000
46.32342 263.000
46.34336 275.000
46.36331 254.000
46.38326 264.000
46.40321 256.000
46.42315 302.000
46.44310 257.000
46.46305 253.000
46.48299 261.000
46.50294 253.000
46.52289 283.000
46.54283 275.000
46.56278 250.000
46.58273 253.000
46.60267 267.000
46.62262 273.000
46.64257 275.000
46.66252 273.000
46.68246 250.000
46.70241 247.000
46.72236 260.000
46.74230 261.000
46.76225 264.000
46.78220 258.000
46.80214 238.000
46.82209 267.000
46.84204 268.000
46.86199 289.000
46.88193 252.000
46.90188 284.000
46.92183 268.000
46.94177 250.000
46.96172 264.000
46.98167 274.000
47.00161 304.000
47.02156 287.000
47.04151 259.000
47.06146 250.000
47.08140 263.000
47.10135 267.000
47.12130 267.000
47.14124 288.000
47.16119 274.000
47.18114 263.000
47.20108 291.000
47.22103 273.000
47.24098 256.000
47.26092 267.000
47.28087 294.000
47.30082 268.000
47.32077 289.000
47.34071 259.000
47.36066 263.000
47.38061 243.000
47.40055 275.000
47.42050 262.000
47.44045 282.000
47.46039 233.000
47.48034 264.000
47.50029 288.000
47.52024 243.000
47.54018 287.000
47.56013 286.000
47.58008 276.000
47.60002 282.000
47.61997 217.000
47.63992 257.000
47.65986 247.000
47.67981 264.000
47.69976 280.000
47.71970 267.000
47.73965 252.000
47.75960 260.000
47.77955 263.000
47.79949 277.000
47.81944 267.000
47.83939 267.000
47.85933 237.000
47.87928 260.000
47.89923 302.000
47.91917 274.000
47.93912 282.000
47.95907 287.000
47.97902 288.000
47.99896 243.000
48.01891 280.000
48.03886 301.000
48.05880 279.000
48.07875 287.000
48.09870 280.000
48.11864 286.000
48.13859 248.000
48.15854 263.000
48.17848 268.000
48.19843 264.000
48.21838 268.000
48.23833 261.000
48.25827 270.000
48.27822 306.000
48.29817 296.000
48.31811 300.000
48.33806 293.000
48.35801 262.000
48.37795 283.000
48.39790 296.000
48.41785 299.000
48.43780 269.000
48.45774 276.000
48.47769 290.000
48.49764 333.000
48.51758 317.000
48.53753 339.000
48.55748 363.000
48.57742 321.000
48.59737 374.000
48.61732 391.000
48.63726 445.000
48.65721 480.000
48.67716 500.000
48.69711 565.000
48.71705 592.000
48.73700 551.000
48.75695 577.000
48.77689 601.000
48.79684 623.000
48.81679 537.000
48.83673 548.000
48.85668 502.000
48.87663 492.000
48.89658 412.000
48.91652 448.000
48.93647 401.000
48.95642 406.000
48.97636 356.000
48.99631 335.000
49.01626 317.000
49.03620 306.000
49.05615 301.000
49.07610 308.000
49.09605 315.000
49.11599 285.000
49.13594 285.000
49.15589 297.000
49.17583 262.000
49.19578 257.000
49.21573 256.000
49.23567 298.000
49.25562 289.000
49.27557 302.000
49.29551 301.000
49.31546 276.000
49.33541 309.000
49.35536 290.000
49.37530 292.000
49.39525 257.000
49.41520 259.000
49.43514 262.000
49.45509 268.000
49.47504 268.000
49.49498 280.000
49.51493 266.000
49.53488 289.000
49.55483 244.000
49.57477 273.000
49.59472 301.000
49.61467 278.000
49.63461 248.000
49.65456 273.000
49.67451 287.000
49.69445 271.000
49.71440 254.000
49.73435 270.000
49.75429 291.000
49.77424 273.000
49.79419 289.000
49.81414 249.000
49.83408 240.000
49.85403 282.000
49.87398 294.000
49.89392 253.000
49.91387 285.000
49.93382 245.000
49.95376 300.000
49.97371 262.000
49.99366 297.000
50.01361 272.000
50.03355 269.000
50.05350 265.000
50.07345 257.000
50.09339 253.000
50.11334 239.000
50.13329 293.000
50.15323 271.000
50.17318 260.000
50.19313 243.000
50.21307 250.000
50.23302 263.000
50.25297 251.000
50.27292 275.000
50.29286 263.000
50.31281 257.000
50.33276 248.000
50.35270 276.000
50.37265 281.000
50.39260 263.000
50.41254 240.000
50.43249 265.000
50.45244 272.000
50.47239 242.000
50.49233 259.000
50.51228 255.000
50.53223 274.000
50.55217 302.000
50.57212 245.000
50.59207 270.000
50.61201 277.000
50.63196 259.000
50.65191 244.000
50.67186 254.000
50.69180 262.000
50.71175 257.000
50.73170 249.000
50.75164 278.000
50.77159 248.000
50.79154 275.000
50.81148 276.000
50.83143 249.000
50.85138 228.000
50.87132 247.000
50.89127 264.000
50.91122 247.000
50.93117 272.000
50.95111 259.000
50.97106 264.000
50.99101 272.000
51.01095 255.000
51.03090 265.000
51.05085 261.000
51.07079 247.000
51.09074 261.000
51.11069 238.000
51.13064 241.000
51.15058 252.000
51.17053 275.000
51.19048 256.000
51.21042 270.000
51.23037 231.000
51.25032 276.000
51.27026 225.000
51.29021 278.000
51.31016 275.000
51.33010 270.000
51.35005 248.000
51.37000 297.000
51.38995 274.000
51.40989 273.000
51.42984 264.000
51.44979 226.000
51.46973 254.000
51.48968 294.000
51.50963 237.000
51.52957 262.000
51.54952 267.000
51.56947 267.000
51.58942 258.000
51.60936 265.000
51.62931 231.000
51.64926 233.000
51.66920 282.000
51.68915 256.000
51.70910 258.000
51.72904 264.000
51.74899 280.000
51.76894 251.000
51.78888 257.000
51.80883 276.000
51.82878 250.000
51.84873 242.000
51.86867 256.000
51.88862 250.000
51.90857 259.000
51.92851 292.000
51.94846 254.000
51.96841 285.000
51.98835 239.000
52.00830 267.000
52.02825 249.000
52.04820 276.000
52.06814 276.000
52.08809 255.000
52.10804 260.000
52.12798 277.000
52.14793 283.000
52.16788 238.000
52.18782 281.000
52.20777 262.000
52.22772 269.000
52.24767 253.000
52.26761 266.000
52.28756 270.000
52.30751 273.000
52.32745 265.000
52.34740 276.000
52.36735 270.000
52.38729 290.000
52.40724 280.000
52.42719 251.000
52.44713 244.000
52.46708 264.000
52.48703 259.000
52.50698 261.000
52.52692 290.000
52.54687 257.000
52.56682 272.000
52.58676 267.000
52.60671 254.000
52.62666 272.000
52.64660 238.000
52.66655 252.000
52.68650 237.000
52.70645 268.000
52.72639 268.000
52.74634 278.000
52.76629 268.000
52.78623 262.000
52.80618 291.000
52.82613 284.000
52.84607 256.000
52.86602 262.000
52.88597 290.000
52.90591 256.000
52.92586 318.000
52.94581 298.000
52.96576 309.000
52.98570 306.000
53.00565 295.000
53.02560 282.000
53.04554 322.000
53.06549 333.000
53.08544 302.000
53.10538 307.000
53.12533 323.000
53.14528 305.000
53.16523 289.000
53.18517 311.000
53.20512 283.000
53.22507 294.000
53.24501 303.000
53.26496 288.000
53.28491 323.000
53.30485 269.000
53.32480 277.000
53.34475 289.000
53.36469 273.000
53.38464 269.000
53.40459 242.000
53.42454 284.000
53.44448 261.000
53.46443 257.000
53.48438 281.000
53.50432 255.000
53.52427 285.000
53.54422 284.000
53.56416 277.000
53.58411 285.000
53.60406 281.000
53.62401 260.000
53.64395 285.000
53.66390 303.000
53.68385 267.000
53.70379 305.000
53.72374 298.000
53.74369 300.000
53.76363 326.000
53.78358 334.000
53.80353 335.000
53.82348 292.000
53.84342 313.000
53.86337 323.000
53.88332 304.000
53.90326 303.000
53.92321 291.000
53.94316 316.000
53.96310 297.000
53.98305 285.000
54.00300 285.000
54.02294 293.000
54.04289 245.000
54.06284 320.000
54.08279 269.000
54.10273 249.000
54.12268 279.000
54.14263 248.000
54.16257 275.000
54.18252 289.000
54.20247 265.000
54.22241 248.000
54.24236 286.000
54.26231 264.000
54.28226 260.000
54.30220 274.000
54.32215 240.000
54.34210 277.000
54.36204 246.000
54.38199 279.000
54.40194 253.000
54.42188 244.000
54.44183 256.000
54.46178 256.000
54.48172 254.000
54.50167 274.000
54.52162 259.000
54.54157 267.000
54.56151 265.000
54.58146 284.000
54.60141 246.000
54.62135 262.000
54.64130 250.000
54.66125 249.000
54.68119 292.000
54.70114 259.000
54.72109 241.000
54.74104 260.000
54.76098 254.000
54.78093 264.000
54.80088 248.000
54.82082 257.000
54.84077 257.000
54.86072 269.000
54.88066 275.000
54.90061 280.000
54.92056 249.000
54.94050 255.000
54.96045 272.000
54.98040 265.000
55.00035 256.000
55.02029 265.000
55.04024 242.000
55.06019 291.000
55.08013 267.000
55.10008 282.000
55.12003 257.000
55.13997 257.000
55.15992 259.000
55.17987 273.000
55.19982 282.000
55.21976 278.000
55.23971 264.000
55.25966 254.000
55.27960 254.000
55.29955 245.000
55.31950 269.000
55.33944 274.000
55.35939 259.000
55.37934 254.000
55.39929 275.000
55.41923 238.000
55.43918 265.000
55.45913 272.000
55.47907 245.000
55.49902 289.000
55.51897 261.000
55.53891 249.000
55.55886 261.000
55.57881 269.000
55.59875 248.000
55.61870 251.000
55.63865 234.000
55.65860 257.000
55.67854 246.000
55.69849 264.000
55.71844 264.000
55.73838 288.000
55.75833 227.000
55.77828 238.000
55.79822 256.000
55.81817 276.000
55.83812 261.000
55.85807 249.000
55.87801 294.000
55.89796 253.000
55.91791 262.000
55.93785 264.000
55.95780 284.000
55.97775 250.000
55.99769 280.000
56.01764 259.000
56.03759 281.000
56.05753 267.000
56.07748 226.000
56.09743 258.000
56.11738 244.000
56.13732 279.000
56.15727 293.000
56.17722 278.000
56.19716 260.000
56.21711 247.000
56.23706 278.000
56.25700 251.000
56.27695 260.000
56.29690 272.000
56.31685 242.000
56.33679 230.000
56.35674 304.000
56.37669 244.000
56.39663 278.000
56.41658 264.000
56.43653 270.000
56.45647 275.000
56.47642 247.000
56.49637 273.000
56.51631 255.000
56.53626 236.000
56.55621 253.000
56.57616 258.000
56.59610 260.000
56.61605 245.000
56.63600 269.000
56.65594 264.000
56.67589 272.000
56.69584 267.000
56.71578 252.000
56.73573 294.000
56.75568 301.000
56.77563 278.000
56.79557 326.000
56.81552 279.000
56.83547 294.000
56.85541 279.000
56.87536 296.000
56.89531 274.000
56.91525 278.000
56.93520 256.000
56.95515 275.000
56.97510 296.000
56.99504 275.000
57.01499 266.000
57.03494 311.000
57.05488 299.000
57.07483 318.000
57.09478 275.000
57.11472 313.000
57.13467 313.000
57.15462 282.000
57.17456 347.000
57.19451 342.000
57.21446 392.000
57.23441 355.000
57.25435 385.000
57.27430 389.000
57.29425 420.000
57.31419 450.000
57.33414 444.000
57.35409 404.000
57.37403 443.000
57.39398 423.000
57.41393 436.000
57.43388 386.000
57.45382 381.000
57.47377 450.000
57.49372 382.000
57.51366 447.000
57.53361 410.000
57.55356 374.000
57.57350 363.000
57.59345 346.000
57.61340 328.000
57.63334 378.000
57.65329 372.000
57.67324 355.000
57.69319 349.000
57.71313 359.000
57.73308 367.000
57.75303 315.000
57.77297 299.000
57.79292 340.000
57.81287 308.000
57.83281 299.000
57.85276 285.000
57.87271 342.000
57.89266 323.000
57.91260 264.000
57.93255 279.000
57.95250 286.000
57.97244 265.000
57.99239 264.000
58.01234 246.000
58.03228 301.000
58.05223 245.000
58.07218 266.000
58.09212 274.000
58.11207 242.000
58.13202 284.000
58.15197 263.000
58.17191 256.000
58.19186 244.000
58.21181 248.000
58.23175 273.000
58.25170 242.000
58.27165 272.000
58.29159 264.000
58.31154 244.000
58.33149 274.000
58.35144 288.000
58.37138 254.000
58.39133 260.000
58.41128 227.000
58.43122 237.000
58.45117 251.000
58.47112 245.000
58.49106 277.000
58.51101 246.000
58.53096 224.000
58.55090 264.000
58.57085 271.000
58.59080 255.000
58.61075 263.000
58.63069 245.000
58.65064 243.000
58.67059 274.000
58.69053 251.000
58.71048 276.000
58.73043 253.000
58.75037 267.000
58.77032 237.000
58.79027 289.000
58.81022 257.000
58.83016 256.000
58.85011 249.000
58.87006 226.000
58.89000 262.000
58.90995 255.000
58.92990 251.000
58.94984 282.000
58.96979 274.000
58.98974 268.000
59.00969 260.000
59.02963 256.000
59.04958 292.000
59.06953 293.000
59.08947 282.000
59.10942 260.000
59.12937 244.000
59.14931 264.000
59.16926 259.000
59.18921 269.000
59.20915 243.000
59.22910 251.000
59.24905 254.000
59.26900 264.000
59.28894 259.000
59.30889 249.000
59.32884 251.000
59.34878 243.000
59.36873 257.000
59.38868 249.000
59.40862 225.000
59.42857 255.000
59.44852 298.000
59.46847 256.000
59.48841 278.000
59.50836 256.000
59.52831 249.000
59.54825 262.000
59.56820 245.000
59.58815 281.000
59.60809 264.000
59.62804 262.000
59.64799 255.000
59.66793 241.000
59.68788 267.000
59.70783 277.000
59.72778 262.000
59.74772 286.000
59.76767 260.000
59.78762 259.000
59.80756 235.000
59.82751 260.000
59.84746 284.000
59.86740 283.000
59.88735 256.000
59.90730 250.000
59.92725 283.000
59.94719 291.000
59.96714 246.000
59.98709 244.000
60.00703 275.000
60.02698 251.000
60.04693 252.000
60.06687 238.000
60.08682 248.000
60.10677 259.000
60.12671 287.000
60.14666 292.000
60.16661 250.000
60.18656 269.000
60.20650 289.000
60.22645 259.000
60.24640 265.000
60.26634 279.000
60.28629 250.000
60.30624 297.000
60.32618 251.000
60.34613 257.000
60.36608 276.000
60.38603 270.000
60.40597 258.000
60.42592 291.000
60.44587 249.000
60.46581 250.000
60.48576 280.000
60.50571 272.000
60.52565 266.000
60.54560 262.000
60.56555 244.000
60.58550 266.000
60.60544 241.000
60.62539 273.000
60.64534 274.000
60.66528 284.000
60.68523 279.000
60.70518 271.000
60.72512 287.000
60.74507 263.000
60.76502 252.000
60.78496 277.000
60.80491 305.000
60.82486 277.000
60.84481 243.000
60.86475 262.000
60.88470 243.000
60.90465 270.000
60.92459 306.000
60.94454 262.000
60.96449 299.000
60.98443 274.000
61.00438 300.000
61.02433 298.000
61.04428 251.000
61.06422 262.000
61.08417 313.000
61.10412 289.000
61.12406 259.000
61.14401 269.000
61.16396 249.000
61.18390 279.000
61.20385 267.000
61.22380 281.000
61.24374 273.000
61.26369 263.000
61.28364 297.000
61.30359 266.000
61.32353 291.000
61.34348 308.000
61.36343 277.000
61.38337 253.000
61.40332 306.000
61.42327 281.000
61.44321 300.000
61.46316 281.000
61.48311 304.000
61.50306 299.000
61.52300 333.000
61.54295 268.000
61.56290 278.000
61.58284 292.000
61.60279 293.000
61.62274 304.000
61.64268 292.000
61.66263 311.000
61.68258 332.000
61.70252 314.000
61.72247 298.000
61.74242 305.000
61.76237 311.000
61.78231 313.000
61.80226 316.000
61.82221 350.000
61.84215 298.000
61.86210 349.000
61.88205 375.000
61.90199 366.000
61.92194 340.000
61.94189 407.000
61.96184 429.000
61.98178 412.000
62.00173 494.000
62.02168 461.000
62.04162 466.000
62.06157 505.000
62.08152 482.000
62.10146 466.000
62.12141 471.000
62.14136 479.000
62.16131 492.000
62.18125 480.000
62.20120 521.000
62.22115 519.000
62.24109 525.000
62.26104 555.000
62.28099 524.000
62.30093 567.000
62.32088 606.000
62.34083 614.000
62.36077 644.000
62.38072 687.000
62.40067 763.000
62.42062 799.000
62.44056 915.000
62.46051 1011.000
62.48046 1172.000
62.50040 1239.000
62.52035 1437.000
62.54030 1735.000
62.56024 1927.000
62.58019 2212.000
62.60014 2304.000
62.62009 2455.000
62.64003 2642.000
62.65998 2755.000
62.67993 2768.000
62.69987 2668.000
62.71982 2619.000
62.73977 2412.000
62.75971 2201.000
62.77966 2026.000
62.79961 2028.000
62.81955 1925.000
62.83950 1726.000
62.85945 1638.000
62.87940 1541.000
62.89934 1417.000
62.91929 1184.000
62.93924 1178.000
62.95918 978.000
62.97913 1002.000
62.99908 865.000
63.01902 781.000
63.03897 650.000
63.05892 665.000
63.07887 689.000
63.09881 598.000
63.11876 574.000
63.13871 613.000
63.15865 563.000
63.17860 534.000
63.19855 501.000
63.21849 472.000
63.23844 455.000
63.25839 441.000
63.27833 447.000
63.29828 411.000
63.31823 418.000
63.33818 380.000
63.35812 399.000
63.37807 373.000
63.39802 363.000
63.41796 341.000
63.43791 348.000
63.45786 313.000
63.47780 309.000
63.49775 357.000
63.51770 341.000
63.53765 331.000
63.55759 340.000
63.57754 300.000
63.59749 295.000
63.61743 291.000
63.63738 327.000
63.65733 300.000
63.67727 267.000
63.69722 325.000
63.71717 313.000
63.73712 287.000
63.75706 289.000
63.77701 297.000
63.79696 317.000
63.81690 332.000
63.83685 308.000
63.85680 290.000
63.87674 327.000
63.89669 336.000
63.91664 311.000
63.93658 337.000
63.95653 334.000
63.97648 339.000
63.99643 270.000
64.01637 318.000
64.03632 353.000
64.05627 320.000
64.07621 313.000
64.09616 321.000
64.11611 323.000
64.13605 322.000
64.15600 337.000
64.17595 326.000
64.19590 311.000
64.21584 326.000
64.23579 310.000
64.25574 309.000
64.27568 338.000
64.29563 302.000
64.31558 327.000
64.33552 331.000
64.35547 340.000
64.37542 316.000
64.39536 312.000
64.41531 328.000
64.43526 330.000
64.45521 347.000
64.47515 297.000
64.49510 336.000
64.51505 315.000
64.53499 320.000
64.55494 305.000
64.57489 309.000
64.59483 326.000
64.61478 294.000
64.63473 342.000
64.65468 325.000
64.67462 294.000
64.69457 272.000
64.71452 277.000
64.73446 276.000
64.75441 277.000
64.77436 265.000
64.79430 283.000
64.81425 277.000
64.83420 274.000
64.85414 245.000
64.87409 285.000
64.89404 251.000
64.91399 295.000
64.93393 291.000
64.95388 276.000
64.97383 293.000
64.99377 276.000
65.01372 283.000
65.03367 258.000
65.05361 267.000
65.07356 301.000
65.09351 243.000
65.11346 307.000
65.13340 264.000
65.15335 257.000
65.17330 271.000
65.19324 252.000
65.21319 273.000
65.23314 268.000
65.25308 242.000
65.27303 274.000
65.29298 272.000
65.31293 280.000
65.33287 260.000
65.35282 269.000
65.37277 269.000
65.39271 270.000
65.41266 281.000
65.43261 275.000
65.45255 267.000
65.47250 281.000
65.49245 293.000
65.51239 293.000
65.53234 287.000
65.55229 280.000
65.57224 282.000
65.59218 314.000
65.61213 323.000
65.63208 320.000
65.65202 312.000
65.67197 289.000
65.69192 306.000
65.71186 341.000
65.73181 289.000
65.75176 318.000
65.77171 362.000
65.79165 338.000
65.81160 300.000
65.83155 292.000
65.85149 280.000
65.87144 295.000
65.89139 296.000
65.91133 305.000
65.93128 247.000
65.95123 278.000
65.97117 281.000
65.99112 288.000
66.01107 258.000
66.03102 291.000
66.05096 228.000
66.07091 289.000
66.09086 271.000
66.11080 308.000
66.13075 284.000
66.15070 307.000
66.17064 259.000
66.19059 313.000
66.21054 313.000
66.23049 318.000
66.25043 299.000
66.27038 295.000
66.29033 293.000
66.31027 276.000
66.33022 326.000
66.35017 299.000
66.37011 291.000
66.39006 306.000
66.41001 306.000
66.42995 280.000
66.44990 346.000
66.46985 322.000
66.48980 283.000
66.50974 316.000
66.52969 312.000
66.54964 283.000
66.56958 306.000
66.58953 270.000
66.60948 305.000
66.62942 268.000
66.64937 294.000
66.66932 314.000
66.68927 313.000
66.70921 332.000
66.72916 308.000
66.74911 289.000
66.76905 307.000
66.78900 287.000
66.80895 304.000
66.82889 323.000
66.84884 288.000
66.86879 305.000
66.88874 337.000
66.90868 295.000
66.92863 306.000
66.94858 323.000
66.96852 308.000
66.98847 305.000
67.00842 283.000
67.02836 297.000
67.04831 267.000
67.06826 282.000
67.08820 284.000
67.10815 289.000
67.12810 299.000
67.14805 276.000
67.16799 313.000
67.18794 268.000
67.20789 283.000
67.22783 279.000
67.24778 235.000
67.26773 285.000
67.28767 289.000
67.30762 292.000
67.32757 271.000
67.34752 248.000
67.36746 257.000
67.38741 300.000
67.40736 265.000
67.42730 264.000
67.44725 259.000
67.46720 272.000
67.48714 278.000
67.50709 291.000
67.52704 261.000
67.54698 258.000
67.56693 268.000
67.58688 286.000
67.60683 287.000
67.62677 270.000
67.64672 280.000
67.66667 263.000
67.68661 283.000
67.70656 251.000
67.72651 287.000
67.74645 259.000
67.76640 278.000
67.78635 260.000
67.80630 279.000
67.82624 282.000
67.84619 289.000
67.86614 254.000
67.88608 291.000
67.90603 255.000
67.92598 287.000
67.94592 231.000
67.96587 276.000
67.98582 297.000
68.00576 287.000
68.02571 265.000
68.04566 301.000
68.06561 284.000
68.08555 284.000
68.10550 257.000
68.12545 282.000
68.14539 262.000
68.16534 246.000
68.18529 259.000
68.20523 281.000
68.22518 273.000
68.24513 287.000
68.26508 291.000
68.28502 270.000
68.30497 255.000
68.32492 271.000
68.34486 258.000
68.36481 233.000
68.38476 242.000
68.40470 261.000
68.42465 253.000
68.44460 279.000
68.46455 284.000
68.48449 268.000
68.50444 263.000
68.52439 269.000
68.54433 266.000
68.56428 278.000
68.58423 238.000
68.60417 250.000
68.62412 272.000
68.64407 295.000
68.66401 269.000
68.68396 256.000
68.70391 262.000
68.72386 259.000
68.74380 257.000
68.76375 277.000
68.78370 273.000
68.80364 270.000
68.82359 244.000
68.84354 263.000
68.86348 280.000
68.88343 257.000
68.90338 257.000
68.92333 248.000
68.94327 241.000
68.96322 241.000
68.98317 269.000
69.00311 250.000
69.02306 254.000
69.04301 245.000
69.06295 279.000
69.08290 231.000
69.10285 258.000
69.12279 283.000
69.14274 241.000
69.16269 281.000
69.18264 274.000
69.20258 259.000
69.22253 258.000
69.24248 248.000
69.26242 269.000
69.28237 269.000
69.30232 233.000
69.32226 263.000
69.34221 260.000
69.36216 263.000
69.38211 261.000
69.40205 251.000
69.42200 275.000
69.44195 254.000
69.46189 253.000
69.48184 269.000
69.50179 244.000
69.52173 261.000
69.54168 263.000
69.56163 259.000
69.58157 248.000
69.60152 278.000
69.62147 297.000
69.64142 252.000
69.66136 271.000
69.68131 236.000
69.70126 266.000
69.72120 249.000
69.74115 252.000
69.76110 247.000
69.78104 266.000
69.80099 239.000
69.82094 268.000
69.84089 270.000
69.86083 302.000
69.88078 259.000
69.90073 263.000
69.92067 214.000
69.94062 265.000
69.96057 274.000
69.98051 268.000
70.00046 273.000
70.02041 270.000
70.04035 274.000
70.06030 251.000
70.08025 276.000
70.10020 225.000
70.12014 241.000
70.14009 272.000
70.16004 255.000
70.17998 253.000
70.19993 258.000
70.21988 281.000
70.23982 253.000
70.25977 279.000
70.27972 255.000
70.29967 244.000
70.31961 266.000
70.33956 262.000
70.35951 237.000
70.37945 239.000
70.39940 260.000
70.41935 272.000
70.43929 270.000
70.45924 248.000
70.47919 256.000
70.49914 277.000
70.51908 266.000
70.53903 269.000
70.55898 274.000
70.57892 240.000
70.59887 256.000
70.61882 243.000
70.63876 272.000
70.65871 261.000
70.67866 258.000
70.69860 284.000
70.71855 260.000
70.73850 274.000
70.75845 259.000
70.77839 242.000
70.79834 251.000
70.81829 295.000
70.83823 230.000
70.85818 240.000
70.87813 276.000
70.89807 280.000
70.91802 234.000
70.93797 261.000
70.95792 271.000
70.97786 259.000
70.99781 269.000
71.01776 263.000
71.03770 242.000
71.05765 263.000
71.07760 242.000
71.09754 283.000
71.11749 229.000
71.13744 250.000
71.15738 264.000
71.17733 240.000
71.19728 254.000
71.21723 286.000
71.23717 255.000
71.25712 243.000
71.27707 261.000
71.29701 260.000
71.31696 241.000
71.33691 267.000
71.35685 273.000
71.37680 266.000
71.39675 273.000
71.41670 299.000
71.43664 264.000
71.45659 297.000
71.47654 269.000
71.49648 279.000
71.51643 292.000
71.53638 279.000
71.55632 259.000
71.57627 284.000
71.59622 290.000
71.61616 278.000
71.63611 271.000
71.65606 241.000
71.67601 263.000
71.69595 247.000
71.71590 266.000
71.73585 234.000
71.75579 249.000
71.77574 260.000
71.79569 241.000
71.81563 276.000
71.83558 274.000
71.85553 258.000
71.87548 244.000
71.89542 234.000
71.91537 248.000
71.93532 278.000
71.95526 273.000
71.97521 235.000
71.99516 270.000
72.01510 262.000
72.03505 259.000
72.05500 253.000
72.07495 273.000
72.09489 274.000
72.11484 271.000
72.13479 222.000
72.15473 259.000
72.17468 254.000
72.19463 243.000
72.21457 268.000
72.23452 271.000
72.25447 254.000
72.27441 250.000
72.29436 257.000
72.31431 244.000
72.33426 243.000
72.35420 247.000
72.37415 263.000
72.39410 278.000
72.41404 266.000
72.43399 269.000
72.45394 262.000
72.47388 285.000
72.49383 295.000
72.51378 268.000
72.53373 241.000
72.55367 264.000
72.57362 287.000
72.59357 242.000
72.61351 260.000
72.63346 235.000
72.65341 272.000
72.67335 249.000
72.69330 272.000
72.71325 263.000
72.73319 267.000
72.75314 286.000
72.77309 271.000
72.79304 285.000
72.81298 267.000
72.83293 273.000
72.85288 266.000
72.87282 312.000
72.89277 250.000
72.91272 286.000
72.93266 272.000
72.95261 300.000
72.97256 269.000
72.99251 302.000
73.01245 293.000
73.03240 307.000
73.05235 290.000
73.07229 290.000
73.09224 292.000
73.11219 249.000
73.13213 275.000
73.15208 264.000
73.17203 258.000
73.19197 285.000
73.21192 282.000
73.23187 281.000
73.25182 295.000
73.27176 272.000
73.29171 276.000
73.31166 294.000
73.33160 274.000
73.35155 302.000
73.37150 272.000
73.39144 283.000
73.41139 307.000
73.43134 307.000
73.45129 310.000
73.47123 288.000
73.49118 280.000
73.51113 267.000
73.53107 287.000
73.55102 291.000
73.57097 296.000
73.59091 297.000
73.61086 294.000
73.63081 303.000
73.65076 259.000
73.67070 314.000
73.69065 308.000
73.71060 340.000
73.73054 313.000
73.75049 321.000
73.77044 300.000
73.79038 303.000
73.81033 272.000
73.83028 279.000
73.85022 282.000
73.87017 284.000
73.89012 273.000
73.91007 271.000
73.93001 274.000
73.94996 287.000
73.96991 268.000
73.98985 297.000
74.00980 291.000
74.02975 278.000
74.04969 294.000
74.06964 256.000
74.08959 294.000
74.10954 301.000
74.12948 250.000
74.14943 274.000
74.16938 284.000
74.18932 283.000
74.20927 310.000
74.22922 315.000
74.24916 284.000
74.26911 277.000
74.28906 264.000
74.30900 253.000
74.32895 285.000
74.34890 276.000
74.36885 289.000
74.38879 310.000
74.40874 275.000
74.42869 289.000
74.44863 266.000
74.46858 314.000
74.48853 323.000
74.50847 330.000
74.52842 336.000
74.54837 352.000
74.56832 334.000
74.58826 356.000
74.60821 351.000
74.62816 329.000
74.64810 315.000
74.66805 357.000
74.68800 368.000
74.70794 392.000
74.72789 372.000
74.74784 420.000
74.76778 401.000
74.78773 418.000
74.80768 384.000
74.82763 413.000
74.84757 466.000
74.86752 436.000
74.88747 494.000
74.90741 541.000
74.92736 554.000
74.94731 582.000
74.96725 615.000
74.98720 679.000
75.00715 743.000
75.02710 786.000
75.04704 809.000
75.06699 850.000
75.08694 943.000
75.10688 944.000
75.12683 968.000
75.14678 963.000
75.16672 1000.000
75.18667 981.000
75.20662 996.000
75.22657 914.000
75.24651 948.000
75.26646 858.000
75.28641 842.000
75.30635 759.000
75.32630 760.000
75.34625 789.000
75.36619 727.000
75.38614 715.000
75.40609 661.000
75.42603 604.000
75.44598 561.000
75.46593 549.000
75.48588 501.000
75.50582 468.000
75.52577 437.000
75.54572 396.000
75.56566 371.000
75.58561 348.000
75.60556 330.000
75.62550 346.000
75.64545 312.000
75.66540 320.000
75.68535 353.000
75.70529 307.000
75.72524 337.000
75.74519 304.000
75.76513 306.000
75.78508 298.000
75.80503 292.000
75.82497 293.000
75.84492 326.000
75.86487 297.000
75.88481 269.000
75.90476 299.000
75.92471 310.000
75.94466 263.000
75.96460 286.000
75.98455 279.000
76.00450 273.000
76.02444 277.000
76.04439 300.000
76.06434 296.000
76.08428 268.000
76.10423 274.000
76.12418 283.000
76.14413 277.000
76.16407 273.000
76.18402 267.000
76.20397 281.000
76.22391 293.000
76.24386 289.000
76.26381 277.000
76.28375 265.000
76.30370 274.000
76.32365 266.000
76.34359 294.000
76.36354 263.000
76.38349 265.000
76.40344 289.000
76.42338 249.000
76.44333 290.000
76.46328 301.000
76.48322 259.000
76.50317 246.000
76.52312 247.000
76.54306 264.000
76.56301 259.000
76.58296 273.000
76.60291 275.000
76.62285 258.000
76.64280 275.000
76.66275 256.000
76.68269 254.000
76.70264 286.000
76.72259 262.000
76.74253 285.000
76.76248 268.000
76.78243 233.000
76.80238 260.000
76.82232 251.000
76.84227 262.000
76.86222 249.000
76.88216 282.000
76.90211 270.000
76.92206 259.000
76.94200 266.000
76.96195 268.000
76.98190 252.000
77.00184 252.000
77.02179 275.000
77.04174 279.000
77.06169 303.000
77.08163 277.000
77.10158 265.000
77.12153 246.000
77.14147 234.000
77.16142 268.000
77.18137 255.000
77.20131 248.000
77.22126 266.000
77.24121 277.000
77.26116 246.000
77.28110 305.000
77.30105 272.000
77.32100 294.000
77.34094 262.000
77.36089 251.000
77.38084 252.000
77.40078 256.000
77.42073 265.000
77.44068 288.000
77.46062 274.000
77.48057 266.000
77.50052 284.000
77.52047 254.000
77.54041 291.000
77.56036 284.000
77.58031 290.000
77.60025 267.000
77.62020 287.000
77.64015 236.000
77.66009 276.000
77.68004 270.000
77.69999 279.000
77.71994 281.000
77.73988 277.000
77.75983 291.000
77.77978 268.000
77.79972 279.000
77.81967 315.000
77.83962 293.000
77.85956 276.000
77.87951 271.000
77.89946 293.000
77.91940 288.000
77.93935 279.000
77.95930 200.000
77.97925 268.000
77.99919 268.000
78.01914 287.000
78.03909 266.000
78.05903 277.000
78.07898 283.000
78.09893 289.000
78.11887 272.000
78.13882 291.000
78.15877 288.000
78.17872 300.000
78.19866 276.000
78.21861 284.000
78.23856 276.000
78.25850 300.000
78.27845 298.000
78.29840 275.000
78.31834 302.000
78.33829 307.000
78.35824 346.000
78.37819 331.000
78.39813 343.000
78.41808 308.000
78.43803 335.000
78.45797 323.000
78.47792 315.000
78.49787 285.000
78.51781 327.000
78.53776 314.000
78.55771 347.000
78.57765 293.000
78.59760 312.000
78.61755 364.000
78.63750 342.000
78.65744 364.000
78.67739 327.000
78.69734 333.000
78.71728 357.000
78.73723 363.000
78.75718 343.000
78.77712 409.000
78.79707 383.000
78.81702 404.000
78.83697 415.000
78.85691 402.000
78.87686 458.000
78.89681 475.000
78.91675 459.000
78.93670 549.000
78.95665 581.000
78.97659 589.000
78.99654 601.000
79.01649 618.000
79.03643 704.000
79.05638 733.000
79.07633 814.000
79.09628 791.000
79.11622 806.000
79.13617 746.000
79.15612 797.000
79.17606 733.000
79.19601 765.000
79.21596 708.000
79.23590 731.000
79.25585 690.000
79.27580 658.000
79.29575 679.000
79.31569 590.000
79.33564 552.000
79.35559 552.000
79.37553 559.000
79.39548 526.000
79.41543 540.000
79.43537 467.000
79.45532 424.000
79.47527 411.000
79.49521 409.000
79.51516 354.000
79.53511 345.000
79.55506 365.000
79.57500 346.000
79.59495 315.000
79.61490 316.000
79.63484 293.000
79.65479 301.000
79.67474 305.000
79.69468 280.000
79.71463 280.000
79.73458 278.000
79.75453 285.000
79.77447 292.000
79.79442 280.000
79.81437 255.000
79.83431 240.000
79.85426 278.000
79.87421 273.000
79.89415 277.000
79.91410 243.000
79.93405 247.000
79.95399 254.000
79.97394 297.000
79.99389 274.000
80.01384 269.000
80.03378 256.000
80.05373 253.000
80.07368 257.000
80.09362 272.000
80.11357 276.000
80.13352 256.000
80.15346 271.000
80.17341 278.000
80.19336 266.000
80.21331 261.000
80.23325 235.000
80.25320 278.000
80.27315 285.000
80.29309 292.000
80.31304 234.000
80.33299 268.000
80.35293 272.000
80.37288 249.000
80.39283 261.000
80.41278 268.000
80.43272 302.000
80.45267 247.000
80.47262 269.000
80.49256 222.000
80.51251 298.000
80.53246 259.000
80.55240 257.000
80.57235 240.000
80.59230 240.000
80.61224 278.000
80.63219 267.000
80.65214 267.000
80.67209 265.000
80.69203 244.000
80.71198 269.000
80.73193 238.000
80.75187 260.000
80.77182 267.000
80.79177 240.000
80.81171 252.000
80.83166 253.000
80.85161 265.000
80.87156 295.000
80.89150 264.000
80.91145 261.000
80.93140 255.000
80.95134 270.000
80.97129 273.000
80.99124 257.000
81.01118 285.000
81.03113 241.000
81.05108 268.000
81.07102 245.000
81.09097 252.000
81.11092 272.000
81.13087 256.000
81.15081 233.000
81.17076 280.000
81.19071 260.000
81.21065 246.000
81.23060 274.000
81.25055 291.000
81.27049 246.000
81.29044 258.000
81.31039 262.000
81.33034 249.000
81.35028 251.000
81.37023 279.000
81.39018 252.000
81.41012 256.000
81.43007 260.000
81.45002 266.000
81.46996 241.000
81.48991 262.000
81.50986 253.000
81.52980 255.000
81.54975 235.000
81.56970 253.000
81.58965 243.000
81.60959 271.000
81.62954 266.000
81.64949 239.000
81.66943 277.000
81.68938 262.000
81.70933 239.000
81.72927 233.000
81.74922 236.000
81.76917 248.000
81.78912 276.000
81.80906 263.000
81.82901 248.000
81.84896 261.000
81.86890 290.000
81.88885 215.000
81.90880 253.000
81.92874 267.000
81.94869 247.000
81.96864 274.000
81.98859 257.000
82.00853 246.000
82.02848 285.000
82.04843 257.000
82.06837 249.000
82.08832 261.000
82.10827 260.000
82.12821 248.000
82.14816 264.000
82.16811 240.000
82.18805 248.000
82.20800 296.000
82.22795 244.000
82.24790 255.000
82.26784 264.000
82.28779 284.000
82.30774 234.000
82.32768 258.000
82.34763 256.000
82.36758 225.000
82.38752 252.000
82.40747 290.000
82.42742 248.000
82.44737 273.000
82.46731 250.000
82.48726 248.000
82.50721 256.000
82.52715 280.000
82.54710 239.000
82.56705 245.000
82.58699 255.000
82.60694 235.000
82.62689 268.000
82.64683 264.000
82.66678 273.000
82.68673 298.000
82.70668 236.000
82.72662 257.000
82.74657 258.000
82.76652 256.000
82.78646 276.000
82.80641 260.000
82.82636 252.000
82.84630 259.000
82.86625 263.000
82.88620 297.000
82.90615 257.000
82.92609 264.000
82.94604 251.000
82.96599 247.000
82.98593 260.000
83.00588 275.000
83.02583 257.000
83.04577 261.000
83.06572 261.000
83.08567 275.000
83.10561 219.000
83.12556 263.000
83.14551 272.000
83.16546 261.000
83.18540 258.000
83.20535 252.000
83.22530 248.000
83.24524 267.000
83.26519 264.000
83.28514 272.000
83.30508 250.000
83.32503 267.000
83.34498 262.000
83.36493 235.000
83.38487 237.000
83.40482 259.000
83.42477 277.000
83.44471 253.000
83.46466 249.000
83.48461 241.000
83.50455 241.000
83.52450 215.000
83.54445 256.000
83.56440 266.000
83.58434 269.000
83.60429 261.000
83.62424 236.000
83.64418 247.000
83.66413 263.000
83.68408 256.000
83.70402 230.000
83.72397 243.000
83.74392 284.000
83.76386 249.000
83.78381 214.000
83.80376 247.000
83.82371 260.000
83.84365 272.000
83.86360 251.000
83.88355 247.000
83.90349 254.000
83.92344 276.000
83.94339 265.000
83.96333 254.000
83.98328 237.000
84.00323 237.000
84.02318 272.000
84.04312 256.000
84.06307 249.000
84.08302 263.000
84.10296 261.000
84.12291 269.000
84.14286 278.000
84.16280 254.000
84.18275 269.000
84.20270 276.000
84.22264 277.000
84.24259 288.000
84.26254 273.000
84.28249 269.000
84.30243 280.000
84.32238 309.000
84.34233 270.000
84.36227 312.000
84.38222 288.000
84.40217 278.000
84.42211 238.000
84.44206 276.000
84.46201 286.000
84.48196 269.000
84.50190 258.000
84.52185 302.000
84.54180 274.000
84.56174 280.000
84.58169 270.000
84.60164 301.000
84.62158 293.000
84.64153 270.000
84.66148 262.000
84.68142 288.000
84.70137 259.000
84.72132 291.000
84.74127 284.000
84.76121 302.000
84.78116 304.000
84.80111 268.000
84.82105 271.000
84.84100 261.000
84.86095 270.000
84.88089 285.000
84.90084 294.000
84.92079 272.000
84.94074 225.000
84.96068 279.000
84.98063 247.000
85.00058 253.000
85.02052 282.000
85.04047 252.000
85.06042 285.000
85.08036 269.000
85.10031 258.000
85.12026 266.000
85.14021 246.000
85.16015 281.000
85.18010 255.000
85.20005 259.000
85.21999 237.000
85.23994 246.000
85.25989 258.000
85.27983 264.000
85.29978 273.000
85.31973 256.000
85.33967 244.000
85.35962 251.000
85.37957 271.000
85.39952 253.000
85.41946 269.000
85.43941 243.000
85.45936 271.000
85.47930 222.000
85.49925 258.000
85.51920 274.000
85.53914 251.000
85.55909 252.000
85.57904 277.000
85.59899 236.000
85.61893 263.000
85.63888 212.000
85.65883 245.000
85.67877 280.000
85.69872 259.000
85.71867 255.000
85.73861 279.000
85.75856 275.000
85.77851 261.000
85.79845 292.000
85.81840 269.000
85.83835 274.000
85.85830 264.000
85.87824 263.000
85.89819 283.000
85.91814 266.000
85.93808 258.000
85.95803 242.000
85.97798 251.000
85.99792 247.000
86.01787 238.000
86.03782 278.000
86.05777 269.000
86.07771 244.000
86.09766 260.000
86.11761 231.000
86.13755 278.000
86.15750 262.000
86.17745 272.000
86.19739 272.000
86.21734 262.000
86.23729 276.000
86.25723 259.000
86.27718 208.000
86.29713 251.000
86.31708 261.000
86.33702 255.000
86.35697 248.000
86.37692 239.000
86.39686 242.000
86.41681 270.000
86.43676 263.000
86.45670 251.000
86.47665 236.000
86.49660 258.000
86.51655 248.000
86.53649 258.000
86.55644 269.000
86.57639 267.000
86.59633 287.000
86.61628 253.000
86.63623 263.000
86.65617 250.000
86.67612 248.000
86.69607 221.000
86.71602 268.000
86.73596 257.000
86.75591 266.000
86.77586 268.000
86.79580 264.000
86.81575 247.000
86.83570 253.000
86.85564 282.000
86.87559 251.000
86.89554 277.000
86.91548 209.000
86.93543 239.000
86.95538 261.000
86.97533 257.000
86.99527 239.000
87.01522 253.000
87.03517 274.000
87.05511 308.000
87.07506 243.000
87.09501 273.000
87.11495 257.000
87.13490 254.000
87.15485 274.000
87.17480 283.000
87.19474 269.000
87.21469 262.000
87.23464 287.000
87.25458 263.000
87.27453 270.000
87.29448 299.000
87.31442 278.000
87.33437 242.000
87.35432 275.000
87.37426 293.000
87.39421 302.000
87.41416 275.000
87.43411 276.000
87.45405 274.000
87.47400 256.000
87.49395 271.000
87.51389 262.000
87.53384 267.000
87.55379 266.000
87.57373 273.000
87.59368 267.000
87.61363 266.000
87.63358 252.000
87.65352 285.000
87.67347 277.000
87.69342 277.000
87.71336 266.000
87.73331 252.000
87.75326 274.000
87.77320 251.000
87.79315 262.000
87.81310 290.000
87.83304 271.000
87.85299 283.000
87.87294 257.000
87.89289 238.000
87.91283 270.000
87.93278 275.000
87.95273 266.000
87.97267 269.000
87.99262 284.000
88.01257 279.000
88.03251 280.000
88.05246 248.000
88.07241 251.000
88.09236 256.000
88.11230 261.000
88.13225 249.000
88.15220 260.000
88.17214 242.000
88.19209 248.000
88.21204 221.000
88.23198 261.000
88.25193 256.000
88.27188 258.000
88.29183 251.000
88.31177 275.000
88.33172 262.000
88.35167 231.000
88.37161 275.000
88.39156 280.000
88.41151 254.000
88.43145 272.000
88.45140 248.000
88.47135 260.000
88.49129 273.000
88.51124 264.000
88.53119 268.000
88.55114 235.000
88.57108 259.000
88.59103 262.000
88.61098 262.000
88.63092 277.000
88.65087 248.000
88.67082 275.000
88.69076 249.000
88.71071 247.000
88.73066 258.000
88.75061 279.000
88.77055 278.000
88.79050 251.000
88.81045 267.000
88.83039 268.000
88.85034 232.000
88.87029 274.000
88.89023 226.000
88.91018 236.000
88.93013 216.000
88.95007 234.000
88.97002 211.000
88.98997 232.000
89.00992 265.000
89.02986 253.000
89.04981 310.000
89.06976 240.000
89.08970 235.000
89.10965 240.000
89.12960 222.000
89.14954 270.000
89.16949 266.000
89.18944 240.000
89.20939 242.000
89.22933 232.000
89.24928 251.000
89.26923 247.000
89.28917 280.000
89.30912 266.000
89.32907 263.000
89.34901 261.000
89.36896 247.000
89.38891 240.000
89.40885 258.000
89.42880 248.000
89.44875 246.000
89.46870 262.000
89.48864 272.000
89.50859 276.000
89.52854 279.000
89.54848 234.000
89.56843 232.000
89.58838 237.000
89.60832 247.000
89.62827 259.000
89.64822 253.000
89.66817 279.000
89.68811 247.000
89.70806 271.000
89.72801 273.000
89.74795 272.000
89.76790 258.000
89.78785 248.000
89.80779 256.000
89.82774 247.000
89.84769 221.000
89.86764 265.000
89.88758 278.000
89.90753 268.000
89.92748 272.000
89.94742 242.000
89.96737 264.000
89.98732 251.000
90.00726 280.000
