10.00000 91.000
10.01995 87.000
10.03989 83.000
10.05984 75.000
10.07979 87.000
10.09973 75.000
10.11968 83.000
10.13963 90.000
10.15958 68.000
10.17952 73.000
10.19947 88.000
10.21942 69.000
10.23936 98.000
10.25931 77.000
10.27926 86.000
10.29920 80.000
10.31915 98.000
10.33910 100.000
10.35905 93.000
10.37899 83.000
10.39894 80.000
10.41889 86.000
10.43883 84.000
10.45878 84.000
10.47873 69.000
10.49867 97.000
10.51862 76.000
10.53857 87.000
10.55851 83.000
10.57846 78.000
10.59841 72.000
10.61836 98.000
10.63830 87.000
10.65825 68.000
10.67820 84.000
10.69814 77.000
10.71809 99.000
10.73804 79.000
10.75798 92.000
10.77793 91.000
10.79788 79.000
10.81783 93.000
10.83777 81.000
10.85772 71.000
10.87767 74.000
10.89761 79.000
10.91756 91.000
10.93751 94.000
10.95745 92.000
10.97740 82.000
10.99735 109.000
11.01730 112.000
11.03724 83.000
11.05719 86.000
11.07714 79.000
11.09708 85.000
11.11703 85.000
11.13698 73.000
11.15692 93.000
11.17687 79.000
11.19682 80.000
11.21676 110.000
11.23671 81.000
11.25666 74.000
11.27661 66.000
11.29655 76.000
11.31650 75.000
11.33645 67.000
11.35639 72.000
11.37634 82.000
11.39629 90.000
11.41623 84.000
11.43618 69.000
11.45613 74.000
11.47608 90.000
11.49602 88.000
11.51597 73.000
11.53592 90.000
11.55586 97.000
11.57581 94.000
11.59576 72.000
11.61570 82.000
11.63565 88.000
11.65560 79.000
11.67554 82.000
11.69549 92.000
11.71544 85.000
11.73539 63.000
11.75533 80.000
11.77528 83.000
11.79523 75.000
11.81517 89.000
11.83512 80.000
11.85507 71.000
11.87501 80.000
11.89496 100.000
11.91491 67.000
11.93486 92.000
11.95480 78.000
11.97475 97.000
11.99470 79.000
12.01464 80.000
12.03459 89.000
12.05454 87.000
12.07448 83.000
12.09443 76.000
12.11438 102.000
12.13432 76.000
12.15427 90.000
12.17422 67.000
12.19417 74.000
12.21411 66.000
12.23406 74.000
12.25401 99.000
12.27395 89.000
12.29390 76.000
12.31385 83.000
12.33379 91.000
12.35374 98.000
12.37369 85.000
12.39364 88.000
12.41358 73.000
12.43353 83.000
12.45348 85.000
12.47342 95.000
12.49337 87.000
12.51332 81.000
12.53326 94.000
12.55321 74.000
12.57316 79.000
12.59311 91.000
12.61305 78.000
12.63300 98.000
12.65295 72.000
12.67289 80.000
12.69284 79.000
12.71279 76.000
12.73273 88.000
12.75268 78.000
12.77263 76.000
12.79257 91.000
12.81252 78.000
12.83247 93.000
12.85242 85.000
12.87236 79.000
12.89231 90.000
12.91226 71.000
12.93220 71.000
12.95215 81.000
12.97210 60.000
12.99204 85.000
13.01199 90.000
13.03194 81.000
13.05189 90.000
13.07183 94.000
13.09178 89.000
13.11173 74.000
13.13167 88.000
13.15162 58.000
13.17157 65.000
13.19151 89.000
13.21146 71.000
13.23141 91.000
13.25135 82.000
13.27130 87.000
13.29125 76.000
13.31120 77.000
13.33114 75.000
13.35109 74.000
13.37104 86.000
13.39098 91.000
13.41093 90.000
13.43088 70.000
13.45082 90.000
13.47077 66.000
13.49072 84.000
13.51067 75.000
13.53061 73.000
13.55056 80.000
13.57051 61.000
13.59045 65.000
13.61040 86.000
13.63035 84.000
13.65029 72.000
13.67024 73.000
13.69019 87.000
13.71013 87.000
13.73008 93.000
13.75003 103.000
13.76998 82.000
13.78992 81.000
13.80987 77.000
13.82982 78.000
13.84976 84.000
13.86971 89.000
13.88966 79.000
13.90960 93.000
13.92955 82.000
13.94950 84.000
13.96945 86.000
13.98939 77.000
14.00934 82.000
14.02929 79.000
14.04923 81.000
14.06918 69.000
14.08913 82.000
14.10907 81.000
14.12902 91.000
14.14897 86.000
14.16892 73.000
14.18886 62.000
14.20881 81.000
14.22876 67.000
14.24870 81.000
14.26865 84.000
14.28860 82.000
14.30854 92.000
14.32849 78.000
14.34844 75.000
14.36838 82.000
14.38833 72.000
14.40828 68.000
14.42823 102.000
14.44817 78.000
14.46812 83.000
14.48807 104.000
14.50801 87.000
14.52796 73.000
14.54791 95.000
14.56785 76.000
14.58780 69.000
14.60775 89.000
14.62770 84.000
14.64764 96.000
14.66759 81.000
14.68754 73.000
14.70748 74.000
14.72743 83.000
14.74738 85.000
14.76732 90.000
14.78727 94.000
14.80722 67.000
14.82716 84.000
14.84711 66.000
14.86706 99.000
14.88701 73.000
14.90695 89.000
14.92690 73.000
14.94685 83.000
14.96679 73.000
14.98674 90.000
15.00669 88.000
15.02663 85.000
15.04658 83.000
15.06653 81.000
15.08648 75.000
15.10642 96.000
15.12637 87.000
15.14632 91.000
15.16626 77.000
15.18621 88.000
15.20616 92.000
15.22610 92.000
15.24605 92.000
15.26600 81.000
15.28594 74.000
15.30589 74.000
15.32584 74.000
15.34579 88.000
15.36573 97.000
15.38568 101.000
15.40563 88.000
15.42557 86.000
15.44552 88.000
15.46547 96.000
15.48541 81.000
15.50536 79.000
15.52531 84.000
15.54526 82.000
15.56520 92.000
15.58515 104.000
15.60510 98.000
15.62504 101.000
15.64499 115.000
15.66494 117.000
15.68488 88.000
15.70483 117.000
15.72478 116.000
15.74472 132.000
15.76467 164.000
15.78462 169.000
15.80457 163.000
15.82451 169.000
15.84446 198.000
15.86441 186.000
15.88435 155.000
15.90430 161.000
15.92425 147.000
15.94419 120.000
15.96414 141.000
15.98409 144.000
16.00404 143.000
16.02398 165.000
16.04393 175.000
16.06388 195.000
16.08382 205.000
16.10377 241.000
16.12372 286.000
16.14366 328.000
16.16361 294.000
16.18356 365.000
16.20351 360.000
16.22345 463.000
16.24340 468.000
16.26335 524.000
16.28329 562.000
16.30324 612.000
16.32319 679.000
16.34313 842.000
16.36308 915.000
16.38303 1037.000
16.40297 1170.000
16.42292 1413.000
16.44287 1474.000
16.46282 1621.000
16.48276 1565.000
16.50271 1317.000
16.52266 929.000
16.54260 685.000
16.56255 440.000
16.58250 302.000
16.60244 235.000
16.62239 214.000
16.64234 179.000
16.66229 154.000
16.68223 154.000
16.70218 145.000
16.72213 146.000
16.74207 145.000
16.76202 149.000
16.78197 141.000
16.80191 146.000
16.82186 139.000
16.84181 107.000
16.86175 122.000
16.88170 115.000
16.90165 112.000
16.92160 113.000
16.94154 112.000
16.96149 120.000
16.98144 101.000
17.00138 104.000
17.02133 105.000
17.04128 124.000
17.06122 102.000
17.08117 92.000
17.10112 110.000
17.12107 97.000
17.14101 104.000
17.16096 100.000
17.18091 111.000
17.20085 84.000
17.22080 123.000
17.24075 90.000
17.26069 111.000
17.28064 106.000
17.30059 98.000
17.32053 89.000
17.34048 94.000
17.36043 94.000
17.38038 94.000
17.40032 75.000
17.42027 82.000
17.44022 96.000
17.46016 96.000
17.48011 91.000
17.50006 87.000
17.52000 88.000
17.53995 96.000
17.55990 92.000
17.57985 88.000
17.59979 81.000
17.61974 76.000
17.63969 97.000
17.65963 85.000
17.67958 85.000
17.69953 87.000
17.71947 68.000
17.73942 103.000
17.75937 78.000
17.77932 89.000
17.79926 79.000
17.81921 85.000
17.83916 81.000
17.85910 91.000
17.87905 78.000
17.89900 99.000
17.91894 84.000
17.93889 90.000
17.95884 75.000
17.97878 83.000
17.99873 78.000
18.01868 80.000
18.03863 67.000
18.05857 75.000
18.07852 82.000
18.09847 81.000
18.11841 74.000
18.13836 78.000
18.15831 104.000
18.17825 93.000
18.19820 87.000
18.21815 108.000
18.23810 112.000
18.25804 100.000
18.27799 132.000
18.29794 134.000
18.31788 142.000
18.33783 200.000
18.35778 240.000
18.37772 269.000
18.39767 228.000
18.41762 205.000
18.43756 160.000
18.45751 124.000
18.47746 120.000
18.49741 93.000
18.51735 102.000
18.53730 83.000
18.55725 93.000
18.57719 80.000
18.59714 106.000
18.61709 76.000
18.63703 75.000
18.65698 76.000
18.67693 66.000
18.69688 80.000
18.71682 88.000
18.73677 62.000
18.75672 89.000
18.77666 65.000
18.79661 79.000
18.81656 76.000
18.83650 85.000
18.85645 75.000
18.87640 83.000
18.89634 72.000
18.91629 102.000
18.93624 70.000
18.95619 81.000
18.97613 64.000
18.99608 74.000
19.01603 94.000
19.03597 81.000
19.05592 80.000
19.07587 92.000
19.09581 84.000
19.11576 87.000
19.13571 74.000
19.15566 73.000
19.17560 83.000
19.19555 87.000
19.21550 68.000
19.23544 59.000
19.25539 70.000
19.27534 74.000
19.29528 77.000
19.31523 78.000
19.33518 86.000
19.35513 76.000
19.37507 84.000
19.39502 73.000
19.41497 84.000
19.43491 95.000
19.45486 76.000
19.47481 107.000
19.49475 77.000
19.51470 80.000
19.53465 91.000
19.55459 84.000
19.57454 78.000
19.59449 84.000
19.61444 84.000
19.63438 81.000
19.65433 88.000
19.67428 64.000
19.69422 84.000
19.71417 96.000
19.73412 74.000
19.75406 73.000
19.77401 97.000
19.79396 79.000
19.81391 81.000
19.83385 81.000
19.85380 81.000
19.87375 91.000
19.89369 65.000
19.91364 80.000
19.93359 108.000
19.95353 90.000
19.97348 112.000
19.99343 119.000
20.01337 136.000
20.03332 127.000
20.05327 181.000
20.07322 141.000
20.09316 137.000
20.11311 128.000
20.13306 137.000
20.15300 142.000
20.17295 130.000
20.19290 157.000
20.21284 131.000
20.23279 130.000
20.25274 124.000
20.27269 100.000
20.29263 125.000
20.31258 107.000
20.33253 112.000
20.35247 110.000
20.37242 85.000
20.39237 132.000
20.41231 122.000
20.43226 173.000
20.45221 194.000
20.47215 215.000
20.49210 246.000
20.51205 246.000
20.53200 286.000
20.55194 285.000
20.57189 323.000
20.59184 297.000
20.61178 315.000
20.63173 344.000
20.65168 373.000
20.67162 383.000
20.69157 340.000
20.71152 349.000
20.73147 284.000
20.75141 270.000
20.77136 262.000
20.79131 277.000
20.81125 248.000
20.83120 249.000
20.85115 220.000
20.87109 194.000
20.89104 189.000
20.91099 151.000
20.93094 145.000
20.95088 120.000
20.97083 121.000
20.99078 111.000
21.01072 94.000
21.03067 98.000
21.05062 90.000
21.07056 95.000
21.09051 95.000
21.11046 93.000
21.13040 79.000
21.15035 94.000
21.17030 84.000
21.19025 83.000
21.21019 91.000
21.23014 68.000
21.25009 76.000
21.27003 74.000
21.28998 81.000
21.30993 77.000
21.32987 90.000
21.34982 70.000
21.36977 79.000
21.38972 79.000
21.40966 76.000
21.42961 59.000
21.44956 85.000
21.46950 79.000
21.48945 75.000
21.50940 77.000
21.52934 83.000
21.54929 73.000
21.56924 74.000
21.58918 71.000
21.60913 80.000
21.62908 72.000
21.64903 66.000
21.66897 86.000
21.68892 81.000
21.70887 70.000
21.72881 84.000
21.74876 88.000
21.76871 73.000
21.78865 67.000
21.80860 86.000
21.82855 97.000
21.84850 74.000
21.86844 85.000
21.88839 91.000
21.90834 85.000
21.92828 92.000
21.94823 65.000
21.96818 67.000
21.98812 81.000
22.00807 67.000
22.02802 75.000
22.04796 101.000
22.06791 87.000
22.08786 86.000
22.10781 78.000
22.12775 90.000
22.14770 91.000
22.16765 75.000
22.18759 87.000
22.20754 69.000
22.22749 85.000
22.24743 76.000
22.26738 72.000
22.28733 84.000
22.30728 88.000
22.32722 93.000
22.34717 87.000
22.36712 73.000
22.38706 76.000
22.40701 71.000
22.42696 72.000
22.44690 79.000
22.46685 70.000
22.48680 65.000
22.50675 82.000
22.52669 81.000
22.54664 95.000
22.56659 78.000
22.58653 72.000
22.60648 74.000
22.62643 72.000
22.64637 83.000
22.66632 96.000
22.68627 78.000
22.70621 72.000
22.72616 81.000
22.74611 88.000
22.76606 79.000
22.78600 70.000
22.80595 77.000
22.82590 71.000
22.84584 73.000
22.86579 98.000
22.88574 82.000
22.90568 75.000
22.92563 68.000
22.94558 85.000
22.96553 84.000
22.98547 84.000
23.00542 94.000
23.02537 76.000
23.04531 61.000
23.06526 69.000
23.08521 81.000
23.10515 66.000
23.12510 92.000
23.14505 68.000
23.16499 85.000
23.18494 84.000
23.20489 90.000
23.22484 69.000
23.24478 82.000
23.26473 88.000
23.28468 70.000
23.30462 82.000
23.32457 81.000
23.34452 72.000
23.36446 91.000
23.38441 63.000
23.40436 72.000
23.42431 80.000
23.44425 80.000
23.46420 75.000
23.48415 92.000
23.50409 79.000
23.52404 90.000
23.54399 85.000
23.56393 82.000
23.58388 85.000
23.60383 58.000
23.62377 69.000
23.64372 89.000
23.66367 73.000
23.68362 99.000
23.70356 85.000
23.72351 78.000
23.74346 73.000
23.76340 69.000
23.78335 91.000
23.80330 90.000
23.82324 88.000
23.84319 79.000
23.86314 84.000
23.88309 75.000
23.90303 101.000
23.92298 91.000
23.94293 84.000
23.96287 73.000
23.98282 74.000
24.00277 89.000
24.02271 77.000
24.04266 78.000
24.06261 71.000
24.08256 82.000
24.10250 81.000
24.12245 91.000
24.14240 66.000
24.16234 79.000
24.18229 89.000
24.20224 68.000
24.22218 75.000
24.24213 89.000
24.26208 82.000
24.28202 73.000
24.30197 81.000
24.32192 84.000
24.34187 82.000
24.36181 94.000
24.38176 64.000
24.40171 81.000
24.42165 89.000
24.44160 77.000
24.46155 99.000
24.48149 100.000
24.50144 75.000
24.52139 92.000
24.54134 88.000
24.56128 69.000
24.58123 89.000
24.60118 79.000
24.62112 81.000
24.64107 67.000
24.66102 102.000
24.68096 93.000
24.70091 97.000
24.72086 81.000
24.74080 93.000
24.76075 70.000
24.78070 100.000
24.80065 91.000
24.82059 79.000
24.84054 99.000
24.86049 93.000
24.88043 84.000
24.90038 86.000
24.92033 92.000
24.94027 112.000
24.96022 76.000
24.98017 73.000
25.00012 60.000
25.02006 75.000
25.04001 93.000
25.05996 79.000
25.07990 75.000
25.09985 87.000
25.11980 74.000
25.13974 103.000
25.15969 96.000
25.17964 84.000
25.19958 92.000
25.21953 101.000
25.23948 86.000
25.25943 70.000
25.27937 103.000
25.29932 93.000
25.31927 73.000
25.33921 81.000
25.35916 94.000
25.37911 88.000
25.39905 100.000
25.41900 80.000
25.43895 70.000
25.45890 91.000
25.47884 91.000
25.49879 75.000
25.51874 86.000
25.53868 88.000
25.55863 79.000
25.57858 82.000
25.59852 95.000
25.61847 80.000
25.63842 83.000
25.65837 78.000
25.67831 85.000
25.69826 84.000
25.71821 85.000
25.73815 97.000
25.75810 89.000
25.77805 93.000
25.79799 84.000
25.81794 101.000
25.83789 81.000
25.85783 89.000
25.87778 94.000
25.89773 77.000
25.91768 106.000
25.93762 91.000
25.95757 95.000
25.97752 96.000
25.99746 87.000
26.01741 94.000
26.03736 103.000
26.05730 98.000
26.07725 104.000
26.09720 110.000
26.11715 101.000
26.13709 90.000
26.15704 88.000
26.17699 95.000
26.19693 104.000
26.21688 117.000
26.23683 92.000
26.25677 110.000
26.27672 88.000
26.29667 95.000
26.31661 95.000
26.33656 92.000
26.35651 92.000
26.37646 89.000
26.39640 63.000
26.41635 98.000
26.43630 88.000
26.45624 116.000
26.47619 81.000
26.49614 77.000
26.51608 103.000
26.53603 81.000
26.55598 77.000
26.57593 84.000
26.59587 83.000
26.61582 88.000
26.63577 102.000
26.65571 90.000
26.67566 94.000
26.69561 74.000
26.71555 85.000
26.73550 95.000
26.75545 77.000
26.77539 79.000
26.79534 102.000
26.81529 96.000
26.83524 81.000
26.85518 86.000
26.87513 91.000
26.89508 78.000
26.91502 121.000
26.93497 103.000
26.95492 81.000
26.97486 83.000
26.99481 88.000
27.01476 88.000
27.03471 93.000
27.05465 95.000
27.07460 87.000
27.09455 84.000
27.11449 67.000
27.13444 99.000
27.15439 111.000
27.17433 118.000
27.19428 76.000
27.21423 93.000
27.23417 79.000
27.25412 98.000
27.27407 102.000
27.29402 84.000
27.31396 79.000
27.33391 73.000
27.35386 77.000
27.37380 96.000
27.39375 70.000
27.41370 91.000
27.43364 76.000
27.45359 92.000
27.47354 80.000
27.49349 95.000
27.51343 78.000
27.53338 99.000
27.55333 84.000
27.57327 88.000
27.59322 81.000
27.61317 78.000
27.63311 89.000
27.65306 107.000
27.67301 76.000
27.69296 75.000
27.71290 107.000
27.73285 102.000
27.75280 80.000
27.77274 80.000
27.79269 92.000
27.81264 94.000
27.83258 99.000
27.85253 91.000
27.87248 108.000
27.89242 88.000
27.91237 86.000
27.93232 95.000
27.95227 91.000
27.97221 94.000
27.99216 80.000
28.01211 83.000
28.03205 82.000
28.05200 92.000
28.07195 101.000
28.09189 88.000
28.11184 87.000
28.13179 89.000
28.15174 108.000
28.17168 84.000
28.19163 94.000
28.21158 78.000
28.23152 84.000
28.25147 97.000
28.27142 84.000
28.29136 104.000
28.31131 93.000
28.33126 90.000
28.35120 92.000
28.37115 92.000
28.39110 88.000
28.41105 99.000
28.43099 81.000
28.45094 80.000
28.47089 92.000
28.49083 73.000
28.51078 90.000
28.53073 83.000
28.55067 86.000
28.57062 93.000
28.59057 90.000
28.61052 80.000
28.63046 93.000
28.65041 100.000
28.67036 77.000
28.69030 75.000
28.71025 89.000
28.73020 99.000
28.75014 75.000
28.77009 95.000
28.79004 112.000
28.80998 74.000
28.82993 106.000
28.84988 109.000
28.86983 111.000
28.88977 108.000
28.90972 113.000
28.92967 85.000
28.94961 95.000
28.96956 87.000
28.98951 96.000
29.00945 88.000
29.02940 95.000
29.04935 91.000
29.06930 98.000
29.08924 93.000
29.10919 77.000
29.12914 93.000
29.14908 102.000
29.16903 85.000
29.18898 81.000
29.20892 97.000
29.22887 98.000
29.24882 94.000
29.26877 98.000
29.28871 106.000
29.30866 100.000
29.32861 104.000
29.34855 102.000
29.36850 116.000
29.38845 112.000
29.40839 129.000
29.42834 112.000
29.44829 127.000
29.46823 139.000
29.48818 160.000
29.50813 163.000
29.52808 169.000
29.54802 168.000
29.56797 183.000
29.58792 143.000
29.60786 152.000
29.62781 160.000
29.64776 124.000
29.66770 125.000
29.68765 136.000
29.70760 117.000
29.72755 123.000
29.74749 125.000
29.76744 114.000
29.78739 109.000
29.80733 109.000
29.82728 120.000
29.84723 118.000
29.86717 103.000
29.88712 106.000
29.90707 105.000
29.92701 129.000
29.94696 126.000
29.96691 138.000
29.98686 146.000
30.00680 138.000
30.02675 145.000
30.04670 150.000
30.06664 180.000
30.08659 186.000
30.10654 205.000
30.12648 222.000
30.14643 243.000
30.16638 313.000
30.18633 362.000
30.20627 419.000
30.22622 425.000
30.24617 434.000
30.26611 368.000
30.28606 322.000
30.30601 309.000
30.32595 239.000
30.34590 222.000
30.36585 147.000
30.38579 144.000
30.40574 145.000
30.42569 140.000
30.44564 94.000
30.46558 99.000
30.48553 124.000
30.50548 129.000
30.52542 99.000
30.54537 117.000
30.56532 107.000
30.58526 103.000
30.60521 117.000
30.62516 111.000
30.64511 119.000
30.66505 122.000
30.68500 117.000
30.70495 88.000
30.72489 128.000
30.74484 103.000
30.76479 105.000
30.78473 124.000
30.80468 96.000
30.82463 110.000
30.84458 95.000
30.86452 93.000
30.88447 109.000
30.90442 113.000
30.92436 81.000
30.94431 114.000
30.96426 94.000
30.98420 99.000
31.00415 91.000
31.02410 112.000
31.04404 94.000
31.06399 98.000
31.08394 102.000
31.10389 91.000
31.12383 110.000
31.14378 96.000
31.16373 99.000
31.18367 112.000
31.20362 90.000
31.22357 93.000
31.24351 103.000
31.26346 92.000
31.28341 75.000
31.30336 85.000
31.32330 106.000
31.34325 83.000
31.36320 88.000
31.38314 100.000
31.40309 104.000
31.42304 91.000
31.44298 99.000
31.46293 101.000
31.48288 108.000
31.50282 96.000
31.52277 94.000
31.54272 114.000
31.56267 94.000
31.58261 124.000
31.60256 113.000
31.62251 112.000
31.64245 130.000
31.66240 109.000
31.68235 110.000
31.70229 95.000
31.72224 103.000
31.74219 119.000
31.76214 129.000
31.78208 124.000
31.80203 115.000
31.82198 122.000
31.84192 103.000
31.86187 136.000
31.88182 109.000
31.90176 108.000
31.92171 108.000
31.94166 142.000
31.96160 115.000
31.98155 125.000
32.00150 127.000
32.02145 126.000
32.04139 113.000
32.06134 94.000
32.08129 133.000
32.10123 105.000
32.12118 124.000
32.14113 110.000
32.16107 110.000
32.18102 127.000
32.20097 110.000
32.22092 122.000
32.24086 136.000
32.26081 119.000
32.28076 127.000
32.30070 127.000
32.32065 124.000
32.34060 122.000
32.36054 111.000
32.38049 121.000
32.40044 87.000
32.42039 127.000
32.44033 129.000
32.46028 118.000
32.48023 157.000
32.50017 107.000
32.52012 138.000
32.54007 130.000
32.56001 137.000
32.57996 140.000
32.59991 149.000
32.61985 121.000
32.63980 140.000
32.65975 108.000
32.67970 139.000
32.69964 136.000
32.71959 130.000
32.73954 135.000
32.75948 116.000
32.77943 121.000
32.79938 137.000
32.81932 144.000
32.83927 112.000
32.85922 134.000
32.87917 137.000
32.89911 150.000
32.91906 148.000
32.93901 135.000
32.95895 169.000
32.97890 145.000
32.99885 154.000
33.01879 137.000
33.03874 174.000
33.05869 162.000
33.07863 188.000
33.09858 167.000
33.11853 198.000
33.13848 203.000
33.15842 200.000
33.17837 226.000
33.19832 249.000
33.21826 278.000
33.23821 290.000
33.25816 317.000
33.27810 330.000
33.29805 394.000
33.31800 430.000
33.33795 407.000
33.35789 408.000
33.37784 334.000
33.39779 329.000
33.41773 315.000
33.43768 251.000
33.45763 276.000
33.47757 208.000
33.49752 217.000
33.51747 179.000
33.53741 184.000
33.55736 180.000
33.57731 153.000
33.59726 148.000
33.61720 141.000
33.63715 148.000
33.65710 146.000
33.67704 171.000
33.69699 169.000
33.71694 164.000
33.73688 198.000
33.75683 205.000
33.77678 194.000
33.79673 225.000
33.81667 219.000
33.83662 262.000
33.85657 251.000
33.87651 268.000
33.89646 284.000
33.91641 330.000
33.93635 336.000
33.95630 305.000
33.97625 359.000
33.99620 401.000
34.01614 396.000
34.03609 352.000
34.05604 343.000
34.07598 400.000
34.09593 362.000
34.11588 347.000
34.13582 371.000
34.15577 314.000
34.17572 313.000
34.19566 316.000
34.21561 295.000
34.23556 287.000
34.25551 261.000
34.27545 292.000
34.29540 298.000
34.31535 246.000
34.33529 256.000
34.35524 276.000
34.37519 262.000
34.39513 250.000
34.41508 237.000
34.43503 193.000
34.45498 216.000
34.47492 211.000
34.49487 190.000
34.51482 160.000
34.53476 165.000
34.55471 174.000
34.57466 152.000
34.59460 155.000
34.61455 138.000
34.63450 136.000
34.65444 122.000
34.67439 141.000
34.69434 144.000
34.71429 155.000
34.73423 169.000
34.75418 137.000
34.77413 148.000
34.79407 131.000
34.81402 148.000
34.83397 170.000
34.85391 183.000
34.87386 254.000
34.89381 285.000
34.91376 291.000
34.93370 304.000
34.95365 316.000
34.97360 344.000
34.99354 319.000
35.01349 296.000
35.03344 277.000
35.05338 292.000
35.07333 271.000
35.09328 228.000
35.11322 248.000
35.13317 259.000
35.15312 228.000
35.17307 225.000
35.19301 198.000
35.21296 219.000
35.23291 270.000
35.25285 236.000
35.27280 258.000
35.29275 248.000
35.31269 270.000
35.33264 277.000
35.35259 342.000
35.37254 373.000
35.39248 385.000
35.41243 416.000
35.43238 527.000
35.45232 566.000
35.47227 619.000
35.49222 731.000
35.51216 818.000
35.53211 915.000
35.55206 1014.000
35.57201 1103.000
35.59195 1190.000
35.61190 1274.000
35.63185 1187.000
35.65179 1094.000
35.67174 928.000
35.69169 858.000
35.71163 725.000
35.73158 655.000
35.75153 546.000
35.77147 438.000
35.79142 336.000
35.81137 281.000
35.83132 246.000
35.85126 213.000
35.87121 216.000
35.89116 181.000
35.91110 219.000
35.93105 188.000
35.95100 187.000
35.97094 204.000
35.99089 161.000
36.01084 137.000
36.03079 186.000
36.05073 170.000
36.07068 155.000
36.09063 175.000
36.11057 179.000
36.13052 147.000
36.15047 200.000
36.17041 204.000
36.19036 256.000
36.21031 317.000
36.23025 370.000
36.25020 428.000
36.27015 447.000
36.29010 499.000
36.31004 478.000
36.32999 474.000
36.34994 459.000
36.36988 427.000
36.38983 399.000
36.40978 368.000
36.42972 348.000
36.44967 299.000
36.46962 282.000
36.48957 262.000
36.50951 244.000
36.52946 230.000
36.54941 220.000
36.56935 209.000
36.58930 211.000
36.60925 179.000
36.62919 167.000
36.64914 153.000
36.66909 181.000
36.68903 154.000
36.70898 150.000
36.72893 143.000
36.74888 133.000
36.76882 124.000
36.78877 132.000
36.80872 123.000
36.82866 144.000
36.84861 119.000
36.86856 119.000
36.88850 126.000
36.90845 119.000
36.92840 99.000
36.94835 129.000
36.96829 123.000
36.98824 109.000
37.00819 101.000
37.02813 91.000
37.04808 122.000
37.06803 127.000
37.08797 139.000
37.10792 129.000
37.12787 156.000
37.14781 164.000
37.16776 154.000
37.18771 159.000
37.20766 169.000
37.22760 170.000
37.24755 176.000
37.26750 186.000
37.28744 153.000
37.30739 155.000
37.32734 125.000
37.34728 118.000
37.36723 140.000
37.38718 140.000
37.40713 105.000
37.42707 104.000
37.44702 104.000
37.46697 88.000
37.48691 109.000
37.50686 106.000
37.52681 92.000
37.54675 83.000
37.56670 96.000
37.58665 110.000
37.60660 95.000
37.62654 98.000
37.64649 119.000
37.66644 92.000
37.68638 95.000
37.70633 104.000
37.72628 105.000
37.74622 97.000
37.76617 95.000
37.78612 96.000
37.80606 100.000
37.82601 126.000
37.84596 80.000
37.86591 95.000
37.88585 92.000
37.90580 104.000
37.92575 107.000
37.94569 86.000
37.96564 116.000
37.98559 123.000
38.00553 99.000
38.02548 102.000
38.04543 108.000
38.06538 100.000
38.08532 91.000
38.10527 88.000
38.12522 92.000
38.14516 115.000
38.16511 115.000
38.18506 99.000
38.20500 93.000
38.22495 97.000
38.24490 112.000
38.26484 137.000
38.28479 105.000
38.30474 117.000
38.32469 98.000
38.34463 99.000
38.36458 107.000
38.38453 98.000
38.40447 122.000
38.42442 114.000
38.44437 107.000
38.46431 141.000
38.48426 133.000
38.50421 141.000
38.52416 141.000
38.54410 164.000
38.56405 124.000
38.58400 148.000
38.60394 158.000
38.62389 171.000
38.64384 200.000
38.66378 188.000
38.68373 233.000
38.70368 218.000
38.72362 232.000
38.74357 198.000
38.76352 233.000
38.78347 213.000
38.80341 189.000
38.82336 240.000
38.84331 206.000
38.86325 200.000
38.88320 209.000
38.90315 202.000
38.92309 183.000
38.94304 189.000
38.96299 181.000
38.98294 173.000
39.00288 187.000
39.02283 177.000
39.04278 152.000
39.06272 171.000
39.08267 152.000
39.10262 143.000
39.12256 142.000
39.14251 128.000
39.16246 129.000
39.18241 115.000
39.20235 119.000
39.22230 118.000
39.24225 108.000
39.26219 113.000
39.28214 107.000
39.30209 82.000
39.32203 118.000
39.34198 93.000
39.36193 117.000
39.38187 88.000
39.40182 101.000
39.42177 91.000
39.44172 99.000
39.46166 121.000
39.48161 111.000
39.50156 85.000
39.52150 94.000
39.54145 97.000
39.56140 97.000
39.58134 111.000
39.60129 86.000
39.62124 98.000
39.64119 92.000
39.66113 91.000
39.68108 85.000
39.70103 82.000
39.72097 107.000
39.74092 97.000
39.76087 109.000
39.78081 107.000
39.80076 94.000
39.82071 92.000
39.84065 96.000
39.86060 99.000
39.88055 123.000
39.90050 95.000
39.92044 101.000
39.94039 105.000
39.96034 90.000
39.98028 102.000
40.00023 85.000
40.02018 79.000
40.04012 90.000
40.06007 105.000
40.08002 98.000
40.09997 92.000
40.11991 88.000
40.13986 122.000
40.15981 99.000
40.17975 97.000
40.19970 108.000
40.21965 103.000
40.23959 98.000
40.25954 99.000
40.27949 113.000
40.29943 97.000
40.31938 93.000
40.33933 102.000
40.35928 114.000
40.37922 102.000
40.39917 88.000
40.41912 100.000
40.43906 99.000
40.45901 118.000
40.47896 101.000
40.49890 111.000
40.51885 95.000
40.53880 103.000
40.55875 108.000
40.57869 110.000
40.59864 110.000
40.61859 107.000
40.63853 126.000
40.65848 114.000
40.67843 99.000
40.69837 96.000
40.71832 119.000
40.73827 98.000
40.75822 109.000
40.77816 115.000
40.79811 143.000
40.81806 128.000
40.83800 130.000
40.85795 127.000
40.87790 137.000
40.89784 139.000
40.91779 145.000
40.93774 142.000
40.95768 169.000
40.97763 157.000
40.99758 174.000
41.01753 168.000
41.03747 202.000
41.05742 221.000
41.07737 214.000
41.09731 251.000
41.11726 306.000
41.13721 371.000
41.15715 454.000
41.17710 561.000
41.19705 684.000
41.21700 945.000
41.23694 1223.000
41.25689 1545.000
41.27684 1676.000
41.29678 1789.000
41.31673 1734.000
41.33668 1650.000
41.35662 1477.000
41.37657 1468.000
41.39652 1313.000
41.41646 1210.000
41.43641 1061.000
41.45636 843.000
41.47631 695.000
41.49625 566.000
41.51620 511.000
41.53615 411.000
41.55609 382.000
41.57604 294.000
41.59599 290.000
41.61593 257.000
41.63588 243.000
41.65583 198.000
41.67578 204.000
41.69572 187.000
41.71567 163.000
41.73562 171.000
41.75556 164.000
41.77551 201.000
41.79546 146.000
41.81540 145.000
41.83535 165.000
41.85530 145.000
41.87524 157.000
41.89519 158.000
41.91514 128.000
41.93509 163.000
41.95503 191.000
41.97498 165.000
41.99493 140.000
42.01487 137.000
42.03482 146.000
42.05477 142.000
42.07471 127.000
42.09466 129.000
42.11461 141.000
42.13456 124.000
42.15450 104.000
42.17445 123.000
42.19440 123.000
42.21434 119.000
42.23429 101.000
42.25424 105.000
42.27418 129.000
42.29413 93.000
42.31408 118.000
42.33403 117.000
42.35397 113.000
42.37392 110.000
42.39387 113.000
42.41381 118.000
42.43376 118.000
42.45371 118.000
42.47365 87.000
42.49360 120.000
42.51355 92.000
42.53349 101.000
42.55344 101.000
42.57339 95.000
42.59334 92.000
42.61328 91.000
42.63323 106.000
42.65318 110.000
42.67312 109.000
42.69307 81.000
42.71302 105.000
42.73296 132.000
42.75291 93.000
42.77286 102.000
42.79281 87.000
42.81275 107.000
42.83270 103.000
42.85265 98.000
42.87259 113.000
42.89254 105.000
42.91249 91.000
42.93243 128.000
42.95238 133.000
42.97233 138.000
42.99227 145.000
43.01222 134.000
43.03217 119.000
43.05212 147.000
43.07206 147.000
43.09201 143.000
43.11196 168.000
43.13190 165.000
43.15185 183.000
43.17180 181.000
43.19174 213.000
43.21169 244.000
43.23164 225.000
43.25159 263.000
43.27153 270.000
43.29148 293.000
43.31143 253.000
43.33137 220.000
43.35132 239.000
43.37127 238.000
43.39121 221.000
43.41116 205.000
43.43111 184.000
43.45105 168.000
43.47100 147.000
43.49095 137.000
43.51090 108.000
43.53084 137.000
43.55079 109.000
43.57074 124.000
43.59068 115.000
43.61063 126.000
43.63058 108.000
43.65052 104.000
43.67047 105.000
43.69042 92.000
43.71037 89.000
43.73031 114.000
43.75026 88.000
43.77021 107.000
43.79015 92.000
43.81010 81.000
43.83005 101.000
43.84999 97.000
43.86994 90.000
43.88989 89.000
43.90984 107.000
43.92978 81.000
43.94973 84.000
43.96968 87.000
43.98962 80.000
44.00957 96.000
44.02952 76.000
44.04946 95.000
44.06941 90.000
44.08936 88.000
44.10930 91.000
44.12925 86.000
44.14920 84.000
44.16915 87.000
44.18909 89.000
44.20904 92.000
44.22899 96.000
44.24893 95.000
44.26888 101.000
44.28883 97.000
44.30877 88.000
44.32872 99.000
44.34867 98.000
44.36862 89.000
44.38856 77.000
44.40851 88.000
44.42846 85.000
44.44840 71.000
44.46835 86.000
44.48830 86.000
44.50824 97.000
44.52819 81.000
44.54814 103.000
44.56808 84.000
44.58803 101.000
44.60798 93.000
44.62793 98.000
44.64787 104.000
44.66782 122.000
44.68777 135.000
44.70771 144.000
44.72766 129.000
44.74761 124.000
44.76755 148.000
44.78750 139.000
44.80745 111.000
44.82740 130.000
44.84734 124.000
44.86729 133.000
44.88724 106.000
44.90718 109.000
44.92713 96.000
44.94708 100.000
44.96702 98.000
44.98697 96.000
45.00692 88.000
45.02686 91.000
45.04681 98.000
45.06676 119.000
45.08671 110.000
45.10665 104.000
45.12660 129.000
45.14655 103.000
45.16649 104.000
45.18644 91.000
45.20639 110.000
45.22633 117.000
45.24628 88.000
45.26623 103.000
45.28618 94.000
45.30612 84.000
45.32607 100.000
45.34602 101.000
45.36596 104.000
45.38591 90.000
45.40586 88.000
45.42580 87.000
45.44575 99.000
45.46570 92.000
45.48565 100.000
45.50559 86.000
45.52554 83.000
45.54549 86.000
45.56543 75.000
45.58538 103.000
45.60533 85.000
45.62527 89.000
45.64522 97.000
45.66517 74.000
45.68511 85.000
45.70506 87.000
45.72501 103.000
45.74496 86.000
45.76490 85.000
45.78485 83.000
45.80480 109.000
45.82474 67.000
45.84469 74.000
45.86464 77.000
45.88458 87.000
45.90453 83.000
45.92448 76.000
45.94443 89.000
45.96437 83.000
45.98432 72.000
46.00427 87.000
46.02421 96.000
46.04416 88.000
46.06411 64.000
46.08405 90.000
46.10400 81.000
46.12395 98.000
46.14389 80.000
46.16384 106.000
46.18379 94.000
46.20374 79.000
46.22368 79.000
46.24363 81.000
46.26358 79.000
46.28352 88.000
46.30347 92.000
46.32342 80.000
46.34336 92.000
46.36331 79.000
46.38326 96.000
46.40321 91.000
46.42315 102.000
46.44310 97.000
46.46305 68.000
46.48299 75.000
46.50294 97.000
46.52289 87.000
46.54283 95.000
46.56278 90.000
46.58273 105.000
46.60267 92.000
46.62262 81.000
46.64257 99.000
46.66252 106.000
46.68246 97.000
46.70241 98.000
46.72236 88.000
46.74230 95.000
46.76225 100.000
46.78220 84.000
46.80214 84.000
46.82209 97.000
46.84204 91.000
46.86199 94.000
46.88193 94.000
46.90188 88.000
46.92183 64.000
46.94177 97.000
46.96172 103.000
46.98167 91.000
47.00161 85.000
47.02156 83.000
47.04151 104.000
47.06146 87.000
47.08140 85.000
47.10135 87.000
47.12130 93.000
47.14124 91.000
47.16119 104.000
47.18114 98.000
47.20108 90.000
47.22103 93.000
47.24098 92.000
47.26092 75.000
47.28087 86.000
47.30082 74.000
47.32077 100.000
47.34071 88.000
47.36066 105.000
47.38061 79.000
47.40055 81.000
47.42050 74.000
47.44045 94.000
47.46039 82.000
47.48034 81.000
47.50029 99.000
47.52024 75.000
47.54018 77.000
47.56013 95.000
47.58008 80.000
47.60002 84.000
47.61997 76.000
47.63992 75.000
47.65986 102.000
47.67981 77.000
47.69976 79.000
47.71970 87.000
47.73965 73.000
47.75960 82.000
47.77955 74.000
47.79949 85.000
47.81944 97.000
47.83939 105.000
47.85933 75.000
47.87928 102.000
47.89923 92.000
47.91917 82.000
47.93912 82.000
47.95907 82.000
47.97902 75.000
47.99896 106.000
48.01891 75.000
48.03886 94.000
48.05880 87.000
48.07875 92.000
48.09870 83.000
48.11864 82.000
48.13859 95.000
48.15854 78.000
48.17848 81.000
48.19843 90.000
48.21838 93.000
48.23833 78.000
48.25827 96.000
48.27822 109.000
48.29817 90.000
48.31811 93.000
48.33806 94.000
48.35801 104.000
48.37795 92.000
48.39790 109.000
48.41785 94.000
48.43780 97.000
48.45774 114.000
48.47769 106.000
48.49764 95.000
48.51758 102.000
48.53753 99.000
48.55748 116.000
48.57742 88.000
48.59737 122.000
48.61732 103.000
48.63726 110.000
48.65721 107.000
48.67716 99.000
48.69711 117.000
48.71705 103.000
48.73700 119.000
48.75695 116.000
48.77689 120.000
48.79684 162.000
48.81679 126.000
48.83673 112.000
48.85668 107.000
48.87663 121.000
48.89658 128.000
48.91652 107.000
48.93647 111.000
48.95642 118.000
48.97636 136.000
48.99631 120.000
49.01626 119.000
49.03620 97.000
49.05615 132.000
49.07610 89.000
49.09605 111.000
49.11599 100.000
49.13594 81.000
49.15589 94.000
49.17583 97.000
49.19578 100.000
49.21573 85.000
49.23567 109.000
49.25562 101.000
49.27557 99.000
49.29551 103.000
49.31546 111.000
49.33541 110.000
49.35536 79.000
49.37530 96.000
49.39525 99.000
49.41520 104.000
49.43514 93.000
49.45509 106.000
49.47504 94.000
49.49498 87.000
49.51493 108.000
49.53488 73.000
49.55483 88.000
49.57477 88.000
49.59472 79.000
49.61467 95.000
49.63461 79.000
49.65456 105.000
49.67451 87.000
49.69445 101.000
49.71440 103.000
49.73435 110.000
49.75429 91.000
49.77424 94.000
49.79419 84.000
49.81414 102.000
49.83408 82.000
49.85403 88.000
49.87398 86.000
49.89392 86.000
49.91387 91.000
49.93382 81.000
49.95376 78.000
49.97371 87.000
49.99366 98.000
50.01361 65.000
50.03355 91.000
50.05350 98.000
50.07345 75.000
50.09339 86.000
50.11334 86.000
50.13329 84.000
50.15323 98.000
50.17318 91.000
50.19313 91.000
50.21307 90.000
50.23302 96.000
50.25297 86.000
50.27292 89.000
50.29286 85.000
50.31281 102.000
50.33276 104.000
50.35270 89.000
50.37265 83.000
50.39260 74.000
50.41254 81.000
50.43249 80.000
50.45244 92.000
50.47239 82.000
50.49233 63.000
50.51228 86.000
50.53223 88.000
50.55217 94.000
50.57212 93.000
50.59207 66.000
50.61201 97.000
50.63196 105.000
50.65191 94.000
50.67186 87.000
50.69180 85.000
50.71175 87.000
50.73170 90.000
50.75164 93.000
50.77159 111.000
50.79154 86.000
50.81148 103.000
50.83143 88.000
50.85138 84.000
50.87132 88.000
50.89127 90.000
50.91122 103.000
50.93117 109.000
50.95111 90.000
50.97106 78.000
50.99101 84.000
51.01095 87.000
51.03090 107.000
51.05085 92.000
51.07079 87.000
51.09074 84.000
51.11069 88.000
51.13064 97.000
51.15058 73.000
51.17053 71.000
51.19048 76.000
51.21042 80.000
51.23037 84.000
51.25032 85.000
51.27026 70.000
51.29021 91.000
51.31016 103.000
51.33010 68.000
51.35005 85.000
51.37000 86.000
51.38995 97.000
51.40989 100.000
51.42984 80.000
51.44979 83.000
51.46973 73.000
51.48968 81.000
51.50963 67.000
51.52957 92.000
51.54952 68.000
51.56947 88.000
51.58942 84.000
51.60936 81.000
51.62931 88.000
51.64926 85.000
51.66920 74.000
51.68915 78.000
51.70910 76.000
51.72904 77.000
51.74899 70.000
51.76894 81.000
51.78888 81.000
51.80883 78.000
51.82878 81.000
51.84873 75.000
51.86867 82.000
51.88862 85.000
51.90857 96.000
51.92851 80.000
51.94846 69.000
51.96841 83.000
51.98835 89.000
52.00830 76.000
52.02825 83.000
52.04820 80.000
52.06814 89.000
52.08809 88.000
52.10804 81.000
52.12798 99.000
52.14793 93.000
52.16788 79.000
52.18782 84.000
52.20777 93.000
52.22772 96.000
52.24767 110.000
52.26761 91.000
52.28756 83.000
52.30751 78.000
52.32745 75.000
52.34740 98.000
52.36735 72.000
52.38729 81.000
52.40724 97.000
52.42719 74.000
52.44713 82.000
52.46708 74.000
52.48703 81.000
52.50698 99.000
52.52692 89.000
52.54687 98.000
52.56682 103.000
52.58676 103.000
52.60671 83.000
52.62666 82.000
52.64660 111.000
52.66655 94.000
52.68650 124.000
52.70645 108.000
52.72639 108.000
52.74634 105.000
52.76629 117.000
52.78623 114.000
52.80618 111.000
52.82613 129.000
52.84607 154.000
52.86602 143.000
52.88597 162.000
52.90591 162.000
52.92586 161.000
52.94581 182.000
52.96576 213.000
52.98570 206.000
53.00565 254.000
53.02560 251.000
53.04554 256.000
53.06549 268.000
53.08544 236.000
53.10538 234.000
53.12533 192.000
53.14528 193.000
53.16523 192.000
53.18517 186.000
53.20512 189.000
53.22507 161.000
53.24501 150.000
53.26496 124.000
53.28491 140.000
53.30485 112.000
53.32480 119.000
53.34475 101.000
53.36469 107.000
53.38464 105.000
53.40459 111.000
53.42454 104.000
53.44448 123.000
53.46443 101.000
53.48438 113.000
53.50432 134.000
53.52427 128.000
53.54422 123.000
53.56416 142.000
53.58411 122.000
53.60406 137.000
53.62401 146.000
53.64395 140.000
53.66390 149.000
53.68385 148.000
53.70379 158.000
53.72374 160.000
53.74369 154.000
53.76363 168.000
53.78358 164.000
53.80353 118.000
53.82348 137.000
53.84342 142.000
53.86337 123.000
53.88332 134.000
53.90326 133.000
53.92321 127.000
53.94316 108.000
53.96310 100.000
53.98305 116.000
54.00300 102.000
54.02294 114.000
54.04289 109.000
54.06284 110.000
54.08279 104.000
54.10273 97.000
54.12268 98.000
54.14263 107.000
54.16257 85.000
54.18252 91.000
54.20247 102.000
54.22241 105.000
54.24236 97.000
54.26231 105.000
54.28226 90.000
54.30220 88.000
54.32215 79.000
54.34210 86.000
54.36204 95.000
54.38199 86.000
54.40194 88.000
54.42188 87.000
54.44183 75.000
54.46178 84.000
54.48172 84.000
54.50167 79.000
54.52162 81.000
54.54157 111.000
54.56151 103.000
54.58146 90.000
54.60141 85.000
54.62135 89.000
54.64130 95.000
54.66125 96.000
54.68119 91.000
54.70114 80.000
54.72109 93.000
54.74104 73.000
54.76098 82.000
54.78093 95.000
54.80088 75.000
54.82082 78.000
54.84077 90.000
54.86072 81.000
54.88066 92.000
54.90061 101.000
54.92056 82.000
54.94050 124.000
54.96045 94.000
54.98040 81.000
55.00035 97.000
55.02029 66.000
55.04024 90.000
55.06019 115.000
55.08013 97.000
55.10008 82.000
55.12003 101.000
55.13997 82.000
55.15992 104.000
55.17987 85.000
55.19982 93.000
55.21976 78.000
55.23971 111.000
55.25966 82.000
55.27960 120.000
55.29955 104.000
55.31950 85.000
55.33944 94.000
55.35939 90.000
55.37934 95.000
55.39929 104.000
55.41923 110.000
55.43918 98.000
55.45913 76.000
55.47907 78.000
55.49902 100.000
55.51897 95.000
55.53891 120.000
55.55886 79.000
55.57881 96.000
55.59875 93.000
55.61870 92.000
55.63865 95.000
55.65860 83.000
55.67854 82.000
55.69849 92.000
55.71844 96.000
55.73838 105.000
55.75833 82.000
55.77828 91.000
55.79822 88.000
55.81817 106.000
55.83812 98.000
55.85807 77.000
55.87801 101.000
55.89796 106.000
55.91791 93.000
55.93785 104.000
55.95780 93.000
55.97775 80.000
55.99769 89.000
56.01764 95.000
56.03759 100.000
56.05753 93.000
56.07748 101.000
56.09743 104.000
56.11738 80.000
56.13732 82.000
56.15727 88.000
56.17722 82.000
56.19716 78.000
56.21711 95.000
56.23706 100.000
56.25700 78.000
56.27695 99.000
56.29690 85.000
56.31685 82.000
56.33679 86.000
56.35674 107.000
56.37669 93.000
56.39663 85.000
56.41658 98.000
56.43653 66.000
56.45647 88.000
56.47642 70.000
56.49637 78.000
56.51631 83.000
56.53626 85.000
56.55621 87.000
56.57616 83.000
56.59610 108.000
56.61605 99.000
56.63600 114.000
56.65594 111.000
56.67589 101.000
56.69584 92.000
56.71578 102.000
56.73573 108.000
56.75568 111.000
56.77563 107.000
56.79557 113.000
56.81552 115.000
56.83547 127.000
56.85541 126.000
56.87536 122.000
56.89531 134.000
56.91525 141.000
56.93520 124.000
56.95515 138.000
56.97510 147.000
56.99504 138.000
57.01499 169.000
57.03494 162.000
57.05488 156.000
57.07483 197.000
57.09478 226.000
57.11472 219.000
57.13467 240.000
57.15462 222.000
57.17456 246.000
57.19451 302.000
57.21446 263.000
57.23441 277.000
57.25435 316.000
57.27430 292.000
57.29425 330.000
57.31419 333.000
57.33414 288.000
57.35409 264.000
57.37403 271.000
57.39398 255.000
57.41393 247.000
57.43388 247.000
57.45382 238.000
57.47377 237.000
57.49372 222.000
57.51366 201.000
57.53361 206.000
57.55356 213.000
57.57350 211.000
57.59345 208.000
57.61340 208.000
57.63334 226.000
57.65329 231.000
57.67324 282.000
57.69319 302.000
57.71313 298.000
57.73308 324.000
57.75303 351.000
57.77297 372.000
57.79292 406.000
57.81287 453.000
57.83281 427.000
57.85276 380.000
57.87271 335.000
57.89266 307.000
57.91260 318.000
57.93255 281.000
57.95250 284.000
57.97244 278.000
57.99239 265.000
58.01234 245.000
58.03228 188.000
58.05223 183.000
58.07218 154.000
58.09212 137.000
58.11207 120.000
58.13202 129.000
58.15197 125.000
58.17191 124.000
58.19186 134.000
58.21181 106.000
58.23175 99.000
58.25170 104.000
58.27165 111.000
58.29159 109.000
58.31154 111.000
58.33149 98.000
58.35144 110.000
58.37138 117.000
58.39133 99.000
58.41128 99.000
58.43122 109.000
58.45117 120.000
58.47112 105.000
58.49106 89.000
58.51101 106.000
58.53096 88.000
58.55090 104.000
58.57085 104.000
58.59080 94.000
58.61075 99.000
58.63069 95.000
58.65064 91.000
58.67059 101.000
58.69053 96.000
58.71048 94.000
58.73043 84.000
58.75037 104.000
58.77032 86.000
58.79027 98.000
58.81022 103.000
58.83016 95.000
58.85011 88.000
58.87006 104.000
58.89000 100.000
58.90995 104.000
58.92990 84.000
58.94984 110.000
58.96979 92.000
58.98974 92.000
59.00969 86.000
59.02963 88.000
59.04958 85.000
59.06953 90.000
59.08947 91.000
59.10942 93.000
59.12937 85.000
59.14931 77.000
59.16926 81.000
59.18921 93.000
59.20915 94.000
59.22910 92.000
59.24905 96.000
59.26900 92.000
59.28894 94.000
59.30889 89.000
59.32884 84.000
59.34878 93.000
59.36873 110.000
59.38868 90.000
59.40862 104.000
59.42857 67.000
59.44852 81.000
59.46847 90.000
59.48841 82.000
59.50836 85.000
59.52831 105.000
59.54825 93.000
59.56820 102.000
59.58815 90.000
59.60809 95.000
59.62804 104.000
59.64799 76.000
59.66793 104.000
59.68788 114.000
59.70783 86.000
59.72778 89.000
59.74772 92.000
59.76767 105.000
59.78762 113.000
59.80756 99.000
59.82751 91.000
59.84746 112.000
59.86740 102.000
59.88735 108.000
59.90730 104.000
59.92725 118.000
59.94719 114.000
59.96714 111.000
59.98709 125.000
60.00703 114.000
60.02698 119.000
60.04693 127.000
60.06687 133.000
60.08682 117.000
60.10677 101.000
60.12671 85.000
60.14666 115.000
60.16661 123.000
60.18656 116.000
60.20650 96.000
60.22645 109.000
60.24640 103.000
60.26634 106.000
60.28629 97.000
60.30624 95.000
60.32618 101.000
60.34613 106.000
60.36608 118.000
60.38603 106.000
60.40597 106.000
60.42592 104.000
60.44587 122.000
60.46581 88.000
60.48576 131.000
60.50571 104.000
60.52565 109.000
60.54560 100.000
60.56555 95.000
60.58550 96.000
60.60544 131.000
60.62539 127.000
60.64534 107.000
60.66528 115.000
60.68523 126.000
60.70518 107.000
60.72512 114.000
60.74507 117.000
60.76502 119.000
60.78496 119.000
60.80491 117.000
60.82486 125.000
60.84481 125.000
60.86475 103.000
60.88470 101.000
60.90465 113.000
60.92459 109.000
60.94454 116.000
60.96449 115.000
60.98443 125.000
61.00438 136.000
61.02433 128.000
61.04428 155.000
61.06422 129.000
61.08417 122.000
61.10412 118.000
61.12406 116.000
61.14401 117.000
61.16396 124.000
61.18390 149.000
61.20385 132.000
61.22380 124.000
61.24374 125.000
61.26369 124.000
61.28364 153.000
61.30359 142.000
61.32353 156.000
61.34348 162.000
61.36343 161.000
61.38337 158.000
61.40332 151.000
61.42327 178.000
61.44321 153.000
61.46316 186.000
61.48311 169.000
61.50306 130.000
61.52300 174.000
61.54295 187.000
61.56290 207.000
61.58284 216.000
61.60279 257.000
61.62274 261.000
61.64268 285.000
61.66263 316.000
61.68258 301.000
61.70252 336.000
61.72247 347.000
61.74242 299.000
61.76237 340.000
61.78231 326.000
61.80226 359.000
61.82221 362.000
61.84215 362.000
61.86210 331.000
61.88205 298.000
61.90199 314.000
61.92194 274.000
61.94189 262.000
61.96184 278.000
61.98178 242.000
62.00173 250.000
62.02168 249.000
62.04162 258.000
62.06157 213.000
62.08152 198.000
62.10146 220.000
62.12141 199.000
62.14136 196.000
62.16131 206.000
62.18125 158.000
62.20120 144.000
62.22115 176.000
62.24109 169.000
62.26104 132.000
62.28099 149.000
62.30093 163.000
62.32088 156.000
62.34083 165.000
62.36077 150.000
62.38072 157.000
62.40067 147.000
62.42062 165.000
62.44056 136.000
62.46051 147.000
62.48046 176.000
62.50040 166.000
62.52035 155.000
62.54030 175.000
62.56024 183.000
62.58019 174.000
62.60014 204.000
62.62009 181.000
62.64003 201.000
62.65998 211.000
62.67993 236.000
62.69987 230.000
62.71982 264.000
62.73977 276.000
62.75971 272.000
62.77966 277.000
62.79961 325.000
62.81955 333.000
62.83950 308.000
62.85945 349.000
62.87940 366.000
62.89934 328.000
62.91929 323.000
62.93924 309.000
62.95918 266.000
62.97913 307.000
62.99908 265.000
63.01902 274.000
63.03897 246.000
63.05892 258.000
63.07887 212.000
63.09881 202.000
63.11876 165.000
63.13871 169.000
63.15865 160.000
63.17860 144.000
63.19855 114.000
63.21849 132.000
63.23844 96.000
63.25839 112.000
63.27833 121.000
63.29828 114.000
63.31823 107.000
63.33818 101.000
63.35812 112.000
63.37807 106.000
63.39802 113.000
63.41796 86.000
63.43791 113.000
63.45786 97.000
63.47780 86.000
63.49775 94.000
63.51770 97.000
63.53765 98.000
63.55759 102.000
63.57754 74.000
63.59749 82.000
63.61743 97.000
63.63738 108.000
63.65733 87.000
63.67727 110.000
63.69722 88.000
63.71717 90.000
63.73712 86.000
63.75706 81.000
63.77701 96.000
63.79696 99.000
63.81690 91.000
63.83685 96.000
63.85680 111.000
63.87674 105.000
63.89669 91.000
63.91664 80.000
63.93658 71.000
63.95653 91.000
63.97648 107.000
63.99643 103.000
64.01637 125.000
64.03632 103.000
64.05627 103.000
64.07621 84.000
64.09616 90.000
64.11611 98.000
64.13605 104.000
64.15600 105.000
64.17595 97.000
64.19590 92.000
64.21584 111.000
64.23579 108.000
64.25574 130.000
64.27568 127.000
64.29563 154.000
64.31558 139.000
64.33552 145.000
64.35547 131.000
64.37542 133.000
64.39536 133.000
64.41531 148.000
64.43526 150.000
64.45521 154.000
64.47515 149.000
64.49510 145.000
64.51505 155.000
64.53499 145.000
64.55494 145.000
64.57489 136.000
64.59483 117.000
64.61478 120.000
64.63473 138.000
64.65468 119.000
64.67462 124.000
64.69457 106.000
64.71452 118.000
64.73446 110.000
64.75441 109.000
64.77436 124.000
64.79430 133.000
64.81425 106.000
64.83420 107.000
64.85414 110.000
64.87409 115.000
64.89404 98.000
64.91399 113.000
64.93393 102.000
64.95388 103.000
64.97383 123.000
64.99377 102.000
65.01372 98.000
65.03367 100.000
65.05361 97.000
65.07356 90.000
65.09351 114.000
65.11346 76.000
65.13340 105.000
65.15335 93.000
65.17330 100.000
65.19324 106.000
65.21319 74.000
65.23314 102.000
65.25308 95.000
65.27303 107.000
65.29298 96.000
65.31293 100.000
65.33287 90.000
65.35282 103.000
65.37277 86.000
65.39271 106.000
65.41266 121.000
65.43261 95.000
65.45255 84.000
65.47250 92.000
65.49245 77.000
65.51239 99.000
65.53234 95.000
65.55229 98.000
65.57224 96.000
65.59218 96.000
65.61213 104.000
65.63208 94.000
65.65202 106.000
65.67197 95.000
65.69192 90.000
65.71186 106.000
65.73181 89.000
65.75176 119.000
65.77171 99.000
65.79165 94.000
65.81160 85.000
65.83155 92.000
65.85149 127.000
65.87144 85.000
65.89139 126.000
65.91133 92.000
65.93128 107.000
65.95123 90.000
65.97117 96.000
65.99112 106.000
66.01107 98.000
66.03102 115.000
66.05096 94.000
66.07091 114.000
66.09086 97.000
66.11080 112.000
66.13075 110.000
66.15070 123.000
66.17064 120.000
66.19059 127.000
66.21054 106.000
66.23049 109.000
66.25043 114.000
66.27038 109.000
66.29033 94.000
66.31027 131.000
66.33022 114.000
66.35017 127.000
66.37011 114.000
66.39006 97.000
66.41001 76.000
66.42995 103.000
66.44990 86.000
66.46985 111.000
66.48980 107.000
66.50974 89.000
66.52969 84.000
66.54964 115.000
66.56958 82.000
66.58953 108.000
66.60948 90.000
66.62942 99.000
66.64937 87.000
66.66932 91.000
66.68927 77.000
66.70921 97.000
66.72916 88.000
66.74911 91.000
66.76905 85.000
66.78900 92.000
66.80895 92.000
66.82889 82.000
66.84884 85.000
66.86879 86.000
66.88874 87.000
66.90868 80.000
66.92863 96.000
66.94858 73.000
66.96852 100.000
66.98847 90.000
67.00842 70.000
67.02836 93.000
67.04831 85.000
67.06826 83.000
67.08820 73.000
67.10815 76.000
67.12810 111.000
67.14805 100.000
67.16799 88.000
67.18794 81.000
67.20789 79.000
67.22783 86.000
67.24778 98.000
67.26773 81.000
67.28767 90.000
67.30762 85.000
67.32757 79.000
67.34752 93.000
67.36746 102.000
67.38741 99.000
67.40736 101.000
67.42730 78.000
67.44725 82.000
67.46720 88.000
67.48714 95.000
67.50709 90.000
67.52704 105.000
67.54698 100.000
67.56693 69.000
67.58688 99.000
67.60683 98.000
67.62677 92.000
67.64672 99.000
67.66667 90.000
67.68661 98.000
67.70656 104.000
67.72651 85.000
67.74645 121.000
67.76640 88.000
67.78635 76.000
67.80630 80.000
67.82624 88.000
67.84619 120.000
67.86614 101.000
67.88608 116.000
67.90603 90.000
67.92598 116.000
67.94592 121.000
67.96587 127.000
67.98582 107.000
68.00576 106.000
68.02571 119.000
68.04566 128.000
68.06561 114.000
68.08555 122.000
68.10550 128.000
68.12545 109.000
68.14539 125.000
68.16534 116.000
68.18529 144.000
68.20523 115.000
68.22518 133.000
68.24513 126.000
68.26508 157.000
68.28502 137.000
68.30497 147.000
68.32492 151.000
68.34486 155.000
68.36481 153.000
68.38476 149.000
68.40470 152.000
68.42465 190.000
68.44460 135.000
68.46455 145.000
68.48449 140.000
68.50444 117.000
68.52439 103.000
68.54433 130.000
68.56428 125.000
68.58423 118.000
68.60417 144.000
68.62412 129.000
68.64407 100.000
68.66401 109.000
68.68396 107.000
68.70391 122.000
68.72386 91.000
68.74380 61.000
68.76375 95.000
68.78370 112.000
68.80364 67.000
68.82359 96.000
68.84354 91.000
68.86348 90.000
68.88343 92.000
68.90338 92.000
68.92333 86.000
68.94327 95.000
68.96322 94.000
68.98317 80.000
69.00311 83.000
69.02306 74.000
69.04301 75.000
69.06295 90.000
69.08290 81.000
69.10285 93.000
69.12279 85.000
69.14274 81.000
69.16269 94.000
69.18264 80.000
69.20258 99.000
69.22253 81.000
69.24248 74.000
69.26242 67.000
69.28237 74.000
69.30232 75.000
69.32226 83.000
69.34221 94.000
69.36216 81.000
69.38211 69.000
69.40205 77.000
69.42200 85.000
69.44195 85.000
69.46189 77.000
69.48184 107.000
69.50179 104.000
69.52173 65.000
69.54168 110.000
69.56163 76.000
69.58157 79.000
69.60152 103.000
69.62147 84.000
69.64142 81.000
69.66136 92.000
69.68131 92.000
69.70126 93.000
69.72120 82.000
69.74115 107.000
69.76110 114.000
69.78104 113.000
69.80099 102.000
69.82094 100.000
69.84089 91.000
69.86083 107.000
69.88078 99.000
69.90073 109.000
69.92067 117.000
69.94062 85.000
69.96057 105.000
69.98051 101.000
70.00046 103.000
70.02041 83.000
70.04035 96.000
70.06030 95.000
70.08025 96.000
70.10020 94.000
70.12014 108.000
70.14009 95.000
70.16004 126.000
70.17998 95.000
70.19993 86.000
70.21988 96.000
70.23982 80.000
70.25977 74.000
70.27972 85.000
70.29967 78.000
70.31961 74.000
70.33956 83.000
70.35951 100.000
70.37945 86.000
70.39940 99.000
70.41935 79.000
70.43929 80.000
70.45924 82.000
70.47919 62.000
70.49914 67.000
70.51908 72.000
70.53903 88.000
70.55898 87.000
70.57892 74.000
70.59887 93.000
70.61882 75.000
70.63876 68.000
70.65871 71.000
70.67866 83.000
70.69860 89.000
70.71855 72.000
70.73850 61.000
70.75845 79.000
70.77839 71.000
70.79834 59.000
70.81829 84.000
70.83823 83.000
70.85818 85.000
70.87813 79.000
70.89807 83.000
70.91802 81.000
70.93797 84.000
70.95792 96.000
70.97786 85.000
70.99781 106.000
71.01776 102.000
71.03770 82.000
71.05765 85.000
71.07760 83.000
71.09754 93.000
71.11749 95.000
71.13744 83.000
71.15738 92.000
71.17733 105.000
71.19728 110.000
71.21723 86.000
71.23717 101.000
71.25712 92.000
71.27707 97.000
71.29701 107.000
71.31696 97.000
71.33691 109.000
71.35685 99.000
71.37680 102.000
71.39675 105.000
71.41670 93.000
71.43664 69.000
71.45659 92.000
71.47654 114.000
71.49648 98.000
71.51643 120.000
71.53638 83.000
71.55632 105.000
71.57627 122.000
71.59622 94.000
71.61616 99.000
71.63611 96.000
71.65606 109.000
71.67601 97.000
71.69595 99.000
71.71590 88.000
71.73585 106.000
71.75579 96.000
71.77574 90.000
71.79569 101.000
71.81563 102.000
71.83558 104.000
71.85553 110.000
71.87548 119.000
71.89542 135.000
71.91537 144.000
71.93532 159.000
71.95526 163.000
71.97521 147.000
71.99516 145.000
72.01510 169.000
72.03505 150.000
72.05500 167.000
72.07495 145.000
72.09489 147.000
72.11484 154.000
72.13479 166.000
72.15473 162.000
72.17468 161.000
72.19463 145.000
72.21457 163.000
72.23452 143.000
72.25447 142.000
72.27441 153.000
72.29436 123.000
72.31431 116.000
72.33426 135.000
72.35420 118.000
72.37415 119.000
72.39410 115.000
72.41404 119.000
72.43399 104.000
72.45394 110.000
72.47388 118.000
72.49383 98.000
72.51378 102.000
72.53373 106.000
72.55367 99.000
72.57362 112.000
72.59357 116.000
72.61351 104.000
72.63346 104.000
72.65341 104.000
72.67335 105.000
72.69330 110.000
72.71325 98.000
72.73319 105.000
72.75314 98.000
72.77309 106.000
72.79304 90.000
72.81298 91.000
72.83293 83.000
72.85288 108.000
72.87282 103.000
72.89277 85.000
72.91272 84.000
72.93266 79.000
72.95261 89.000
72.97256 83.000
72.99251 98.000
73.01245 109.000
73.03240 99.000
73.05235 88.000
73.07229 107.000
73.09224 97.000
73.11219 93.000
73.13213 116.000
73.15208 111.000
73.17203 102.000
73.19197 94.000
73.21192 83.000
73.23187 100.000
73.25182 95.000
73.27176 92.000
73.29171 96.000
73.31166 81.000
73.33160 112.000
73.35155 90.000
73.37150 81.000
73.39144 100.000
73.41139 103.000
73.43134 104.000
73.45129 99.000
73.47123 99.000
73.49118 97.000
73.51113 91.000
73.53107 99.000
73.55102 107.000
73.57097 87.000
73.59091 96.000
73.61086 91.000
73.63081 108.000
73.65076 107.000
73.67070 99.000
73.69065 118.000
73.71060 118.000
73.73054 123.000
73.75049 114.000
73.77044 116.000
73.79038 121.000
73.81033 127.000
73.83028 103.000
73.85022 134.000
73.87017 140.000
73.89012 128.000
73.91007 117.000
73.93001 144.000
73.94996 134.000
73.96991 143.000
73.98985 149.000
74.00980 147.000
74.02975 118.000
74.04969 126.000
74.06964 117.000
74.08959 135.000
74.10954 135.000
74.12948 152.000
74.14943 160.000
74.16938 134.000
74.18932 166.000
74.20927 160.000
74.22922 151.000
74.24916 159.000
74.26911 170.000
74.28906 149.000
74.30900 153.000
74.32895 130.000
74.34890 138.000
74.36885 146.000
74.38879 147.000
74.40874 163.000
74.42869 153.000
74.44863 131.000
74.46858 128.000
74.48853 136.000
74.50847 133.000
74.52842 119.000
74.54837 120.000
74.56832 118.000
74.58826 110.000
74.60821 112.000
74.62816 120.000
74.64810 103.000
74.66805 93.000
74.68800 100.000
74.70794 118.000
74.72789 114.000
74.74784 103.000
74.76778 95.000
74.78773 110.000
74.80768 90.000
74.82763 93.000
74.84757 96.000
74.86752 97.000
74.88747 87.000
74.90741 104.000
74.92736 111.000
74.94731 87.000
74.96725 95.000
74.98720 89.000
75.00715 93.000
75.02710 85.000
75.04704 97.000
75.06699 91.000
75.08694 91.000
75.10688 112.000
75.12683 111.000
75.14678 107.000
75.16672 98.000
75.18667 88.000
75.20662 102.000
75.22657 88.000
75.24651 130.000
75.26646 105.000
75.28641 100.000
75.30635 89.000
75.32630 85.000
75.34625 116.000
75.36619 93.000
75.38614 76.000
75.40609 106.000
75.42603 101.000
75.44598 99.000
75.46593 89.000
75.48588 107.000
75.50582 107.000
75.52577 100.000
75.54572 108.000
75.56566 90.000
75.58561 103.000
75.60556 92.000
75.62550 75.000
75.64545 87.000
75.66540 95.000
75.68535 76.000
75.70529 62.000
75.72524 101.000
75.74519 98.000
75.76513 95.000
75.78508 80.000
75.80503 93.000
75.82497 76.000
75.84492 83.000
75.86487 82.000
75.88481 83.000
75.90476 87.000
75.92471 94.000
75.94466 70.000
75.96460 75.000
75.98455 82.000
76.00450 83.000
76.02444 70.000
76.04439 75.000
76.06434 62.000
76.08428 77.000
76.10423 96.000
76.12418 93.000
76.14413 80.000
76.16407 65.000
76.18402 76.000
76.20397 86.000
76.22391 77.000
76.24386 87.000
76.26381 80.000
76.28375 63.000
76.30370 73.000
76.32365 81.000
76.34359 84.000
76.36354 81.000
76.38349 78.000
76.40344 95.000
76.42338 91.000
76.44333 78.000
76.46328 82.000
76.48322 79.000
76.50317 97.000
76.52312 70.000
76.54306 93.000
76.56301 72.000
76.58296 96.000
76.60291 91.000
76.62285 80.000
76.64280 73.000
76.66275 103.000
76.68269 89.000
76.70264 84.000
76.72259 96.000
76.74253 88.000
76.76248 88.000
76.78243 94.000
76.80238 93.000
76.82232 98.000
76.84227 113.000
76.86222 96.000
76.88216 138.000
76.90211 119.000
76.92206 128.000
76.94200 135.000
76.96195 138.000
76.98190 140.000
77.00184 150.000
77.02179 144.000
77.04174 126.000
77.06169 158.000
77.08163 139.000
77.10158 144.000
77.12153 146.000
77.14147 146.000
77.16142 137.000
77.18137 143.000
77.20131 166.000
77.22126 135.000
77.24121 111.000
77.26116 112.000
77.28110 127.000
77.30105 123.000
77.32100 133.000
77.34094 119.000
77.36089 141.000
77.38084 111.000
77.40078 121.000
77.42073 114.000
77.44068 118.000
77.46062 97.000
77.48057 98.000
77.50052 108.000
77.52047 92.000
77.54041 86.000
77.56036 115.000
77.58031 95.000
77.60025 108.000
77.62020 97.000
77.64015 87.000
77.66009 95.000
77.68004 96.000
77.69999 90.000
77.71994 85.000
77.73988 108.000
77.75983 86.000
77.77978 86.000
77.79972 98.000
77.81967 80.000
77.83962 92.000
77.85956 83.000
77.87951 87.000
77.89946 87.000
77.91940 73.000
77.93935 75.000
77.95930 97.000
77.97925 85.000
77.99919 79.000
78.01914 85.000
78.03909 82.000
78.05903 66.000
78.07898 92.000
78.09893 89.000
78.11887 91.000
78.13882 97.000
78.15877 84.000
78.17872 72.000
78.19866 81.000
78.21861 96.000
78.23856 86.000
78.25850 81.000
78.27845 88.000
78.29840 70.000
78.31834 75.000
78.33829 71.000
78.35824 65.000
78.37819 79.000
78.39813 70.000
78.41808 94.000
78.43803 70.000
78.45797 73.000
78.47792 77.000
78.49787 76.000
78.51781 85.000
78.53776 68.000
78.55771 67.000
78.57765 77.000
78.59760 71.000
78.61755 67.000
78.63750 65.000
78.65744 60.000
78.67739 77.000
78.69734 73.000
78.71728 80.000
78.73723 90.000
78.75718 66.000
78.77712 88.000
78.79707 64.000
78.81702 87.000
78.83697 53.000
78.85691 71.000
78.87686 85.000
78.89681 80.000
78.91675 67.000
78.93670 98.000
78.95665 77.000
78.97659 61.000
78.99654 93.000
79.01649 77.000
79.03643 74.000
79.05638 71.000
79.07633 79.000
79.09628 84.000
79.11622 89.000
79.13617 81.000
79.15612 88.000
79.17606 76.000
79.19601 78.000
79.21596 99.000
79.23590 75.000
79.25585 90.000
79.27580 76.000
79.29575 81.000
79.31569 108.000
79.33564 80.000
79.35559 108.000
79.37553 90.000
79.39548 90.000
79.41543 86.000
79.43537 92.000
79.45532 90.000
79.47527 91.000
79.49521 107.000
79.51516 85.000
79.53511 94.000
79.55506 76.000
79.57500 102.000
79.59495 91.000
79.61490 85.000
79.63484 81.000
79.65479 74.000
79.67474 83.000
79.69468 104.000
79.71463 79.000
79.73458 74.000
79.75453 101.000
79.77447 69.000
79.79442 74.000
79.81437 89.000
79.83431 65.000
79.85426 73.000
79.87421 74.000
79.89415 75.000
79.91410 91.000
79.93405 77.000
79.95399 73.000
79.97394 83.000
79.99389 84.000
80.01384 76.000
80.03378 88.000
80.05373 80.000
80.07368 62.000
80.09362 74.000
80.11357 47.000
80.13352 86.000
80.15346 91.000
80.17341 91.000
80.19336 100.000
80.21331 80.000
80.23325 84.000
80.25320 88.000
80.27315 94.000
80.29309 72.000
80.31304 62.000
80.33299 71.000
80.35293 61.000
80.37288 81.000
80.39283 83.000
80.41278 95.000
80.43272 76.000
80.45267 74.000
80.47262 67.000
80.49256 85.000
80.51251 85.000
80.53246 82.000
80.55240 82.000
80.57235 77.000
80.59230 64.000
80.61224 75.000
80.63219 77.000
80.65214 76.000
80.67209 86.000
80.69203 82.000
80.71198 67.000
80.73193 64.000
80.75187 88.000
80.77182 91.000
80.79177 65.000
80.81171 68.000
80.83166 85.000
80.85161 86.000
80.87156 84.000
80.89150 90.000
80.91145 94.000
80.93140 72.000
80.95134 91.000
80.97129 83.000
80.99124 63.000
81.01118 79.000
81.03113 90.000
81.05108 81.000
81.07102 91.000
81.09097 71.000
81.11092 75.000
81.13087 75.000
81.15081 91.000
81.17076 69.000
81.19071 64.000
81.21065 74.000
81.23060 80.000
81.25055 86.000
81.27049 71.000
81.29044 82.000
81.31039 68.000
81.33034 67.000
81.35028 80.000
81.37023 81.000
81.39018 67.000
81.41012 86.000
81.43007 70.000
81.45002 83.000
81.46996 81.000
81.48991 81.000
81.50986 72.000
81.52980 77.000
81.54975 70.000
81.56970 81.000
81.58965 81.000
81.60959 70.000
81.62954 70.000
81.64949 63.000
81.66943 75.000
81.68938 75.000
81.70933 74.000
81.72927 65.000
81.74922 65.000
81.76917 77.000
81.78912 92.000
81.80906 76.000
81.82901 93.000
81.84896 80.000
81.86890 86.000
81.88885 75.000
81.90880 80.000
81.92874 78.000
81.94869 70.000
81.96864 82.000
81.98859 84.000
82.00853 66.000
82.02848 69.000
82.04843 80.000
82.06837 85.000
82.08832 78.000
82.10827 94.000
82.12821 76.000
82.14816 68.000
82.16811 85.000
82.18805 88.000
82.20800 82.000
82.22795 78.000
82.24790 77.000
82.26784 79.000
82.28779 75.000
82.30774 74.000
82.32768 82.000
82.34763 73.000
82.36758 84.000
82.38752 66.000
82.40747 93.000
82.42742 81.000
82.44737 85.000
82.46731 95.000
82.48726 85.000
82.50721 80.000
82.52715 80.000
82.54710 81.000
82.56705 72.000
82.58699 76.000
82.60694 84.000
82.62689 82.000
82.64683 93.000
82.66678 74.000
82.68673 84.000
82.70668 77.000
82.72662 79.000
82.74657 73.000
82.76652 66.000
82.78646 83.000
82.80641 78.000
82.82636 81.000
82.84630 84.000
82.86625 92.000
82.88620 78.000
82.90615 77.000
82.92609 76.000
82.94604 80.000
82.96599 77.000
82.98593 80.000
83.00588 88.000
83.02583 86.000
83.04577 85.000
83.06572 68.000
83.08567 82.000
83.10561 72.000
83.12556 82.000
83.14551 77.000
83.16546 84.000
83.18540 81.000
83.20535 75.000
83.22530 86.000
83.24524 83.000
83.26519 68.000
83.28514 87.000
83.30508 78.000
83.32503 63.000
83.34498 79.000
83.36493 72.000
83.38487 72.000
83.40482 91.000
83.42477 82.000
83.44471 83.000
83.46466 78.000
83.48461 83.000
83.50455 73.000
83.52450 72.000
83.54445 85.000
83.56440 93.000
83.58434 101.000
83.60429 96.000
83.62424 73.000
83.64418 71.000
83.66413 75.000
83.68408 83.000
83.70402 73.000
83.72397 81.000
83.74392 83.000
83.76386 85.000
83.78381 86.000
83.80376 100.000
83.82371 73.000
83.84365 97.000
83.86360 84.000
83.88355 82.000
83.90349 91.000
83.92344 65.000
83.94339 78.000
83.96333 104.000
83.98328 87.000
84.00323 89.000
84.02318 82.000
84.04312 78.000
84.06307 91.000
84.08302 80.000
84.10296 96.000
84.12291 93.000
84.14286 78.000
84.16280 84.000
84.18275 86.000
84.20270 88.000
84.22264 87.000
84.24259 85.000
84.26254 83.000
84.28249 93.000
84.30243 93.000
84.32238 88.000
84.34233 72.000
84.36227 91.000
84.38222 67.000
84.40217 82.000
84.42211 69.000
84.44206 84.000
84.46201 88.000
84.48196 75.000
84.50190 71.000
84.52185 86.000
84.54180 81.000
84.56174 74.000
84.58169 82.000
84.60164 71.000
84.62158 68.000
84.64153 74.000
84.66148 71.000
84.68142 81.000
84.70137 63.000
84.72132 73.000
84.74127 81.000
84.76121 102.000
84.78116 86.000
84.80111 82.000
84.82105 71.000
84.84100 62.000
84.86095 72.000
84.88089 77.000
84.90084 74.000
84.92079 74.000
84.94074 73.000
84.96068 73.000
84.98063 73.000
85.00058 67.000
85.02052 66.000
85.04047 79.000
85.06042 81.000
85.08036 91.000
85.10031 80.000
85.12026 95.000
85.14021 98.000
85.16015 80.000
85.18010 83.000
85.20005 74.000
85.21999 81.000
85.23994 74.000
85.25989 85.000
85.27983 83.000
85.29978 74.000
85.31973 90.000
85.33967 75.000
85.35962 60.000
85.37957 65.000
85.39952 81.000
85.41946 75.000
85.43941 75.000
85.45936 91.000
85.47930 83.000
85.49925 95.000
85.51920 78.000
85.53914 72.000
85.55909 83.000
85.57904 91.000
85.59899 101.000
85.61893 81.000
85.63888 92.000
85.65883 92.000
85.67877 79.000
85.69872 96.000
85.71867 94.000
85.73861 98.000
85.75856 83.000
85.77851 104.000
85.79845 90.000
85.81840 76.000
85.83835 88.000
85.85830 100.000
85.87824 78.000
85.89819 96.000
85.91814 91.000
85.93808 83.000
85.95803 76.000
85.97798 97.000
85.99792 99.000
86.01787 97.000
86.03782 98.000
86.05777 85.000
86.07771 78.000
86.09766 82.000
86.11761 81.000
86.13755 84.000
86.15750 90.000
86.17745 86.000
86.19739 89.000
86.21734 64.000
86.23729 99.000
86.25723 87.000
86.27718 76.000
86.29713 90.000
86.31708 71.000
86.33702 83.000
86.35697 69.000
86.37692 98.000
86.39686 87.000
86.41681 98.000
86.43676 69.000
86.45670 72.000
86.47665 68.000
86.49660 91.000
86.51655 95.000
86.53649 92.000
86.55644 85.000
86.57639 87.000
86.59633 65.000
86.61628 70.000
86.63623 100.000
86.65617 84.000
86.67612 101.000
86.69607 109.000
86.71602 96.000
86.73596 65.000
86.75591 94.000
86.77586 70.000
86.79580 65.000
86.81575 98.000
86.83570 87.000
86.85564 78.000
86.87559 77.000
86.89554 74.000
86.91548 86.000
86.93543 95.000
86.95538 83.000
86.97533 95.000
86.99527 81.000
87.01522 96.000
87.03517 89.000
87.05511 90.000
87.07506 98.000
87.09501 74.000
87.11495 75.000
87.13490 90.000
87.15485 94.000
87.17480 84.000
87.19474 106.000
87.21469 96.000
87.23464 101.000
87.25458 82.000
87.27453 91.000
87.29448 100.000
87.31442 86.000
87.33437 85.000
87.35432 86.000
87.37426 92.000
87.39421 84.000
87.41416 89.000
87.43411 90.000
87.45405 99.000
87.47400 90.000
87.49395 89.000
87.51389 81.000
87.53384 92.000
87.55379 87.000
87.57373 77.000
87.59368 76.000
87.61363 81.000
87.63358 80.000
87.65352 104.000
87.67347 88.000
87.69342 84.000
87.71336 57.000
87.73331 90.000
87.75326 88.000
87.77320 76.000
87.79315 79.000
87.81310 61.000
87.83304 82.000
87.85299 81.000
87.87294 82.000
87.89289 71.000
87.91283 103.000
87.93278 65.000
87.95273 81.000
87.97267 81.000
87.99262 67.000
88.01257 83.000
88.03251 90.000
88.05246 87.000
88.07241 75.000
88.09236 75.000
88.11230 80.000
88.13225 81.000
88.15220 89.000
88.17214 73.000
88.19209 75.000
88.21204 83.000
88.23198 76.000
88.25193 68.000
88.27188 69.000
88.29183 78.000
88.31177 84.000
88.33172 76.000
88.35167 85.000
88.37161 76.000
88.39156 89.000
88.41151 80.000
88.43145 91.000
88.45140 72.000
88.47135 80.000
88.49129 69.000
88.51124 76.000
88.53119 74.000
88.55114 71.000
88.57108 83.000
88.59103 83.000
88.61098 63.000
88.63092 89.000
88.65087 76.000
88.67082 68.000
88.69076 78.000
88.71071 67.000
88.73066 77.000
88.75061 77.000
88.77055 76.000
88.79050 74.000
88.81045 75.000
88.83039 69.000
88.85034 90.000
88.87029 68.000
88.89023 78.000
88.91018 76.000
88.93013 58.000
88.95007 83.000
88.97002 90.000
88.98997 69.000
89.00992 81.000
89.02986 69.000
89.04981 74.000
89.06976 78.000
89.08970 85.000
89.10965 100.000
89.12960 60.000
89.14954 66.000
89.16949 76.000
89.18944 81.000
89.20939 95.000
89.22933 97.000
89.24928 78.000
89.26923 108.000
89.28917 92.000
89.30912 102.000
89.32907 83.000
89.34901 90.000
89.36896 87.000
89.38891 107.000
89.40885 94.000
89.42880 97.000
89.44875 108.000
89.46870 107.000
89.48864 98.000
89.50859 90.000
89.52854 92.000
89.54848 124.000
89.56843 124.000
89.58838 103.000
89.60832 150.000
89.62827 141.000
89.64822 133.000
89.66817 145.000
89.68811 120.000
89.70806 160.000
89.72801 115.000
89.74795 124.000
89.76790 133.000
89.78785 137.000
89.80779 124.000
89.82774 140.000
89.84769 113.000
89.86764 114.000
89.88758 122.000
89.90753 144.000
89.92748 132.000
89.94742 149.000
89.96737 137.000
89.98732 157.000
90.00726 139.000
