10.00000 222.000
10.01995 203.000
10.03989 222.000
10.05984 183.000
10.07979 214.000
10.09973 230.000
10.11968 225.000
10.13963 197.000
10.15958 223.000
10.17952 194.000
10.19947 210.000
10.21942 201.000
10.23936 214.000
10.25931 215.000
10.27926 205.000
10.29920 231.000
10.31915 201.000
10.33910 199.000
10.35905 216.000
10.37899 218.000
10.39894 191.000
10.41889 182.000
10.43883 238.000
10.45878 170.000
10.47873 211.000
10.49867 206.000
10.51862 201.000
10.53857 215.000
10.55851 215.000
10.57846 196.000
10.59841 195.000
10.61836 207.000
10.63830 222.000
10.65825 224.000
10.67820 228.000
10.69814 213.000
10.71809 191.000
10.73804 200.000
10.75798 241.000
10.77793 221.000
10.79788 224.000
10.81783 239.000
10.83777 218.000
10.85772 223.000
10.87767 221.000
10.89761 178.000
10.91756 220.000
10.93751 232.000
10.95745 241.000
10.97740 201.000
10.99735 218.000
11.01730 205.000
11.03724 197.000
11.05719 219.000
11.07714 193.000
11.09708 231.000
11.11703 239.000
11.13698 231.000
11.15692 228.000
11.17687 197.000
11.19682 217.000
11.21676 205.000
11.23671 227.000
11.25666 213.000
11.27661 187.000
11.29655 201.000
11.31650 198.000
11.33645 215.000
11.35639 207.000
11.37634 202.000
11.39629 232.000
11.41623 221.000
11.43618 219.000
11.45613 197.000
11.47608 209.000
11.49602 207.000
11.51597 208.000
11.53592 216.000
11.55586 232.000
11.57581 211.000
11.59576 189.000
11.61570 220.000
11.63565 220.000
11.65560 210.000
11.67554 208.000
11.69549 222.000
11.71544 203.000
11.73539 226.000
11.75533 232.000
11.77528 235.000
11.79523 204.000
11.81517 237.000
11.83512 206.000
11.85507 209.000
11.87501 210.000
11.89496 229.000
11.91491 216.000
11.93486 239.000
11.95480 225.000
11.97475 223.000
11.99470 221.000
12.01464 190.000
12.03459 198.000
12.05454 221.000
12.07448 214.000
12.09443 232.000
12.11438 227.000
12.13432 216.000
12.15427 203.000
12.17422 183.000
12.19417 210.000
12.21411 221.000
12.23406 199.000
12.25401 210.000
12.27395 224.000
12.29390 207.000
12.31385 196.000
12.33379 224.000
12.35374 204.000
12.37369 223.000
12.39364 227.000
12.41358 218.000
12.43353 214.000
12.45348 209.000
12.47342 209.000
12.49337 198.000
12.51332 226.000
12.53326 208.000
12.55321 214.000
12.57316 232.000
12.59311 208.000
12.61305 205.000
12.63300 207.000
12.65295 225.000
12.67289 230.000
12.69284 218.000
12.71279 241.000
12.73273 207.000
12.75268 222.000
12.77263 184.000
12.79257 234.000
12.81252 234.000
12.83247 215.000
12.85242 225.000
12.87236 221.000
12.89231 242.000
12.91226 206.000
12.93220 198.000
12.95215 246.000
12.97210 241.000
12.99204 201.000
13.01199 209.000
13.03194 221.000
13.05189 222.000
13.07183 215.000
13.09178 220.000
13.11173 195.000
13.13167 191.000
13.15162 236.000
13.17157 214.000
13.19151 242.000
13.21146 199.000
13.23141 231.000
13.25135 208.000
13.27130 219.000
13.29125 242.000
13.31120 229.000
13.33114 216.000
13.35109 237.000
13.37104 203.000
13.39098 199.000
13.41093 217.000
13.43088 219.000
13.45082 210.000
13.47077 211.000
13.49072 217.000
13.51067 217.000
13.53061 222.000
13.55056 192.000
13.57051 231.000
13.59045 240.000
13.61040 197.000
13.63035 201.000
13.65029 204.000
13.67024 215.000
13.69019 204.000
13.71013 217.000
13.73008 225.000
13.75003 211.000
13.76998 232.000
13.78992 209.000
13.80987 221.000
13.82982 206.000
13.84976 210.000
13.86971 203.000
13.88966 218.000
13.90960 200.000
13.92955 221.000
13.94950 222.000
13.96945 217.000
13.98939 214.000
14.00934 226.000
14.02929 224.000
14.04923 228.000
14.06918 234.000
14.08913 211.000
14.10907 213.000
14.12902 203.000
14.14897 228.000
14.16892 222.000
14.18886 204.000
14.20881 235.000
14.22876 209.000
14.24870 245.000
14.26865 241.000
14.28860 215.000
14.30854 248.000
14.32849 221.000
14.34844 239.000
14.36838 228.000
14.38833 227.000
14.40828 230.000
14.42823 223.000
14.44817 235.000
14.46812 200.000
14.48807 246.000
14.50801 212.000
14.52796 224.000
14.54791 233.000
14.56785 203.000
14.58780 237.000
14.60775 247.000
14.62770 232.000
14.64764 225.000
14.66759 215.000
14.68754 240.000
14.70748 207.000
14.72743 246.000
14.74738 225.000
14.76732 221.000
14.78727 220.000
14.80722 220.000
14.82716 204.000
14.84711 236.000
14.86706 239.000
14.88701 236.000
14.90695 237.000
14.92690 217.000
14.94685 217.000
14.96679 247.000
14.98674 223.000
15.00669 231.000
15.02663 251.000
15.04658 231.000
15.06653 250.000
15.08648 252.000
15.10642 227.000
15.12637 248.000
15.14632 211.000
15.16626 231.000
15.18621 259.000
15.20616 241.000
15.22610 248.000
15.24605 268.000
15.26600 262.000
15.28594 259.000
15.30589 240.000
15.32584 272.000
15.34579 265.000
15.36573 281.000
15.38568 269.000
15.40563 270.000
15.42557 304.000
15.44552 284.000
15.46547 285.000
15.48541 291.000
15.50536 288.000
15.52531 298.000
15.54526 307.000
15.56520 340.000
15.58515 348.000
15.60510 384.000
15.62504 392.000
15.64499 467.000
15.66494 523.000
15.68488 577.000
15.70483 718.000
15.72478 992.000
15.74472 1296.000
15.76467 1836.000
15.78462 2701.000
15.80457 3902.000
15.82451 5047.000
15.84446 5112.000
15.86441 4136.000
15.88435 2742.000
15.90430 1665.000
15.92425 983.000
15.94419 693.000
15.96414 526.000
15.98409 412.000
16.00404 393.000
16.02398 399.000
16.04393 361.000
16.06388 350.000
16.08382 322.000
16.10377 297.000
16.12372 337.000
16.14366 288.000
16.16361 301.000
16.18356 261.000
16.20351 276.000
16.22345 247.000
16.24340 278.000
16.26335 258.000
16.28329 261.000
16.30324 264.000
16.32319 248.000
16.34313 265.000
16.36308 231.000
16.38303 226.000
16.40297 269.000
16.42292 270.000
16.44287 236.000
16.46282 253.000
16.48276 225.000
16.50271 249.000
16.52266 215.000
16.54260 257.000
16.56255 229.000
16.58250 253.000
16.60244 231.000
16.62239 236.000
16.64234 220.000
16.66229 260.000
16.68223 236.000
16.70218 219.000
16.72213 236.000
16.74207 234.000
16.76202 233.000
16.78197 226.000
16.80191 224.000
16.82186 236.000
16.84181 236.000
16.86175 246.000
16.88170 233.000
16.90165 213.000
16.92160 219.000
16.94154 237.000
16.96149 225.000
16.98144 247.000
17.00138 220.000
17.02133 224.000
17.04128 229.000
17.06122 241.000
17.08117 217.000
17.10112 227.000
17.12107 250.000
17.14101 217.000
17.16096 235.000
17.18091 229.000
17.20085 223.000
17.22080 207.000
17.24075 199.000
17.26069 233.000
17.28064 228.000
17.30059 221.000
17.32053 183.000
17.34048 213.000
17.36043 220.000
17.38038 237.000
17.40032 223.000
17.42027 206.000
17.44022 224.000
17.46016 209.000
17.48011 238.000
17.50006 204.000
17.52000 218.000
17.53995 229.000
17.55990 248.000
17.57985 234.000
17.59979 222.000
17.61974 220.000
17.63969 206.000
17.65963 211.000
17.67958 234.000
17.69953 224.000
17.71947 211.000
17.73942 248.000
17.75937 232.000
17.77932 221.000
17.79926 235.000
17.81921 203.000
17.83916 221.000
17.85910 226.000
17.87905 242.000
17.89900 215.000
17.91894 242.000
17.93889 226.000
17.95884 215.000
17.97878 235.000
17.99873 246.000
18.01868 208.000
18.03863 219.000
18.05857 220.000
18.07852 231.000
18.09847 218.000
18.11841 224.000
18.13836 239.000
18.15831 213.000
18.17825 221.000
18.19820 210.000
18.21815 230.000
18.23810 248.000
18.25804 230.000
18.27799 262.000
18.29794 295.000
18.31788 276.000
18.33783 309.000
18.35778 355.000
18.37772 431.000
18.39767 534.000
18.41762 591.000
18.43756 563.000
18.45751 557.000
18.47746 472.000
18.49741 402.000
18.51735 321.000
18.53730 300.000
18.55725 234.000
18.57719 216.000
18.59714 234.000
18.61709 246.000
18.63703 245.000
18.65698 251.000
18.67693 228.000
18.69688 222.000
18.71682 219.000
18.73677 215.000
18.75672 260.000
18.77666 229.000
18.79661 197.000
18.81656 223.000
18.83650 230.000
18.85645 232.000
18.87640 233.000
18.89634 210.000
18.91629 224.000
18.93624 213.000
18.95619 241.000
18.97613 215.000
18.99608 241.000
19.01603 217.000
19.03597 225.000
19.05592 208.000
19.07587 218.000
19.09581 206.000
19.11576 244.000
19.13571 232.000
19.15566 260.000
19.17560 225.000
19.19555 231.000
19.21550 240.000
19.23544 238.000
19.25539 235.000
19.27534 215.000
19.29528 205.000
19.31523 207.000
19.33518 234.000
19.35513 214.000
19.37507 200.000
19.39502 231.000
19.41497 183.000
19.43491 242.000
19.45486 234.000
19.47481 223.000
19.49475 198.000
19.51470 240.000
19.53465 228.000
19.55459 216.000
19.57454 206.000
19.59449 224.000
19.61444 217.000
19.63438 197.000
19.65433 197.000
19.67428 226.000
19.69422 208.000
19.71417 235.000
19.73412 228.000
19.75406 227.000
19.77401 230.000
19.79396 230.000
19.81391 227.000
19.83385 239.000
19.85380 221.000
19.87375 228.000
19.89369 235.000
19.91364 224.000
19.93359 224.000
19.95353 210.000
19.97348 232.000
19.99343 239.000
20.01337 207.000
20.03332 239.000
20.05327 265.000
20.07322 248.000
20.09316 216.000
20.11311 206.000
20.13306 219.000
20.15300 243.000
20.17295 204.000
20.19290 227.000
20.21284 251.000
20.23279 230.000
20.25274 204.000
20.27269 205.000
20.29263 223.000
20.31258 229.000
20.33253 245.000
20.35247 242.000
20.37242 244.000
20.39237 209.000
20.41231 223.000
20.43226 219.000
20.45221 227.000
20.47215 208.000
20.49210 239.000
20.51205 248.000
20.53200 219.000
20.55194 209.000
20.57189 197.000
20.59184 241.000
20.61178 221.000
20.63173 265.000
20.65168 216.000
20.67162 219.000
20.69157 235.000
20.71152 236.000
20.73147 218.000
20.75141 238.000
20.77136 230.000
20.79131 228.000
20.81125 235.000
20.83120 226.000
20.85115 244.000
20.87109 222.000
20.89104 224.000
20.91099 224.000
20.93094 229.000
20.95088 240.000
20.97083 232.000
20.99078 231.000
21.01072 211.000
21.03067 233.000
21.05062 276.000
21.07056 274.000
21.09051 278.000
21.11046 324.000
21.13040 330.000
21.15035 296.000
21.17030 271.000
21.19025 286.000
21.21019 259.000
21.23014 228.000
21.25009 258.000
21.27003 248.000
21.28998 234.000
21.30993 236.000
21.32987 231.000
21.34982 244.000
21.36977 235.000
21.38972 255.000
21.40966 249.000
21.42961 249.000
21.44956 219.000
21.46950 228.000
21.48945 217.000
21.50940 230.000
21.52934 231.000
21.54929 232.000
21.56924 226.000
21.58918 234.000
21.60913 221.000
21.62908 227.000
21.64903 231.000
21.66897 236.000
21.68892 252.000
21.70887 225.000
21.72881 205.000
21.74876 210.000
21.76871 245.000
21.78865 231.000
21.80860 220.000
21.82855 248.000
21.84850 237.000
21.86844 216.000
21.88839 234.000
21.90834 216.000
21.92828 215.000
21.94823 224.000
21.96818 225.000
21.98812 229.000
22.00807 208.000
22.02802 230.000
22.04796 235.000
22.06791 227.000
22.08786 250.000
22.10781 220.000
22.12775 259.000
22.14770 227.000
22.16765 241.000
22.18759 259.000
22.20754 204.000
22.22749 225.000
22.24743 282.000
22.26738 255.000
22.28733 210.000
22.30728 233.000
22.32722 242.000
22.34717 236.000
22.36712 251.000
22.38706 223.000
22.40701 245.000
22.42696 224.000
22.44690 232.000
22.46685 238.000
22.48680 212.000
22.50675 255.000
22.52669 215.000
22.54664 247.000
22.56659 242.000
22.58653 230.000
22.60648 246.000
22.62643 225.000
22.64637 203.000
22.66632 225.000
22.68627 215.000
22.70621 233.000
22.72616 228.000
22.74611 221.000
22.76606 214.000
22.78600 206.000
22.80595 218.000
22.82590 234.000
22.84584 224.000
22.86579 225.000
22.88574 260.000
22.90568 235.000
22.92563 230.000
22.94558 241.000
22.96553 228.000
22.98547 228.000
23.00542 227.000
23.02537 238.000
23.04531 255.000
23.06526 272.000
23.08521 214.000
23.10515 219.000
23.12510 251.000
23.14505 262.000
23.16499 238.000
23.18494 243.000
23.20489 215.000
23.22484 260.000
23.24478 210.000
23.26473 229.000
23.28468 245.000
23.30462 238.000
23.32457 228.000
23.34452 238.000
23.36446 236.000
23.38441 230.000
23.40436 234.000
23.42431 218.000
23.44425 242.000
23.46420 219.000
23.48415 246.000
23.50409 228.000
23.52404 225.000
23.54399 223.000
23.56393 243.000
23.58388 249.000
23.60383 219.000
23.62377 224.000
23.64372 237.000
23.66367 234.000
23.68362 253.000
23.70356 229.000
23.72351 217.000
23.74346 216.000
23.76340 257.000
23.78335 234.000
23.80330 261.000
23.82324 254.000
23.84319 255.000
23.86314 249.000
23.88309 231.000
23.90303 216.000
23.92298 256.000
23.94293 212.000
23.96287 225.000
23.98282 218.000
24.00277 230.000
24.02271 209.000
24.04266 224.000
24.06261 226.000
24.08256 280.000
24.10250 228.000
24.12245 249.000
24.14240 242.000
24.16234 212.000
24.18229 217.000
24.20224 231.000
24.22218 245.000
24.24213 249.000
24.26208 260.000
24.28202 225.000
24.30197 228.000
24.32192 222.000
24.34187 235.000
24.36181 232.000
24.38176 249.000
24.40171 226.000
24.42165 214.000
24.44160 245.000
24.46155 239.000
24.48149 213.000
24.50144 244.000
24.52139 233.000
24.54134 231.000
24.56128 254.000
24.58123 245.000
24.60118 235.000
24.62112 230.000
24.64107 235.000
24.66102 250.000
24.68096 253.000
24.70091 230.000
24.72086 212.000
24.74080 234.000
24.76075 236.000
24.78070 226.000
24.80065 216.000
24.82059 258.000
24.84054 221.000
24.86049 255.000
24.88043 242.000
24.90038 227.000
24.92033 246.000
24.94027 211.000
24.96022 252.000
24.98017 226.000
25.00012 259.000
25.02006 278.000
25.04001 224.000
25.05996 242.000
25.07990 231.000
25.09985 255.000
25.11980 226.000
25.13974 223.000
25.15969 257.000
25.17964 247.000
25.19958 237.000
25.21953 254.000
25.23948 228.000
25.25943 234.000
25.27937 235.000
25.29932 235.000
25.31927 264.000
25.33921 267.000
25.35916 230.000
25.37911 236.000
25.39905 242.000
25.41900 233.000
25.43895 249.000
25.45890 273.000
25.47884 234.000
25.49879 229.000
25.51874 258.000
25.53868 248.000
25.55863 239.000
25.57858 249.000
25.59852 245.000
25.61847 246.000
25.63842 241.000
25.65837 272.000
25.67831 252.000
25.69826 233.000
25.71821 267.000
25.73815 251.000
25.75810 240.000
25.77805 227.000
25.79799 202.000
25.81794 234.000
25.83789 255.000
25.85783 245.000
25.87778 258.000
25.89773 285.000
25.91768 219.000
25.93762 249.000
25.95757 261.000
25.97752 259.000
25.99746 263.000
26.01741 235.000
26.03736 228.000
26.05730 263.000
26.07725 256.000
26.09720 286.000
26.11715 285.000
26.13709 234.000
26.15704 240.000
26.17699 252.000
26.19693 243.000
26.21688 253.000
26.23683 219.000
26.25677 244.000
26.27672 246.000
26.29667 285.000
26.31661 234.000
26.33656 263.000
26.35651 234.000
26.37646 233.000
26.39640 257.000
26.41635 259.000
26.43630 244.000
26.45624 248.000
26.47619 239.000
26.49614 252.000
26.51608 253.000
26.53603 266.000
26.55598 250.000
26.57593 242.000
26.59587 221.000
26.61582 242.000
26.63577 283.000
26.65571 256.000
26.67566 230.000
26.69561 275.000
26.71555 267.000
26.73550 253.000
26.75545 234.000
26.77539 234.000
26.79534 251.000
26.81529 244.000
26.83524 235.000
26.85518 273.000
26.87513 263.000
26.89508 250.000
26.91502 240.000
26.93497 257.000
26.95492 255.000
26.97486 249.000
26.99481 250.000
27.01476 277.000
27.03471 245.000
27.05465 267.000
27.07460 247.000
27.09455 256.000
27.11449 262.000
27.13444 232.000
27.15439 278.000
27.17433 248.000
27.19428 236.000
27.21423 261.000
27.23417 256.000
27.25412 242.000
27.27407 245.000
27.29402 277.000
27.31396 261.000
27.33391 236.000
27.35386 261.000
27.37380 256.000
27.39375 249.000
27.41370 276.000
27.43364 245.000
27.45359 253.000
27.47354 236.000
27.49349 258.000
27.51343 232.000
27.53338 263.000
27.55333 239.000
27.57327 262.000
27.59322 253.000
27.61317 280.000
27.63311 251.000
27.65306 252.000
27.67301 241.000
27.69296 247.000
27.71290 234.000
27.73285 270.000
27.75280 253.000
27.77274 249.000
27.79269 249.000
27.81264 264.000
27.83258 281.000
27.85253 255.000
27.87248 243.000
27.89242 265.000
27.91237 251.000
27.93232 236.000
27.95227 277.000
27.97221 267.000
27.99216 291.000
28.01211 275.000
28.03205 241.000
28.05200 281.000
28.07195 279.000
28.09189 284.000
28.11184 257.000
28.13179 287.000
28.15174 269.000
28.17168 254.000
28.19163 278.000
28.21158 268.000
28.23152 246.000
28.25147 254.000
28.27142 272.000
28.29136 257.000
28.31131 273.000
28.33126 267.000
28.35120 261.000
28.37115 259.000
28.39110 284.000
28.41105 264.000
28.43099 261.000
28.45094 279.000
28.47089 273.000
28.49083 304.000
28.51078 288.000
28.53073 258.000
28.55067 279.000
28.57062 243.000
28.59057 254.000
28.61052 242.000
28.63046 258.000
28.65041 227.000
28.67036 252.000
28.69030 237.000
28.71025 265.000
28.73020 247.000
28.75014 261.000
28.77009 242.000
28.79004 256.000
28.80998 260.000
28.82993 265.000
28.84988 264.000
28.86983 276.000
28.88977 293.000
28.90972 256.000
28.92967 275.000
28.94961 251.000
28.96956 261.000
28.98951 259.000
29.00945 280.000
29.02940 279.000
29.04935 262.000
29.06930 263.000
29.08924 264.000
29.10919 274.000
29.12914 283.000
29.14908 303.000
29.16903 264.000
29.18898 263.000
29.20892 249.000
29.22887 267.000
29.24882 275.000
29.26877 248.000
29.28871 243.000
29.30866 304.000
29.32861 260.000
29.34855 253.000
29.36850 276.000
29.38845 268.000
29.40839 274.000
29.42834 254.000
29.44829 260.000
29.46823 279.000
29.48818 254.000
29.50813 267.000
29.52808 267.000
29.54802 301.000
29.56797 247.000
29.58792 286.000
29.60786 252.000
29.62781 257.000
29.64776 273.000
29.66770 258.000
29.68765 292.000
29.70760 285.000
29.72755 262.000
29.74749 260.000
29.76744 277.000
29.78739 272.000
29.80733 260.000
29.82728 295.000
29.84723 265.000
29.86717 285.000
29.88712 288.000
29.90707 269.000
29.92701 302.000
29.94696 266.000
29.96691 285.000
29.98686 271.000
30.00680 290.000
30.02675 250.000
30.04670 304.000
30.06664 280.000
30.08659 321.000
30.10654 336.000
30.12648 333.000
30.14643 328.000
30.16638 356.000
30.18633 389.000
30.20627 472.000
30.22622 501.000
30.24617 677.000
30.26611 864.000
30.28606 912.000
30.30601 879.000
30.32595 968.000
30.34590 966.000
30.36585 871.000
30.38579 772.000
30.40574 716.000
30.42569 541.000
30.44564 503.000
30.46558 426.000
30.48553 411.000
30.50548 377.000
30.52542 353.000
30.54537 314.000
30.56532 326.000
30.58526 309.000
30.60521 287.000
30.62516 282.000
30.64511 296.000
30.66505 258.000
30.68500 294.000
30.70495 313.000
30.72489 272.000
30.74484 264.000
30.76479 256.000
30.78473 281.000
30.80468 270.000
30.82463 287.000
30.84458 247.000
30.86452 285.000
30.88447 291.000
30.90442 268.000
30.92436 251.000
30.94431 239.000
30.96426 277.000
30.98420 284.000
31.00415 277.000
31.02410 277.000
31.04404 265.000
31.06399 300.000
31.08394 272.000
31.10389 297.000
31.12383 279.000
31.14378 281.000
31.16373 291.000
31.18367 254.000
31.20362 297.000
31.22357 294.000
31.24351 291.000
31.26346 292.000
31.28341 247.000
31.30336 287.000
31.32330 289.000
31.34325 255.000
31.36320 258.000
31.38314 267.000
31.40309 239.000
31.42304 279.000
31.44298 266.000
31.46293 233.000
31.48288 283.000
31.50282 281.000
31.52277 271.000
31.54272 299.000
31.56267 337.000
31.58261 273.000
31.60256 319.000
31.62251 300.000
31.64245 292.000
31.66240 305.000
31.68235 320.000
31.70229 288.000
31.72224 303.000
31.74219 295.000
31.76214 284.000
31.78208 322.000
31.80203 306.000
31.82198 306.000
31.84192 311.000
31.86187 371.000
31.88182 393.000
31.90176 441.000
31.92171 500.000
31.94166 542.000
31.96160 650.000
31.98155 691.000
32.00150 631.000
32.02145 580.000
32.04139 528.000
32.06134 501.000
32.08129 432.000
32.10123 367.000
32.12118 336.000
32.14113 350.000
32.16107 304.000
32.18102 304.000
32.20097 307.000
32.22092 303.000
32.24086 261.000
32.26081 290.000
32.28076 289.000
32.30070 272.000
32.32065 292.000
32.34060 300.000
32.36054 291.000
32.38049 285.000
32.40044 326.000
32.42039 283.000
32.44033 329.000
32.46028 303.000
32.48023 331.000
32.50017 337.000
32.52012 358.000
32.54007 344.000
32.56001 304.000
32.57996 314.000
32.59991 291.000
32.61985 288.000
32.63980 298.000
32.65975 273.000
32.67970 296.000
32.69964 273.000
32.71959 241.000
32.73954 264.000
32.75948 275.000
32.77943 237.000
32.79938 282.000
32.81932 286.000
32.83927 279.000
32.85922 257.000
32.87917 275.000
32.89911 284.000
32.91906 262.000
32.93901 279.000
32.95895 252.000
32.97890 276.000
32.99885 264.000
33.01879 267.000
33.03874 253.000
33.05869 288.000
33.07863 257.000
33.09858 252.000
33.11853 248.000
33.13848 250.000
33.15842 270.000
33.17837 248.000
33.19832 275.000
33.21826 248.000
33.23821 273.000
33.25816 261.000
33.27810 261.000
33.29805 301.000
33.31800 270.000
33.33795 262.000
33.35789 271.000
33.37784 231.000
33.39779 276.000
33.41773 304.000
33.43768 261.000
33.45763 278.000
33.47757 293.000
33.49752 282.000
33.51747 285.000
33.53741 270.000
33.55736 308.000
33.57731 276.000
33.59726 253.000
33.61720 282.000
33.63715 261.000
33.65710 292.000
33.67704 272.000
33.69699 273.000
33.71694 277.000
33.73688 256.000
33.75683 271.000
33.77678 253.000
33.79673 253.000
33.81667 271.000
33.83662 274.000
33.85657 272.000
33.87651 251.000
33.89646 271.000
33.91641 245.000
33.93635 266.000
33.95630 283.000
33.97625 277.000
33.99620 280.000
34.01614 271.000
34.03609 286.000
34.05604 284.000
34.07598 312.000
34.09593 235.000
34.11588 263.000
34.13582 268.000
34.15577 248.000
34.17572 285.000
34.19566 295.000
34.21561 285.000
34.23556 275.000
34.25551 288.000
34.27545 236.000
34.29540 255.000
34.31535 259.000
34.33529 285.000
34.35524 270.000
34.37519 283.000
34.39513 254.000
34.41508 287.000
34.43503 295.000
34.45498 278.000
34.47492 248.000
34.49487 256.000
34.51482 285.000
34.53476 250.000
34.55471 295.000
34.57466 311.000
34.59460 281.000
34.61455 283.000
34.63450 280.000
34.65444 297.000
34.67439 318.000
34.69434 290.000
34.71429 290.000
34.73423 302.000
34.75418 302.000
34.77413 295.000
34.79407 347.000
34.81402 335.000
34.83397 304.000
34.85391 344.000
34.87386 338.000
34.89381 283.000
34.91376 315.000
34.93370 350.000
34.95365 343.000
34.97360 315.000
34.99354 288.000
35.01349 315.000
35.03344 355.000
35.05338 338.000
35.07333 306.000
35.09328 349.000
35.11322 342.000
35.13317 349.000
35.15312 351.000
35.17307 328.000
35.19301 371.000
35.21296 421.000
35.23291 390.000
35.25285 372.000
35.27280 387.000
35.29275 414.000
35.31269 430.000
35.33264 477.000
35.35259 541.000
35.37254 569.000
35.39248 625.000
35.41243 742.000
35.43238 814.000
35.45232 881.000
35.47227 895.000
35.49222 1003.000
35.51216 1091.000
35.53211 1179.000
35.55206 1242.000
35.57201 1322.000
35.59195 1458.000
35.61190 1740.000
35.63185 2094.000
35.65179 2281.000
35.67174 2289.000
35.69169 2245.000
35.71163 2336.000
35.73158 2326.000
35.75153 2195.000
35.77147 1936.000
35.79142 1845.000
35.81137 1775.000
35.83132 1582.000
35.85126 1460.000
35.87121 1398.000
35.89116 1249.000
35.91110 1054.000
35.93105 907.000
35.95100 769.000
35.97094 702.000
35.99089 572.000
36.01084 569.000
36.03079 490.000
36.05073 421.000
36.07068 393.000
36.09063 385.000
36.11057 374.000
36.13052 353.000
36.15047 353.000
36.17041 325.000
36.19036 339.000
36.21031 293.000
36.23025 327.000
36.25020 292.000
36.27015 309.000
36.29010 315.000
36.31004 313.000
36.32999 354.000
36.34994 325.000
36.36988 325.000
36.38983 296.000
36.40978 295.000
36.42972 348.000
36.44967 324.000
36.46962 314.000
36.48957 325.000
36.50951 290.000
36.52946 296.000
36.54941 334.000
36.56935 334.000
36.58930 308.000
36.60925 305.000
36.62919 314.000
36.64914 282.000
36.66909 294.000
36.68903 337.000
36.70898 316.000
36.72893 306.000
36.74888 325.000
36.76882 351.000
36.78877 343.000
36.80872 350.000
36.82866 316.000
36.84861 356.000
36.86856 329.000
36.88850 333.000
36.90845 351.000
36.92840 325.000
36.94835 380.000
36.96829 349.000
36.98824 369.000
37.00819 425.000
37.02813 478.000
37.04808 538.000
37.06803 646.000
37.08797 812.000
37.10792 1071.000
37.12787 1147.000
37.14781 1184.000
37.16776 1165.000
37.18771 1076.000
37.20766 1012.000
37.22760 884.000
37.24755 939.000
37.26750 798.000
37.28744 693.000
37.30739 660.000
37.32734 511.000
37.34728 546.000
37.36723 505.000
37.38718 434.000
37.40713 457.000
37.42707 410.000
37.44702 452.000
37.46697 393.000
37.48691 372.000
37.50686 362.000
37.52681 327.000
37.54675 308.000
37.56670 327.000
37.58665 346.000
37.60660 287.000
37.62654 326.000
37.64649 311.000
37.66644 295.000
37.68638 290.000
37.70633 289.000
37.72628 310.000
37.74622 287.000
37.76617 301.000
37.78612 284.000
37.80606 293.000
37.82601 309.000
37.84596 274.000
37.86591 292.000
37.88585 306.000
37.90580 292.000
37.92575 297.000
37.94569 304.000
37.96564 282.000
37.98559 273.000
38.00553 279.000
38.02548 329.000
38.04543 292.000
38.06538 289.000
38.08532 315.000
38.10527 298.000
38.12522 286.000
38.14516 291.000
38.16511 310.000
38.18506 336.000
38.20500 321.000
38.22495 332.000
38.24490 334.000
38.26484 306.000
38.28479 330.000
38.30474 299.000
38.32469 348.000
38.34463 328.000
38.36458 333.000
38.38453 327.000
38.40447 352.000
38.42442 380.000
38.44437 378.000
38.46431 391.000
38.48426 377.000
38.50421 438.000
38.52416 458.000
38.54410 513.000
38.56405 523.000
38.58400 632.000
38.60394 700.000
38.62389 763.000
38.64384 816.000
38.66378 867.000
38.68373 846.000
38.70368 822.000
38.72362 834.000
38.74357 833.000
38.76352 795.000
38.78347 740.000
38.80341 725.000
38.82336 693.000
38.84331 667.000
38.86325 602.000
38.88320 545.000
38.90315 575.000
38.92309 537.000
38.94304 565.000
38.96299 523.000
38.98294 540.000
39.00288 487.000
39.02283 477.000
39.04278 485.000
39.06272 461.000
39.08267 445.000
39.10262 416.000
39.12256 422.000
39.14251 402.000
39.16246 418.000
39.18241 411.000
39.20235 415.000
39.22230 430.000
39.24225 437.000
39.26219 441.000
39.28214 472.000
39.30209 561.000
39.32203 562.000
39.34198 670.000
39.36193 796.000
39.38187 953.000
39.40182 1024.000
39.42177 1132.000
39.44172 1160.000
39.46166 1098.000
39.48161 1021.000
39.50156 939.000
39.52150 812.000
39.54145 847.000
39.56140 707.000
39.58134 627.000
39.60129 504.000
39.62124 425.000
39.64119 379.000
39.66113 384.000
39.68108 355.000
39.70103 330.000
39.72097 325.000
39.74092 342.000
39.76087 334.000
39.78081 337.000
39.80076 274.000
39.82071 295.000
39.84065 264.000
39.86060 282.000
39.88055 297.000
39.90050 294.000
39.92044 287.000
39.94039 261.000
39.96034 297.000
39.98028 306.000
40.00023 303.000
40.02018 274.000
40.04012 272.000
40.06007 275.000
40.08002 258.000
40.09997 244.000
40.11991 289.000
40.13986 261.000
40.15981 305.000
40.17975 274.000
40.19970 281.000
40.21965 296.000
40.23959 289.000
40.25954 275.000
40.27949 275.000
40.29943 263.000
40.31938 270.000
40.33933 251.000
40.35928 252.000
40.37922 257.000
40.39917 275.000
40.41912 269.000
40.43906 254.000
40.45901 264.000
40.47896 273.000
40.49890 261.000
40.51885 272.000
40.53880 259.000
40.55875 231.000
40.57869 269.000
40.59864 285.000
40.61859 237.000
40.63853 253.000
40.65848 255.000
40.67843 237.000
40.69837 270.000
40.71832 244.000
40.73827 234.000
40.75822 269.000
40.77816 259.000
40.79811 261.000
40.81806 259.000
40.83800 245.000
40.85795 250.000
40.87790 233.000
40.89784 276.000
40.91779 272.000
40.93774 275.000
40.95768 256.000
40.97763 231.000
40.99758 278.000
41.01753 258.000
41.03747 244.000
41.05742 266.000
41.07737 252.000
41.09731 256.000
41.11726 246.000
41.13721 257.000
41.15715 277.000
41.17710 231.000
41.19705 260.000
41.21700 257.000
41.23694 263.000
41.25689 265.000
41.27684 256.000
41.29678 244.000
41.31673 253.000
41.33668 266.000
41.35662 276.000
41.37657 246.000
41.39652 269.000
41.41646 273.000
41.43641 289.000
41.45636 226.000
41.47631 256.000
41.49625 243.000
41.51620 261.000
41.53615 294.000
41.55609 246.000
41.57604 269.000
41.59599 278.000
41.61593 253.000
41.63588 275.000
41.65583 270.000
41.67578 275.000
41.69572 257.000
41.71567 265.000
41.73562 273.000
41.75556 242.000
41.77551 270.000
41.79546 260.000
41.81540 260.000
41.83535 288.000
41.85530 264.000
41.87524 262.000
41.89519 258.000
41.91514 265.000
41.93509 272.000
41.95503 262.000
41.97498 268.000
41.99493 263.000
42.01487 249.000
42.03482 250.000
42.05477 275.000
42.07471 272.000
42.09466 241.000
42.11461 288.000
42.13456 293.000
42.15450 275.000
42.17445 226.000
42.19440 246.000
42.21434 264.000
42.23429 305.000
42.25424 276.000
42.27418 249.000
42.29413 223.000
42.31408 250.000
42.33403 267.000
42.35397 280.000
42.37392 276.000
42.39387 273.000
42.41381 295.000
42.43376 284.000
42.45371 257.000
42.47365 260.000
42.49360 274.000
42.51355 326.000
42.53349 285.000
42.55344 284.000
42.57339 279.000
42.59334 282.000
42.61328 290.000
42.63323 287.000
42.65318 303.000
42.67312 294.000
42.69307 293.000
42.71302 290.000
42.73296 289.000
42.75291 299.000
42.77286 318.000
42.79281 309.000
42.81275 357.000
42.83270 340.000
42.85265 360.000
42.87259 338.000
42.89254 388.000
42.91249 389.000
42.93243 434.000
42.95238 502.000
42.97233 499.000
42.99227 561.000
43.01222 599.000
43.03217 704.000
43.05212 704.000
43.07206 875.000
43.09201 954.000
43.11196 1088.000
43.13190 1157.000
43.15185 1194.000
43.17180 1268.000
43.19174 1193.000
43.21169 1233.000
43.23164 1253.000
43.25159 1156.000
43.27153 1199.000
43.29148 1120.000
43.31143 1149.000
43.33137 1096.000
43.35132 1023.000
43.37127 1008.000
43.39121 938.000
43.41116 928.000
43.43111 877.000
43.45105 894.000
43.47100 850.000
43.49095 863.000
43.51090 880.000
43.53084 806.000
43.55079 790.000
43.57074 670.000
43.59068 710.000
43.61063 599.000
43.63058 557.000
43.65052 524.000
43.67047 514.000
43.69042 432.000
43.71037 367.000
43.73031 370.000
43.75026 376.000
43.77021 337.000
43.79015 307.000
43.81010 322.000
43.83005 333.000
43.84999 313.000
43.86994 313.000
43.88989 281.000
43.90984 311.000
43.92978 305.000
43.94973 286.000
43.96968 315.000
43.98962 252.000
44.00957 281.000
44.02952 263.000
44.04946 279.000
44.06941 255.000
44.08936 259.000
44.10930 272.000
44.12925 287.000
44.14920 262.000
44.16915 277.000
44.18909 258.000
44.20904 224.000
44.22899 275.000
44.24893 293.000
44.26888 296.000
44.28883 236.000
44.30877 263.000
44.32872 256.000
44.34867 249.000
44.36862 274.000
44.38856 262.000
44.40851 252.000
44.42846 265.000
44.44840 260.000
44.46835 249.000
44.48830 250.000
44.50824 245.000
44.52819 257.000
44.54814 220.000
44.56808 282.000
44.58803 239.000
44.60798 268.000
44.62793 249.000
44.64787 284.000
44.66782 265.000
44.68777 260.000
44.70771 296.000
44.72766 243.000
44.74761 265.000
44.76755 266.000
44.78750 249.000
44.80745 249.000
44.82740 303.000
44.84734 225.000
44.86729 292.000
44.88724 263.000
44.90718 259.000
44.92713 252.000
44.94708 230.000
44.96702 282.000
44.98697 256.000
45.00692 258.000
45.02686 270.000
45.04681 291.000
45.06676 272.000
45.08671 253.000
45.10665 283.000
45.12660 279.000
45.14655 265.000
45.16649 285.000
45.18644 245.000
45.20639 256.000
45.22633 249.000
45.24628 257.000
45.26623 260.000
45.28618 262.000
45.30612 235.000
45.32607 261.000
45.34602 299.000
45.36596 260.000
45.38591 255.000
45.40586 297.000
45.42580 242.000
45.44575 265.000
45.46570 238.000
45.48565 248.000
45.50559 251.000
45.52554 237.000
45.54549 214.000
45.56543 257.000
45.58538 228.000
45.60533 260.000
45.62527 247.000
45.64522 255.000
45.66517 265.000
45.68511 267.000
45.70506 262.000
45.72501 257.000
45.74496 247.000
45.76490 292.000
45.78485 236.000
45.80480 247.000
45.82474 247.000
45.84469 256.000
45.86464 246.000
45.88458 242.000
45.90453 253.000
45.92448 243.000
45.94443 254.000
45.96437 285.000
45.98432 246.000
46.00427 245.000
46.02421 248.000
46.04416 267.000
46.06411 253.000
46.08405 239.000
46.10400 248.000
46.12395 235.000
46.14389 281.000
46.16384 288.000
46.18379 256.000
46.20374 289.000
46.22368 252.000
46.24363 260.000
46.26358 245.000
46.28352 286.000
46.30347 250.000
46.32342 272.000
46.34336 270.000
46.36331 237.000
46.38326 261.000
46.40321 249.000
46.42315 231.000
46.44310 273.000
46.46305 259.000
46.48299 240.000
46.50294 242.000
46.52289 224.000
46.54283 249.000
46.56278 256.000
46.58273 245.000
46.60267 249.000
46.62262 262.000
46.64257 257.000
46.66252 254.000
46.68246 236.000
46.70241 234.000
46.72236 254.000
46.74230 248.000
46.76225 226.000
46.78220 289.000
46.80214 262.000
46.82209 246.000
46.84204 252.000
46.86199 237.000
46.88193 239.000
46.90188 286.000
46.92183 244.000
46.94177 238.000
46.96172 266.000
46.98167 255.000
47.00161 235.000
47.02156 236.000
47.04151 254.000
47.06146 235.000
47.08140 239.000
47.10135 242.000
47.12130 271.000
47.14124 270.000
47.16119 250.000
47.18114 226.000
47.20108 237.000
47.22103 267.000
47.24098 247.000
47.26092 257.000
47.28087 235.000
47.30082 256.000
47.32077 239.000
47.34071 255.000
47.36066 259.000
47.38061 266.000
47.40055 260.000
47.42050 218.000
47.44045 271.000
47.46039 251.000
47.48034 251.000
47.50029 264.000
47.52024 239.000
47.54018 275.000
47.56013 242.000
47.58008 249.000
47.60002 252.000
47.61997 252.000
47.63992 287.000
47.65986 258.000
47.67981 257.000
47.69976 252.000
47.71970 280.000
47.73965 247.000
47.75960 233.000
47.77955 254.000
47.79949 267.000
47.81944 274.000
47.83939 241.000
47.85933 246.000
47.87928 280.000
47.89923 257.000
47.91917 245.000
47.93912 274.000
47.95907 247.000
47.97902 260.000
47.99896 295.000
48.01891 241.000
48.03886 245.000
48.05880 278.000
48.07875 245.000
48.09870 289.000
48.11864 285.000
48.13859 281.000
48.15854 261.000
48.17848 276.000
48.19843 248.000
48.21838 260.000
48.23833 279.000
48.25827 294.000
48.27822 283.000
48.29817 286.000
48.31811 260.000
48.33806 322.000
48.35801 279.000
48.37795 297.000
48.39790 294.000
48.41785 295.000
48.43780 342.000
48.45774 316.000
48.47769 314.000
48.49764 318.000
48.51758 363.000
48.53753 393.000
48.55748 350.000
48.57742 395.000
48.59737 439.000
48.61732 420.000
48.63726 476.000
48.65721 512.000
48.67716 553.000
48.69711 559.000
48.71705 740.000
48.73700 815.000
48.75695 881.000
48.77689 991.000
48.79684 1030.000
48.81679 1127.000
48.83673 1103.000
48.85668 1003.000
48.87663 901.000
48.89658 904.000
48.91652 900.000
48.93647 824.000
48.95642 757.000
48.97636 645.000
48.99631 587.000
49.01626 520.000
49.03620 485.000
49.05615 452.000
49.07610 412.000
49.09605 362.000
49.11599 359.000
49.13594 334.000
49.15589 331.000
49.17583 327.000
49.19578 278.000
49.21573 310.000
49.23567 339.000
49.25562 313.000
49.27557 260.000
49.29551 306.000
49.31546 296.000
49.33541 310.000
49.35536 289.000
49.37530 257.000
49.39525 280.000
49.41520 256.000
49.43514 284.000
49.45509 276.000
49.47504 279.000
49.49498 251.000
49.51493 241.000
49.53488 250.000
49.55483 259.000
49.57477 239.000
49.59472 288.000
49.61467 284.000
49.63461 250.000
49.65456 248.000
49.67451 252.000
49.69445 251.000
49.71440 263.000
49.73435 263.000
49.75429 240.000
49.77424 230.000
49.79419 257.000
49.81414 236.000
49.83408 265.000
49.85403 247.000
49.87398 253.000
49.89392 258.000
49.91387 248.000
49.93382 281.000
49.95376 238.000
49.97371 245.000
49.99366 269.000
50.01361 267.000
50.03355 250.000
50.05350 246.000
50.07345 248.000
50.09339 251.000
50.11334 231.000
50.13329 288.000
50.15323 222.000
50.17318 225.000
50.19313 268.000
50.21307 261.000
50.23302 254.000
50.25297 251.000
50.27292 237.000
50.29286 247.000
50.31281 241.000
50.33276 242.000
50.35270 234.000
50.37265 279.000
50.39260 265.000
50.41254 259.000
50.43249 256.000
50.45244 255.000
50.47239 263.000
50.49233 263.000
50.51228 227.000
50.53223 273.000
50.55217 262.000
50.57212 229.000
50.59207 248.000
50.61201 205.000
50.63196 239.000
50.65191 236.000
50.67186 211.000
50.69180 225.000
50.71175 240.000
50.73170 232.000
50.75164 228.000
50.77159 245.000
50.79154 232.000
50.81148 235.000
50.83143 262.000
50.85138 258.000
50.87132 231.000
50.89127 248.000
50.91122 261.000
50.93117 248.000
50.95111 233.000
50.97106 241.000
50.99101 254.000
51.01095 260.000
51.03090 243.000
51.05085 241.000
51.07079 240.000
51.09074 263.000
51.11069 246.000
51.13064 240.000
51.15058 240.000
51.17053 249.000
51.19048 222.000
51.21042 266.000
51.23037 264.000
51.25032 252.000
51.27026 251.000
51.29021 262.000
51.31016 273.000
51.33010 248.000
51.35005 236.000
51.37000 255.000
51.38995 277.000
51.40989 237.000
51.42984 258.000
51.44979 259.000
51.46973 251.000
51.48968 230.000
51.50963 251.000
51.52957 232.000
51.54952 260.000
51.56947 259.000
51.58942 276.000
51.60936 243.000
51.62931 295.000
51.64926 254.000
51.66920 236.000
51.68915 231.000
51.70910 221.000
51.72904 236.000
51.74899 235.000
51.76894 234.000
51.78888 251.000
51.80883 236.000
51.82878 236.000
51.84873 256.000
51.86867 263.000
51.88862 270.000
51.90857 227.000
51.92851 234.000
51.94846 248.000
51.96841 246.000
51.98835 248.000
52.00830 251.000
52.02825 245.000
52.04820 247.000
52.06814 273.000
52.08809 233.000
52.10804 229.000
52.12798 217.000
52.14793 238.000
52.16788 255.000
52.18782 237.000
52.20777 232.000
52.22772 280.000
52.24767 255.000
52.26761 230.000
52.28756 241.000
52.30751 243.000
52.32745 249.000
52.34740 240.000
52.36735 240.000
52.38729 261.000
52.40724 237.000
52.42719 239.000
52.44713 223.000
52.46708 237.000
52.48703 251.000
52.50698 266.000
52.52692 260.000
52.54687 236.000
52.56682 243.000
52.58676 282.000
52.60671 250.000
52.62666 238.000
52.64660 217.000
52.66655 224.000
52.68650 273.000
52.70645 273.000
52.72639 219.000
52.74634 241.000
52.76629 258.000
52.78623 246.000
52.80618 242.000
52.82613 294.000
52.84607 244.000
52.86602 248.000
52.88597 250.000
52.90591 242.000
52.92586 251.000
52.94581 251.000
52.96576 247.000
52.98570 230.000
53.00565 258.000
53.02560 262.000
53.04554 233.000
53.06549 242.000
53.08544 255.000
53.10538 282.000
53.12533 277.000
53.14528 263.000
53.16523 276.000
53.18517 194.000
53.20512 247.000
53.22507 236.000
53.24501 261.000
53.26496 267.000
53.28491 244.000
53.30485 248.000
53.32480 259.000
53.34475 268.000
53.36469 279.000
53.38464 267.000
53.40459 278.000
53.42454 254.000
53.44448 283.000
53.46443 253.000
53.48438 291.000
53.50432 285.000
53.52427 268.000
53.54422 280.000
53.56416 267.000
53.58411 289.000
53.60406 291.000
53.62401 279.000
53.64395 270.000
53.66390 265.000
53.68385 302.000
53.70379 307.000
53.72374 344.000
53.74369 363.000
53.76363 337.000
53.78358 373.000
53.80353 342.000
53.82348 377.000
53.84342 385.000
53.86337 383.000
53.88332 346.000
53.90326 400.000
53.92321 362.000
53.94316 316.000
53.96310 348.000
53.98305 338.000
54.00300 301.000
54.02294 336.000
54.04289 304.000
54.06284 313.000
54.08279 287.000
54.10273 296.000
54.12268 266.000
54.14263 260.000
54.16257 244.000
54.18252 236.000
54.20247 229.000
54.22241 247.000
54.24236 232.000
54.26231 249.000
54.28226 251.000
54.30220 257.000
54.32215 270.000
54.34210 239.000
54.36204 249.000
54.38199 226.000
54.40194 242.000
54.42188 223.000
54.44183 238.000
54.46178 229.000
54.48172 227.000
54.50167 258.000
54.52162 249.000
54.54157 244.000
54.56151 240.000
54.58146 257.000
54.60141 239.000
54.62135 246.000
54.64130 227.000
54.66125 227.000
54.68119 234.000
54.70114 225.000
54.72109 276.000
54.74104 242.000
54.76098 247.000
54.78093 258.000
54.80088 252.000
54.82082 252.000
54.84077 241.000
54.86072 240.000
54.88066 268.000
54.90061 257.000
54.92056 230.000
54.94050 234.000
54.96045 236.000
54.98040 225.000
55.00035 263.000
55.02029 244.000
55.04024 257.000
55.06019 265.000
55.08013 240.000
55.10008 246.000
55.12003 233.000
55.13997 263.000
55.15992 270.000
55.17987 268.000
55.19982 258.000
55.21976 257.000
55.23971 229.000
55.25966 237.000
55.27960 239.000
55.29955 255.000
55.31950 239.000
55.33944 220.000
55.35939 261.000
55.37934 252.000
55.39929 238.000
55.41923 262.000
55.43918 240.000
55.45913 272.000
55.47907 219.000
55.49902 242.000
55.51897 212.000
55.53891 241.000
55.55886 246.000
55.57881 243.000
55.59875 222.000
55.61870 255.000
55.63865 241.000
55.65860 259.000
55.67854 229.000
55.69849 255.000
55.71844 232.000
55.73838 240.000
55.75833 241.000
55.77828 238.000
55.79822 274.000
55.81817 237.000
55.83812 233.000
55.85807 233.000
55.87801 232.000
55.89796 216.000
55.91791 231.000
55.93785 254.000
55.95780 249.000
55.97775 266.000
55.99769 265.000
56.01764 249.000
56.03759 247.000
56.05753 215.000
56.07748 263.000
56.09743 237.000
56.11738 254.000
56.13732 226.000
56.15727 250.000
56.17722 256.000
56.19716 226.000
56.21711 239.000
56.23706 236.000
56.25700 232.000
56.27695 238.000
56.29690 279.000
56.31685 258.000
56.33679 210.000
56.35674 257.000
56.37669 242.000
56.39663 252.000
56.41658 241.000
56.43653 252.000
56.45647 273.000
56.47642 213.000
56.49637 269.000
56.51631 292.000
56.53626 254.000
56.55621 251.000
56.57616 237.000
56.59610 252.000
56.61605 265.000
56.63600 255.000
56.65594 251.000
56.67589 228.000
56.69584 287.000
56.71578 250.000
56.73573 263.000
56.75568 249.000
56.77563 228.000
56.79557 255.000
56.81552 274.000
56.83547 264.000
56.85541 245.000
56.87536 265.000
56.89531 234.000
56.91525 246.000
56.93520 254.000
56.95515 235.000
56.97510 290.000
56.99504 263.000
57.01499 259.000
57.03494 275.000
57.05488 279.000
57.07483 281.000
57.09478 273.000
57.11472 293.000
57.13467 302.000
57.15462 284.000
57.17456 304.000
57.19451 311.000
57.21446 366.000
57.23441 409.000
57.25435 413.000
57.27430 473.000
57.29425 546.000
57.31419 622.000
57.33414 593.000
57.35409 584.000
57.37403 546.000
57.39398 600.000
57.41393 603.000
57.43388 630.000
57.45382 666.000
57.47377 661.000
57.49372 585.000
57.51366 558.000
57.53361 565.000
57.55356 530.000
57.57350 485.000
57.59345 449.000
57.61340 444.000
57.63334 450.000
57.65329 432.000
57.67324 387.000
57.69319 366.000
57.71313 332.000
57.73308 349.000
57.75303 328.000
57.77297 331.000
57.79292 285.000
57.81287 322.000
57.83281 298.000
57.85276 282.000
57.87271 291.000
57.89266 268.000
57.91260 268.000
57.93255 270.000
57.95250 277.000
57.97244 248.000
57.99239 293.000
58.01234 301.000
58.03228 281.000
58.05223 271.000
58.07218 283.000
58.09212 271.000
58.11207 295.000
58.13202 293.000
58.15197 325.000
58.17191 300.000
58.19186 294.000
58.21181 278.000
58.23175 332.000
58.25170 295.000
58.27165 297.000
58.29159 322.000
58.31154 301.000
58.33149 282.000
58.35144 328.000
58.37138 277.000
58.39133 292.000
58.41128 284.000
58.43122 272.000
58.45117 292.000
58.47112 277.000
58.49106 284.000
58.51101 280.000
58.53096 240.000
58.55090 250.000
58.57085 274.000
58.59080 261.000
58.61075 251.000
58.63069 246.000
58.65064 231.000
58.67059 255.000
58.69053 235.000
58.71048 249.000
58.73043 246.000
58.75037 273.000
58.77032 271.000
58.79027 265.000
58.81022 253.000
58.83016 251.000
58.85011 286.000
58.87006 227.000
58.89000 245.000
58.90995 265.000
58.92990 244.000
58.94984 251.000
58.96979 273.000
58.98974 241.000
59.00969 218.000
59.02963 280.000
59.04958 247.000
59.06953 221.000
59.08947 231.000
59.10942 256.000
59.12937 274.000
59.14931 246.000
59.16926 244.000
59.18921 245.000
59.20915 258.000
59.22910 226.000
59.24905 232.000
59.26900 247.000
59.28894 240.000
59.30889 265.000
59.32884 233.000
59.34878 246.000
59.36873 263.000
59.38868 259.000
59.40862 218.000
59.42857 223.000
59.44852 240.000
59.46847 252.000
59.48841 244.000
59.50836 258.000
59.52831 229.000
59.54825 242.000
59.56820 228.000
59.58815 253.000
59.60809 281.000
59.62804 248.000
59.64799 258.000
59.66793 235.000
59.68788 223.000
59.70783 250.000
59.72778 213.000
59.74772 253.000
59.76767 241.000
59.78762 267.000
59.80756 252.000
59.82751 252.000
59.84746 267.000
59.86740 230.000
59.88735 256.000
59.90730 252.000
59.92725 208.000
59.94719 251.000
59.96714 235.000
59.98709 214.000
60.00703 247.000
60.02698 271.000
60.04693 269.000
60.06687 212.000
60.08682 228.000
60.10677 241.000
60.12671 233.000
60.14666 249.000
60.16661 244.000
60.18656 263.000
60.20650 279.000
60.22645 260.000
60.24640 264.000
60.26634 254.000
60.28629 250.000
60.30624 273.000
60.32618 270.000
60.34613 260.000
60.36608 253.000
60.38603 244.000
60.40597 224.000
60.42592 237.000
60.44587 243.000
60.46581 246.000
60.48576 207.000
60.50571 247.000
60.52565 255.000
60.54560 276.000
60.56555 276.000
60.58550 248.000
60.60544 270.000
60.62539 239.000
60.64534 251.000
60.66528 232.000
60.68523 245.000
60.70518 279.000
60.72512 247.000
60.74507 225.000
60.76502 247.000
60.78496 241.000
60.80491 230.000
60.82486 225.000
60.84481 248.000
60.86475 229.000
60.88470 256.000
60.90465 249.000
60.92459 236.000
60.94454 240.000
60.96449 249.000
60.98443 252.000
61.00438 255.000
61.02433 246.000
61.04428 281.000
61.06422 235.000
61.08417 251.000
61.10412 298.000
61.12406 244.000
61.14401 263.000
61.16396 281.000
61.18390 266.000
61.20385 292.000
61.22380 254.000
61.24374 268.000
61.26369 245.000
61.28364 236.000
61.30359 268.000
61.32353 281.000
61.34348 296.000
61.36343 291.000
61.38337 280.000
61.40332 317.000
61.42327 336.000
61.44321 305.000
61.46316 308.000
61.48311 333.000
61.50306 376.000
61.52300 323.000
61.54295 371.000
61.56290 356.000
61.58284 382.000
61.60279 375.000
61.62274 343.000
61.64268 378.000
61.66263 352.000
61.68258 370.000
61.70252 383.000
61.72247 373.000
61.74242 327.000
61.76237 385.000
61.78231 346.000
61.80226 351.000
61.82221 361.000
61.84215 321.000
61.86210 392.000
61.88205 387.000
61.90199 422.000
61.92194 383.000
61.94189 414.000
61.96184 445.000
61.98178 509.000
62.00173 519.000
62.02168 507.000
62.04162 463.000
62.06157 497.000
62.08152 526.000
62.10146 473.000
62.12141 475.000
62.14136 497.000
62.16131 446.000
62.18125 449.000
62.20120 429.000
62.22115 401.000
62.24109 416.000
62.26104 398.000
62.28099 383.000
62.30093 391.000
62.32088 367.000
62.34083 343.000
62.36077 377.000
62.38072 381.000
62.40067 375.000
62.42062 362.000
62.44056 355.000
62.46051 380.000
62.48046 394.000
62.50040 417.000
62.52035 455.000
62.54030 535.000
62.56024 485.000
62.58019 557.000
62.60014 580.000
62.62009 602.000
62.64003 666.000
62.65998 723.000
62.67993 702.000
62.69987 696.000
62.71982 752.000
62.73977 685.000
62.75971 666.000
62.77966 643.000
62.79961 653.000
62.81955 619.000
62.83950 670.000
62.85945 685.000
62.87940 699.000
62.89934 721.000
62.91929 808.000
62.93924 740.000
62.95918 776.000
62.97913 709.000
62.99908 735.000
63.01902 698.000
63.03897 737.000
63.05892 726.000
63.07887 715.000
63.09881 753.000
63.11876 760.000
63.13871 763.000
63.15865 730.000
63.17860 654.000
63.19855 639.000
63.21849 543.000
63.23844 577.000
63.25839 525.000
63.27833 500.000
63.29828 520.000
63.31823 468.000
63.33818 436.000
63.35812 418.000
63.37807 426.000
63.39802 361.000
63.41796 337.000
63.43791 311.000
63.45786 323.000
63.47780 321.000
63.49775 334.000
63.51770 286.000
63.53765 289.000
63.55759 270.000
63.57754 278.000
63.59749 300.000
63.61743 265.000
63.63738 303.000
63.65733 278.000
63.67727 300.000
63.69722 312.000
63.71717 287.000
63.73712 272.000
63.75706 298.000
63.77701 261.000
63.79696 262.000
63.81690 262.000
63.83685 258.000
63.85680 246.000
63.87674 257.000
63.89669 248.000
63.91664 269.000
63.93658 258.000
63.95653 278.000
63.97648 257.000
63.99643 271.000
64.01637 277.000
64.03632 263.000
64.05627 276.000
64.07621 284.000
64.09616 260.000
64.11611 299.000
64.13605 265.000
64.15600 267.000
64.17595 285.000
64.19590 302.000
64.21584 279.000
64.23579 288.000
64.25574 302.000
64.27568 304.000
64.29563 322.000
64.31558 369.000
64.33552 344.000
64.35547 403.000
64.37542 408.000
64.39536 427.000
64.41531 449.000
64.43526 466.000
64.45521 414.000
64.47515 457.000
64.49510 459.000
64.51505 459.000
64.53499 482.000
64.55494 424.000
64.57489 419.000
64.59483 387.000
64.61478 373.000
64.63473 371.000
64.65468 347.000
64.67462 366.000
64.69457 344.000
64.71452 335.000
64.73446 356.000
64.75441 326.000
64.77436 277.000
64.79430 297.000
64.81425 286.000
64.83420 292.000
64.85414 273.000
64.87409 267.000
64.89404 267.000
64.91399 284.000
64.93393 261.000
64.95388 243.000
64.97383 251.000
64.99377 269.000
65.01372 288.000
65.03367 244.000
65.05361 271.000
65.07356 257.000
65.09351 279.000
65.11346 255.000
65.13340 248.000
65.15335 239.000
65.17330 247.000
65.19324 245.000
65.21319 270.000
65.23314 248.000
65.25308 264.000
65.27303 250.000
65.29298 247.000
65.31293 250.000
65.33287 272.000
65.35282 233.000
65.37277 255.000
65.39271 268.000
65.41266 270.000
65.43261 274.000
65.45255 267.000
65.47250 286.000
65.49245 250.000
65.51239 303.000
65.53234 303.000
65.55229 286.000
65.57224 243.000
65.59218 296.000
65.61213 326.000
65.63208 266.000
65.65202 306.000
65.67197 266.000
65.69192 286.000
65.71186 291.000
65.73181 259.000
65.75176 321.000
65.77171 304.000
65.79165 300.000
65.81160 341.000
65.83155 290.000
65.85149 277.000
65.87144 327.000
65.89139 287.000
65.91133 270.000
65.93128 292.000
65.95123 308.000
65.97117 308.000
65.99112 295.000
66.01107 286.000
66.03102 285.000
66.05096 267.000
66.07091 307.000
66.09086 297.000
66.11080 314.000
66.13075 287.000
66.15070 306.000
66.17064 326.000
66.19059 305.000
66.21054 305.000
66.23049 315.000
66.25043 323.000
66.27038 364.000
66.29033 373.000
66.31027 342.000
66.33022 378.000
66.35017 354.000
66.37011 365.000
66.39006 366.000
66.41001 356.000
66.42995 360.000
66.44990 355.000
66.46985 321.000
66.48980 329.000
66.50974 339.000
66.52969 375.000
66.54964 293.000
66.56958 356.000
66.58953 367.000
66.60948 345.000
66.62942 303.000
66.64937 317.000
66.66932 349.000
66.68927 347.000
66.70921 372.000
66.72916 356.000
66.74911 410.000
66.76905 391.000
66.78900 399.000
66.80895 394.000
66.82889 393.000
66.84884 441.000
66.86879 460.000
66.88874 445.000
66.90868 440.000
66.92863 453.000
66.94858 370.000
66.96852 393.000
66.98847 372.000
67.00842 379.000
67.02836 351.000
67.04831 354.000
67.06826 366.000
67.08820 345.000
67.10815 327.000
67.12810 315.000
67.14805 311.000
67.16799 306.000
67.18794 298.000
67.20789 312.000
67.22783 245.000
67.24778 288.000
67.26773 282.000
67.28767 258.000
67.30762 255.000
67.32757 260.000
67.34752 253.000
67.36746 247.000
67.38741 276.000
67.40736 278.000
67.42730 266.000
67.44725 253.000
67.46720 273.000
67.48714 282.000
67.50709 258.000
67.52704 242.000
67.54698 278.000
67.56693 255.000
67.58688 281.000
67.60683 273.000
67.62677 261.000
67.64672 258.000
67.66667 288.000
67.68661 268.000
67.70656 300.000
67.72651 288.000
67.74645 313.000
67.76640 273.000
67.78635 295.000
67.80630 289.000
67.82624 328.000
67.84619 327.000
67.86614 318.000
67.88608 304.000
67.90603 313.000
67.92598 340.000
67.94592 316.000
67.96587 325.000
67.98582 302.000
68.00576 327.000
68.02571 302.000
68.04566 334.000
68.06561 329.000
68.08555 324.000
68.10550 293.000
68.12545 320.000
68.14539 321.000
68.16534 299.000
68.18529 276.000
68.20523 318.000
68.22518 278.000
68.24513 318.000
68.26508 298.000
68.28502 310.000
68.30497 302.000
68.32492 274.000
68.34486 263.000
68.36481 274.000
68.38476 250.000
68.40470 249.000
68.42465 265.000
68.44460 236.000
68.46455 256.000
68.48449 261.000
68.50444 268.000
68.52439 214.000
68.54433 225.000
68.56428 247.000
68.58423 244.000
68.60417 242.000
68.62412 242.000
68.64407 246.000
68.66401 255.000
68.68396 250.000
68.70391 264.000
68.72386 240.000
68.74380 246.000
68.76375 242.000
68.78370 222.000
68.80364 218.000
68.82359 221.000
68.84354 238.000
68.86348 252.000
68.88343 240.000
68.90338 229.000
68.92333 234.000
68.94327 248.000
68.96322 232.000
68.98317 254.000
69.00311 242.000
69.02306 239.000
69.04301 213.000
69.06295 235.000
69.08290 231.000
69.10285 262.000
69.12279 225.000
69.14274 239.000
69.16269 218.000
69.18264 255.000
69.20258 227.000
69.22253 229.000
69.24248 213.000
69.26242 255.000
69.28237 250.000
69.30232 253.000
69.32226 215.000
69.34221 220.000
69.36216 229.000
69.38211 234.000
69.40205 242.000
69.42200 259.000
69.44195 229.000
69.46189 236.000
69.48184 263.000
69.50179 246.000
69.52173 235.000
69.54168 283.000
69.56163 247.000
69.58157 212.000
69.60152 251.000
69.62147 222.000
69.64142 244.000
69.66136 273.000
69.68131 240.000
69.70126 234.000
69.72120 261.000
69.74115 248.000
69.76110 234.000
69.78104 233.000
69.80099 244.000
69.82094 215.000
69.84089 260.000
69.86083 259.000
69.88078 247.000
69.90073 203.000
69.92067 233.000
69.94062 243.000
69.96057 249.000
69.98051 252.000
70.00046 249.000
70.02041 216.000
70.04035 232.000
70.06030 269.000
70.08025 229.000
70.10020 218.000
70.12014 263.000
70.14009 261.000
70.16004 268.000
70.17998 239.000
70.19993 250.000
70.21988 261.000
70.23982 270.000
70.25977 217.000
70.27972 230.000
70.29967 216.000
70.31961 238.000
70.33956 207.000
70.35951 220.000
70.37945 244.000
70.39940 221.000
70.41935 218.000
70.43929 257.000
70.45924 248.000
70.47919 230.000
70.49914 229.000
70.51908 246.000
70.53903 241.000
70.55898 261.000
70.57892 237.000
70.59887 243.000
70.61882 245.000
70.63876 234.000
70.65871 244.000
70.67866 245.000
70.69860 234.000
70.71855 246.000
70.73850 213.000
70.75845 249.000
70.77839 234.000
70.79834 248.000
70.81829 243.000
70.83823 216.000
70.85818 260.000
70.87813 250.000
70.89807 230.000
70.91802 222.000
70.93797 217.000
70.95792 239.000
70.97786 255.000
70.99781 258.000
71.01776 250.000
71.03770 218.000
71.05765 219.000
71.07760 231.000
71.09754 219.000
71.11749 237.000
71.13744 223.000
71.15738 233.000
71.17733 232.000
71.19728 257.000
71.21723 218.000
71.23717 273.000
71.25712 242.000
71.27707 251.000
71.29701 236.000
71.31696 249.000
71.33691 240.000
71.35685 245.000
71.37680 273.000
71.39675 283.000
71.41670 248.000
71.43664 303.000
71.45659 293.000
71.47654 270.000
71.49648 284.000
71.51643 253.000
71.53638 270.000
71.55632 298.000
71.57627 287.000
71.59622 269.000
71.61616 279.000
71.63611 265.000
71.65606 291.000
71.67601 252.000
71.69595 257.000
71.71590 273.000
71.73585 271.000
71.75579 262.000
71.77574 264.000
71.79569 235.000
71.81563 240.000
71.83558 234.000
71.85553 265.000
71.87548 274.000
71.89542 223.000
71.91537 251.000
71.93532 257.000
71.95526 262.000
71.97521 232.000
71.99516 245.000
72.01510 260.000
72.03505 229.000
72.05500 231.000
72.07495 248.000
72.09489 242.000
72.11484 263.000
72.13479 248.000
72.15473 266.000
72.17468 263.000
72.19463 245.000
72.21457 280.000
72.23452 255.000
72.25447 236.000
72.27441 248.000
72.29436 299.000
72.31431 261.000
72.33426 272.000
72.35420 256.000
72.37415 255.000
72.39410 279.000
72.41404 256.000
72.43399 262.000
72.45394 253.000
72.47388 272.000
72.49383 276.000
72.51378 270.000
72.53373 271.000
72.55367 264.000
72.57362 226.000
72.59357 265.000
72.61351 285.000
72.63346 265.000
72.65341 283.000
72.67335 252.000
72.69330 257.000
72.71325 251.000
72.73319 268.000
72.75314 237.000
72.77309 267.000
72.79304 265.000
72.81298 267.000
72.83293 219.000
72.85288 257.000
72.87282 219.000
72.89277 236.000
72.91272 252.000
72.93266 248.000
72.95261 226.000
72.97256 266.000
72.99251 254.000
73.01245 245.000
73.03240 228.000
73.05235 248.000
73.07229 266.000
73.09224 259.000
73.11219 218.000
73.13213 239.000
73.15208 221.000
73.17203 235.000
73.19197 236.000
73.21192 252.000
73.23187 265.000
73.25182 256.000
73.27176 278.000
73.29171 233.000
73.31166 245.000
73.33160 272.000
73.35155 251.000
73.37150 230.000
73.39144 273.000
73.41139 224.000
73.43134 222.000
73.45129 231.000
73.47123 242.000
73.49118 276.000
73.51113 221.000
73.53107 248.000
73.55102 246.000
73.57097 286.000
73.59091 249.000
73.61086 283.000
73.63081 273.000
73.65076 272.000
73.67070 269.000
73.69065 273.000
73.71060 291.000
73.73054 273.000
73.75049 293.000
73.77044 284.000
73.79038 286.000
73.81033 302.000
73.83028 302.000
73.85022 288.000
73.87017 290.000
73.89012 284.000
73.91007 297.000
73.93001 307.000
73.94996 283.000
73.96991 278.000
73.98985 272.000
74.00980 265.000
74.02975 271.000
74.04969 270.000
74.06964 292.000
74.08959 260.000
74.10954 269.000
74.12948 262.000
74.14943 275.000
74.16938 258.000
74.18932 257.000
74.20927 273.000
74.22922 259.000
74.24916 247.000
74.26911 205.000
74.28906 272.000
74.30900 217.000
74.32895 263.000
74.34890 282.000
74.36885 265.000
74.38879 280.000
74.40874 282.000
74.42869 265.000
74.44863 308.000
74.46858 302.000
74.48853 314.000
74.50847 300.000
74.52842 312.000
74.54837 338.000
74.56832 302.000
74.58826 325.000
74.60821 298.000
74.62816 323.000
74.64810 329.000
74.66805 332.000
74.68800 352.000
74.70794 316.000
74.72789 334.000
74.74784 315.000
74.76778 307.000
74.78773 372.000
74.80768 336.000
74.82763 349.000
74.84757 335.000
74.86752 315.000
74.88747 328.000
74.90741 358.000
74.92736 364.000
74.94731 372.000
74.96725 366.000
74.98720 340.000
75.00715 366.000
75.02710 375.000
75.04704 381.000
75.06699 383.000
75.08694 368.000
75.10688 399.000
75.12683 422.000
75.14678 399.000
75.16672 437.000
75.18667 401.000
75.20662 402.000
75.22657 396.000
75.24651 402.000
75.26646 366.000
75.28641 371.000
75.30635 376.000
75.32630 357.000
75.34625 366.000
75.36619 351.000
75.38614 384.000
75.40609 341.000
75.42603 371.000
75.44598 370.000
75.46593 336.000
75.48588 346.000
75.50582 344.000
75.52577 315.000
75.54572 325.000
75.56566 328.000
75.58561 328.000
75.60556 307.000
75.62550 323.000
75.64545 346.000
75.66540 327.000
75.68535 291.000
75.70529 276.000
75.72524 305.000
75.74519 294.000
75.76513 278.000
75.78508 249.000
75.80503 295.000
75.82497 268.000
75.84492 294.000
75.86487 267.000
75.88481 297.000
75.90476 269.000
75.92471 296.000
75.94466 265.000
75.96460 303.000
75.98455 269.000
76.00450 279.000
76.02444 292.000
76.04439 279.000
76.06434 264.000
76.08428 264.000
76.10423 300.000
76.12418 254.000
76.14413 225.000
76.16407 268.000
76.18402 266.000
76.20397 253.000
76.22391 261.000
76.24386 236.000
76.26381 247.000
76.28375 259.000
76.30370 248.000
76.32365 255.000
76.34359 259.000
76.36354 270.000
76.38349 250.000
76.40344 249.000
76.42338 237.000
76.44333 247.000
76.46328 282.000
76.48322 240.000
76.50317 258.000
76.52312 232.000
76.54306 216.000
76.56301 220.000
76.58296 255.000
76.60291 260.000
76.62285 251.000
76.64280 227.000
76.66275 243.000
76.68269 253.000
76.70264 250.000
76.72259 231.000
76.74253 226.000
76.76248 243.000
76.78243 250.000
76.80238 223.000
76.82232 230.000
76.84227 270.000
76.86222 234.000
76.88216 249.000
76.90211 240.000
76.92206 231.000
76.94200 248.000
76.96195 237.000
76.98190 241.000
77.00184 234.000
77.02179 246.000
77.04174 239.000
77.06169 231.000
77.08163 262.000
77.10158 239.000
77.12153 240.000
77.14147 226.000
77.16142 248.000
77.18137 230.000
77.20131 207.000
77.22126 238.000
77.24121 178.000
77.26116 233.000
77.28110 266.000
77.30105 227.000
77.32100 276.000
77.34094 250.000
77.36089 236.000
77.38084 229.000
77.40078 234.000
77.42073 213.000
77.44068 244.000
77.46062 241.000
77.48057 261.000
77.50052 270.000
77.52047 224.000
77.54041 272.000
77.56036 240.000
77.58031 242.000
77.60025 228.000
77.62020 241.000
77.64015 194.000
77.66009 291.000
77.68004 259.000
77.69999 257.000
77.71994 245.000
77.73988 249.000
77.75983 262.000
77.77978 248.000
77.79972 266.000
77.81967 251.000
77.83962 266.000
77.85956 256.000
77.87951 257.000
77.89946 240.000
77.91940 263.000
77.93935 229.000
77.95930 250.000
77.97925 261.000
77.99919 261.000
78.01914 275.000
78.03909 261.000
78.05903 283.000
78.07898 302.000
78.09893 284.000
78.11887 336.000
78.13882 295.000
78.15877 316.000
78.17872 318.000
78.19866 341.000
78.21861 366.000
78.23856 362.000
78.25850 329.000
78.27845 348.000
78.29840 404.000
78.31834 329.000
78.33829 348.000
78.35824 331.000
78.37819 322.000
78.39813 328.000
78.41808 317.000
78.43803 320.000
78.45797 304.000
78.47792 281.000
78.49787 301.000
78.51781 307.000
78.53776 310.000
78.55771 278.000
78.57765 291.000
78.59760 270.000
78.61755 286.000
78.63750 312.000
78.65744 286.000
78.67739 281.000
78.69734 274.000
78.71728 268.000
78.73723 271.000
78.75718 231.000
78.77712 247.000
78.79707 272.000
78.81702 267.000
78.83697 268.000
78.85691 254.000
78.87686 251.000
78.89681 272.000
78.91675 287.000
78.93670 268.000
78.95665 280.000
78.97659 271.000
78.99654 299.000
79.01649 305.000
79.03643 325.000
79.05638 330.000
79.07633 325.000
79.09628 307.000
79.11622 332.000
79.13617 306.000
79.15612 341.000
79.17606 314.000
79.19601 351.000
79.21596 334.000
79.23590 315.000
79.25585 291.000
79.27580 309.000
79.29575 299.000
79.31569 315.000
79.33564 322.000
79.35559 303.000
79.37553 326.000
79.39548 298.000
79.41543 273.000
79.43537 306.000
79.45532 281.000
79.47527 289.000
79.49521 268.000
79.51516 320.000
79.53511 292.000
79.55506 265.000
79.57500 284.000
79.59495 271.000
79.61490 271.000
79.63484 288.000
79.65479 254.000
79.67474 287.000
79.69468 278.000
79.71463 270.000
79.73458 286.000
79.75453 236.000
79.77447 270.000
79.79442 262.000
79.81437 269.000
79.83431 241.000
79.85426 278.000
79.87421 236.000
79.89415 230.000
79.91410 289.000
79.93405 254.000
79.95399 236.000
79.97394 262.000
79.99389 233.000
80.01384 239.000
80.03378 225.000
80.05373 278.000
80.07368 251.000
80.09362 229.000
80.11357 238.000
80.13352 236.000
80.15346 217.000
80.17341 257.000
80.19336 265.000
80.21331 274.000
80.23325 262.000
80.25320 262.000
80.27315 226.000
80.29309 270.000
80.31304 244.000
80.33299 217.000
80.35293 259.000
80.37288 256.000
80.39283 258.000
80.41278 250.000
80.43272 238.000
80.45267 223.000
80.47262 234.000
80.49256 247.000
80.51251 249.000
80.53246 252.000
80.55240 277.000
80.57235 241.000
80.59230 261.000
80.61224 246.000
80.63219 228.000
80.65214 263.000
80.67209 234.000
80.69203 251.000
80.71198 246.000
80.73193 244.000
80.75187 233.000
80.77182 236.000
80.79177 230.000
80.81171 243.000
80.83166 217.000
80.85161 241.000
80.87156 237.000
80.89150 249.000
80.91145 238.000
80.93140 240.000
80.95134 231.000
80.97129 281.000
80.99124 245.000
81.01118 236.000
81.03113 235.000
81.05108 218.000
81.07102 245.000
81.09097 253.000
81.11092 239.000
81.13087 231.000
81.15081 290.000
81.17076 237.000
81.19071 252.000
81.21065 216.000
81.23060 263.000
81.25055 231.000
81.27049 238.000
81.29044 244.000
81.31039 230.000
81.33034 228.000
81.35028 214.000
81.37023 246.000
81.39018 213.000
81.41012 223.000
81.43007 242.000
81.45002 211.000
81.46996 222.000
81.48991 241.000
81.50986 250.000
81.52980 238.000
81.54975 228.000
81.56970 220.000
81.58965 248.000
81.60959 253.000
81.62954 237.000
81.64949 225.000
81.66943 226.000
81.68938 256.000
81.70933 231.000
81.72927 232.000
81.74922 263.000
81.76917 205.000
81.78912 238.000
81.80906 213.000
81.82901 216.000
81.84896 219.000
81.86890 208.000
81.88885 242.000
81.90880 236.000
81.92874 247.000
81.94869 234.000
81.96864 242.000
81.98859 244.000
82.00853 269.000
82.02848 234.000
82.04843 240.000
82.06837 259.000
82.08832 217.000
82.10827 226.000
82.12821 253.000
82.14816 248.000
82.16811 235.000
82.18805 251.000
82.20800 229.000
82.22795 257.000
82.24790 215.000
82.26784 270.000
82.28779 237.000
82.30774 254.000
82.32768 247.000
82.34763 243.000
82.36758 222.000
82.38752 272.000
82.40747 247.000
82.42742 254.000
82.44737 265.000
82.46731 235.000
82.48726 264.000
82.50721 263.000
82.52715 272.000
82.54710 277.000
82.56705 245.000
82.58699 272.000
82.60694 256.000
82.62689 263.000
82.64683 259.000
82.66678 278.000
82.68673 261.000
82.70668 243.000
82.72662 238.000
82.74657 245.000
82.76652 274.000
82.78646 256.000
82.80641 260.000
82.82636 239.000
82.84630 231.000
82.86625 278.000
82.88620 238.000
82.90615 261.000
82.92609 244.000
82.94604 271.000
82.96599 237.000
82.98593 273.000
83.00588 250.000
83.02583 239.000
83.04577 286.000
83.06572 267.000
83.08567 252.000
83.10561 267.000
83.12556 254.000
83.14551 261.000
83.16546 254.000
83.18540 252.000
83.20535 240.000
83.22530 259.000
83.24524 230.000
83.26519 235.000
83.28514 249.000
83.30508 229.000
83.32503 241.000
83.34498 273.000
83.36493 281.000
83.38487 247.000
83.40482 278.000
83.42477 240.000
83.44471 238.000
83.46466 240.000
83.48461 245.000
83.50455 230.000
83.52450 271.000
83.54445 239.000
83.56440 286.000
83.58434 234.000
83.60429 238.000
83.62424 249.000
83.64418 263.000
83.66413 255.000
83.68408 232.000
83.70402 236.000
83.72397 244.000
83.74392 247.000
83.76386 238.000
83.78381 253.000
83.80376 259.000
83.82371 243.000
83.84365 250.000
83.86360 271.000
83.88355 258.000
83.90349 231.000
83.92344 268.000
83.94339 260.000
83.96333 253.000
83.98328 252.000
84.00323 271.000
84.02318 224.000
84.04312 259.000
84.06307 222.000
84.08302 277.000
84.10296 238.000
84.12291 230.000
84.14286 230.000
84.16280 230.000
84.18275 287.000
84.20270 235.000
84.22264 261.000
84.24259 233.000
84.26254 256.000
84.28249 231.000
84.30243 241.000
84.32238 245.000
84.34233 253.000
84.36227 234.000
84.38222 263.000
84.40217 260.000
84.42211 231.000
84.44206 271.000
84.46201 248.000
84.48196 260.000
84.50190 260.000
84.52185 255.000
84.54180 237.000
84.56174 241.000
84.58169 234.000
84.60164 267.000
84.62158 268.000
84.64153 246.000
84.66148 243.000
84.68142 287.000
84.70137 266.000
84.72132 285.000
84.74127 260.000
84.76121 296.000
84.78116 281.000
84.80111 313.000
84.82105 291.000
84.84100 315.000
84.86095 292.000
84.88089 303.000
84.90084 296.000
84.92079 278.000
84.94074 274.000
84.96068 294.000
84.98063 274.000
85.00058 316.000
85.02052 248.000
85.04047 263.000
85.06042 285.000
85.08036 250.000
85.10031 275.000
85.12026 285.000
85.14021 315.000
85.16015 238.000
85.18010 252.000
85.20005 250.000
85.21999 277.000
85.23994 253.000
85.25989 269.000
85.27983 231.000
85.29978 249.000
85.31973 266.000
85.33967 253.000
85.35962 243.000
85.37957 229.000
85.39952 258.000
85.41946 249.000
85.43941 230.000
85.45936 241.000
85.47930 240.000
85.49925 250.000
85.51920 246.000
85.53914 246.000
85.55909 227.000
85.57904 218.000
85.59899 257.000
85.61893 240.000
85.63888 266.000
85.65883 239.000
85.67877 263.000
85.69872 240.000
85.71867 245.000
85.73861 264.000
85.75856 230.000
85.77851 243.000
85.79845 249.000
85.81840 225.000
85.83835 234.000
85.85830 251.000
85.87824 247.000
85.89819 240.000
85.91814 245.000
85.93808 239.000
85.95803 253.000
85.97798 264.000
85.99792 267.000
86.01787 245.000
86.03782 232.000
86.05777 241.000
86.07771 244.000
86.09766 221.000
86.11761 233.000
86.13755 247.000
86.15750 244.000
86.17745 258.000
86.19739 254.000
86.21734 209.000
86.23729 258.000
86.25723 225.000
86.27718 240.000
86.29713 251.000
86.31708 236.000
86.33702 235.000
86.35697 257.000
86.37692 245.000
86.39686 234.000
86.41681 264.000
86.43676 236.000
86.45670 255.000
86.47665 255.000
86.49660 230.000
86.51655 274.000
86.53649 219.000
86.55644 240.000
86.57639 224.000
86.59633 228.000
86.61628 260.000
86.63623 227.000
86.65617 243.000
86.67612 253.000
86.69607 242.000
86.71602 249.000
86.73596 212.000
86.75591 280.000
86.77586 244.000
86.79580 254.000
86.81575 229.000
86.83570 218.000
86.85564 239.000
86.87559 241.000
86.89554 235.000
86.91548 252.000
86.93543 215.000
86.95538 260.000
86.97533 254.000
86.99527 243.000
87.01522 255.000
87.03517 235.000
87.05511 273.000
87.07506 240.000
87.09501 249.000
87.11495 246.000
87.13490 258.000
87.15485 228.000
87.17480 246.000
87.19474 272.000
87.21469 271.000
87.23464 232.000
87.25458 250.000
87.27453 246.000
87.29448 276.000
87.31442 254.000
87.33437 260.000
87.35432 262.000
87.37426 254.000
87.39421 249.000
87.41416 278.000
87.43411 262.000
87.45405 283.000
87.47400 274.000
87.49395 232.000
87.51389 251.000
87.53384 234.000
87.55379 224.000
87.57373 238.000
87.59368 273.000
87.61363 270.000
87.63358 273.000
87.65352 293.000
87.67347 281.000
87.69342 250.000
87.71336 276.000
87.73331 276.000
87.75326 225.000
87.77320 263.000
87.79315 248.000
87.81310 279.000
87.83304 241.000
87.85299 275.000
87.87294 280.000
87.89289 249.000
87.91283 266.000
87.93278 267.000
87.95273 262.000
87.97267 267.000
87.99262 224.000
88.01257 245.000
88.03251 250.000
88.05246 253.000
88.07241 232.000
88.09236 249.000
88.11230 224.000
88.13225 246.000
88.15220 222.000
88.17214 244.000
88.19209 249.000
88.21204 223.000
88.23198 242.000
88.25193 235.000
88.27188 232.000
88.29183 238.000
88.31177 246.000
88.33172 228.000
88.35167 245.000
88.37161 245.000
88.39156 241.000
88.41151 253.000
88.43145 231.000
88.45140 228.000
88.47135 225.000
88.49129 217.000
88.51124 248.000
88.53119 235.000
88.55114 267.000
88.57108 262.000
88.59103 244.000
88.61098 227.000
88.63092 256.000
88.65087 221.000
88.67082 251.000
88.69076 237.000
88.71071 221.000
88.73066 235.000
88.75061 275.000
88.77055 237.000
88.79050 261.000
88.81045 253.000
88.83039 244.000
88.85034 245.000
88.87029 229.000
88.89023 243.000
88.91018 220.000
88.93013 225.000
88.95007 224.000
88.97002 240.000
88.98997 235.000
89.00992 242.000
89.02986 213.000
89.04981 237.000
89.06976 254.000
89.08970 241.000
89.10965 246.000
89.12960 238.000
89.14954 242.000
89.16949 245.000
89.18944 212.000
89.20939 260.000
89.22933 241.000
89.24928 234.000
89.26923 229.000
89.28917 232.000
89.30912 244.000
89.32907 228.000
89.34901 207.000
89.36896 233.000
89.38891 227.000
89.40885 232.000
89.42880 246.000
89.44875 248.000
89.46870 242.000
89.48864 232.000
89.50859 247.000
89.52854 261.000
89.54848 274.000
89.56843 223.000
89.58838 238.000
89.60832 232.000
89.62827 275.000
89.64822 239.000
89.66817 251.000
89.68811 261.000
89.70806 248.000
89.72801 237.000
89.74795 256.000
89.76790 252.000
89.78785 280.000
89.80779 226.000
89.82774 244.000
89.84769 267.000
89.86764 259.000
89.88758 257.000
89.90753 276.000
89.92748 213.000
89.94742 238.000
89.96737 269.000
89.98732 240.000
90.00726 257.000
