10.00000 237.000
10.01995 202.000
10.03989 233.000
10.05984 183.000
10.07979 208.000
10.09973 196.000
10.11968 216.000
10.13963 199.000
10.15958 199.000
10.17952 158.000
10.19947 192.000
10.21942 206.000
10.23936 192.000
10.25931 208.000
10.27926 202.000
10.29920 194.000
10.31915 214.000
10.33910 222.000
10.35905 210.000
10.37899 190.000
10.39894 193.000
10.41889 216.000
10.43883 207.000
10.45878 212.000
10.47873 204.000
10.49867 223.000
10.51862 210.000
10.53857 231.000
10.55851 216.000
10.57846 209.000
10.59841 205.000
10.61836 203.000
10.63830 206.000
10.65825 223.000
10.67820 235.000
10.69814 189.000
10.71809 216.000
10.73804 209.000
10.75798 167.000
10.77793 209.000
10.79788 189.000
10.81783 229.000
10.83777 199.000
10.85772 192.000
10.87767 193.000
10.89761 185.000
10.91756 218.000
10.93751 212.000
10.95745 183.000
10.97740 224.000
10.99735 201.000
11.01730 214.000
11.03724 228.000
11.05719 225.000
11.07714 217.000
11.09708 244.000
11.11703 207.000
11.13698 226.000
11.15692 211.000
11.17687 187.000
11.19682 213.000
11.21676 229.000
11.23671 222.000
11.25666 212.000
11.27661 227.000
11.29655 185.000
11.31650 209.000
11.33645 205.000
11.35639 227.000
11.37634 212.000
11.39629 200.000
11.41623 216.000
11.43618 218.000
11.45613 213.000
11.47608 201.000
11.49602 184.000
11.51597 203.000
11.53592 197.000
11.55586 182.000
11.57581 214.000
11.59576 220.000
11.61570 191.000
11.63565 211.000
11.65560 220.000
11.67554 218.000
11.69549 205.000
11.71544 230.000
11.73539 211.000
11.75533 214.000
11.77528 224.000
11.79523 225.000
11.81517 218.000
11.83512 190.000
11.85507 217.000
11.87501 210.000
11.89496 203.000
11.91491 204.000
11.93486 194.000
11.95480 197.000
11.97475 217.000
11.99470 202.000
12.01464 185.000
12.03459 221.000
12.05454 199.000
12.07448 250.000
12.09443 243.000
12.11438 212.000
12.13432 267.000
12.15427 228.000
12.17422 212.000
12.19417 195.000
12.21411 209.000
12.23406 219.000
12.25401 216.000
12.27395 230.000
12.29390 233.000
12.31385 230.000
12.33379 245.000
12.35374 218.000
12.37369 208.000
12.39364 232.000
12.41358 238.000
12.43353 202.000
12.45348 225.000
12.47342 211.000
12.49337 225.000
12.51332 215.000
12.53326 213.000
12.55321 201.000
12.57316 197.000
12.59311 206.000
12.61305 232.000
12.63300 227.000
12.65295 214.000
12.67289 207.000
12.69284 207.000
12.71279 254.000
12.73273 207.000
12.75268 208.000
12.77263 205.000
12.79257 251.000
12.81252 223.000
12.83247 220.000
12.85242 205.000
12.87236 206.000
12.89231 194.000
12.91226 216.000
12.93220 199.000
12.95215 203.000
12.97210 196.000
12.99204 198.000
13.01199 210.000
13.03194 200.000
13.05189 226.000
13.07183 197.000
13.09178 230.000
13.11173 214.000
13.13167 210.000
13.15162 233.000
13.17157 222.000
13.19151 220.000
13.21146 210.000
13.23141 204.000
13.25135 206.000
13.27130 196.000
13.29125 207.000
13.31120 233.000
13.33114 185.000
13.35109 223.000
13.37104 188.000
13.39098 217.000
13.41093 206.000
13.43088 217.000
13.45082 239.000
13.47077 206.000
13.49072 249.000
13.51067 227.000
13.53061 195.000
13.55056 231.000
13.57051 229.000
13.59045 216.000
13.61040 194.000
13.63035 212.000
13.65029 197.000
13.67024 212.000
13.69019 230.000
13.71013 207.000
13.73008 201.000
13.75003 220.000
13.76998 227.000
13.78992 225.000
13.80987 235.000
13.82982 217.000
13.84976 199.000
13.86971 231.000
13.88966 228.000
13.90960 230.000
13.92955 210.000
13.94950 198.000
13.96945 227.000
13.98939 217.000
14.00934 215.000
14.02929 199.000
14.04923 221.000
14.06918 209.000
14.08913 210.000
14.10907 224.000
14.12902 231.000
14.14897 246.000
14.16892 219.000
14.18886 226.000
14.20881 233.000
14.22876 230.000
14.24870 234.000
14.26865 208.000
14.28860 225.000
14.30854 226.000
14.32849 191.000
14.34844 226.000
14.36838 208.000
14.38833 207.000
14.40828 237.000
14.42823 184.000
14.44817 200.000
14.46812 227.000
14.48807 234.000
14.50801 229.000
14.52796 234.000
14.54791 222.000
14.56785 212.000
14.58780 235.000
14.60775 207.000
14.62770 229.000
14.64764 227.000
14.66759 202.000
14.68754 198.000
14.70748 200.000
14.72743 233.000
14.74738 215.000
14.76732 234.000
14.78727 220.000
14.80722 198.000
14.82716 223.000
14.84711 239.000
14.86706 231.000
14.88701 217.000
14.90695 236.000
14.92690 232.000
14.94685 217.000
14.96679 223.000
14.98674 212.000
15.00669 214.000
15.02663 228.000
15.04658 233.000
15.06653 232.000
15.08648 244.000
15.10642 219.000
15.12637 235.000
15.14632 241.000
15.16626 239.000
15.18621 242.000
15.20616 235.000
15.22610 253.000
15.24605 227.000
15.26600 243.000
15.28594 263.000
15.30589 247.000
15.32584 256.000
15.34579 245.000
15.36573 201.000
15.38568 240.000
15.40563 257.000
15.42557 230.000
15.44552 255.000
15.46547 230.000
15.48541 239.000
15.50536 257.000
15.52531 274.000
15.54526 261.000
15.56520 262.000
15.58515 252.000
15.60510 279.000
15.62504 297.000
15.64499 319.000
15.66494 394.000
15.68488 444.000
15.70483 491.000
15.72478 590.000
15.74472 755.000
15.76467 959.000
15.78462 1160.000
15.80457 1324.000
15.82451 1260.000
15.84446 1086.000
15.86441 903.000
15.88435 730.000
15.90430 570.000
15.92425 440.000
15.94419 337.000
15.96414 276.000
15.98409 298.000
16.00404 300.000
16.02398 286.000
16.04393 253.000
16.06388 269.000
16.08382 254.000
16.10377 256.000
16.12372 313.000
16.14366 271.000
16.16361 307.000
16.18356 304.000
16.20351 322.000
16.22345 353.000
16.24340 363.000
16.26335 366.000
16.28329 353.000
16.30324 351.000
16.32319 366.000
16.34313 344.000
16.36308 354.000
16.38303 296.000
16.40297 278.000
16.42292 251.000
16.44287 244.000
16.46282 222.000
16.48276 225.000
16.50271 242.000
16.52266 252.000
16.54260 238.000
16.56255 241.000
16.58250 245.000
16.60244 234.000
16.62239 231.000
16.64234 252.000
16.66229 230.000
16.68223 250.000
16.70218 231.000
16.72213 239.000
16.74207 240.000
16.76202 280.000
16.78197 258.000
16.80191 279.000
16.82186 259.000
16.84181 289.000
16.86175 263.000
16.88170 247.000
16.90165 266.000
16.92160 197.000
16.94154 227.000
16.96149 231.000
16.98144 212.000
17.00138 236.000
17.02133 213.000
17.04128 224.000
17.06122 223.000
17.08117 207.000
17.10112 239.000
17.12107 222.000
17.14101 225.000
17.16096 232.000
17.18091 231.000
17.20085 236.000
17.22080 212.000
17.24075 214.000
17.26069 217.000
17.28064 215.000
17.30059 255.000
17.32053 231.000
17.34048 226.000
17.36043 237.000
17.38038 219.000
17.40032 239.000
17.42027 225.000
17.44022 219.000
17.46016 241.000
17.48011 277.000
17.50006 235.000
17.52000 221.000
17.53995 240.000
17.55990 234.000
17.57985 222.000
17.59979 208.000
17.61974 207.000
17.63969 234.000
17.65963 224.000
17.67958 216.000
17.69953 259.000
17.71947 229.000
17.73942 211.000
17.75937 221.000
17.77932 247.000
17.79926 250.000
17.81921 206.000
17.83916 235.000
17.85910 227.000
17.87905 238.000
17.89900 216.000
17.91894 265.000
17.93889 221.000
17.95884 237.000
17.97878 218.000
17.99873 211.000
18.01868 207.000
18.03863 197.000
18.05857 211.000
18.07852 216.000
18.09847 230.000
18.11841 240.000
18.13836 207.000
18.15831 202.000
18.17825 267.000
18.19820 256.000
18.21815 237.000
18.23810 228.000
18.25804 273.000
18.27799 310.000
18.29794 348.000
18.31788 414.000
18.33783 518.000
18.35778 673.000
18.37772 684.000
18.39767 636.000
18.41762 578.000
18.43756 412.000
18.45751 321.000
18.47746 293.000
18.49741 260.000
18.51735 231.000
18.53730 236.000
18.55725 251.000
18.57719 228.000
18.59714 265.000
18.61709 230.000
18.63703 217.000
18.65698 218.000
18.67693 221.000
18.69688 230.000
18.71682 224.000
18.73677 221.000
18.75672 230.000
18.77666 246.000
18.79661 236.000
18.81656 228.000
18.83650 241.000
18.85645 238.000
18.87640 244.000
18.89634 208.000
18.91629 223.000
18.93624 226.000
18.95619 236.000
18.97613 212.000
18.99608 233.000
19.01603 261.000
19.03597 204.000
19.05592 236.000
19.07587 231.000
19.09581 217.000
19.11576 203.000
19.13571 200.000
19.15566 224.000
19.17560 249.000
19.19555 224.000
19.21550 220.000
19.23544 221.000
19.25539 239.000
19.27534 241.000
19.29528 221.000
19.31523 228.000
19.33518 206.000
19.35513 207.000
19.37507 252.000
19.39502 235.000
19.41497 219.000
19.43491 233.000
19.45486 210.000
19.47481 230.000
19.49475 244.000
19.51470 234.000
19.53465 225.000
19.55459 235.000
19.57454 229.000
19.59449 231.000
19.61444 244.000
19.63438 226.000
19.65433 217.000
19.67428 222.000
19.69422 210.000
19.71417 257.000
19.73412 232.000
19.75406 252.000
19.77401 241.000
19.79396 227.000
19.81391 255.000
19.83385 239.000
19.85380 229.000
19.87375 213.000
19.89369 230.000
19.91364 217.000
19.93359 224.000
19.95353 234.000
19.97348 213.000
19.99343 228.000
20.01337 231.000
20.03332 230.000
20.05327 242.000
20.07322 221.000
20.09316 233.000
20.11311 227.000
20.13306 224.000
20.15300 229.000
20.17295 238.000
20.19290 257.000
20.21284 220.000
20.23279 240.000
20.25274 266.000
20.27269 226.000
20.29263 209.000
20.31258 235.000
20.33253 255.000
20.35247 253.000
20.37242 223.000
20.39237 268.000
20.41231 272.000
20.43226 270.000
20.45221 238.000
20.47215 250.000
20.49210 214.000
20.51205 226.000
20.53200 248.000
20.55194 248.000
20.57189 253.000
20.59184 222.000
20.61178 244.000
20.63173 252.000
20.65168 257.000
20.67162 268.000
20.69157 247.000
20.71152 255.000
20.73147 280.000
20.75141 288.000
20.77136 310.000
20.79131 317.000
20.81125 292.000
20.83120 362.000
20.85115 394.000
20.87109 413.000
20.89104 465.000
20.91099 471.000
20.93094 486.000
20.95088 497.000
20.97083 477.000
20.99078 453.000
21.01072 505.000
21.03067 443.000
21.05062 449.000
21.07056 414.000
21.09051 371.000
21.11046 304.000
21.13040 282.000
21.15035 294.000
21.17030 268.000
21.19025 274.000
21.21019 241.000
21.23014 241.000
21.25009 228.000
21.27003 241.000
21.28998 244.000
21.30993 230.000
21.32987 227.000
21.34982 243.000
21.36977 213.000
21.38972 220.000
21.40966 231.000
21.42961 233.000
21.44956 267.000
21.46950 246.000
21.48945 226.000
21.50940 244.000
21.52934 203.000
21.54929 240.000
21.56924 230.000
21.58918 224.000
21.60913 233.000
21.62908 236.000
21.64903 219.000
21.66897 249.000
21.68892 259.000
21.70887 257.000
21.72881 245.000
21.74876 246.000
21.76871 251.000
21.78865 218.000
21.80860 232.000
21.82855 205.000
21.84850 233.000
21.86844 222.000
21.88839 219.000
21.90834 217.000
21.92828 253.000
21.94823 253.000
21.96818 258.000
21.98812 259.000
22.00807 234.000
22.02802 255.000
22.04796 232.000
22.06791 235.000
22.08786 255.000
22.10781 263.000
22.12775 224.000
22.14770 229.000
22.16765 265.000
22.18759 233.000
22.20754 229.000
22.22749 233.000
22.24743 239.000
22.26738 237.000
22.28733 223.000
22.30728 251.000
22.32722 241.000
22.34717 213.000
22.36712 248.000
22.38706 246.000
22.40701 229.000
22.42696 239.000
22.44690 239.000
22.46685 226.000
22.48680 233.000
22.50675 278.000
22.52669 261.000
22.54664 242.000
22.56659 229.000
22.58653 202.000
22.60648 256.000
22.62643 227.000
22.64637 223.000
22.66632 245.000
22.68627 224.000
22.70621 210.000
22.72616 247.000
22.74611 237.000
22.76606 242.000
22.78600 243.000
22.80595 245.000
22.82590 256.000
22.84584 229.000
22.86579 226.000
22.88574 254.000
22.90568 231.000
22.92563 249.000
22.94558 229.000
22.96553 280.000
22.98547 252.000
23.00542 228.000
23.02537 282.000
23.04531 253.000
23.06526 230.000
23.08521 233.000
23.10515 230.000
23.12510 245.000
23.14505 245.000
23.16499 213.000
23.18494 234.000
23.20489 240.000
23.22484 229.000
23.24478 257.000
23.26473 270.000
23.28468 203.000
23.30462 239.000
23.32457 207.000
23.34452 251.000
23.36446 224.000
23.38441 249.000
23.40436 250.000
23.42431 249.000
23.44425 228.000
23.46420 255.000
23.48415 262.000
23.50409 271.000
23.52404 234.000
23.54399 241.000
23.56393 266.000
23.58388 256.000
23.60383 271.000
23.62377 235.000
23.64372 232.000
23.66367 224.000
23.68362 234.000
23.70356 231.000
23.72351 227.000
23.74346 248.000
23.76340 236.000
23.78335 239.000
23.80330 243.000
23.82324 244.000
23.84319 260.000
23.86314 216.000
23.88309 221.000
23.90303 253.000
23.92298 224.000
23.94293 238.000
23.96287 255.000
23.98282 251.000
24.00277 240.000
24.02271 231.000
24.04266 269.000
24.06261 230.000
24.08256 253.000
24.10250 271.000
24.12245 241.000
24.14240 246.000
24.16234 259.000
24.18229 230.000
24.20224 240.000
24.22218 248.000
24.24213 275.000
24.26208 248.000
24.28202 240.000
24.30197 268.000
24.32192 260.000
24.34187 285.000
24.36181 238.000
24.38176 258.000
24.40171 265.000
24.42165 216.000
24.44160 252.000
24.46155 264.000
24.48149 248.000
24.50144 250.000
24.52139 265.000
24.54134 242.000
24.56128 229.000
24.58123 250.000
24.60118 235.000
24.62112 242.000
24.64107 238.000
24.66102 252.000
24.68096 262.000
24.70091 237.000
24.72086 277.000
24.74080 231.000
24.76075 252.000
24.78070 237.000
24.80065 251.000
24.82059 253.000
24.84054 236.000
24.86049 268.000
24.88043 277.000
24.90038 277.000
24.92033 283.000
24.94027 287.000
24.96022 281.000
24.98017 307.000
25.00012 262.000
25.02006 256.000
25.04001 270.000
25.05996 250.000
25.07990 259.000
25.09985 253.000
25.11980 243.000
25.13974 266.000
25.15969 254.000
25.17964 273.000
25.19958 260.000
25.21953 259.000
25.23948 234.000
25.25943 266.000
25.27937 238.000
25.29932 267.000
25.31927 253.000
25.33921 223.000
25.35916 234.000
25.37911 231.000
25.39905 242.000
25.41900 260.000
25.43895 258.000
25.45890 241.000
25.47884 244.000
25.49879 267.000
25.51874 266.000
25.53868 247.000
25.55863 265.000
25.57858 267.000
25.59852 251.000
25.61847 264.000
25.63842 274.000
25.65837 225.000
25.67831 276.000
25.69826 235.000
25.71821 261.000
25.73815 212.000
25.75810 246.000
25.77805 249.000
25.79799 231.000
25.81794 245.000
25.83789 266.000
25.85783 271.000
25.87778 267.000
25.89773 236.000
25.91768 242.000
25.93762 255.000
25.95757 240.000
25.97752 265.000
25.99746 265.000
26.01741 241.000
26.03736 248.000
26.05730 251.000
26.07725 243.000
26.09720 280.000
26.11715 260.000
26.13709 254.000
26.15704 250.000
26.17699 244.000
26.19693 258.000
26.21688 269.000
26.23683 257.000
26.25677 269.000
26.27672 288.000
26.29667 257.000
26.31661 234.000
26.33656 260.000
26.35651 276.000
26.37646 251.000
26.39640 241.000
26.41635 270.000
26.43630 256.000
26.45624 258.000
26.47619 241.000
26.49614 248.000
26.51608 261.000
26.53603 258.000
26.55598 256.000
26.57593 242.000
26.59587 271.000
26.61582 270.000
26.63577 266.000
26.65571 257.000
26.67566 251.000
26.69561 263.000
26.71555 250.000
26.73550 278.000
26.75545 255.000
26.77539 298.000
26.79534 250.000
26.81529 236.000
26.83524 251.000
26.85518 251.000
26.87513 283.000
26.89508 283.000
26.91502 252.000
26.93497 256.000
26.95492 241.000
26.97486 243.000
26.99481 245.000
27.01476 241.000
27.03471 282.000
27.05465 249.000
27.07460 254.000
27.09455 288.000
27.11449 253.000
27.13444 282.000
27.15439 248.000
27.17433 277.000
27.19428 294.000
27.21423 272.000
27.23417 238.000
27.25412 292.000
27.27407 278.000
27.29402 241.000
27.31396 285.000
27.33391 273.000
27.35386 269.000
27.37380 251.000
27.39375 279.000
27.41370 247.000
27.43364 264.000
27.45359 298.000
27.47354 257.000
27.49349 274.000
27.51343 303.000
27.53338 305.000
27.55333 289.000
27.57327 269.000
27.59322 249.000
27.61317 258.000
27.63311 264.000
27.65306 264.000
27.67301 262.000
27.69296 260.000
27.71290 286.000
27.73285 253.000
27.75280 267.000
27.77274 285.000
27.79269 277.000
27.81264 302.000
27.83258 268.000
27.85253 300.000
27.87248 273.000
27.89242 232.000
27.91237 293.000
27.93232 272.000
27.95227 270.000
27.97221 258.000
27.99216 267.000
28.01211 278.000
28.03205 271.000
28.05200 247.000
28.07195 262.000
28.09189 287.000
28.11184 266.000
28.13179 305.000
28.15174 316.000
28.17168 278.000
28.19163 297.000
28.21158 277.000
28.23152 271.000
28.25147 241.000
28.27142 273.000
28.29136 272.000
28.31131 284.000
28.33126 255.000
28.35120 249.000
28.37115 273.000
28.39110 290.000
28.41105 281.000
28.43099 254.000
28.45094 290.000
28.47089 260.000
28.49083 279.000
28.51078 289.000
28.53073 269.000
28.55067 266.000
28.57062 289.000
28.59057 274.000
28.61052 278.000
28.63046 277.000
28.65041 277.000
28.67036 283.000
28.69030 276.000
28.71025 253.000
28.73020 279.000
28.75014 278.000
28.77009 262.000
28.79004 259.000
28.80998 257.000
28.82993 249.000
28.84988 283.000
28.86983 235.000
28.88977 254.000
28.90972 311.000
28.92967 262.000
28.94961 270.000
28.96956 277.000
28.98951 247.000
29.00945 281.000
29.02940 264.000
29.04935 312.000
29.06930 270.000
29.08924 277.000
29.10919 285.000
29.12914 281.000
29.14908 282.000
29.16903 281.000
29.18898 279.000
29.20892 296.000
29.22887 301.000
29.24882 320.000
29.26877 309.000
29.28871 338.000
29.30866 322.000
29.32861 327.000
29.34855 354.000
29.36850 319.000
29.38845 348.000
29.40839 308.000
29.42834 306.000
29.44829 323.000
29.46823 298.000
29.48818 297.000
29.50813 329.000
29.52808 310.000
29.54802 309.000
29.56797 271.000
29.58792 275.000
29.60786 312.000
29.62781 285.000
29.64776 301.000
29.66770 301.000
29.68765 246.000
29.70760 263.000
29.72755 281.000
29.74749 277.000
29.76744 295.000
29.78739 285.000
29.80733 312.000
29.82728 308.000
29.84723 313.000
29.86717 303.000
29.88712 304.000
29.90707 327.000
29.92701 283.000
29.94696 327.000
29.96691 285.000
29.98686 316.000
30.00680 311.000
30.02675 326.000
30.04670 328.000
30.06664 329.000
30.08659 386.000
30.10654 387.000
30.12648 402.000
30.14643 447.000
30.16638 563.000
30.18633 728.000
30.20627 924.000
30.22622 1157.000
30.24617 1327.000
30.26611 1308.000
30.28606 1073.000
30.30601 915.000
30.32595 963.000
30.34590 776.000
30.36585 548.000
30.38579 470.000
30.40574 399.000
30.42569 356.000
30.44564 320.000
30.46558 327.000
30.48553 284.000
30.50548 299.000
30.52542 271.000
30.54537 281.000
30.56532 304.000
30.58526 297.000
30.60521 294.000
30.62516 306.000
30.64511 305.000
30.66505 286.000
30.68500 313.000
30.70495 278.000
30.72489 273.000
30.74484 286.000
30.76479 284.000
30.78473 258.000
30.80468 306.000
30.82463 287.000
30.84458 303.000
30.86452 270.000
30.88447 282.000
30.90442 317.000
30.92436 283.000
30.94431 287.000
30.96426 263.000
30.98420 299.000
31.00415 280.000
31.02410 292.000
31.04404 292.000
31.06399 269.000
31.08394 297.000
31.10389 276.000
31.12383 278.000
31.14378 278.000
31.16373 279.000
31.18367 263.000
31.20362 304.000
31.22357 255.000
31.24351 277.000
31.26346 288.000
31.28341 283.000
31.30336 310.000
31.32330 283.000
31.34325 264.000
31.36320 265.000
31.38314 302.000
31.40309 307.000
31.42304 291.000
31.44298 280.000
31.46293 282.000
31.48288 278.000
31.50282 277.000
31.52277 303.000
31.54272 276.000
31.56267 277.000
31.58261 295.000
31.60256 278.000
31.62251 314.000
31.64245 281.000
31.66240 296.000
31.68235 300.000
31.70229 265.000
31.72224 263.000
31.74219 298.000
31.76214 304.000
31.78208 339.000
31.80203 281.000
31.82198 346.000
31.84192 310.000
31.86187 323.000
31.88182 325.000
31.90176 328.000
31.92171 353.000
31.94166 374.000
31.96160 372.000
31.98155 376.000
32.00150 319.000
32.02145 315.000
32.04139 358.000
32.06134 337.000
32.08129 373.000
32.10123 367.000
32.12118 350.000
32.14113 327.000
32.16107 298.000
32.18102 301.000
32.20097 305.000
32.22092 321.000
32.24086 295.000
32.26081 312.000
32.28076 284.000
32.30070 287.000
32.32065 294.000
32.34060 309.000
32.36054 301.000
32.38049 327.000
32.40044 309.000
32.42039 342.000
32.44033 362.000
32.46028 341.000
32.48023 347.000
32.50017 336.000
32.52012 331.000
32.54007 362.000
32.56001 329.000
32.57996 358.000
32.59991 323.000
32.61985 300.000
32.63980 304.000
32.65975 270.000
32.67970 297.000
32.69964 288.000
32.71959 283.000
32.73954 267.000
32.75948 295.000
32.77943 291.000
32.79938 299.000
32.81932 313.000
32.83927 299.000
32.85922 292.000
32.87917 328.000
32.89911 250.000
32.91906 273.000
32.93901 275.000
32.95895 286.000
32.97890 315.000
32.99885 303.000
33.01879 304.000
33.03874 285.000
33.05869 290.000
33.07863 289.000
33.09858 267.000
33.11853 293.000
33.13848 242.000
33.15842 299.000
33.17837 304.000
33.19832 268.000
33.21826 298.000
33.23821 292.000
33.25816 287.000
33.27810 279.000
33.29805 281.000
33.31800 305.000
33.33795 279.000
33.35789 291.000
33.37784 278.000
33.39779 262.000
33.41773 283.000
33.43768 300.000
33.45763 307.000
33.47757 311.000
33.49752 282.000
33.51747 281.000
33.53741 270.000
33.55736 305.000
33.57731 299.000
33.59726 268.000
33.61720 321.000
33.63715 276.000
33.65710 264.000
33.67704 283.000
33.69699 277.000
33.71694 271.000
33.73688 303.000
33.75683 304.000
33.77678 280.000
33.79673 313.000
33.81667 289.000
33.83662 269.000
33.85657 283.000
33.87651 285.000
33.89646 269.000
33.91641 305.000
33.93635 302.000
33.95630 299.000
33.97625 310.000
33.99620 291.000
34.01614 329.000
34.03609 314.000
34.05604 278.000
34.07598 274.000
34.09593 295.000
34.11588 318.000
34.13582 296.000
34.15577 306.000
34.17572 320.000
34.19566 327.000
34.21561 302.000
34.23556 326.000
34.25551 326.000
34.27545 358.000
34.29540 370.000
34.31535 350.000
34.33529 362.000
34.35524 392.000
34.37519 373.000
34.39513 389.000
34.41508 405.000
34.43503 395.000
34.45498 446.000
34.47492 421.000
34.49487 444.000
34.51482 455.000
34.53476 475.000
34.55471 449.000
34.57466 449.000
34.59460 438.000
34.61455 468.000
34.63450 465.000
34.65444 438.000
34.67439 397.000
34.69434 449.000
34.71429 447.000
34.73423 433.000
34.75418 404.000
34.77413 414.000
34.79407 416.000
34.81402 407.000
34.83397 441.000
34.85391 414.000
34.87386 418.000
34.89381 382.000
34.91376 368.000
34.93370 349.000
34.95365 385.000
34.97360 383.000
34.99354 355.000
35.01349 365.000
35.03344 356.000
35.05338 352.000
35.07333 387.000
35.09328 398.000
35.11322 404.000
35.13317 403.000
35.15312 458.000
35.17307 457.000
35.19301 446.000
35.21296 452.000
35.23291 477.000
35.25285 518.000
35.27280 545.000
35.29275 532.000
35.31269 631.000
35.33264 667.000
35.35259 760.000
35.37254 900.000
35.39248 1041.000
35.41243 1104.000
35.43238 1195.000
35.45232 1244.000
35.47227 1322.000
35.49222 1389.000
35.51216 1607.000
35.53211 1630.000
35.55206 1876.000
35.57201 2349.000
35.59195 2921.000
35.61190 3604.000
35.63185 3980.000
35.65179 3654.000
35.67174 3111.000
35.69169 2712.000
35.71163 2649.000
35.73158 2448.000
35.75153 1925.000
35.77147 1388.000
35.79142 1063.000
35.81137 761.000
35.83132 677.000
35.85126 626.000
35.87121 553.000
35.89116 484.000
35.91110 416.000
35.93105 406.000
35.95100 378.000
35.97094 358.000
35.99089 341.000
36.01084 384.000
36.03079 340.000
36.05073 358.000
36.07068 351.000
36.09063 357.000
36.11057 362.000
36.13052 340.000
36.15047 357.000
36.17041 345.000
36.19036 322.000
36.21031 296.000
36.23025 341.000
36.25020 318.000
36.27015 339.000
36.29010 334.000
36.31004 321.000
36.32999 319.000
36.34994 357.000
36.36988 307.000
36.38983 334.000
36.40978 339.000
36.42972 334.000
36.44967 320.000
36.46962 324.000
36.48957 303.000
36.50951 352.000
36.52946 354.000
36.54941 339.000
36.56935 365.000
36.58930 321.000
36.60925 309.000
36.62919 360.000
36.64914 325.000
36.66909 384.000
36.68903 333.000
36.70898 330.000
36.72893 320.000
36.74888 353.000
36.76882 364.000
36.78877 386.000
36.80872 374.000
36.82866 385.000
36.84861 389.000
36.86856 397.000
36.88850 425.000
36.90845 420.000
36.92840 438.000
36.94835 516.000
36.96829 581.000
36.98824 611.000
37.00819 716.000
37.02813 891.000
37.04808 871.000
37.06803 1036.000
37.08797 1100.000
37.10792 1049.000
37.12787 1094.000
37.14781 1010.000
37.16776 952.000
37.18771 865.000
37.20766 807.000
37.22760 747.000
37.24755 712.000
37.26750 738.000
37.28744 682.000
37.30739 577.000
37.32734 488.000
37.34728 502.000
37.36723 477.000
37.38718 495.000
37.40713 455.000
37.42707 356.000
37.44702 321.000
37.46697 302.000
37.48691 300.000
37.50686 349.000
37.52681 275.000
37.54675 314.000
37.56670 274.000
37.58665 295.000
37.60660 313.000
37.62654 280.000
37.64649 301.000
37.66644 288.000
37.68638 292.000
37.70633 276.000
37.72628 290.000
37.74622 275.000
37.76617 277.000
37.78612 315.000
37.80606 270.000
37.82601 295.000
37.84596 255.000
37.86591 307.000
37.88585 306.000
37.90580 297.000
37.92575 279.000
37.94569 274.000
37.96564 332.000
37.98559 294.000
38.00553 325.000
38.02548 288.000
38.04543 310.000
38.06538 284.000
38.08532 307.000
38.10527 349.000
38.12522 340.000
38.14516 300.000
38.16511 337.000
38.18506 296.000
38.20500 322.000
38.22495 336.000
38.24490 357.000
38.26484 363.000
38.28479 351.000
38.30474 356.000
38.32469 376.000
38.34463 342.000
38.36458 346.000
38.38453 397.000
38.40447 390.000
38.42442 386.000
38.44437 432.000
38.46431 512.000
38.48426 474.000
38.50421 563.000
38.52416 574.000
38.54410 610.000
38.56405 684.000
38.58400 798.000
38.60394 847.000
38.62389 915.000
38.64384 894.000
38.66378 979.000
38.68373 919.000
38.70368 861.000
38.72362 826.000
38.74357 806.000
38.76352 827.000
38.78347 718.000
38.80341 688.000
38.82336 617.000
38.84331 611.000
38.86325 605.000
38.88320 558.000
38.90315 515.000
38.92309 522.000
38.94304 555.000
38.96299 509.000
38.98294 494.000
39.00288 470.000
39.02283 458.000
39.04278 475.000
39.06272 469.000
39.08267 442.000
39.10262 413.000
39.12256 407.000
39.14251 391.000
39.16246 401.000
39.18241 453.000
39.20235 445.000
39.22230 420.000
39.24225 441.000
39.26219 482.000
39.28214 471.000
39.30209 505.000
39.32203 471.000
39.34198 416.000
39.36193 392.000
39.38187 405.000
39.40182 381.000
39.42177 365.000
39.44172 358.000
39.46166 318.000
39.48161 315.000
39.50156 312.000
39.52150 279.000
39.54145 290.000
39.56140 294.000
39.58134 299.000
39.60129 280.000
39.62124 302.000
39.64119 269.000
39.66113 295.000
39.68108 277.000
39.70103 282.000
39.72097 262.000
39.74092 297.000
39.76087 304.000
39.78081 271.000
39.80076 276.000
39.82071 283.000
39.84065 280.000
39.86060 273.000
39.88055 259.000
39.90050 273.000
39.92044 284.000
39.94039 291.000
39.96034 250.000
39.98028 276.000
40.00023 255.000
40.02018 280.000
40.04012 282.000
40.06007 264.000
40.08002 288.000
40.09997 283.000
40.11991 262.000
40.13986 265.000
40.15981 264.000
40.17975 279.000
40.19970 269.000
40.21965 275.000
40.23959 247.000
40.25954 274.000
40.27949 261.000
40.29943 262.000
40.31938 261.000
40.33933 260.000
40.35928 247.000
40.37922 269.000
40.39917 267.000
40.41912 261.000
40.43906 275.000
40.45901 279.000
40.47896 258.000
40.49890 257.000
40.51885 251.000
40.53880 271.000
40.55875 274.000
40.57869 288.000
40.59864 292.000
40.61859 246.000
40.63853 245.000
40.65848 234.000
40.67843 256.000
40.69837 256.000
40.71832 272.000
40.73827 269.000
40.75822 292.000
40.77816 269.000
40.79811 281.000
40.81806 240.000
40.83800 270.000
40.85795 247.000
40.87790 258.000
40.89784 280.000
40.91779 280.000
40.93774 259.000
40.95768 282.000
40.97763 313.000
40.99758 281.000
41.01753 246.000
41.03747 269.000
41.05742 277.000
41.07737 310.000
41.09731 261.000
41.11726 271.000
41.13721 264.000
41.15715 272.000
41.17710 286.000
41.19705 276.000
41.21700 269.000
41.23694 280.000
41.25689 255.000
41.27684 291.000
41.29678 268.000
41.31673 263.000
41.33668 257.000
41.35662 316.000
41.37657 299.000
41.39652 294.000
41.41646 276.000
41.43641 321.000
41.45636 329.000
41.47631 361.000
41.49625 366.000
41.51620 324.000
41.53615 349.000
41.55609 370.000
41.57604 356.000
41.59599 361.000
41.61593 373.000
41.63588 389.000
41.65583 362.000
41.67578 339.000
41.69572 337.000
41.71567 348.000
41.73562 312.000
41.75556 323.000
41.77551 312.000
41.79546 331.000
41.81540 289.000
41.83535 273.000
41.85530 259.000
41.87524 275.000
41.89519 296.000
41.91514 282.000
41.93509 245.000
41.95503 260.000
41.97498 267.000
41.99493 304.000
42.01487 271.000
42.03482 267.000
42.05477 281.000
42.07471 271.000
42.09466 301.000
42.11461 287.000
42.13456 302.000
42.15450 259.000
42.17445 272.000
42.19440 282.000
42.21434 295.000
42.23429 275.000
42.25424 276.000
42.27418 307.000
42.29413 329.000
42.31408 310.000
42.33403 274.000
42.35397 272.000
42.37392 302.000
42.39387 292.000
42.41381 303.000
42.43376 257.000
42.45371 326.000
42.47365 311.000
42.49360 302.000
42.51355 312.000
42.53349 292.000
42.55344 326.000
42.57339 324.000
42.59334 337.000
42.61328 366.000
42.63323 343.000
42.65318 354.000
42.67312 368.000
42.69307 367.000
42.71302 387.000
42.73296 366.000
42.75291 401.000
42.77286 439.000
42.79281 416.000
42.81275 439.000
42.83270 456.000
42.85265 530.000
42.87259 538.000
42.89254 510.000
42.91249 593.000
42.93243 636.000
42.95238 729.000
42.97233 770.000
42.99227 840.000
43.01222 881.000
43.03217 987.000
43.05212 1020.000
43.07206 1115.000
43.09201 1187.000
43.11196 1174.000
43.13190 1137.000
43.15185 1161.000
43.17180 1184.000
43.19174 1118.000
43.21169 1143.000
43.23164 1139.000
43.25159 1108.000
43.27153 1196.000
43.29148 1286.000
43.31143 1241.000
43.33137 1212.000
43.35132 1057.000
43.37127 977.000
43.39121 939.000
43.41116 880.000
43.43111 868.000
43.45105 828.000
43.47100 663.000
43.49095 575.000
43.51090 493.000
43.53084 458.000
43.55079 395.000
43.57074 397.000
43.59068 347.000
43.61063 325.000
43.63058 358.000
43.65052 303.000
43.67047 303.000
43.69042 289.000
43.71037 298.000
43.73031 283.000
43.75026 281.000
43.77021 322.000
43.79015 289.000
43.81010 302.000
43.83005 299.000
43.84999 294.000
43.86994 262.000
43.88989 282.000
43.90984 260.000
43.92978 293.000
43.94973 274.000
43.96968 274.000
43.98962 272.000
44.00957 269.000
44.02952 256.000
44.04946 239.000
44.06941 284.000
44.08936 246.000
44.10930 279.000
44.12925 271.000
44.14920 280.000
44.16915 300.000
44.18909 259.000
44.20904 286.000
44.22899 225.000
44.24893 313.000
44.26888 262.000
44.28883 254.000
44.30877 282.000
44.32872 278.000
44.34867 267.000
44.36862 295.000
44.38856 268.000
44.40851 257.000
44.42846 231.000
44.44840 260.000
44.46835 278.000
44.48830 262.000
44.50824 263.000
44.52819 255.000
44.54814 245.000
44.56808 264.000
44.58803 297.000
44.60798 275.000
44.62793 245.000
44.64787 301.000
44.66782 253.000
44.68777 254.000
44.70771 251.000
44.72766 278.000
44.74761 242.000
44.76755 238.000
44.78750 267.000
44.80745 265.000
44.82740 218.000
44.84734 252.000
44.86729 266.000
44.88724 283.000
44.90718 291.000
44.92713 267.000
44.94708 268.000
44.96702 285.000
44.98697 282.000
45.00692 254.000
45.02686 252.000
45.04681 287.000
45.06676 302.000
45.08671 265.000
45.10665 269.000
45.12660 273.000
45.14655 279.000
45.16649 267.000
45.18644 254.000
45.20639 254.000
45.22633 293.000
45.24628 246.000
45.26623 269.000
45.28618 284.000
45.30612 279.000
45.32607 292.000
45.34602 246.000
45.36596 260.000
45.38591 262.000
45.40586 262.000
45.42580 272.000
45.44575 245.000
45.46570 256.000
45.48565 299.000
45.50559 285.000
45.52554 300.000
45.54549 252.000
45.56543 261.000
45.58538 260.000
45.60533 235.000
45.62527 270.000
45.64522 237.000
45.66517 255.000
45.68511 268.000
45.70506 271.000
45.72501 252.000
45.74496 235.000
45.76490 231.000
45.78485 226.000
45.80480 242.000
45.82474 262.000
45.84469 231.000
45.86464 233.000
45.88458 242.000
45.90453 257.000
45.92448 264.000
45.94443 251.000
45.96437 252.000
45.98432 281.000
46.00427 239.000
46.02421 266.000
46.04416 248.000
46.06411 265.000
46.08405 243.000
46.10400 234.000
46.12395 281.000
46.14389 223.000
46.16384 280.000
46.18379 246.000
46.20374 251.000
46.22368 262.000
46.24363 253.000
46.26358 230.000
46.28352 272.000
46.30347 276.000
46.32342 270.000
46.34336 287.000
46.36331 278.000
46.38326 274.000
46.40321 286.000
46.42315 276.000
46.44310 251.000
46.46305 261.000
46.48299 238.000
46.50294 274.000
46.52289 245.000
46.54283 265.000
46.56278 260.000
46.58273 271.000
46.60267 267.000
46.62262 244.000
46.64257 257.000
46.66252 236.000
46.68246 228.000
46.70241 264.000
46.72236 219.000
46.74230 237.000
46.76225 233.000
46.78220 263.000
46.80214 251.000
46.82209 259.000
46.84204 265.000
46.86199 237.000
46.88193 246.000
46.90188 240.000
46.92183 282.000
46.94177 243.000
46.96172 257.000
46.98167 254.000
47.00161 261.000
47.02156 230.000
47.04151 228.000
47.06146 271.000
47.08140 277.000
47.10135 219.000
47.12130 255.000
47.14124 264.000
47.16119 243.000
47.18114 251.000
47.20108 287.000
47.22103 253.000
47.24098 239.000
47.26092 288.000
47.28087 255.000
47.30082 265.000
47.32077 249.000
47.34071 254.000
47.36066 255.000
47.38061 242.000
47.40055 273.000
47.42050 251.000
47.44045 285.000
47.46039 279.000
47.48034 239.000
47.50029 262.000
47.52024 241.000
47.54018 247.000
47.56013 268.000
47.58008 281.000
47.60002 259.000
47.61997 249.000
47.63992 261.000
47.65986 246.000
47.67981 273.000
47.69976 246.000
47.71970 265.000
47.73965 277.000
47.75960 264.000
47.77955 267.000
47.79949 266.000
47.81944 261.000
47.83939 254.000
47.85933 276.000
47.87928 235.000
47.89923 292.000
47.91917 271.000
47.93912 255.000
47.95907 273.000
47.97902 276.000
47.99896 303.000
48.01891 272.000
48.03886 276.000
48.05880 283.000
48.07875 293.000
48.09870 280.000
48.11864 267.000
48.13859 255.000
48.15854 296.000
48.17848 284.000
48.19843 317.000
48.21838 265.000
48.23833 282.000
48.25827 274.000
48.27822 273.000
48.29817 332.000
48.31811 256.000
48.33806 273.000
48.35801 284.000
48.37795 278.000
48.39790 257.000
48.41785 271.000
48.43780 307.000
48.45774 295.000
48.47769 333.000
48.49764 320.000
48.51758 303.000
48.53753 328.000
48.55748 383.000
48.57742 391.000
48.59737 414.000
48.61732 414.000
48.63726 460.000
48.65721 480.000
48.67716 445.000
48.69711 475.000
48.71705 488.000
48.73700 464.000
48.75695 473.000
48.77689 527.000
48.79684 470.000
48.81679 492.000
48.83673 464.000
48.85668 464.000
48.87663 465.000
48.89658 421.000
48.91652 413.000
48.93647 416.000
48.95642 365.000
48.97636 360.000
48.99631 349.000
49.01626 323.000
49.03620 329.000
49.05615 380.000
49.07610 342.000
49.09605 312.000
49.11599 287.000
49.13594 293.000
49.15589 293.000
49.17583 254.000
49.19578 291.000
49.21573 276.000
49.23567 292.000
49.25562 300.000
49.27557 260.000
49.29551 262.000
49.31546 283.000
49.33541 271.000
49.35536 263.000
49.37530 255.000
49.39525 286.000
49.41520 259.000
49.43514 286.000
49.45509 271.000
49.47504 270.000
49.49498 268.000
49.51493 244.000
49.53488 264.000
49.55483 266.000
49.57477 242.000
49.59472 276.000
49.61467 248.000
49.63461 258.000
49.65456 258.000
49.67451 238.000
49.69445 251.000
49.71440 271.000
49.73435 258.000
49.75429 276.000
49.77424 248.000
49.79419 264.000
49.81414 239.000
49.83408 291.000
49.85403 270.000
49.87398 264.000
49.89392 249.000
49.91387 261.000
49.93382 236.000
49.95376 235.000
49.97371 266.000
49.99366 251.000
50.01361 267.000
50.03355 232.000
50.05350 257.000
50.07345 243.000
50.09339 258.000
50.11334 257.000
50.13329 249.000
50.15323 233.000
50.17318 239.000
50.19313 267.000
50.21307 255.000
50.23302 256.000
50.25297 235.000
50.27292 261.000
50.29286 228.000
50.31281 236.000
50.33276 240.000
50.35270 253.000
50.37265 243.000
50.39260 274.000
50.41254 259.000
50.43249 241.000
50.45244 244.000
50.47239 247.000
50.49233 257.000
50.51228 255.000
50.53223 254.000
50.55217 250.000
50.57212 275.000
50.59207 225.000
50.61201 271.000
50.63196 244.000
50.65191 265.000
50.67186 277.000
50.69180 256.000
50.71175 234.000
50.73170 257.000
50.75164 259.000
50.77159 275.000
50.79154 247.000
50.81148 216.000
50.83143 241.000
50.85138 250.000
50.87132 250.000
50.89127 226.000
50.91122 246.000
50.93117 250.000
50.95111 258.000
50.97106 250.000
50.99101 258.000
51.01095 243.000
51.03090 277.000
51.05085 286.000
51.07079 261.000
51.09074 263.000
51.11069 242.000
51.13064 239.000
51.15058 226.000
51.17053 245.000
51.19048 247.000
51.21042 266.000
51.23037 244.000
51.25032 254.000
51.27026 245.000
51.29021 231.000
51.31016 255.000
51.33010 245.000
51.35005 257.000
51.37000 275.000
51.38995 258.000
51.40989 251.000
51.42984 256.000
51.44979 260.000
51.46973 267.000
51.48968 261.000
51.50963 263.000
51.52957 265.000
51.54952 235.000
51.56947 242.000
51.58942 238.000
51.60936 226.000
51.62931 245.000
51.64926 238.000
51.66920 261.000
51.68915 260.000
51.70910 228.000
51.72904 263.000
51.74899 239.000
51.76894 231.000
51.78888 287.000
51.80883 241.000
51.82878 259.000
51.84873 239.000
51.86867 253.000
51.88862 252.000
51.90857 243.000
51.92851 271.000
51.94846 250.000
51.96841 258.000
51.98835 257.000
52.00830 305.000
52.02825 276.000
52.04820 236.000
52.06814 255.000
52.08809 249.000
52.10804 232.000
52.12798 275.000
52.14793 261.000
52.16788 259.000
52.18782 257.000
52.20777 248.000
52.22772 236.000
52.24767 257.000
52.26761 247.000
52.28756 258.000
52.30751 261.000
52.32745 243.000
52.34740 255.000
52.36735 261.000
52.38729 259.000
52.40724 255.000
52.42719 251.000
52.44713 265.000
52.46708 228.000
52.48703 255.000
52.50698 246.000
52.52692 264.000
52.54687 264.000
52.56682 263.000
52.58676 242.000
52.60671 259.000
52.62666 232.000
52.64660 231.000
52.66655 256.000
52.68650 260.000
52.70645 249.000
52.72639 273.000
52.74634 239.000
52.76629 249.000
52.78623 255.000
52.80618 274.000
52.82613 258.000
52.84607 240.000
52.86602 282.000
52.88597 292.000
52.90591 269.000
52.92586 230.000
52.94581 254.000
52.96576 246.000
52.98570 251.000
53.00565 253.000
53.02560 244.000
53.04554 295.000
53.06549 305.000
53.08544 296.000
53.10538 296.000
53.12533 302.000
53.14528 306.000
53.16523 273.000
53.18517 298.000
53.20512 291.000
53.22507 292.000
53.24501 262.000
53.26496 320.000
53.28491 244.000
53.30485 275.000
53.32480 324.000
53.34475 323.000
53.36469 285.000
53.38464 321.000
53.40459 310.000
53.42454 315.000
53.44448 312.000
53.46443 327.000
53.48438 279.000
53.50432 285.000
53.52427 313.000
53.54422 298.000
53.56416 296.000
53.58411 307.000
53.60406 301.000
53.62401 317.000
53.64395 319.000
53.66390 347.000
53.68385 337.000
53.70379 386.000
53.72374 482.000
53.74369 486.000
53.76363 493.000
53.78358 501.000
53.80353 452.000
53.82348 368.000
53.84342 380.000
53.86337 350.000
53.88332 428.000
53.90326 439.000
53.92321 387.000
53.94316 346.000
53.96310 330.000
53.98305 272.000
54.00300 279.000
54.02294 273.000
54.04289 271.000
54.06284 261.000
54.08279 268.000
54.10273 259.000
54.12268 250.000
54.14263 262.000
54.16257 265.000
54.18252 277.000
54.20247 230.000
54.22241 274.000
54.24236 274.000
54.26231 264.000
54.28226 286.000
54.30220 273.000
54.32215 251.000
54.34210 248.000
54.36204 236.000
54.38199 251.000
54.40194 217.000
54.42188 265.000
54.44183 253.000
54.46178 255.000
54.48172 241.000
54.50167 243.000
54.52162 245.000
54.54157 228.000
54.56151 251.000
54.58146 265.000
54.60141 282.000
54.62135 251.000
54.64130 249.000
54.66125 260.000
54.68119 253.000
54.70114 268.000
54.72109 268.000
54.74104 271.000
54.76098 250.000
54.78093 256.000
54.80088 277.000
54.82082 283.000
54.84077 259.000
54.86072 234.000
54.88066 265.000
54.90061 217.000
54.92056 232.000
54.94050 253.000
54.96045 238.000
54.98040 258.000
55.00035 244.000
55.02029 254.000
55.04024 235.000
55.06019 251.000
55.08013 266.000
55.10008 232.000
55.12003 242.000
55.13997 256.000
55.15992 242.000
55.17987 204.000
55.19982 261.000
55.21976 287.000
55.23971 245.000
55.25966 254.000
55.27960 240.000
55.29955 264.000
55.31950 233.000
55.33944 251.000
55.35939 244.000
55.37934 253.000
55.39929 265.000
55.41923 257.000
55.43918 251.000
55.45913 296.000
55.47907 246.000
55.49902 266.000
55.51897 270.000
55.53891 227.000
55.55886 230.000
55.57881 257.000
55.59875 281.000
55.61870 245.000
55.63865 277.000
55.65860 284.000
55.67854 230.000
55.69849 259.000
55.71844 264.000
55.73838 250.000
55.75833 267.000
55.77828 254.000
55.79822 285.000
55.81817 236.000
55.83812 229.000
55.85807 227.000
55.87801 258.000
55.89796 236.000
55.91791 263.000
55.93785 253.000
55.95780 250.000
55.97775 228.000
55.99769 272.000
56.01764 247.000
56.03759 241.000
56.05753 255.000
56.07748 243.000
56.09743 258.000
56.11738 248.000
56.13732 253.000
56.15727 249.000
56.17722 238.000
56.19716 242.000
56.21711 236.000
56.23706 253.000
56.25700 230.000
56.27695 234.000
56.29690 250.000
56.31685 278.000
56.33679 233.000
56.35674 238.000
56.37669 245.000
56.39663 275.000
56.41658 262.000
56.43653 265.000
56.45647 246.000
56.47642 236.000
56.49637 217.000
56.51631 242.000
56.53626 246.000
56.55621 219.000
56.57616 246.000
56.59610 276.000
56.61605 249.000
56.63600 277.000
56.65594 291.000
56.67589 250.000
56.69584 282.000
56.71578 272.000
56.73573 260.000
56.75568 261.000
56.77563 280.000
56.79557 292.000
56.81552 283.000
56.83547 291.000
56.85541 272.000
56.87536 295.000
56.89531 268.000
56.91525 271.000
56.93520 288.000
56.95515 331.000
56.97510 311.000
56.99504 323.000
57.01499 288.000
57.03494 326.000
57.05488 349.000
57.07483 351.000
57.09478 332.000
57.11472 350.000
57.13467 383.000
57.15462 372.000
57.17456 427.000
57.19451 466.000
57.21446 504.000
57.23441 593.000
57.25435 687.000
57.27430 835.000
57.29425 917.000
57.31419 1018.000
57.33414 951.000
57.35409 856.000
57.37403 753.000
57.39398 640.000
57.41393 695.000
57.43388 669.000
57.45382 713.000
57.47377 652.000
57.49372 579.000
57.51366 539.000
57.53361 504.000
57.55356 432.000
57.57350 423.000
57.59345 384.000
57.61340 382.000
57.63334 353.000
57.65329 308.000
57.67324 339.000
57.69319 307.000
57.71313 338.000
57.73308 309.000
57.75303 308.000
57.77297 296.000
57.79292 332.000
57.81287 316.000
57.83281 274.000
57.85276 297.000
57.87271 296.000
57.89266 284.000
57.91260 276.000
57.93255 268.000
57.95250 297.000
57.97244 269.000
57.99239 305.000
58.01234 279.000
58.03228 268.000
58.05223 288.000
58.07218 322.000
58.09212 303.000
58.11207 301.000
58.13202 312.000
58.15197 292.000
58.17191 294.000
58.19186 299.000
58.21181 322.000
58.23175 351.000
58.25170 322.000
58.27165 321.000
58.29159 318.000
58.31154 308.000
58.33149 306.000
58.35144 314.000
58.37138 294.000
58.39133 304.000
58.41128 311.000
58.43122 301.000
58.45117 305.000
58.47112 272.000
58.49106 283.000
58.51101 263.000
58.53096 266.000
58.55090 307.000
58.57085 274.000
58.59080 292.000
58.61075 260.000
58.63069 297.000
58.65064 247.000
58.67059 276.000
58.69053 262.000
58.71048 270.000
58.73043 257.000
58.75037 248.000
58.77032 259.000
58.79027 244.000
58.81022 247.000
58.83016 263.000
58.85011 240.000
58.87006 252.000
58.89000 264.000
58.90995 276.000
58.92990 260.000
58.94984 280.000
58.96979 246.000
58.98974 260.000
59.00969 245.000
59.02963 285.000
59.04958 256.000
59.06953 266.000
59.08947 253.000
59.10942 214.000
59.12937 254.000
59.14931 237.000
59.16926 263.000
59.18921 253.000
59.20915 254.000
59.22910 263.000
59.24905 249.000
59.26900 245.000
59.28894 234.000
59.30889 261.000
59.32884 246.000
59.34878 266.000
59.36873 232.000
59.38868 240.000
59.40862 233.000
59.42857 242.000
59.44852 226.000
59.46847 261.000
59.48841 246.000
59.50836 261.000
59.52831 242.000
59.54825 253.000
59.56820 246.000
59.58815 277.000
59.60809 228.000
59.62804 246.000
59.64799 262.000
59.66793 254.000
59.68788 261.000
59.70783 243.000
59.72778 231.000
59.74772 226.000
59.76767 267.000
59.78762 261.000
59.80756 258.000
59.82751 242.000
59.84746 241.000
59.86740 234.000
59.88735 232.000
59.90730 263.000
59.92725 260.000
59.94719 257.000
59.96714 244.000
59.98709 257.000
60.00703 260.000
60.02698 253.000
60.04693 261.000
60.06687 237.000
60.08682 243.000
60.10677 259.000
60.12671 256.000
60.14666 253.000
60.16661 285.000
60.18656 266.000
60.20650 258.000
60.22645 278.000
60.24640 262.000
60.26634 245.000
60.28629 260.000
60.30624 249.000
60.32618 280.000
60.34613 265.000
60.36608 242.000
60.38603 238.000
60.40597 227.000
60.42592 249.000
60.44587 259.000
60.46581 287.000
60.48576 241.000
60.50571 257.000
60.52565 227.000
60.54560 259.000
60.56555 257.000
60.58550 255.000
60.60544 268.000
60.62539 263.000
60.64534 259.000
60.66528 271.000
60.68523 261.000
60.70518 239.000
60.72512 258.000
60.74507 289.000
60.76502 270.000
60.78496 270.000
60.80491 275.000
60.82486 239.000
60.84481 270.000
60.86475 259.000
60.88470 285.000
60.90465 264.000
60.92459 261.000
60.94454 252.000
60.96449 243.000
60.98443 249.000
61.00438 247.000
61.02433 246.000
61.04428 246.000
61.06422 225.000
61.08417 249.000
61.10412 240.000
61.12406 277.000
61.14401 283.000
61.16396 273.000
61.18390 284.000
61.20385 267.000
61.22380 277.000
61.24374 301.000
61.26369 295.000
61.28364 295.000
61.30359 282.000
61.32353 295.000
61.34348 285.000
61.36343 317.000
61.38337 318.000
61.40332 356.000
61.42327 358.000
61.44321 348.000
61.46316 351.000
61.48311 357.000
61.50306 385.000
61.52300 362.000
61.54295 354.000
61.56290 390.000
61.58284 377.000
61.60279 392.000
61.62274 389.000
61.64268 348.000
61.66263 385.000
61.68258 396.000
61.70252 352.000
61.72247 362.000
61.74242 356.000
61.76237 328.000
61.78231 372.000
61.80226 346.000
61.82221 336.000
61.84215 354.000
61.86210 369.000
61.88205 336.000
61.90199 327.000
61.92194 383.000
61.94189 370.000
61.96184 363.000
61.98178 389.000
62.00173 344.000
62.02168 372.000
62.04162 344.000
62.06157 331.000
62.08152 362.000
62.10146 358.000
62.12141 368.000
62.14136 334.000
62.16131 342.000
62.18125 354.000
62.20120 333.000
62.22115 351.000
62.24109 362.000
62.26104 385.000
62.28099 342.000
62.30093 398.000
62.32088 409.000
62.34083 416.000
62.36077 389.000
62.38072 420.000
62.40067 469.000
62.42062 485.000
62.44056 512.000
62.46051 524.000
62.48046 532.000
62.50040 551.000
62.52035 556.000
62.54030 613.000
62.56024 650.000
62.58019 674.000
62.60014 704.000
62.62009 739.000
62.64003 741.000
62.65998 743.000
62.67993 682.000
62.69987 739.000
62.71982 677.000
62.73977 684.000
62.75971 672.000
62.77966 682.000
62.79961 672.000
62.81955 716.000
62.83950 754.000
62.85945 835.000
62.87940 955.000
62.89934 1052.000
62.91929 1175.000
62.93924 1312.000
62.95918 1222.000
62.97913 1146.000
62.99908 1012.000
63.01902 908.000
63.03897 841.000
63.05892 812.000
63.07887 754.000
63.09881 845.000
63.11876 821.000
63.13871 771.000
63.15865 719.000
63.17860 617.000
63.19855 563.000
63.21849 490.000
63.23844 439.000
63.25839 386.000
63.27833 378.000
63.29828 345.000
63.31823 363.000
63.33818 328.000
63.35812 293.000
63.37807 293.000
63.39802 271.000
63.41796 262.000
63.43791 329.000
63.45786 294.000
63.47780 292.000
63.49775 282.000
63.51770 293.000
63.53765 256.000
63.55759 272.000
63.57754 276.000
63.59749 274.000
63.61743 248.000
63.63738 256.000
63.65733 260.000
63.67727 289.000
63.69722 285.000
63.71717 269.000
63.73712 257.000
63.75706 284.000
63.77701 266.000
63.79696 256.000
63.81690 290.000
63.83685 291.000
63.85680 260.000
63.87674 282.000
63.89669 269.000
63.91664 272.000
63.93658 277.000
63.95653 282.000
63.97648 261.000
63.99643 271.000
64.01637 276.000
64.03632 266.000
64.05627 280.000
64.07621 262.000
64.09616 288.000
64.11611 282.000
64.13605 313.000
64.15600 317.000
64.17595 276.000
64.19590 317.000
64.21584 331.000
64.23579 290.000
64.25574 312.000
64.27568 285.000
64.29563 294.000
64.31558 290.000
64.33552 291.000
64.35547 300.000
64.37542 281.000
64.39536 293.000
64.41531 324.000
64.43526 276.000
64.45521 275.000
64.47515 263.000
64.49510 264.000
64.51505 261.000
64.53499 296.000
64.55494 248.000
64.57489 243.000
64.59483 258.000
64.61478 271.000
64.63473 265.000
64.65468 251.000
64.67462 230.000
64.69457 249.000
64.71452 268.000
64.73446 284.000
64.75441 271.000
64.77436 236.000
64.79430 286.000
64.81425 259.000
64.83420 256.000
64.85414 268.000
64.87409 258.000
64.89404 216.000
64.91399 249.000
64.93393 281.000
64.95388 296.000
64.97383 261.000
64.99377 248.000
65.01372 266.000
65.03367 266.000
65.05361 273.000
65.07356 261.000
65.09351 257.000
65.11346 269.000
65.13340 263.000
65.15335 263.000
65.17330 288.000
65.19324 296.000
65.21319 253.000
65.23314 272.000
65.25308 274.000
65.27303 254.000
65.29298 259.000
65.31293 283.000
65.33287 258.000
65.35282 275.000
65.37277 283.000
65.39271 293.000
65.41266 287.000
65.43261 283.000
65.45255 298.000
65.47250 297.000
65.49245 276.000
65.51239 326.000
65.53234 317.000
65.55229 307.000
65.57224 305.000
65.59218 314.000
65.61213 315.000
65.63208 293.000
65.65202 351.000
65.67197 335.000
65.69192 305.000
65.71186 331.000
65.73181 321.000
65.75176 337.000
65.77171 297.000
65.79165 331.000
65.81160 336.000
65.83155 304.000
65.85149 295.000
65.87144 322.000
65.89139 326.000
65.91133 283.000
65.93128 333.000
65.95123 308.000
65.97117 303.000
65.99112 301.000
66.01107 265.000
66.03102 304.000
66.05096 332.000
66.07091 286.000
66.09086 314.000
66.11080 307.000
66.13075 344.000
66.15070 338.000
66.17064 340.000
66.19059 355.000
66.21054 319.000
66.23049 384.000
66.25043 356.000
66.27038 399.000
66.29033 381.000
66.31027 371.000
66.33022 350.000
66.35017 362.000
66.37011 383.000
66.39006 332.000
66.41001 356.000
66.42995 336.000
66.44990 358.000
66.46985 375.000
66.48980 285.000
66.50974 312.000
66.52969 294.000
66.54964 315.000
66.56958 352.000
66.58953 326.000
66.60948 303.000
66.62942 312.000
66.64937 303.000
66.66932 282.000
66.68927 290.000
66.70921 301.000
66.72916 306.000
66.74911 320.000
66.76905 287.000
66.78900 286.000
66.80895 266.000
66.82889 281.000
66.84884 291.000
66.86879 272.000
66.88874 266.000
66.90868 266.000
66.92863 277.000
66.94858 260.000
66.96852 243.000
66.98847 254.000
67.00842 270.000
67.02836 244.000
67.04831 261.000
67.06826 308.000
67.08820 284.000
67.10815 245.000
67.12810 265.000
67.14805 266.000
67.16799 271.000
67.18794 265.000
67.20789 258.000
67.22783 295.000
67.24778 265.000
67.26773 262.000
67.28767 292.000
67.30762 253.000
67.32757 254.000
67.34752 252.000
67.36746 249.000
67.38741 258.000
67.40736 250.000
67.42730 270.000
67.44725 268.000
67.46720 281.000
67.48714 292.000
67.50709 277.000
67.52704 261.000
67.54698 252.000
67.56693 297.000
67.58688 265.000
67.60683 244.000
67.62677 265.000
67.64672 285.000
67.66667 267.000
67.68661 298.000
67.70656 339.000
67.72651 290.000
67.74645 295.000
67.76640 277.000
67.78635 295.000
67.80630 297.000
67.82624 310.000
67.84619 332.000
67.86614 329.000
67.88608 318.000
67.90603 322.000
67.92598 314.000
67.94592 346.000
67.96587 338.000
67.98582 323.000
68.00576 312.000
68.02571 340.000
68.04566 336.000
68.06561 336.000
68.08555 306.000
68.10550 329.000
68.12545 326.000
68.14539 309.000
68.16534 312.000
68.18529 300.000
68.20523 289.000
68.22518 266.000
68.24513 297.000
68.26508 313.000
68.28502 278.000
68.30497 299.000
68.32492 285.000
68.34486 295.000
68.36481 284.000
68.38476 287.000
68.40470 278.000
68.42465 299.000
68.44460 261.000
68.46455 271.000
68.48449 265.000
68.50444 279.000
68.52439 274.000
68.54433 243.000
68.56428 236.000
68.58423 232.000
68.60417 269.000
68.62412 240.000
68.64407 246.000
68.66401 229.000
68.68396 272.000
68.70391 243.000
68.72386 224.000
68.74380 276.000
68.76375 214.000
68.78370 274.000
68.80364 245.000
68.82359 256.000
68.84354 262.000
68.86348 231.000
68.88343 243.000
68.90338 238.000
68.92333 275.000
68.94327 246.000
68.96322 259.000
68.98317 259.000
69.00311 246.000
69.02306 253.000
69.04301 240.000
69.06295 235.000
69.08290 231.000
69.10285 244.000
69.12279 241.000
69.14274 249.000
69.16269 251.000
69.18264 243.000
69.20258 268.000
69.22253 257.000
69.24248 251.000
69.26242 225.000
69.28237 251.000
69.30232 266.000
69.32226 235.000
69.34221 244.000
69.36216 263.000
69.38211 233.000
69.40205 240.000
69.42200 225.000
69.44195 249.000
69.46189 222.000
69.48184 200.000
69.50179 273.000
69.52173 261.000
69.54168 228.000
69.56163 236.000
69.58157 251.000
69.60152 228.000
69.62147 224.000
69.64142 259.000
69.66136 227.000
69.68131 246.000
69.70126 269.000
69.72120 229.000
69.74115 244.000
69.76110 239.000
69.78104 240.000
69.80099 250.000
69.82094 240.000
69.84089 282.000
69.86083 243.000
69.88078 242.000
69.90073 247.000
69.92067 209.000
69.94062 242.000
69.96057 232.000
69.98051 238.000
70.00046 233.000
70.02041 252.000
70.04035 233.000
70.06030 217.000
70.08025 268.000
70.10020 204.000
70.12014 235.000
70.14009 224.000
70.16004 222.000
70.17998 241.000
70.19993 242.000
70.21988 248.000
70.23982 239.000
70.25977 243.000
70.27972 253.000
70.29967 219.000
70.31961 253.000
70.33956 257.000
70.35951 234.000
70.37945 251.000
70.39940 217.000
70.41935 222.000
70.43929 263.000
70.45924 245.000
70.47919 249.000
70.49914 225.000
70.51908 258.000
70.53903 230.000
70.55898 250.000
70.57892 257.000
70.59887 236.000
70.61882 243.000
70.63876 247.000
70.65871 259.000
70.67866 272.000
70.69860 214.000
70.71855 233.000
70.73850 250.000
70.75845 237.000
70.77839 258.000
70.79834 228.000
70.81829 230.000
70.83823 251.000
70.85818 231.000
70.87813 259.000
70.89807 281.000
70.91802 249.000
70.93797 240.000
70.95792 271.000
70.97786 248.000
70.99781 265.000
71.01776 235.000
71.03770 261.000
71.05765 234.000
71.07760 250.000
71.09754 272.000
71.11749 223.000
71.13744 255.000
71.15738 261.000
71.17733 266.000
71.19728 249.000
71.21723 233.000
71.23717 266.000
71.25712 261.000
71.27707 217.000
71.29701 262.000
71.31696 260.000
71.33691 270.000
71.35685 297.000
71.37680 306.000
71.39675 338.000
71.41670 301.000
71.43664 295.000
71.45659 286.000
71.47654 300.000
71.49648 283.000
71.51643 284.000
71.53638 268.000
71.55632 296.000
71.57627 280.000
71.59622 279.000
71.61616 277.000
71.63611 286.000
71.65606 282.000
71.67601 251.000
71.69595 264.000
71.71590 275.000
71.73585 258.000
71.75579 266.000
71.77574 233.000
71.79569 240.000
71.81563 248.000
71.83558 266.000
71.85553 244.000
71.87548 260.000
71.89542 251.000
71.91537 271.000
71.93532 234.000
71.95526 238.000
71.97521 245.000
71.99516 247.000
72.01510 247.000
72.03505 250.000
72.05500 270.000
72.07495 247.000
72.09489 233.000
72.11484 263.000
72.13479 271.000
72.15473 285.000
72.17468 228.000
72.19463 255.000
72.21457 274.000
72.23452 258.000
72.25447 254.000
72.27441 280.000
72.29436 286.000
72.31431 273.000
72.33426 283.000
72.35420 284.000
72.37415 278.000
72.39410 300.000
72.41404 279.000
72.43399 247.000
72.45394 278.000
72.47388 291.000
72.49383 268.000
72.51378 268.000
72.53373 286.000
72.55367 285.000
72.57362 253.000
72.59357 279.000
72.61351 261.000
72.63346 258.000
72.65341 266.000
72.67335 252.000
72.69330 241.000
72.71325 265.000
72.73319 281.000
72.75314 232.000
72.77309 236.000
72.79304 258.000
72.81298 243.000
72.83293 283.000
72.85288 242.000
72.87282 246.000
72.89277 267.000
72.91272 298.000
72.93266 292.000
72.95261 222.000
72.97256 244.000
72.99251 259.000
73.01245 224.000
73.03240 240.000
73.05235 241.000
73.07229 283.000
73.09224 251.000
73.11219 261.000
73.13213 246.000
73.15208 247.000
73.17203 228.000
73.19197 248.000
73.21192 239.000
73.23187 250.000
73.25182 235.000
73.27176 265.000
73.29171 273.000
73.31166 253.000
73.33160 265.000
73.35155 246.000
73.37150 266.000
73.39144 264.000
73.41139 256.000
73.43134 255.000
73.45129 269.000
73.47123 262.000
73.49118 269.000
73.51113 264.000
73.53107 252.000
73.55102 244.000
73.57097 284.000
73.59091 260.000
73.61086 234.000
73.63081 260.000
73.65076 242.000
73.67070 254.000
73.69065 251.000
73.71060 253.000
73.73054 270.000
73.75049 232.000
73.77044 242.000
73.79038 265.000
73.81033 223.000
73.83028 227.000
73.85022 264.000
73.87017 271.000
73.89012 235.000
73.91007 262.000
73.93001 248.000
73.94996 264.000
73.96991 259.000
73.98985 262.000
74.00980 243.000
74.02975 269.000
74.04969 240.000
74.06964 250.000
74.08959 252.000
74.10954 236.000
74.12948 263.000
74.14943 278.000
74.16938 251.000
74.18932 278.000
74.20927 292.000
74.22922 247.000
74.24916 303.000
74.26911 250.000
74.28906 296.000
74.30900 268.000
74.32895 269.000
74.34890 287.000
74.36885 298.000
74.38879 266.000
74.40874 364.000
74.42869 359.000
74.44863 385.000
74.46858 377.000
74.48853 441.000
74.50847 427.000
74.52842 441.000
74.54837 381.000
74.56832 379.000
74.58826 388.000
74.60821 358.000
74.62816 332.000
74.64810 346.000
74.66805 362.000
74.68800 418.000
74.70794 397.000
74.72789 413.000
74.74784 348.000
74.76778 399.000
74.78773 344.000
74.80768 357.000
74.82763 366.000
74.84757 354.000
74.86752 387.000
74.88747 361.000
74.90741 370.000
74.92736 347.000
74.94731 357.000
74.96725 399.000
74.98720 376.000
75.00715 380.000
75.02710 400.000
75.04704 367.000
75.06699 404.000
75.08694 384.000
75.10688 400.000
75.12683 440.000
75.14678 407.000
75.16672 380.000
75.18667 417.000
75.20662 417.000
75.22657 391.000
75.24651 365.000
75.26646 382.000
75.28641 400.000
75.30635 377.000
75.32630 374.000
75.34625 365.000
75.36619 397.000
75.38614 322.000
75.40609 349.000
75.42603 380.000
75.44598 379.000
75.46593 373.000
75.48588 365.000
75.50582 349.000
75.52577 360.000
75.54572 363.000
75.56566 317.000
75.58561 309.000
75.60556 331.000
75.62550 312.000
75.64545 303.000
75.66540 322.000
75.68535 308.000
75.70529 288.000
75.72524 312.000
75.74519 313.000
75.76513 304.000
75.78508 262.000
75.80503 238.000
75.82497 273.000
75.84492 257.000
75.86487 276.000
75.88481 274.000
75.90476 265.000
75.92471 289.000
75.94466 242.000
75.96460 258.000
75.98455 241.000
76.00450 268.000
76.02444 282.000
76.04439 259.000
76.06434 276.000
76.08428 244.000
76.10423 268.000
76.12418 267.000
76.14413 233.000
76.16407 242.000
76.18402 232.000
76.20397 263.000
76.22391 224.000
76.24386 247.000
76.26381 245.000
76.28375 241.000
76.30370 259.000
76.32365 240.000
76.34359 241.000
76.36354 251.000
76.38349 253.000
76.40344 225.000
76.42338 253.000
76.44333 260.000
76.46328 223.000
76.48322 225.000
76.50317 239.000
76.52312 229.000
76.54306 231.000
76.56301 245.000
76.58296 215.000
76.60291 249.000
76.62285 264.000
76.64280 253.000
76.66275 251.000
76.68269 244.000
76.70264 229.000
76.72259 255.000
76.74253 256.000
76.76248 233.000
76.78243 238.000
76.80238 244.000
76.82232 247.000
76.84227 220.000
76.86222 245.000
76.88216 242.000
76.90211 254.000
76.92206 217.000
76.94200 244.000
76.96195 244.000
76.98190 236.000
77.00184 266.000
77.02179 215.000
77.04174 256.000
77.06169 245.000
77.08163 245.000
77.10158 238.000
77.12153 244.000
77.14147 265.000
77.16142 254.000
77.18137 239.000
77.20131 215.000
77.22126 236.000
77.24121 268.000
77.26116 246.000
77.28110 234.000
77.30105 229.000
77.32100 269.000
77.34094 230.000
77.36089 215.000
77.38084 250.000
77.40078 240.000
77.42073 226.000
77.44068 227.000
77.46062 277.000
77.48057 249.000
77.50052 258.000
77.52047 236.000
77.54041 240.000
77.56036 243.000
77.58031 271.000
77.60025 226.000
77.62020 262.000
77.64015 221.000
77.66009 230.000
77.68004 232.000
77.69999 249.000
77.71994 267.000
77.73988 239.000
77.75983 286.000
77.77978 278.000
77.79972 259.000
77.81967 257.000
77.83962 264.000
77.85956 249.000
77.87951 245.000
77.89946 264.000
77.91940 234.000
77.93935 262.000
77.95930 223.000
77.97925 232.000
77.99919 256.000
78.01914 256.000
78.03909 251.000
78.05903 261.000
78.07898 263.000
78.09893 235.000
78.11887 262.000
78.13882 245.000
78.15877 271.000
78.17872 261.000
78.19866 273.000
78.21861 236.000
78.23856 263.000
78.25850 252.000
78.27845 244.000
78.29840 263.000
78.31834 255.000
78.33829 249.000
78.35824 248.000
78.37819 250.000
78.39813 284.000
78.41808 277.000
78.43803 237.000
78.45797 252.000
78.47792 247.000
78.49787 263.000
78.51781 259.000
78.53776 245.000
78.55771 273.000
78.57765 262.000
78.59760 278.000
78.61755 266.000
78.63750 229.000
78.65744 257.000
78.67739 278.000
78.69734 251.000
78.71728 284.000
78.73723 283.000
78.75718 240.000
78.77712 279.000
78.79707 229.000
78.81702 284.000
78.83697 299.000
78.85691 284.000
78.87686 330.000
78.89681 292.000
78.91675 317.000
78.93670 287.000
78.95665 313.000
78.97659 324.000
78.99654 359.000
79.01649 339.000
79.03643 329.000
79.05638 347.000
79.07633 346.000
79.09628 367.000
79.11622 323.000
79.13617 297.000
79.15612 333.000
79.17606 262.000
79.19601 321.000
79.21596 291.000
79.23590 294.000
79.25585 320.000
79.27580 320.000
79.29575 294.000
79.31569 323.000
79.33564 315.000
79.35559 305.000
79.37553 302.000
79.39548 301.000
79.41543 266.000
79.43537 292.000
79.45532 331.000
79.47527 330.000
79.49521 305.000
79.51516 313.000
79.53511 271.000
79.55506 275.000
79.57500 266.000
79.59495 292.000
79.61490 279.000
79.63484 292.000
79.65479 255.000
79.67474 254.000
79.69468 297.000
79.71463 260.000
79.73458 264.000
79.75453 281.000
79.77447 266.000
79.79442 262.000
79.81437 262.000
79.83431 265.000
79.85426 209.000
79.87421 269.000
79.89415 269.000
79.91410 232.000
79.93405 252.000
79.95399 257.000
79.97394 260.000
79.99389 232.000
80.01384 275.000
80.03378 286.000
80.05373 256.000
80.07368 226.000
80.09362 219.000
80.11357 254.000
80.13352 241.000
80.15346 234.000
80.17341 246.000
80.19336 239.000
80.21331 262.000
80.23325 258.000
80.25320 224.000
80.27315 236.000
80.29309 224.000
80.31304 241.000
80.33299 271.000
80.35293 277.000
80.37288 252.000
80.39283 222.000
80.41278 223.000
80.43272 265.000
80.45267 259.000
80.47262 249.000
80.49256 244.000
80.51251 244.000
80.53246 231.000
80.55240 215.000
80.57235 254.000
80.59230 260.000
80.61224 224.000
80.63219 247.000
80.65214 236.000
80.67209 237.000
80.69203 265.000
80.71198 245.000
80.73193 273.000
80.75187 271.000
80.77182 259.000
80.79177 243.000
80.81171 221.000
80.83166 244.000
80.85161 222.000
80.87156 223.000
80.89150 248.000
80.91145 227.000
80.93140 258.000
80.95134 234.000
80.97129 232.000
80.99124 225.000
81.01118 254.000
81.03113 236.000
81.05108 235.000
81.07102 231.000
81.09097 255.000
81.11092 248.000
81.13087 220.000
81.15081 248.000
81.17076 262.000
81.19071 245.000
81.21065 250.000
81.23060 225.000
81.25055 217.000
81.27049 243.000
81.29044 240.000
81.31039 246.000
81.33034 230.000
81.35028 220.000
81.37023 239.000
81.39018 215.000
81.41012 224.000
81.43007 253.000
81.45002 226.000
81.46996 205.000
81.48991 265.000
81.50986 223.000
81.52980 249.000
81.54975 269.000
81.56970 236.000
81.58965 242.000
81.60959 242.000
81.62954 227.000
81.64949 225.000
81.66943 212.000
81.68938 246.000
81.70933 255.000
81.72927 236.000
81.74922 242.000
81.76917 259.000
81.78912 249.000
81.80906 253.000
81.82901 247.000
81.84896 247.000
81.86890 271.000
81.88885 243.000
81.90880 223.000
81.92874 235.000
81.94869 240.000
81.96864 217.000
81.98859 243.000
82.00853 229.000
82.02848 280.000
82.04843 240.000
82.06837 252.000
82.08832 239.000
82.10827 242.000
82.12821 243.000
82.14816 233.000
82.16811 226.000
82.18805 265.000
82.20800 236.000
82.22795 256.000
82.24790 242.000
82.26784 250.000
82.28779 241.000
82.30774 271.000
82.32768 244.000
82.34763 248.000
82.36758 264.000
82.38752 275.000
82.40747 268.000
82.42742 271.000
82.44737 277.000
82.46731 265.000
82.48726 255.000
82.50721 254.000
82.52715 265.000
82.54710 310.000
82.56705 285.000
82.58699 282.000
82.60694 260.000
82.62689 251.000
82.64683 273.000
82.66678 261.000
82.68673 263.000
82.70668 295.000
82.72662 269.000
82.74657 266.000
82.76652 279.000
82.78646 267.000
82.80641 268.000
82.82636 275.000
82.84630 249.000
82.86625 262.000
82.88620 267.000
82.90615 265.000
82.92609 278.000
82.94604 258.000
82.96599 260.000
82.98593 274.000
83.00588 274.000
83.02583 254.000
83.04577 275.000
83.06572 247.000
83.08567 249.000
83.10561 256.000
83.12556 266.000
83.14551 251.000
83.16546 263.000
83.18540 239.000
83.20535 238.000
83.22530 245.000
83.24524 263.000
83.26519 251.000
83.28514 245.000
83.30508 247.000
83.32503 245.000
83.34498 253.000
83.36493 244.000
83.38487 227.000
83.40482 252.000
83.42477 256.000
83.44471 241.000
83.46466 255.000
83.48461 234.000
83.50455 245.000
83.52450 236.000
83.54445 253.000
83.56440 245.000
83.58434 234.000
83.60429 280.000
83.62424 259.000
83.64418 279.000
83.66413 252.000
83.68408 264.000
83.70402 257.000
83.72397 262.000
83.74392 285.000
83.76386 236.000
83.78381 267.000
83.80376 232.000
83.82371 258.000
83.84365 272.000
83.86360 257.000
83.88355 274.000
83.90349 233.000
83.92344 258.000
83.94339 273.000
83.96333 233.000
83.98328 254.000
84.00323 277.000
84.02318 251.000
84.04312 245.000
84.06307 274.000
84.08302 254.000
84.10296 262.000
84.12291 255.000
84.14286 246.000
84.16280 234.000
84.18275 243.000
84.20270 241.000
84.22264 227.000
84.24259 258.000
84.26254 257.000
84.28249 238.000
84.30243 237.000
84.32238 262.000
84.34233 288.000
84.36227 230.000
84.38222 256.000
84.40217 257.000
84.42211 241.000
84.44206 252.000
84.46201 263.000
84.48196 267.000
84.50190 251.000
84.52185 257.000
84.54180 227.000
84.56174 273.000
84.58169 259.000
84.60164 256.000
84.62158 235.000
84.64153 254.000
84.66148 261.000
84.68142 239.000
84.70137 239.000
84.72132 240.000
84.74127 234.000
84.76121 216.000
84.78116 227.000
84.80111 236.000
84.82105 258.000
84.84100 261.000
84.86095 227.000
84.88089 260.000
84.90084 267.000
84.92079 240.000
84.94074 228.000
84.96068 232.000
84.98063 235.000
85.00058 239.000
85.02052 243.000
85.04047 221.000
85.06042 229.000
85.08036 233.000
85.10031 245.000
85.12026 245.000
85.14021 231.000
85.16015 268.000
85.18010 252.000
85.20005 267.000
85.21999 225.000
85.23994 259.000
85.25989 259.000
85.27983 250.000
85.29978 245.000
85.31973 223.000
85.33967 233.000
85.35962 215.000
85.37957 242.000
85.39952 245.000
85.41946 234.000
85.43941 229.000
85.45936 223.000
85.47930 215.000
85.49925 227.000
85.51920 213.000
85.53914 259.000
85.55909 245.000
85.57904 235.000
85.59899 214.000
85.61893 242.000
85.63888 233.000
85.65883 242.000
85.67877 238.000
85.69872 229.000
85.71867 239.000
85.73861 240.000
85.75856 224.000
85.77851 238.000
85.79845 257.000
85.81840 246.000
85.83835 236.000
85.85830 256.000
85.87824 219.000
85.89819 275.000
85.91814 246.000
85.93808 241.000
85.95803 236.000
85.97798 222.000
85.99792 238.000
86.01787 221.000
86.03782 239.000
86.05777 250.000
86.07771 230.000
86.09766 260.000
86.11761 248.000
86.13755 228.000
86.15750 214.000
86.17745 247.000
86.19739 243.000
86.21734 244.000
86.23729 233.000
86.25723 245.000
86.27718 214.000
86.29713 214.000
86.31708 226.000
86.33702 224.000
86.35697 247.000
86.37692 250.000
86.39686 246.000
86.41681 235.000
86.43676 233.000
86.45670 267.000
86.47665 216.000
86.49660 252.000
86.51655 253.000
86.53649 215.000
86.55644 238.000
86.57639 252.000
86.59633 234.000
86.61628 245.000
86.63623 259.000
86.65617 269.000
86.67612 239.000
86.69607 236.000
86.71602 257.000
86.73596 231.000
86.75591 255.000
86.77586 248.000
86.79580 254.000
86.81575 240.000
86.83570 242.000
86.85564 271.000
86.87559 215.000
86.89554 251.000
86.91548 250.000
86.93543 224.000
86.95538 221.000
86.97533 246.000
86.99527 232.000
87.01522 248.000
87.03517 250.000
87.05511 274.000
87.07506 275.000
87.09501 266.000
87.11495 277.000
87.13490 271.000
87.15485 263.000
87.17480 270.000
87.19474 269.000
87.21469 273.000
87.23464 266.000
87.25458 270.000
87.27453 282.000
87.29448 292.000
87.31442 290.000
87.33437 318.000
87.35432 316.000
87.37426 309.000
87.39421 335.000
87.41416 290.000
87.43411 292.000
87.45405 309.000
87.47400 279.000
87.49395 304.000
87.51389 293.000
87.53384 252.000
87.55379 254.000
87.57373 293.000
87.59368 309.000
87.61363 281.000
87.63358 292.000
87.65352 284.000
87.67347 231.000
87.69342 297.000
87.71336 263.000
87.73331 262.000
87.75326 256.000
87.77320 261.000
87.79315 235.000
87.81310 270.000
87.83304 273.000
87.85299 241.000
87.87294 237.000
87.89289 248.000
87.91283 230.000
87.93278 262.000
87.95273 271.000
87.97267 270.000
87.99262 252.000
88.01257 227.000
88.03251 242.000
88.05246 231.000
88.07241 229.000
88.09236 243.000
88.11230 238.000
88.13225 255.000
88.15220 283.000
88.17214 259.000
88.19209 239.000
88.21204 237.000
88.23198 221.000
88.25193 241.000
88.27188 249.000
88.29183 237.000
88.31177 245.000
88.33172 207.000
88.35167 220.000
88.37161 256.000
88.39156 254.000
88.41151 266.000
88.43145 239.000
88.45140 205.000
88.47135 251.000
88.49129 232.000
88.51124 234.000
88.53119 231.000
88.55114 237.000
88.57108 213.000
88.59103 222.000
88.61098 262.000
88.63092 239.000
88.65087 239.000
88.67082 224.000
88.69076 255.000
88.71071 264.000
88.73066 239.000
88.75061 256.000
88.77055 244.000
88.79050 236.000
88.81045 234.000
88.83039 253.000
88.85034 255.000
88.87029 241.000
88.89023 264.000
88.91018 227.000
88.93013 221.000
88.95007 251.000
88.97002 215.000
88.98997 230.000
89.00992 259.000
89.02986 249.000
89.04981 232.000
89.06976 256.000
89.08970 260.000
89.10965 259.000
89.12960 264.000
89.14954 244.000
89.16949 254.000
89.18944 255.000
89.20939 232.000
89.22933 221.000
89.24928 225.000
89.26923 253.000
89.28917 244.000
89.30912 267.000
89.32907 271.000
89.34901 257.000
89.36896 273.000
89.38891 235.000
89.40885 240.000
89.42880 232.000
89.44875 250.000
89.46870 240.000
89.48864 234.000
89.50859 255.000
89.52854 264.000
89.54848 270.000
89.56843 232.000
89.58838 251.000
89.60832 226.000
89.62827 267.000
89.64822 266.000
89.66817 276.000
89.68811 235.000
89.70806 245.000
89.72801 227.000
89.74795 277.000
89.76790 240.000
89.78785 252.000
89.80779 243.000
89.82774 299.000
89.84769 263.000
89.86764 258.000
89.88758 269.000
89.90753 259.000
89.92748 254.000
89.94742 266.000
89.96737 289.000
89.98732 257.000
90.00726 276.000
