10.00000 234.000
10.01995 237.000
10.03989 212.000
10.05984 248.000
10.07979 235.000
10.09973 201.000
10.11968 227.000
10.13963 238.000
10.15958 252.000
10.17952 231.000
10.19947 204.000
10.21942 260.000
10.23936 221.000
10.25931 241.000
10.27926 221.000
10.29920 215.000
10.31915 220.000
10.33910 208.000
10.35905 247.000
10.37899 213.000
10.39894 238.000
10.41889 245.000
10.43883 240.000
10.45878 252.000
10.47873 241.000
10.49867 241.000
10.51862 217.000
10.53857 219.000
10.55851 246.000
10.57846 230.000
10.59841 212.000
10.61836 207.000
10.63830 227.000
10.65825 242.000
10.67820 210.000
10.69814 246.000
10.71809 238.000
10.73804 229.000
10.75798 242.000
10.77793 225.000
10.79788 242.000
10.81783 206.000
10.83777 225.000
10.85772 241.000
10.87767 207.000
10.89761 228.000
10.91756 247.000
10.93751 230.000
10.95745 231.000
10.97740 239.000
10.99735 253.000
11.01730 251.000
11.03724 249.000
11.05719 274.000
11.07714 222.000
11.09708 247.000
11.11703 240.000
11.13698 219.000
11.15692 217.000
11.17687 249.000
11.19682 236.000
11.21676 190.000
11.23671 220.000
11.25666 217.000
11.27661 189.000
11.29655 224.000
11.31650 247.000
11.33645 226.000
11.35639 230.000
11.37634 259.000
11.39629 241.000
11.41623 221.000
11.43618 215.000
11.45613 223.000
11.47608 223.000
11.49602 212.000
11.51597 220.000
11.53592 227.000
11.55586 230.000
11.57581 246.000
11.59576 248.000
11.61570 237.000
11.63565 255.000
11.65560 220.000
11.67554 222.000
11.69549 241.000
11.71544 224.000
11.73539 226.000
11.75533 214.000
11.77528 244.000
11.79523 256.000
11.81517 226.000
11.83512 229.000
11.85507 239.000
11.87501 229.000
11.89496 218.000
11.91491 202.000
11.93486 227.000
11.95480 221.000
11.97475 201.000
11.99470 249.000
12.01464 218.000
12.03459 252.000
12.05454 200.000
12.07448 237.000
12.09443 210.000
12.11438 227.000
12.13432 223.000
12.15427 226.000
12.17422 233.000
12.19417 257.000
12.21411 235.000
12.23406 250.000
12.25401 218.000
12.27395 252.000
12.29390 225.000
12.31385 230.000
12.33379 231.000
12.35374 248.000
12.37369 235.000
12.39364 256.000
12.41358 230.000
12.43353 237.000
12.45348 215.000
12.47342 211.000
12.49337 235.000
12.51332 252.000
12.53326 244.000
12.55321 208.000
12.57316 235.000
12.59311 248.000
12.61305 221.000
12.63300 248.000
12.65295 252.000
12.67289 242.000
12.69284 239.000
12.71279 248.000
12.73273 211.000
12.75268 230.000
12.77263 247.000
12.79257 246.000
12.81252 191.000
12.83247 240.000
12.85242 226.000
12.87236 221.000
12.89231 227.000
12.91226 216.000
12.93220 228.000
12.95215 219.000
12.97210 226.000
12.99204 205.000
13.01199 236.000
13.03194 218.000
13.05189 235.000
13.07183 221.000
13.09178 231.000
13.11173 242.000
13.13167 224.000
13.15162 209.000
13.17157 249.000
13.19151 248.000
13.21146 239.000
13.23141 200.000
13.25135 219.000
13.27130 205.000
13.29125 246.000
13.31120 232.000
13.33114 241.000
13.35109 238.000
13.37104 210.000
13.39098 232.000
13.41093 227.000
13.43088 227.000
13.45082 193.000
13.47077 256.000
13.49072 241.000
13.51067 218.000
13.53061 207.000
13.55056 232.000
13.57051 218.000
13.59045 212.000
13.61040 237.000
13.63035 238.000
13.65029 238.000
13.67024 217.000
13.69019 234.000
13.71013 237.000
13.73008 228.000
13.75003 239.000
13.76998 242.000
13.78992 220.000
13.80987 246.000
13.82982 227.000
13.84976 261.000
13.86971 219.000
13.88966 219.000
13.90960 233.000
13.92955 219.000
13.94950 248.000
13.96945 202.000
13.98939 210.000
14.00934 267.000
14.02929 236.000
14.04923 258.000
14.06918 220.000
14.08913 228.000
14.10907 234.000
14.12902 234.000
14.14897 221.000
14.16892 228.000
14.18886 222.000
14.20881 240.000
14.22876 212.000
14.24870 219.000
14.26865 243.000
14.28860 227.000
14.30854 238.000
14.32849 237.000
14.34844 227.000
14.36838 200.000
14.38833 238.000
14.40828 247.000
14.42823 211.000
14.44817 225.000
14.46812 223.000
14.48807 221.000
14.50801 220.000
14.52796 248.000
14.54791 237.000
14.56785 226.000
14.58780 219.000
14.60775 232.000
14.62770 271.000
14.64764 230.000
14.66759 225.000
14.68754 240.000
14.70748 255.000
14.72743 222.000
14.74738 216.000
14.76732 225.000
14.78727 214.000
14.80722 235.000
14.82716 248.000
14.84711 249.000
14.86706 235.000
14.88701 268.000
14.90695 245.000
14.92690 242.000
14.94685 234.000
14.96679 235.000
14.98674 249.000
15.00669 212.000
15.02663 241.000
15.04658 222.000
15.06653 233.000
15.08648 233.000
15.10642 219.000
15.12637 257.000
15.14632 220.000
15.16626 240.000
15.18621 246.000
15.20616 234.000
15.22610 229.000
15.24605 247.000
15.26600 223.000
15.28594 226.000
15.30589 246.000
15.32584 253.000
15.34579 244.000
15.36573 229.000
15.38568 260.000
15.40563 234.000
15.42557 224.000
15.44552 227.000
15.46547 226.000
15.48541 243.000
15.50536 256.000
15.52531 219.000
15.54526 260.000
15.56520 248.000
15.58515 255.000
15.60510 259.000
15.62504 255.000
15.64499 258.000
15.66494 268.000
15.68488 274.000
15.70483 306.000
15.72478 341.000
15.74472 381.000
15.76467 447.000
15.78462 508.000
15.80457 558.000
15.82451 651.000
15.84446 792.000
15.86441 795.000
15.88435 829.000
15.90430 660.000
15.92425 551.000
15.94419 424.000
15.96414 339.000
15.98409 387.000
16.00404 299.000
16.02398 330.000
16.04393 375.000
16.06388 352.000
16.08382 367.000
16.10377 421.000
16.12372 465.000
16.14366 493.000
16.16361 553.000
16.18356 624.000
16.20351 726.000
16.22345 779.000
16.24340 892.000
16.26335 1031.000
16.28329 1180.000
16.30324 1273.000
16.32319 1463.000
16.34313 1482.000
16.36308 1635.000
16.38303 1574.000
16.40297 1456.000
16.42292 1365.000
16.44287 1105.000
16.46282 953.000
16.48276 743.000
16.50271 478.000
16.52266 413.000
16.54260 358.000
16.56255 322.000
16.58250 291.000
16.60244 302.000
16.62239 301.000
16.64234 282.000
16.66229 279.000
16.68223 278.000
16.70218 230.000
16.72213 227.000
16.74207 225.000
16.76202 233.000
16.78197 237.000
16.80191 249.000
16.82186 246.000
16.84181 267.000
16.86175 264.000
16.88170 272.000
16.90165 253.000
16.92160 279.000
16.94154 265.000
16.96149 264.000
16.98144 267.000
17.00138 245.000
17.02133 221.000
17.04128 231.000
17.06122 232.000
17.08117 235.000
17.10112 240.000
17.12107 223.000
17.14101 235.000
17.16096 243.000
17.18091 243.000
17.20085 230.000
17.22080 229.000
17.24075 232.000
17.26069 267.000
17.28064 248.000
17.30059 235.000
17.32053 251.000
17.34048 241.000
17.36043 228.000
17.38038 241.000
17.40032 237.000
17.42027 234.000
17.44022 229.000
17.46016 265.000
17.48011 260.000
17.50006 210.000
17.52000 234.000
17.53995 234.000
17.55990 220.000
17.57985 214.000
17.59979 220.000
17.61974 229.000
17.63969 257.000
17.65963 235.000
17.67958 251.000
17.69953 208.000
17.71947 230.000
17.73942 212.000
17.75937 232.000
17.77932 222.000
17.79926 203.000
17.81921 241.000
17.83916 235.000
17.85910 228.000
17.87905 212.000
17.89900 217.000
17.91894 242.000
17.93889 233.000
17.95884 209.000
17.97878 236.000
17.99873 260.000
18.01868 235.000
18.03863 201.000
18.05857 260.000
18.07852 235.000
18.09847 224.000
18.11841 216.000
18.13836 229.000
18.15831 244.000
18.17825 237.000
18.19820 223.000
18.21815 239.000
18.23810 241.000
18.25804 248.000
18.27799 235.000
18.29794 262.000
18.31788 277.000
18.33783 293.000
18.35778 348.000
18.37772 366.000
18.39767 377.000
18.41762 339.000
18.43756 305.000
18.45751 251.000
18.47746 247.000
18.49741 275.000
18.51735 261.000
18.53730 251.000
18.55725 239.000
18.57719 224.000
18.59714 237.000
18.61709 233.000
18.63703 253.000
18.65698 233.000
18.67693 227.000
18.69688 219.000
18.71682 221.000
18.73677 241.000
18.75672 257.000
18.77666 247.000
18.79661 226.000
18.81656 241.000
18.83650 249.000
18.85645 217.000
18.87640 210.000
18.89634 212.000
18.91629 210.000
18.93624 231.000
18.95619 217.000
18.97613 223.000
18.99608 248.000
19.01603 226.000
19.03597 257.000
19.05592 227.000
19.07587 212.000
19.09581 202.000
19.11576 233.000
19.13571 219.000
19.15566 221.000
19.17560 240.000
19.19555 234.000
19.21550 228.000
19.23544 252.000
19.25539 211.000
19.27534 225.000
19.29528 241.000
19.31523 241.000
19.33518 213.000
19.35513 220.000
19.37507 231.000
19.39502 232.000
19.41497 233.000
19.43491 232.000
19.45486 218.000
19.47481 251.000
19.49475 239.000
19.51470 231.000
19.53465 210.000
19.55459 226.000
19.57454 216.000
19.59449 231.000
19.61444 228.000
19.63438 230.000
19.65433 258.000
19.67428 206.000
19.69422 234.000
19.71417 238.000
19.73412 262.000
19.75406 232.000
19.77401 227.000
19.79396 249.000
19.81391 229.000
19.83385 243.000
19.85380 242.000
19.87375 216.000
19.89369 230.000
19.91364 255.000
19.93359 248.000
19.95353 236.000
19.97348 244.000
19.99343 236.000
20.01337 253.000
20.03332 239.000
20.05327 233.000
20.07322 232.000
20.09316 209.000
20.11311 216.000
20.13306 257.000
20.15300 247.000
20.17295 257.000
20.19290 221.000
20.21284 250.000
20.23279 247.000
20.25274 243.000
20.27269 233.000
20.29263 255.000
20.31258 239.000
20.33253 231.000
20.35247 281.000
20.37242 244.000
20.39237 260.000
20.41231 282.000
20.43226 266.000
20.45221 275.000
20.47215 289.000
20.49210 328.000
20.51205 360.000
20.53200 343.000
20.55194 395.000
20.57189 410.000
20.59184 458.000
20.61178 459.000
20.63173 452.000
20.65168 512.000
20.67162 585.000
20.69157 641.000
20.71152 731.000
20.73147 831.000
20.75141 882.000
20.77136 973.000
20.79131 792.000
20.81125 749.000
20.83120 730.000
20.85115 697.000
20.87109 626.000
20.89104 565.000
20.91099 517.000
20.93094 474.000
20.95088 388.000
20.97083 454.000
20.99078 408.000
21.01072 357.000
21.03067 358.000
21.05062 315.000
21.07056 277.000
21.09051 286.000
21.11046 284.000
21.13040 266.000
21.15035 261.000
21.17030 254.000
21.19025 258.000
21.21019 250.000
21.23014 239.000
21.25009 228.000
21.27003 267.000
21.28998 261.000
21.30993 232.000
21.32987 226.000
21.34982 239.000
21.36977 237.000
21.38972 231.000
21.40966 258.000
21.42961 253.000
21.44956 225.000
21.46950 233.000
21.48945 219.000
21.50940 239.000
21.52934 224.000
21.54929 269.000
21.56924 232.000
21.58918 223.000
21.60913 243.000
21.62908 219.000
21.64903 268.000
21.66897 227.000
21.68892 235.000
21.70887 228.000
21.72881 238.000
21.74876 224.000
21.76871 245.000
21.78865 231.000
21.80860 228.000
21.82855 224.000
21.84850 235.000
21.86844 218.000
21.88839 245.000
21.90834 243.000
21.92828 233.000
21.94823 231.000
21.96818 231.000
21.98812 251.000
22.00807 224.000
22.02802 237.000
22.04796 217.000
22.06791 235.000
22.08786 219.000
22.10781 217.000
22.12775 256.000
22.14770 241.000
22.16765 215.000
22.18759 260.000
22.20754 238.000
22.22749 211.000
22.24743 250.000
22.26738 212.000
22.28733 213.000
22.30728 243.000
22.32722 221.000
22.34717 232.000
22.36712 234.000
22.38706 251.000
22.40701 235.000
22.42696 212.000
22.44690 253.000
22.46685 256.000
22.48680 250.000
22.50675 213.000
22.52669 217.000
22.54664 238.000
22.56659 248.000
22.58653 240.000
22.60648 221.000
22.62643 231.000
22.64637 249.000
22.66632 254.000
22.68627 223.000
22.70621 216.000
22.72616 202.000
22.74611 224.000
22.76606 230.000
22.78600 217.000
22.80595 220.000
22.82590 215.000
22.84584 221.000
22.86579 231.000
22.88574 222.000
22.90568 246.000
22.92563 204.000
22.94558 229.000
22.96553 244.000
22.98547 208.000
23.00542 222.000
23.02537 236.000
23.04531 247.000
23.06526 255.000
23.08521 222.000
23.10515 214.000
23.12510 218.000
23.14505 230.000
23.16499 221.000
23.18494 253.000
23.20489 247.000
23.22484 227.000
23.24478 240.000
23.26473 221.000
23.28468 239.000
23.30462 233.000
23.32457 242.000
23.34452 223.000
23.36446 218.000
23.38441 240.000
23.40436 242.000
23.42431 223.000
23.44425 211.000
23.46420 234.000
23.48415 227.000
23.50409 252.000
23.52404 255.000
23.54399 258.000
23.56393 213.000
23.58388 237.000
23.60383 257.000
23.62377 204.000
23.64372 238.000
23.66367 253.000
23.68362 240.000
23.70356 223.000
23.72351 224.000
23.74346 244.000
23.76340 199.000
23.78335 241.000
23.80330 249.000
23.82324 255.000
23.84319 221.000
23.86314 233.000
23.88309 262.000
23.90303 200.000
23.92298 244.000
23.94293 223.000
23.96287 232.000
23.98282 242.000
24.00277 244.000
24.02271 240.000
24.04266 259.000
24.06261 222.000
24.08256 238.000
24.10250 235.000
24.12245 266.000
24.14240 232.000
24.16234 224.000
24.18229 259.000
24.20224 238.000
24.22218 238.000
24.24213 235.000
24.26208 223.000
24.28202 216.000
24.30197 240.000
24.32192 269.000
24.34187 237.000
24.36181 254.000
24.38176 231.000
24.40171 260.000
24.42165 224.000
24.44160 247.000
24.46155 223.000
24.48149 259.000
24.50144 233.000
24.52139 235.000
24.54134 219.000
24.56128 223.000
24.58123 237.000
24.60118 239.000
24.62112 247.000
24.64107 263.000
24.66102 246.000
24.68096 223.000
24.70091 241.000
24.72086 239.000
24.74080 258.000
24.76075 261.000
24.78070 214.000
24.80065 237.000
24.82059 230.000
24.84054 245.000
24.86049 212.000
24.88043 246.000
24.90038 244.000
24.92033 235.000
24.94027 252.000
24.96022 248.000
24.98017 263.000
25.00012 240.000
25.02006 257.000
25.04001 229.000
25.05996 217.000
25.07990 244.000
25.09985 257.000
25.11980 242.000
25.13974 238.000
25.15969 242.000
25.17964 245.000
25.19958 237.000
25.21953 251.000
25.23948 240.000
25.25943 238.000
25.27937 232.000
25.29932 238.000
25.31927 238.000
25.33921 253.000
25.35916 238.000
25.37911 242.000
25.39905 246.000
25.41900 243.000
25.43895 279.000
25.45890 232.000
25.47884 248.000
25.49879 212.000
25.51874 281.000
25.53868 217.000
25.55863 222.000
25.57858 203.000
25.59852 228.000
25.61847 203.000
25.63842 227.000
25.65837 254.000
25.67831 217.000
25.69826 240.000
25.71821 211.000
25.73815 212.000
25.75810 255.000
25.77805 236.000
25.79799 245.000
25.81794 249.000
25.83789 237.000
25.85783 243.000
25.87778 237.000
25.89773 226.000
25.91768 244.000
25.93762 251.000
25.95757 216.000
25.97752 244.000
25.99746 232.000
26.01741 226.000
26.03736 237.000
26.05730 259.000
26.07725 245.000
26.09720 250.000
26.11715 288.000
26.13709 269.000
26.15704 261.000
26.17699 262.000
26.19693 231.000
26.21688 241.000
26.23683 263.000
26.25677 259.000
26.27672 262.000
26.29667 241.000
26.31661 242.000
26.33656 236.000
26.35651 229.000
26.37646 225.000
26.39640 241.000
26.41635 283.000
26.43630 235.000
26.45624 244.000
26.47619 253.000
26.49614 250.000
26.51608 230.000
26.53603 262.000
26.55598 277.000
26.57593 277.000
26.59587 247.000
26.61582 237.000
26.63577 246.000
26.65571 235.000
26.67566 249.000
26.69561 261.000
26.71555 251.000
26.73550 266.000
26.75545 260.000
26.77539 241.000
26.79534 233.000
26.81529 244.000
26.83524 236.000
26.85518 255.000
26.87513 264.000
26.89508 223.000
26.91502 254.000
26.93497 223.000
26.95492 253.000
26.97486 263.000
26.99481 245.000
27.01476 241.000
27.03471 223.000
27.05465 246.000
27.07460 250.000
27.09455 231.000
27.11449 244.000
27.13444 246.000
27.15439 257.000
27.17433 236.000
27.19428 222.000
27.21423 239.000
27.23417 224.000
27.25412 231.000
27.27407 251.000
27.29402 257.000
27.31396 229.000
27.33391 227.000
27.35386 230.000
27.37380 250.000
27.39375 241.000
27.41370 234.000
27.43364 233.000
27.45359 248.000
27.47354 244.000
27.49349 251.000
27.51343 239.000
27.53338 272.000
27.55333 236.000
27.57327 243.000
27.59322 275.000
27.61317 254.000
27.63311 237.000
27.65306 235.000
27.67301 258.000
27.69296 261.000
27.71290 259.000
27.73285 234.000
27.75280 249.000
27.77274 229.000
27.79269 228.000
27.81264 238.000
27.83258 231.000
27.85253 257.000
27.87248 238.000
27.89242 238.000
27.91237 253.000
27.93232 266.000
27.95227 242.000
27.97221 263.000
27.99216 252.000
28.01211 263.000
28.03205 249.000
28.05200 267.000
28.07195 265.000
28.09189 261.000
28.11184 238.000
28.13179 231.000
28.15174 258.000
28.17168 273.000
28.19163 232.000
28.21158 241.000
28.23152 259.000
28.25147 226.000
28.27142 249.000
28.29136 255.000
28.31131 241.000
28.33126 237.000
28.35120 248.000
28.37115 232.000
28.39110 243.000
28.41105 271.000
28.43099 263.000
28.45094 240.000
28.47089 230.000
28.49083 266.000
28.51078 259.000
28.53073 227.000
28.55067 240.000
28.57062 250.000
28.59057 239.000
28.61052 244.000
28.63046 215.000
28.65041 293.000
28.67036 224.000
28.69030 236.000
28.71025 250.000
28.73020 277.000
28.75014 231.000
28.77009 236.000
28.79004 270.000
28.80998 260.000
28.82993 235.000
28.84988 234.000
28.86983 239.000
28.88977 238.000
28.90972 248.000
28.92967 230.000
28.94961 298.000
28.96956 221.000
28.98951 256.000
29.00945 251.000
29.02940 267.000
29.04935 242.000
29.06930 248.000
29.08924 244.000
29.10919 213.000
29.12914 255.000
29.14908 263.000
29.16903 258.000
29.18898 236.000
29.20892 259.000
29.22887 240.000
29.24882 253.000
29.26877 284.000
29.28871 246.000
29.30866 283.000
29.32861 255.000
29.34855 263.000
29.36850 269.000
29.38845 256.000
29.40839 285.000
29.42834 290.000
29.44829 300.000
29.46823 279.000
29.48818 287.000
29.50813 282.000
29.52808 250.000
29.54802 260.000
29.56797 250.000
29.58792 263.000
29.60786 222.000
29.62781 259.000
29.64776 259.000
29.66770 263.000
29.68765 256.000
29.70760 252.000
29.72755 245.000
29.74749 278.000
29.76744 248.000
29.78739 261.000
29.80733 242.000
29.82728 304.000
29.84723 251.000
29.86717 297.000
29.88712 252.000
29.90707 263.000
29.92701 243.000
29.94696 276.000
29.96691 271.000
29.98686 280.000
30.00680 279.000
30.02675 272.000
30.04670 329.000
30.06664 292.000
30.08659 283.000
30.10654 309.000
30.12648 326.000
30.14643 358.000
30.16638 358.000
30.18633 386.000
30.20627 462.000
30.22622 575.000
30.24617 515.000
30.26611 452.000
30.28606 422.000
30.30601 427.000
30.32595 415.000
30.34590 335.000
30.36585 327.000
30.38579 286.000
30.40574 277.000
30.42569 256.000
30.44564 260.000
30.46558 251.000
30.48553 283.000
30.50548 281.000
30.52542 274.000
30.54537 261.000
30.56532 259.000
30.58526 264.000
30.60521 274.000
30.62516 224.000
30.64511 261.000
30.66505 292.000
30.68500 310.000
30.70495 259.000
30.72489 286.000
30.74484 262.000
30.76479 276.000
30.78473 301.000
30.80468 280.000
30.82463 257.000
30.84458 267.000
30.86452 277.000
30.88447 253.000
30.90442 276.000
30.92436 268.000
30.94431 269.000
30.96426 267.000
30.98420 230.000
31.00415 250.000
31.02410 268.000
31.04404 250.000
31.06399 280.000
31.08394 288.000
31.10389 261.000
31.12383 262.000
31.14378 257.000
31.16373 276.000
31.18367 273.000
31.20362 258.000
31.22357 222.000
31.24351 270.000
31.26346 261.000
31.28341 250.000
31.30336 251.000
31.32330 241.000
31.34325 241.000
31.36320 252.000
31.38314 242.000
31.40309 264.000
31.42304 271.000
31.44298 254.000
31.46293 253.000
31.48288 272.000
31.50282 274.000
31.52277 254.000
31.54272 294.000
31.56267 266.000
31.58261 257.000
31.60256 281.000
31.62251 248.000
31.64245 252.000
31.66240 261.000
31.68235 243.000
31.70229 272.000
31.72224 271.000
31.74219 253.000
31.76214 258.000
31.78208 303.000
31.80203 270.000
31.82198 260.000
31.84192 250.000
31.86187 265.000
31.88182 261.000
31.90176 262.000
31.92171 289.000
31.94166 276.000
31.96160 245.000
31.98155 264.000
32.00150 282.000
32.02145 272.000
32.04139 314.000
32.06134 319.000
32.08129 279.000
32.10123 285.000
32.12118 292.000
32.14113 296.000
32.16107 305.000
32.18102 284.000
32.20097 277.000
32.22092 293.000
32.24086 280.000
32.26081 287.000
32.28076 309.000
32.30070 258.000
32.32065 277.000
32.34060 315.000
32.36054 325.000
32.38049 340.000
32.40044 313.000
32.42039 372.000
32.44033 363.000
32.46028 412.000
32.48023 451.000
32.50017 407.000
32.52012 384.000
32.54007 428.000
32.56001 429.000
32.57996 339.000
32.59991 344.000
32.61985 366.000
32.63980 297.000
32.65975 310.000
32.67970 300.000
32.69964 320.000
32.71959 310.000
32.73954 311.000
32.75948 295.000
32.77943 284.000
32.79938 304.000
32.81932 319.000
32.83927 319.000
32.85922 314.000
32.87917 308.000
32.89911 283.000
32.91906 313.000
32.93901 350.000
32.95895 333.000
32.97890 398.000
32.99885 357.000
33.01879 374.000
33.03874 370.000
33.05869 361.000
33.07863 381.000
33.09858 368.000
33.11853 420.000
33.13848 412.000
33.15842 350.000
33.17837 389.000
33.19832 392.000
33.21826 395.000
33.23821 324.000
33.25816 340.000
33.27810 317.000
33.29805 351.000
33.31800 335.000
33.33795 375.000
33.35789 357.000
33.37784 344.000
33.39779 390.000
33.41773 349.000
33.43768 343.000
33.45763 331.000
33.47757 329.000
33.49752 342.000
33.51747 306.000
33.53741 373.000
33.55736 340.000
33.57731 327.000
33.59726 288.000
33.61720 302.000
33.63715 293.000
33.65710 323.000
33.67704 303.000
33.69699 264.000
33.71694 305.000
33.73688 317.000
33.75683 322.000
33.77678 343.000
33.79673 362.000
33.81667 325.000
33.83662 337.000
33.85657 335.000
33.87651 385.000
33.89646 355.000
33.91641 369.000
33.93635 373.000
33.95630 375.000
33.97625 409.000
33.99620 415.000
34.01614 472.000
34.03609 490.000
34.05604 476.000
34.07598 546.000
34.09593 632.000
34.11588 675.000
34.13582 740.000
34.15577 778.000
34.17572 835.000
34.19566 859.000
34.21561 914.000
34.23556 903.000
34.25551 919.000
34.27545 897.000
34.29540 858.000
34.31535 876.000
34.33529 786.000
34.35524 757.000
34.37519 723.000
34.39513 706.000
34.41508 643.000
34.43503 630.000
34.45498 578.000
34.47492 598.000
34.49487 475.000
34.51482 462.000
34.53476 534.000
34.55471 509.000
34.57466 491.000
34.59460 483.000
34.61455 448.000
34.63450 363.000
34.65444 406.000
34.67439 371.000
34.69434 383.000
34.71429 360.000
34.73423 352.000
34.75418 362.000
34.77413 391.000
34.79407 351.000
34.81402 329.000
34.83397 325.000
34.85391 340.000
34.87386 347.000
34.89381 320.000
34.91376 344.000
34.93370 362.000
34.95365 416.000
34.97360 386.000
34.99354 428.000
35.01349 416.000
35.03344 409.000
35.05338 431.000
35.07333 416.000
35.09328 446.000
35.11322 447.000
35.13317 441.000
35.15312 497.000
35.17307 514.000
35.19301 565.000
35.21296 494.000
35.23291 525.000
35.25285 562.000
35.27280 635.000
35.29275 637.000
35.31269 664.000
35.33264 756.000
35.35259 776.000
35.37254 917.000
35.39248 1090.000
35.41243 1270.000
35.43238 1403.000
35.45232 1399.000
35.47227 1632.000
35.49222 1984.000
35.51216 2185.000
35.53211 2251.000
35.55206 2076.000
35.57201 2032.000
35.59195 2232.000
35.61190 2310.000
35.63185 1966.000
35.65179 1524.000
35.67174 1376.000
35.69169 1276.000
35.71163 1174.000
35.73158 992.000
35.75153 749.000
35.77147 701.000
35.79142 592.000
35.81137 537.000
35.83132 506.000
35.85126 495.000
35.87121 415.000
35.89116 476.000
35.91110 397.000
35.93105 413.000
35.95100 400.000
35.97094 383.000
35.99089 414.000
36.01084 391.000
36.03079 380.000
36.05073 381.000
36.07068 347.000
36.09063 358.000
36.11057 346.000
36.13052 329.000
36.15047 337.000
36.17041 341.000
36.19036 326.000
36.21031 347.000
36.23025 330.000
36.25020 344.000
36.27015 394.000
36.29010 353.000
36.31004 379.000
36.32999 414.000
36.34994 422.000
36.36988 424.000
36.38983 476.000
36.40978 431.000
36.42972 453.000
36.44967 444.000
36.46962 497.000
36.48957 469.000
36.50951 501.000
36.52946 487.000
36.54941 474.000
36.56935 448.000
36.58930 446.000
36.60925 455.000
36.62919 435.000
36.64914 402.000
36.66909 386.000
36.68903 375.000
36.70898 385.000
36.72893 341.000
36.74888 333.000
36.76882 350.000
36.78877 322.000
36.80872 340.000
36.82866 343.000
36.84861 343.000
36.86856 306.000
36.88850 346.000
36.90845 320.000
36.92840 351.000
36.94835 347.000
36.96829 354.000
36.98824 349.000
37.00819 337.000
37.02813 380.000
37.04808 376.000
37.06803 444.000
37.08797 400.000
37.10792 417.000
37.12787 420.000
37.14781 412.000
37.16776 407.000
37.18771 411.000
37.20766 376.000
37.22760 442.000
37.24755 390.000
37.26750 366.000
37.28744 382.000
37.30739 327.000
37.32734 362.000
37.34728 337.000
37.36723 306.000
37.38718 295.000
37.40713 321.000
37.42707 321.000
37.44702 281.000
37.46697 289.000
37.48691 254.000
37.50686 262.000
37.52681 331.000
37.54675 262.000
37.56670 268.000
37.58665 284.000
37.60660 282.000
37.62654 284.000
37.64649 289.000
37.66644 253.000
37.68638 282.000
37.70633 284.000
37.72628 271.000
37.74622 287.000
37.76617 298.000
37.78612 299.000
37.80606 337.000
37.82601 289.000
37.84596 282.000
37.86591 290.000
37.88585 297.000
37.90580 282.000
37.92575 307.000
37.94569 304.000
37.96564 338.000
37.98559 314.000
38.00553 300.000
38.02548 306.000
38.04543 343.000
38.06538 299.000
38.08532 302.000
38.10527 321.000
38.12522 322.000
38.14516 338.000
38.16511 339.000
38.18506 339.000
38.20500 334.000
38.22495 365.000
38.24490 352.000
38.26484 366.000
38.28479 356.000
38.30474 372.000
38.32469 331.000
38.34463 407.000
38.36458 393.000
38.38453 416.000
38.40447 454.000
38.42442 472.000
38.44437 507.000
38.46431 510.000
38.48426 578.000
38.50421 549.000
38.52416 638.000
38.54410 698.000
38.56405 832.000
38.58400 881.000
38.60394 1021.000
38.62389 1275.000
38.64384 1429.000
38.66378 1472.000
38.68373 1455.000
38.70368 1358.000
38.72362 1379.000
38.74357 1332.000
38.76352 1211.000
38.78347 1089.000
38.80341 1084.000
38.82336 920.000
38.84331 833.000
38.86325 758.000
38.88320 694.000
38.90315 737.000
38.92309 695.000
38.94304 719.000
38.96299 709.000
38.98294 658.000
39.00288 638.000
39.02283 616.000
39.04278 608.000
39.06272 530.000
39.08267 535.000
39.10262 510.000
39.12256 505.000
39.14251 458.000
39.16246 451.000
39.18241 445.000
39.20235 393.000
39.22230 423.000
39.24225 342.000
39.26219 395.000
39.28214 363.000
39.30209 331.000
39.32203 308.000
39.34198 343.000
39.36193 303.000
39.38187 309.000
39.40182 298.000
39.42177 297.000
39.44172 310.000
39.46166 286.000
39.48161 312.000
39.50156 280.000
39.52150 269.000
39.54145 275.000
39.56140 296.000
39.58134 263.000
39.60129 292.000
39.62124 264.000
39.64119 285.000
39.66113 281.000
39.68108 280.000
39.70103 282.000
39.72097 259.000
39.74092 268.000
39.76087 263.000
39.78081 304.000
39.80076 272.000
39.82071 265.000
39.84065 257.000
39.86060 259.000
39.88055 288.000
39.90050 311.000
39.92044 271.000
39.94039 280.000
39.96034 294.000
39.98028 274.000
40.00023 280.000
40.02018 255.000
40.04012 267.000
40.06007 279.000
40.08002 280.000
40.09997 258.000
40.11991 254.000
40.13986 243.000
40.15981 261.000
40.17975 287.000
40.19970 247.000
40.21965 274.000
40.23959 263.000
40.25954 249.000
40.27949 272.000
40.29943 278.000
40.31938 298.000
40.33933 266.000
40.35928 270.000
40.37922 286.000
40.39917 274.000
40.41912 281.000
40.43906 288.000
40.45901 271.000
40.47896 248.000
40.49890 278.000
40.51885 277.000
40.53880 236.000
40.55875 242.000
40.57869 278.000
40.59864 307.000
40.61859 283.000
40.63853 265.000
40.65848 256.000
40.67843 280.000
40.69837 301.000
40.71832 287.000
40.73827 251.000
40.75822 269.000
40.77816 318.000
40.79811 297.000
40.81806 226.000
40.83800 261.000
40.85795 292.000
40.87790 285.000
40.89784 278.000
40.91779 246.000
40.93774 251.000
40.95768 273.000
40.97763 280.000
40.99758 284.000
41.01753 276.000
41.03747 276.000
41.05742 275.000
41.07737 321.000
41.09731 297.000
41.11726 316.000
41.13721 328.000
41.15715 345.000
41.17710 353.000
41.19705 376.000
41.21700 400.000
41.23694 395.000
41.25689 441.000
41.27684 539.000
41.29678 659.000
41.31673 764.000
41.33668 869.000
41.35662 1062.000
41.37657 1090.000
41.39652 1238.000
41.41646 1401.000
41.43641 1310.000
41.45636 1240.000
41.47631 1287.000
41.49625 1112.000
41.51620 1077.000
41.53615 1030.000
41.55609 971.000
41.57604 829.000
41.59599 789.000
41.61593 689.000
41.63588 583.000
41.65583 580.000
41.67578 515.000
41.69572 509.000
41.71567 473.000
41.73562 443.000
41.75556 359.000
41.77551 354.000
41.79546 363.000
41.81540 300.000
41.83535 365.000
41.85530 336.000
41.87524 285.000
41.89519 303.000
41.91514 327.000
41.93509 303.000
41.95503 309.000
41.97498 262.000
41.99493 298.000
42.01487 313.000
42.03482 307.000
42.05477 273.000
42.07471 301.000
42.09466 281.000
42.11461 278.000
42.13456 277.000
42.15450 259.000
42.17445 278.000
42.19440 317.000
42.21434 312.000
42.23429 285.000
42.25424 260.000
42.27418 271.000
42.29413 292.000
42.31408 317.000
42.33403 273.000
42.35397 285.000
42.37392 279.000
42.39387 310.000
42.41381 298.000
42.43376 287.000
42.45371 320.000
42.47365 296.000
42.49360 285.000
42.51355 291.000
42.53349 293.000
42.55344 276.000
42.57339 296.000
42.59334 298.000
42.61328 289.000
42.63323 274.000
42.65318 258.000
42.67312 300.000
42.69307 290.000
42.71302 314.000
42.73296 298.000
42.75291 278.000
42.77286 304.000
42.79281 293.000
42.81275 294.000
42.83270 323.000
42.85265 308.000
42.87259 296.000
42.89254 312.000
42.91249 317.000
42.93243 332.000
42.95238 325.000
42.97233 342.000
42.99227 367.000
43.01222 365.000
43.03217 367.000
43.05212 347.000
43.07206 349.000
43.09201 402.000
43.11196 398.000
43.13190 409.000
43.15185 413.000
43.17180 452.000
43.19174 434.000
43.21169 470.000
43.23164 464.000
43.25159 504.000
43.27153 533.000
43.29148 543.000
43.31143 498.000
43.33137 448.000
43.35132 426.000
43.37127 461.000
43.39121 395.000
43.41116 420.000
43.43111 405.000
43.45105 351.000
43.47100 336.000
43.49095 323.000
43.51090 295.000
43.53084 296.000
43.55079 282.000
43.57074 295.000
43.59068 303.000
43.61063 264.000
43.63058 277.000
43.65052 266.000
43.67047 259.000
43.69042 249.000
43.71037 273.000
43.73031 270.000
43.75026 280.000
43.77021 233.000
43.79015 268.000
43.81010 277.000
43.83005 232.000
43.84999 247.000
43.86994 261.000
43.88989 252.000
43.90984 275.000
43.92978 269.000
43.94973 260.000
43.96968 247.000
43.98962 260.000
44.00957 245.000
44.02952 277.000
44.04946 258.000
44.06941 219.000
44.08936 274.000
44.10930 263.000
44.12925 247.000
44.14920 263.000
44.16915 254.000
44.18909 250.000
44.20904 270.000
44.22899 257.000
44.24893 271.000
44.26888 258.000
44.28883 259.000
44.30877 269.000
44.32872 236.000
44.34867 250.000
44.36862 268.000
44.38856 268.000
44.40851 257.000
44.42846 246.000
44.44840 255.000
44.46835 254.000
44.48830 253.000
44.50824 271.000
44.52819 250.000
44.54814 234.000
44.56808 264.000
44.58803 285.000
44.60798 279.000
44.62793 238.000
44.64787 277.000
44.66782 262.000
44.68777 266.000
44.70771 292.000
44.72766 298.000
44.74761 273.000
44.76755 287.000
44.78750 278.000
44.80745 304.000
44.82740 298.000
44.84734 298.000
44.86729 287.000
44.88724 312.000
44.90718 260.000
44.92713 316.000
44.94708 283.000
44.96702 281.000
44.98697 253.000
45.00692 253.000
45.02686 287.000
45.04681 257.000
45.06676 261.000
45.08671 243.000
45.10665 269.000
45.12660 256.000
45.14655 266.000
45.16649 220.000
45.18644 215.000
45.20639 264.000
45.22633 267.000
45.24628 260.000
45.26623 249.000
45.28618 258.000
45.30612 240.000
45.32607 247.000
45.34602 265.000
45.36596 250.000
45.38591 235.000
45.40586 231.000
45.42580 267.000
45.44575 271.000
45.46570 222.000
45.48565 254.000
45.50559 211.000
45.52554 254.000
45.54549 256.000
45.56543 252.000
45.58538 255.000
45.60533 250.000
45.62527 241.000
45.64522 281.000
45.66517 230.000
45.68511 261.000
45.70506 234.000
45.72501 245.000
45.74496 255.000
45.76490 249.000
45.78485 243.000
45.80480 232.000
45.82474 250.000
45.84469 224.000
45.86464 255.000
45.88458 209.000
45.90453 279.000
45.92448 244.000
45.94443 250.000
45.96437 251.000
45.98432 264.000
46.00427 269.000
46.02421 259.000
46.04416 236.000
46.06411 264.000
46.08405 247.000
46.10400 252.000
46.12395 276.000
46.14389 243.000
46.16384 236.000
46.18379 251.000
46.20374 292.000
46.22368 271.000
46.24363 247.000
46.26358 281.000
46.28352 288.000
46.30347 278.000
46.32342 286.000
46.34336 237.000
46.36331 278.000
46.38326 273.000
46.40321 247.000
46.42315 246.000
46.44310 246.000
46.46305 237.000
46.48299 267.000
46.50294 256.000
46.52289 254.000
46.54283 241.000
46.56278 265.000
46.58273 279.000
46.60267 234.000
46.62262 254.000
46.64257 245.000
46.66252 261.000
46.68246 282.000
46.70241 275.000
46.72236 245.000
46.74230 261.000
46.76225 234.000
46.78220 244.000
46.80214 245.000
46.82209 254.000
46.84204 227.000
46.86199 247.000
46.88193 262.000
46.90188 260.000
46.92183 281.000
46.94177 258.000
46.96172 249.000
46.98167 238.000
47.00161 255.000
47.02156 275.000
47.04151 248.000
47.06146 268.000
47.08140 264.000
47.10135 242.000
47.12130 213.000
47.14124 248.000
47.16119 268.000
47.18114 254.000
47.20108 253.000
47.22103 257.000
47.24098 278.000
47.26092 263.000
47.28087 273.000
47.30082 249.000
47.32077 250.000
47.34071 273.000
47.36066 250.000
47.38061 263.000
47.40055 250.000
47.42050 235.000
47.44045 247.000
47.46039 225.000
47.48034 247.000
47.50029 239.000
47.52024 246.000
47.54018 267.000
47.56013 271.000
47.58008 272.000
47.60002 236.000
47.61997 230.000
47.63992 233.000
47.65986 253.000
47.67981 250.000
47.69976 263.000
47.71970 233.000
47.73965 259.000
47.75960 265.000
47.77955 241.000
47.79949 250.000
47.81944 233.000
47.83939 261.000
47.85933 261.000
47.87928 244.000
47.89923 255.000
47.91917 275.000
47.93912 253.000
47.95907 253.000
47.97902 264.000
47.99896 262.000
48.01891 262.000
48.03886 278.000
48.05880 257.000
48.07875 253.000
48.09870 269.000
48.11864 272.000
48.13859 250.000
48.15854 244.000
48.17848 259.000
48.19843 264.000
48.21838 263.000
48.23833 268.000
48.25827 273.000
48.27822 274.000
48.29817 271.000
48.31811 279.000
48.33806 295.000
48.35801 273.000
48.37795 283.000
48.39790 292.000
48.41785 305.000
48.43780 292.000
48.45774 279.000
48.47769 292.000
48.49764 351.000
48.51758 356.000
48.53753 333.000
48.55748 348.000
48.57742 316.000
48.59737 345.000
48.61732 369.000
48.63726 414.000
48.65721 406.000
48.67716 411.000
48.69711 429.000
48.71705 483.000
48.73700 457.000
48.75695 531.000
48.77689 539.000
48.79684 547.000
48.81679 600.000
48.83673 540.000
48.85668 572.000
48.87663 520.000
48.89658 536.000
48.91652 499.000
48.93647 497.000
48.95642 474.000
48.97636 499.000
48.99631 442.000
49.01626 424.000
49.03620 383.000
49.05615 388.000
49.07610 378.000
49.09605 365.000
49.11599 345.000
49.13594 390.000
49.15589 370.000
49.17583 391.000
49.19578 347.000
49.21573 354.000
49.23567 298.000
49.25562 347.000
49.27557 326.000
49.29551 365.000
49.31546 358.000
49.33541 333.000
49.35536 344.000
49.37530 283.000
49.39525 335.000
49.41520 332.000
49.43514 295.000
49.45509 297.000
49.47504 298.000
49.49498 292.000
49.51493 278.000
49.53488 265.000
49.55483 285.000
49.57477 274.000
49.59472 258.000
49.61467 280.000
49.63461 296.000
49.65456 268.000
49.67451 260.000
49.69445 287.000
49.71440 248.000
49.73435 265.000
49.75429 245.000
49.77424 270.000
49.79419 263.000
49.81414 256.000
49.83408 243.000
49.85403 261.000
49.87398 284.000
49.89392 255.000
49.91387 273.000
49.93382 287.000
49.95376 240.000
49.97371 273.000
49.99366 278.000
50.01361 232.000
50.03355 246.000
50.05350 258.000
50.07345 227.000
50.09339 237.000
50.11334 265.000
50.13329 243.000
50.15323 247.000
50.17318 251.000
50.19313 304.000
50.21307 251.000
50.23302 269.000
50.25297 237.000
50.27292 243.000
50.29286 279.000
50.31281 239.000
50.33276 271.000
50.35270 254.000
50.37265 242.000
50.39260 241.000
50.41254 255.000
50.43249 286.000
50.45244 266.000
50.47239 254.000
50.49233 255.000
50.51228 241.000
50.53223 254.000
50.55217 260.000
50.57212 239.000
50.59207 246.000
50.61201 254.000
50.63196 229.000
50.65191 253.000
50.67186 247.000
50.69180 265.000
50.71175 264.000
50.73170 249.000
50.75164 269.000
50.77159 292.000
50.79154 242.000
50.81148 252.000
50.83143 242.000
50.85138 258.000
50.87132 256.000
50.89127 255.000
50.91122 297.000
50.93117 279.000
50.95111 276.000
50.97106 229.000
50.99101 247.000
51.01095 242.000
51.03090 270.000
51.05085 272.000
51.07079 265.000
51.09074 253.000
51.11069 246.000
51.13064 257.000
51.15058 242.000
51.17053 236.000
51.19048 285.000
51.21042 250.000
51.23037 236.000
51.25032 250.000
51.27026 270.000
51.29021 247.000
51.31016 268.000
51.33010 247.000
51.35005 255.000
51.37000 259.000
51.38995 270.000
51.40989 261.000
51.42984 256.000
51.44979 255.000
51.46973 303.000
51.48968 274.000
51.50963 244.000
51.52957 238.000
51.54952 255.000
51.56947 254.000
51.58942 243.000
51.60936 233.000
51.62931 265.000
51.64926 257.000
51.66920 230.000
51.68915 294.000
51.70910 236.000
51.72904 237.000
51.74899 231.000
51.76894 235.000
51.78888 229.000
51.80883 245.000
51.82878 258.000
51.84873 270.000
51.86867 289.000
51.88862 227.000
51.90857 267.000
51.92851 227.000
51.94846 235.000
51.96841 262.000
51.98835 254.000
52.00830 270.000
52.02825 251.000
52.04820 263.000
52.06814 267.000
52.08809 259.000
52.10804 272.000
52.12798 237.000
52.14793 256.000
52.16788 249.000
52.18782 230.000
52.20777 257.000
52.22772 284.000
52.24767 245.000
52.26761 283.000
52.28756 253.000
52.30751 246.000
52.32745 258.000
52.34740 236.000
52.36735 268.000
52.38729 243.000
52.40724 255.000
52.42719 258.000
52.44713 272.000
52.46708 283.000
52.48703 285.000
52.50698 265.000
52.52692 238.000
52.54687 261.000
52.56682 251.000
52.58676 275.000
52.60671 261.000
52.62666 265.000
52.64660 234.000
52.66655 258.000
52.68650 256.000
52.70645 274.000
52.72639 275.000
52.74634 271.000
52.76629 267.000
52.78623 265.000
52.80618 282.000
52.82613 283.000
52.84607 272.000
52.86602 335.000
52.88597 295.000
52.90591 290.000
52.92586 337.000
52.94581 362.000
52.96576 340.000
52.98570 361.000
53.00565 393.000
53.02560 415.000
53.04554 446.000
53.06549 429.000
53.08544 431.000
53.10538 402.000
53.12533 377.000
53.14528 379.000
53.16523 364.000
53.18517 402.000
53.20512 417.000
53.22507 373.000
53.24501 373.000
53.26496 386.000
53.28491 362.000
53.30485 358.000
53.32480 347.000
53.34475 339.000
53.36469 383.000
53.38464 358.000
53.40459 378.000
53.42454 363.000
53.44448 336.000
53.46443 355.000
53.48438 327.000
53.50432 326.000
53.52427 301.000
53.54422 322.000
53.56416 311.000
53.58411 299.000
53.60406 341.000
53.62401 328.000
53.64395 336.000
53.66390 356.000
53.68385 341.000
53.70379 355.000
53.72374 325.000
53.74369 323.000
53.76363 324.000
53.78358 307.000
53.80353 284.000
53.82348 344.000
53.84342 342.000
53.86337 272.000
53.88332 318.000
53.90326 287.000
53.92321 262.000
53.94316 272.000
53.96310 277.000
53.98305 311.000
54.00300 261.000
54.02294 279.000
54.04289 266.000
54.06284 239.000
54.08279 271.000
54.10273 265.000
54.12268 277.000
54.14263 254.000
54.16257 276.000
54.18252 286.000
54.20247 253.000
54.22241 244.000
54.24236 258.000
54.26231 268.000
54.28226 253.000
54.30220 283.000
54.32215 268.000
54.34210 243.000
54.36204 266.000
54.38199 261.000
54.40194 258.000
54.42188 243.000
54.44183 262.000
54.46178 236.000
54.48172 268.000
54.50167 259.000
54.52162 252.000
54.54157 240.000
54.56151 282.000
54.58146 269.000
54.60141 276.000
54.62135 261.000
54.64130 258.000
54.66125 252.000
54.68119 249.000
54.70114 248.000
54.72109 240.000
54.74104 250.000
54.76098 245.000
54.78093 260.000
54.80088 266.000
54.82082 253.000
54.84077 263.000
54.86072 262.000
54.88066 269.000
54.90061 266.000
54.92056 251.000
54.94050 236.000
54.96045 233.000
54.98040 230.000
55.00035 268.000
55.02029 256.000
55.04024 246.000
55.06019 235.000
55.08013 252.000
55.10008 291.000
55.12003 271.000
55.13997 250.000
55.15992 236.000
55.17987 257.000
55.19982 233.000
55.21976 259.000
55.23971 231.000
55.25966 262.000
55.27960 256.000
55.29955 272.000
55.31950 280.000
55.33944 235.000
55.35939 238.000
55.37934 261.000
55.39929 263.000
55.41923 223.000
55.43918 239.000
55.45913 242.000
55.47907 256.000
55.49902 229.000
55.51897 254.000
55.53891 279.000
55.55886 277.000
55.57881 288.000
55.59875 262.000
55.61870 247.000
55.63865 261.000
55.65860 263.000
55.67854 210.000
55.69849 257.000
55.71844 263.000
55.73838 269.000
55.75833 253.000
55.77828 255.000
55.79822 276.000
55.81817 260.000
55.83812 248.000
55.85807 256.000
55.87801 275.000
55.89796 224.000
55.91791 255.000
55.93785 263.000
55.95780 272.000
55.97775 258.000
55.99769 252.000
56.01764 282.000
56.03759 253.000
56.05753 247.000
56.07748 228.000
56.09743 259.000
56.11738 270.000
56.13732 261.000
56.15727 218.000
56.17722 241.000
56.19716 254.000
56.21711 235.000
56.23706 259.000
56.25700 247.000
56.27695 289.000
56.29690 221.000
56.31685 263.000
56.33679 237.000
56.35674 255.000
56.37669 261.000
56.39663 237.000
56.41658 267.000
56.43653 242.000
56.45647 270.000
56.47642 269.000
56.49637 295.000
56.51631 261.000
56.53626 240.000
56.55621 257.000
56.57616 238.000
56.59610 264.000
56.61605 277.000
56.63600 261.000
56.65594 239.000
56.67589 245.000
56.69584 265.000
56.71578 248.000
56.73573 248.000
56.75568 284.000
56.77563 261.000
56.79557 271.000
56.81552 255.000
56.83547 265.000
56.85541 287.000
56.87536 291.000
56.89531 290.000
56.91525 263.000
56.93520 289.000
56.95515 278.000
56.97510 283.000
56.99504 299.000
57.01499 284.000
57.03494 288.000
57.05488 299.000
57.07483 308.000
57.09478 319.000
57.11472 314.000
57.13467 298.000
57.15462 335.000
57.17456 329.000
57.19451 374.000
57.21446 386.000
57.23441 454.000
57.25435 486.000
57.27430 533.000
57.29425 416.000
57.31419 413.000
57.33414 358.000
57.35409 367.000
57.37403 372.000
57.39398 369.000
57.41393 402.000
57.43388 432.000
57.45382 381.000
57.47377 358.000
57.49372 361.000
57.51366 331.000
57.53361 396.000
57.55356 342.000
57.57350 373.000
57.59345 344.000
57.61340 396.000
57.63334 432.000
57.65329 393.000
57.67324 449.000
57.69319 436.000
57.71313 499.000
57.73308 487.000
57.75303 544.000
57.77297 482.000
57.79292 537.000
57.81287 489.000
57.83281 522.000
57.85276 524.000
57.87271 448.000
57.89266 422.000
57.91260 462.000
57.93255 406.000
57.95250 396.000
57.97244 407.000
57.99239 372.000
58.01234 334.000
58.03228 362.000
58.05223 324.000
58.07218 317.000
58.09212 309.000
58.11207 347.000
58.13202 327.000
58.15197 343.000
58.17191 374.000
58.19186 349.000
58.21181 386.000
58.23175 385.000
58.25170 400.000
58.27165 416.000
58.29159 425.000
58.31154 373.000
58.33149 352.000
58.35144 358.000
58.37138 369.000
58.39133 333.000
58.41128 337.000
58.43122 358.000
58.45117 342.000
58.47112 326.000
58.49106 315.000
58.51101 304.000
58.53096 300.000
58.55090 288.000
58.57085 289.000
58.59080 273.000
58.61075 299.000
58.63069 285.000
58.65064 282.000
58.67059 288.000
58.69053 276.000
58.71048 288.000
58.73043 303.000
58.75037 282.000
58.77032 282.000
58.79027 262.000
58.81022 283.000
58.83016 276.000
58.85011 268.000
58.87006 272.000
58.89000 243.000
58.90995 264.000
58.92990 256.000
58.94984 275.000
58.96979 263.000
58.98974 252.000
59.00969 253.000
59.02963 274.000
59.04958 234.000
59.06953 249.000
59.08947 283.000
59.10942 263.000
59.12937 237.000
59.14931 253.000
59.16926 266.000
59.18921 276.000
59.20915 256.000
59.22910 229.000
59.24905 257.000
59.26900 261.000
59.28894 270.000
59.30889 284.000
59.32884 272.000
59.34878 264.000
59.36873 253.000
59.38868 249.000
59.40862 240.000
59.42857 253.000
59.44852 230.000
59.46847 266.000
59.48841 252.000
59.50836 257.000
59.52831 221.000
59.54825 271.000
59.56820 260.000
59.58815 273.000
59.60809 244.000
59.62804 257.000
59.64799 268.000
59.66793 250.000
59.68788 273.000
59.70783 258.000
59.72778 247.000
59.74772 263.000
59.76767 250.000
59.78762 239.000
59.80756 256.000
59.82751 255.000
59.84746 259.000
59.86740 255.000
59.88735 253.000
59.90730 253.000
59.92725 231.000
59.94719 280.000
59.96714 265.000
59.98709 266.000
60.00703 245.000
60.02698 256.000
60.04693 250.000
60.06687 263.000
60.08682 268.000
60.10677 256.000
60.12671 270.000
60.14666 284.000
60.16661 254.000
60.18656 267.000
60.20650 261.000
60.22645 293.000
60.24640 237.000
60.26634 270.000
60.28629 279.000
60.30624 247.000
60.32618 257.000
60.34613 295.000
60.36608 259.000
60.38603 294.000
60.40597 276.000
60.42592 257.000
60.44587 272.000
60.46581 256.000
60.48576 244.000
60.50571 271.000
60.52565 282.000
60.54560 268.000
60.56555 291.000
60.58550 274.000
60.60544 258.000
60.62539 272.000
60.64534 253.000
60.66528 273.000
60.68523 257.000
60.70518 287.000
60.72512 272.000
60.74507 279.000
60.76502 266.000
60.78496 266.000
60.80491 286.000
60.82486 262.000
60.84481 310.000
60.86475 309.000
60.88470 281.000
60.90465 278.000
60.92459 295.000
60.94454 287.000
60.96449 280.000
60.98443 289.000
61.00438 287.000
61.02433 358.000
61.04428 372.000
61.06422 332.000
61.08417 328.000
61.10412 355.000
61.12406 356.000
61.14401 373.000
61.16396 371.000
61.18390 392.000
61.20385 390.000
61.22380 366.000
61.24374 434.000
61.26369 408.000
61.28364 449.000
61.30359 404.000
61.32353 407.000
61.34348 427.000
61.36343 413.000
61.38337 397.000
61.40332 446.000
61.42327 468.000
61.44321 492.000
61.46316 516.000
61.48311 514.000
61.50306 526.000
61.52300 548.000
61.54295 582.000
61.56290 583.000
61.58284 528.000
61.60279 488.000
61.62274 503.000
61.64268 504.000
61.66263 510.000
61.68258 444.000
61.70252 488.000
61.72247 514.000
61.74242 444.000
61.76237 416.000
61.78231 395.000
61.80226 387.000
61.82221 368.000
61.84215 429.000
61.86210 437.000
61.88205 393.000
61.90199 389.000
61.92194 427.000
61.94189 401.000
61.96184 368.000
61.98178 394.000
62.00173 411.000
62.02168 395.000
62.04162 415.000
62.06157 376.000
62.08152 406.000
62.10146 397.000
62.12141 373.000
62.14136 395.000
62.16131 378.000
62.18125 375.000
62.20120 369.000
62.22115 379.000
62.24109 419.000
62.26104 374.000
62.28099 382.000
62.30093 402.000
62.32088 387.000
62.34083 407.000
62.36077 392.000
62.38072 393.000
62.40067 401.000
62.42062 378.000
62.44056 388.000
62.46051 431.000
62.48046 395.000
62.50040 387.000
62.52035 374.000
62.54030 432.000
62.56024 390.000
62.58019 373.000
62.60014 408.000
62.62009 411.000
62.64003 389.000
62.65998 443.000
62.67993 417.000
62.69987 403.000
62.71982 405.000
62.73977 384.000
62.75971 382.000
62.77966 424.000
62.79961 455.000
62.81955 442.000
62.83950 492.000
62.85945 529.000
62.87940 611.000
62.89934 566.000
62.91929 489.000
62.93924 454.000
62.95918 420.000
62.97913 418.000
62.99908 413.000
63.01902 442.000
63.03897 463.000
63.05892 441.000
63.07887 390.000
63.09881 364.000
63.11876 352.000
63.13871 358.000
63.15865 318.000
63.17860 300.000
63.19855 290.000
63.21849 287.000
63.23844 290.000
63.25839 329.000
63.27833 283.000
63.29828 252.000
63.31823 309.000
63.33818 297.000
63.35812 260.000
63.37807 276.000
63.39802 288.000
63.41796 301.000
63.43791 238.000
63.45786 253.000
63.47780 257.000
63.49775 264.000
63.51770 276.000
63.53765 265.000
63.55759 257.000
63.57754 285.000
63.59749 247.000
63.61743 274.000
63.63738 252.000
63.65733 255.000
63.67727 273.000
63.69722 265.000
63.71717 259.000
63.73712 274.000
63.75706 270.000
63.77701 305.000
63.79696 267.000
63.81690 275.000
63.83685 288.000
63.85680 271.000
63.87674 255.000
63.89669 290.000
63.91664 241.000
63.93658 258.000
63.95653 257.000
63.97648 283.000
63.99643 253.000
64.01637 261.000
64.03632 263.000
64.05627 305.000
64.07621 256.000
64.09616 258.000
64.11611 252.000
64.13605 266.000
64.15600 273.000
64.17595 277.000
64.19590 246.000
64.21584 264.000
64.23579 246.000
64.25574 261.000
64.27568 263.000
64.29563 261.000
64.31558 276.000
64.33552 251.000
64.35547 276.000
64.37542 267.000
64.39536 255.000
64.41531 257.000
64.43526 268.000
64.45521 277.000
64.47515 272.000
64.49510 274.000
64.51505 274.000
64.53499 284.000
64.55494 306.000
64.57489 262.000
64.59483 285.000
64.61478 275.000
64.63473 296.000
64.65468 310.000
64.67462 285.000
64.69457 295.000
64.71452 283.000
64.73446 304.000
64.75441 284.000
64.77436 284.000
64.79430 315.000
64.81425 297.000
64.83420 301.000
64.85414 292.000
64.87409 330.000
64.89404 314.000
64.91399 299.000
64.93393 306.000
64.95388 286.000
64.97383 293.000
64.99377 293.000
65.01372 309.000
65.03367 303.000
65.05361 300.000
65.07356 301.000
65.09351 290.000
65.11346 289.000
65.13340 324.000
65.15335 278.000
65.17330 273.000
65.19324 302.000
65.21319 304.000
65.23314 259.000
65.25308 281.000
65.27303 321.000
65.29298 315.000
65.31293 322.000
65.33287 319.000
65.35282 282.000
65.37277 311.000
65.39271 324.000
65.41266 316.000
65.43261 299.000
65.45255 302.000
65.47250 322.000
65.49245 315.000
65.51239 296.000
65.53234 347.000
65.55229 337.000
65.57224 390.000
65.59218 357.000
65.61213 380.000
65.63208 345.000
65.65202 378.000
65.67197 362.000
65.69192 383.000
65.71186 369.000
65.73181 363.000
65.75176 385.000
65.77171 363.000
65.79165 358.000
65.81160 361.000
65.83155 346.000
65.85149 350.000
65.87144 371.000
65.89139 345.000
65.91133 342.000
65.93128 332.000
65.95123 337.000
65.97117 297.000
65.99112 380.000
66.01107 314.000
66.03102 361.000
66.05096 339.000
66.07091 341.000
66.09086 342.000
66.11080 341.000
66.13075 369.000
66.15070 335.000
66.17064 373.000
66.19059 338.000
66.21054 352.000
66.23049 389.000
66.25043 395.000
66.27038 400.000
66.29033 419.000
66.31027 444.000
66.33022 460.000
66.35017 432.000
66.37011 404.000
66.39006 441.000
66.41001 376.000
66.42995 397.000
66.44990 375.000
66.46985 386.000
66.48980 393.000
66.50974 416.000
66.52969 377.000
66.54964 356.000
66.56958 388.000
66.58953 372.000
66.60948 311.000
66.62942 341.000
66.64937 305.000
66.66932 300.000
66.68927 310.000
66.70921 306.000
66.72916 304.000
66.74911 311.000
66.76905 300.000
66.78900 272.000
66.80895 288.000
66.82889 258.000
66.84884 294.000
66.86879 294.000
66.88874 273.000
66.90868 278.000
66.92863 274.000
66.94858 267.000
66.96852 274.000
66.98847 248.000
67.00842 272.000
67.02836 267.000
67.04831 292.000
67.06826 254.000
67.08820 300.000
67.10815 288.000
67.12810 285.000
67.14805 271.000
67.16799 258.000
67.18794 260.000
67.20789 284.000
67.22783 276.000
67.24778 262.000
67.26773 278.000
67.28767 240.000
67.30762 259.000
67.32757 268.000
67.34752 239.000
67.36746 277.000
67.38741 274.000
67.40736 262.000
67.42730 301.000
67.44725 281.000
67.46720 299.000
67.48714 287.000
67.50709 292.000
67.52704 279.000
67.54698 276.000
67.56693 296.000
67.58688 303.000
67.60683 270.000
67.62677 289.000
67.64672 301.000
67.66667 256.000
67.68661 317.000
67.70656 305.000
67.72651 316.000
67.74645 283.000
67.76640 326.000
67.78635 369.000
67.80630 334.000
67.82624 359.000
67.84619 364.000
67.86614 384.000
67.88608 415.000
67.90603 389.000
67.92598 411.000
67.94592 432.000
67.96587 435.000
67.98582 450.000
68.00576 465.000
68.02571 446.000
68.04566 407.000
68.06561 468.000
68.08555 442.000
68.10550 408.000
68.12545 446.000
68.14539 362.000
68.16534 465.000
68.18529 386.000
68.20523 385.000
68.22518 364.000
68.24513 403.000
68.26508 403.000
68.28502 360.000
68.30497 334.000
68.32492 322.000
68.34486 309.000
68.36481 303.000
68.38476 333.000
68.40470 308.000
68.42465 322.000
68.44460 285.000
68.46455 276.000
68.48449 317.000
68.50444 255.000
68.52439 240.000
68.54433 290.000
68.56428 292.000
68.58423 289.000
68.60417 280.000
68.62412 264.000
68.64407 258.000
68.66401 243.000
68.68396 265.000
68.70391 288.000
68.72386 265.000
68.74380 245.000
68.76375 292.000
68.78370 251.000
68.80364 276.000
68.82359 278.000
68.84354 267.000
68.86348 276.000
68.88343 263.000
68.90338 281.000
68.92333 276.000
68.94327 267.000
68.96322 240.000
68.98317 306.000
69.00311 272.000
69.02306 264.000
69.04301 270.000
69.06295 269.000
69.08290 250.000
69.10285 263.000
69.12279 236.000
69.14274 260.000
69.16269 221.000
69.18264 242.000
69.20258 281.000
69.22253 277.000
69.24248 252.000
69.26242 253.000
69.28237 259.000
69.30232 239.000
69.32226 278.000
69.34221 284.000
69.36216 283.000
69.38211 277.000
69.40205 256.000
69.42200 265.000
69.44195 276.000
69.46189 263.000
69.48184 238.000
69.50179 229.000
69.52173 267.000
69.54168 259.000
69.56163 262.000
69.58157 238.000
69.60152 270.000
69.62147 277.000
69.64142 258.000
69.66136 249.000
69.68131 254.000
69.70126 253.000
69.72120 241.000
69.74115 270.000
69.76110 269.000
69.78104 219.000
69.80099 242.000
69.82094 294.000
69.84089 249.000
69.86083 287.000
69.88078 254.000
69.90073 234.000
69.92067 250.000
69.94062 257.000
69.96057 287.000
69.98051 235.000
70.00046 234.000
70.02041 283.000
70.04035 277.000
70.06030 249.000
70.08025 248.000
70.10020 260.000
70.12014 256.000
70.14009 261.000
70.16004 230.000
70.17998 248.000
70.19993 222.000
70.21988 257.000
70.23982 257.000
70.25977 241.000
70.27972 253.000
70.29967 260.000
70.31961 244.000
70.33956 231.000
70.35951 263.000
70.37945 235.000
70.39940 236.000
70.41935 223.000
70.43929 246.000
70.45924 242.000
70.47919 265.000
70.49914 270.000
70.51908 263.000
70.53903 253.000
70.55898 252.000
70.57892 234.000
70.59887 241.000
70.61882 246.000
70.63876 274.000
70.65871 254.000
70.67866 225.000
70.69860 246.000
70.71855 273.000
70.73850 242.000
70.75845 254.000
70.77839 257.000
70.79834 258.000
70.81829 238.000
70.83823 279.000
70.85818 240.000
70.87813 233.000
70.89807 236.000
70.91802 225.000
70.93797 241.000
70.95792 260.000
70.97786 272.000
70.99781 229.000
71.01776 257.000
71.03770 277.000
71.05765 214.000
71.07760 238.000
71.09754 241.000
71.11749 257.000
71.13744 236.000
71.15738 240.000
71.17733 279.000
71.19728 221.000
71.21723 247.000
71.23717 237.000
71.25712 254.000
71.27707 294.000
71.29701 261.000
71.31696 252.000
71.33691 271.000
71.35685 262.000
71.37680 258.000
71.39675 260.000
71.41670 281.000
71.43664 247.000
71.45659 241.000
71.47654 286.000
71.49648 275.000
71.51643 246.000
71.53638 251.000
71.55632 284.000
71.57627 255.000
71.59622 240.000
71.61616 293.000
71.63611 278.000
71.65606 266.000
71.67601 273.000
71.69595 285.000
71.71590 240.000
71.73585 263.000
71.75579 290.000
71.77574 275.000
71.79569 256.000
71.81563 248.000
71.83558 259.000
71.85553 279.000
71.87548 267.000
71.89542 253.000
71.91537 291.000
71.93532 285.000
71.95526 254.000
71.97521 275.000
71.99516 279.000
72.01510 278.000
72.03505 288.000
72.05500 275.000
72.07495 268.000
72.09489 290.000
72.11484 301.000
72.13479 305.000
72.15473 277.000
72.17468 322.000
72.19463 309.000
72.21457 328.000
72.23452 305.000
72.25447 304.000
72.27441 342.000
72.29436 344.000
72.31431 323.000
72.33426 351.000
72.35420 377.000
72.37415 346.000
72.39410 420.000
72.41404 365.000
72.43399 390.000
72.45394 376.000
72.47388 352.000
72.49383 340.000
72.51378 330.000
72.53373 308.000
72.55367 309.000
72.57362 354.000
72.59357 329.000
72.61351 339.000
72.63346 290.000
72.65341 319.000
72.67335 339.000
72.69330 322.000
72.71325 291.000
72.73319 270.000
72.75314 266.000
72.77309 247.000
72.79304 280.000
72.81298 270.000
72.83293 289.000
72.85288 276.000
72.87282 240.000
72.89277 289.000
72.91272 285.000
72.93266 287.000
72.95261 292.000
72.97256 248.000
72.99251 243.000
73.01245 263.000
73.03240 251.000
73.05235 279.000
73.07229 239.000
73.09224 272.000
73.11219 261.000
73.13213 303.000
73.15208 281.000
73.17203 248.000
73.19197 255.000
73.21192 252.000
73.23187 265.000
73.25182 249.000
73.27176 250.000
73.29171 233.000
73.31166 273.000
73.33160 237.000
73.35155 237.000
73.37150 238.000
73.39144 270.000
73.41139 278.000
73.43134 238.000
73.45129 242.000
73.47123 259.000
73.49118 267.000
73.51113 262.000
73.53107 275.000
73.55102 267.000
73.57097 256.000
73.59091 273.000
73.61086 299.000
73.63081 254.000
73.65076 262.000
73.67070 259.000
73.69065 257.000
73.71060 279.000
73.73054 255.000
73.75049 282.000
73.77044 274.000
73.79038 284.000
73.81033 267.000
73.83028 256.000
73.85022 281.000
73.87017 275.000
73.89012 288.000
73.91007 288.000
73.93001 292.000
73.94996 282.000
73.96991 248.000
73.98985 264.000
74.00980 261.000
74.02975 307.000
74.04969 277.000
74.06964 319.000
74.08959 265.000
74.10954 271.000
74.12948 293.000
74.14943 283.000
74.16938 294.000
74.18932 288.000
74.20927 264.000
74.22922 311.000
74.24916 267.000
74.26911 283.000
74.28906 282.000
74.30900 298.000
74.32895 314.000
74.34890 285.000
74.36885 299.000
74.38879 301.000
74.40874 331.000
74.42869 301.000
74.44863 308.000
74.46858 311.000
74.48853 268.000
74.50847 249.000
74.52842 292.000
74.54837 302.000
74.56832 280.000
74.58826 243.000
74.60821 295.000
74.62816 262.000
74.64810 303.000
74.66805 283.000
74.68800 268.000
74.70794 315.000
74.72789 292.000
74.74784 277.000
74.76778 287.000
74.78773 333.000
74.80768 272.000
74.82763 320.000
74.84757 297.000
74.86752 330.000
74.88747 305.000
74.90741 284.000
74.92736 338.000
74.94731 327.000
74.96725 324.000
74.98720 331.000
75.00715 332.000
75.02710 362.000
75.04704 332.000
75.06699 335.000
75.08694 316.000
75.10688 331.000
75.12683 354.000
75.14678 355.000
75.16672 363.000
75.18667 348.000
75.20662 342.000
75.22657 333.000
75.24651 359.000
75.26646 333.000
75.28641 310.000
75.30635 317.000
75.32630 321.000
75.34625 340.000
75.36619 311.000
75.38614 337.000
75.40609 322.000
75.42603 319.000
75.44598 326.000
75.46593 293.000
75.48588 319.000
75.50582 312.000
75.52577 285.000
75.54572 279.000
75.56566 290.000
75.58561 252.000
75.60556 269.000
75.62550 263.000
75.64545 292.000
75.66540 268.000
75.68535 264.000
75.70529 250.000
75.72524 262.000
75.74519 244.000
75.76513 269.000
75.78508 231.000
75.80503 227.000
75.82497 255.000
75.84492 252.000
75.86487 266.000
75.88481 249.000
75.90476 270.000
75.92471 230.000
75.94466 247.000
75.96460 233.000
75.98455 266.000
76.00450 264.000
76.02444 260.000
76.04439 256.000
76.06434 250.000
76.08428 257.000
76.10423 249.000
76.12418 242.000
76.14413 240.000
76.16407 272.000
76.18402 237.000
76.20397 253.000
76.22391 230.000
76.24386 263.000
76.26381 227.000
76.28375 254.000
76.30370 262.000
76.32365 229.000
76.34359 251.000
76.36354 252.000
76.38349 240.000
76.40344 260.000
76.42338 272.000
76.44333 228.000
76.46328 223.000
76.48322 251.000
76.50317 240.000
76.52312 256.000
76.54306 245.000
76.56301 256.000
76.58296 232.000
76.60291 257.000
76.62285 250.000
76.64280 264.000
76.66275 249.000
76.68269 244.000
76.70264 249.000
76.72259 224.000
76.74253 244.000
76.76248 255.000
76.78243 256.000
76.80238 235.000
76.82232 246.000
76.84227 254.000
76.86222 258.000
76.88216 244.000
76.90211 251.000
76.92206 222.000
76.94200 272.000
76.96195 255.000
76.98190 232.000
77.00184 246.000
77.02179 260.000
77.04174 222.000
77.06169 244.000
77.08163 262.000
77.10158 247.000
77.12153 279.000
77.14147 295.000
77.16142 270.000
77.18137 258.000
77.20131 254.000
77.22126 270.000
77.24121 258.000
77.26116 260.000
77.28110 271.000
77.30105 279.000
77.32100 268.000
77.34094 285.000
77.36089 280.000
77.38084 283.000
77.40078 258.000
77.42073 292.000
77.44068 283.000
77.46062 253.000
77.48057 243.000
77.50052 245.000
77.52047 308.000
77.54041 295.000
77.56036 280.000
77.58031 279.000
77.60025 264.000
77.62020 265.000
77.64015 275.000
77.66009 276.000
77.68004 300.000
77.69999 295.000
77.71994 262.000
77.73988 276.000
77.75983 249.000
77.77978 271.000
77.79972 263.000
77.81967 252.000
77.83962 272.000
77.85956 270.000
77.87951 265.000
77.89946 272.000
77.91940 265.000
77.93935 256.000
77.95930 254.000
77.97925 269.000
77.99919 251.000
78.01914 264.000
78.03909 276.000
78.05903 277.000
78.07898 260.000
78.09893 265.000
78.11887 251.000
78.13882 259.000
78.15877 240.000
78.17872 248.000
78.19866 287.000
78.21861 276.000
78.23856 248.000
78.25850 257.000
78.27845 255.000
78.29840 242.000
78.31834 271.000
78.33829 264.000
78.35824 254.000
78.37819 250.000
78.39813 265.000
78.41808 256.000
78.43803 256.000
78.45797 237.000
78.47792 232.000
78.49787 236.000
78.51781 232.000
78.53776 237.000
78.55771 246.000
78.57765 283.000
78.59760 263.000
78.61755 255.000
78.63750 251.000
78.65744 251.000
78.67739 240.000
78.69734 257.000
78.71728 253.000
78.73723 263.000
78.75718 240.000
78.77712 270.000
78.79707 245.000
78.81702 258.000
78.83697 258.000
78.85691 288.000
78.87686 245.000
78.89681 263.000
78.91675 284.000
78.93670 276.000
78.95665 278.000
78.97659 225.000
78.99654 242.000
79.01649 283.000
79.03643 265.000
79.05638 246.000
79.07633 273.000
79.09628 260.000
79.11622 250.000
79.13617 241.000
79.15612 249.000
79.17606 258.000
79.19601 295.000
79.21596 278.000
79.23590 247.000
79.25585 224.000
79.27580 222.000
79.29575 249.000
79.31569 247.000
79.33564 257.000
79.35559 264.000
79.37553 248.000
79.39548 267.000
79.41543 261.000
79.43537 302.000
79.45532 260.000
79.47527 273.000
79.49521 249.000
79.51516 280.000
79.53511 236.000
79.55506 271.000
79.57500 263.000
79.59495 274.000
79.61490 220.000
79.63484 263.000
79.65479 246.000
79.67474 268.000
79.69468 245.000
79.71463 261.000
79.73458 234.000
79.75453 247.000
79.77447 253.000
79.79442 275.000
79.81437 278.000
79.83431 276.000
79.85426 274.000
79.87421 232.000
79.89415 252.000
79.91410 274.000
79.93405 250.000
79.95399 247.000
79.97394 232.000
79.99389 263.000
80.01384 231.000
80.03378 251.000
80.05373 254.000
80.07368 295.000
80.09362 263.000
80.11357 244.000
80.13352 254.000
80.15346 249.000
80.17341 251.000
80.19336 266.000
80.21331 275.000
80.23325 242.000
80.25320 298.000
80.27315 219.000
80.29309 242.000
80.31304 278.000
80.33299 259.000
80.35293 271.000
80.37288 269.000
80.39283 255.000
80.41278 230.000
80.43272 231.000
80.45267 253.000
80.47262 244.000
80.49256 236.000
80.51251 251.000
80.53246 233.000
80.55240 244.000
80.57235 257.000
80.59230 263.000
80.61224 255.000
80.63219 223.000
80.65214 258.000
80.67209 229.000
80.69203 249.000
80.71198 214.000
80.73193 232.000
80.75187 248.000
80.77182 255.000
80.79177 235.000
80.81171 277.000
80.83166 257.000
80.85161 265.000
80.87156 233.000
80.89150 252.000
80.91145 275.000
80.93140 249.000
80.95134 258.000
80.97129 220.000
80.99124 251.000
81.01118 253.000
81.03113 248.000
81.05108 256.000
81.07102 230.000
81.09097 246.000
81.11092 259.000
81.13087 242.000
81.15081 261.000
81.17076 243.000
81.19071 233.000
81.21065 218.000
81.23060 236.000
81.25055 250.000
81.27049 228.000
81.29044 257.000
81.31039 241.000
81.33034 218.000
81.35028 235.000
81.37023 258.000
81.39018 220.000
81.41012 261.000
81.43007 231.000
81.45002 241.000
81.46996 262.000
81.48991 260.000
81.50986 241.000
81.52980 244.000
81.54975 266.000
81.56970 249.000
81.58965 256.000
81.60959 233.000
81.62954 243.000
81.64949 232.000
81.66943 222.000
81.68938 261.000
81.70933 229.000
81.72927 239.000
81.74922 292.000
81.76917 239.000
81.78912 223.000
81.80906 258.000
81.82901 219.000
81.84896 229.000
81.86890 265.000
81.88885 241.000
81.90880 256.000
81.92874 265.000
81.94869 245.000
81.96864 274.000
81.98859 238.000
82.00853 253.000
82.02848 269.000
82.04843 245.000
82.06837 258.000
82.08832 249.000
82.10827 241.000
82.12821 275.000
82.14816 251.000
82.16811 273.000
82.18805 246.000
82.20800 272.000
82.22795 268.000
82.24790 256.000
82.26784 273.000
82.28779 255.000
82.30774 287.000
82.32768 268.000
82.34763 267.000
82.36758 305.000
82.38752 280.000
82.40747 307.000
82.42742 290.000
82.44737 288.000
82.46731 295.000
82.48726 265.000
82.50721 293.000
82.52715 335.000
82.54710 294.000
82.56705 308.000
82.58699 296.000
82.60694 286.000
82.62689 300.000
82.64683 283.000
82.66678 276.000
82.68673 276.000
82.70668 270.000
82.72662 301.000
82.74657 284.000
82.76652 261.000
82.78646 281.000
82.80641 301.000
82.82636 277.000
82.84630 276.000
82.86625 304.000
82.88620 288.000
82.90615 311.000
82.92609 301.000
82.94604 252.000
82.96599 298.000
82.98593 328.000
83.00588 268.000
83.02583 283.000
83.04577 284.000
83.06572 304.000
83.08567 261.000
83.10561 251.000
83.12556 254.000
83.14551 254.000
83.16546 244.000
83.18540 246.000
83.20535 277.000
83.22530 264.000
83.24524 239.000
83.26519 272.000
83.28514 279.000
83.30508 269.000
83.32503 265.000
83.34498 266.000
83.36493 250.000
83.38487 242.000
83.40482 255.000
83.42477 272.000
83.44471 265.000
83.46466 268.000
83.48461 267.000
83.50455 269.000
83.52450 256.000
83.54445 272.000
83.56440 259.000
83.58434 272.000
83.60429 273.000
83.62424 309.000
83.64418 257.000
83.66413 305.000
83.68408 278.000
83.70402 315.000
83.72397 275.000
83.74392 293.000
83.76386 293.000
83.78381 262.000
83.80376 280.000
83.82371 285.000
83.84365 287.000
83.86360 267.000
83.88355 269.000
83.90349 278.000
83.92344 279.000
83.94339 292.000
83.96333 223.000
83.98328 250.000
84.00323 254.000
84.02318 262.000
84.04312 242.000
84.06307 251.000
84.08302 262.000
84.10296 274.000
84.12291 249.000
84.14286 253.000
84.16280 273.000
84.18275 249.000
84.20270 265.000
84.22264 238.000
84.24259 222.000
84.26254 240.000
84.28249 278.000
84.30243 275.000
84.32238 264.000
84.34233 249.000
84.36227 265.000
84.38222 253.000
84.40217 270.000
84.42211 258.000
84.44206 242.000
84.46201 263.000
84.48196 253.000
84.50190 220.000
84.52185 234.000
84.54180 244.000
84.56174 248.000
84.58169 251.000
84.60164 239.000
84.62158 259.000
84.64153 248.000
84.66148 272.000
84.68142 230.000
84.70137 243.000
84.72132 256.000
84.74127 236.000
84.76121 254.000
84.78116 237.000
84.80111 253.000
84.82105 257.000
84.84100 249.000
84.86095 246.000
84.88089 239.000
84.90084 248.000
84.92079 253.000
84.94074 262.000
84.96068 258.000
84.98063 252.000
85.00058 245.000
85.02052 217.000
85.04047 226.000
85.06042 259.000
85.08036 248.000
85.10031 234.000
85.12026 248.000
85.14021 247.000
85.16015 237.000
85.18010 230.000
85.20005 257.000
85.21999 248.000
85.23994 235.000
85.25989 224.000
85.27983 240.000
85.29978 245.000
85.31973 235.000
85.33967 224.000
85.35962 227.000
85.37957 233.000
85.39952 229.000
85.41946 269.000
85.43941 261.000
85.45936 243.000
85.47930 243.000
85.49925 246.000
85.51920 238.000
85.53914 247.000
85.55909 249.000
85.57904 209.000
85.59899 237.000
85.61893 233.000
85.63888 219.000
85.65883 222.000
85.67877 232.000
85.69872 245.000
85.71867 253.000
85.73861 241.000
85.75856 245.000
85.77851 215.000
85.79845 276.000
85.81840 236.000
85.83835 234.000
85.85830 244.000
85.87824 262.000
85.89819 270.000
85.91814 239.000
85.93808 223.000
85.95803 246.000
85.97798 267.000
85.99792 265.000
86.01787 247.000
86.03782 249.000
86.05777 272.000
86.07771 236.000
86.09766 258.000
86.11761 263.000
86.13755 263.000
86.15750 251.000
86.17745 254.000
86.19739 266.000
86.21734 225.000
86.23729 231.000
86.25723 261.000
86.27718 217.000
86.29713 237.000
86.31708 287.000
86.33702 259.000
86.35697 225.000
86.37692 224.000
86.39686 264.000
86.41681 260.000
86.43676 280.000
86.45670 277.000
86.47665 256.000
86.49660 251.000
86.51655 223.000
86.53649 271.000
86.55644 251.000
86.57639 250.000
86.59633 242.000
86.61628 234.000
86.63623 243.000
86.65617 251.000
86.67612 281.000
86.69607 245.000
86.71602 278.000
86.73596 223.000
86.75591 273.000
86.77586 267.000
86.79580 261.000
86.81575 238.000
86.83570 230.000
86.85564 252.000
86.87559 264.000
86.89554 250.000
86.91548 256.000
86.93543 254.000
86.95538 215.000
86.97533 283.000
86.99527 249.000
87.01522 201.000
87.03517 266.000
87.05511 262.000
87.07506 268.000
87.09501 246.000
87.11495 284.000
87.13490 263.000
87.15485 243.000
87.17480 276.000
87.19474 241.000
87.21469 233.000
87.23464 269.000
87.25458 243.000
87.27453 254.000
87.29448 247.000
87.31442 285.000
87.33437 277.000
87.35432 252.000
87.37426 251.000
87.39421 264.000
87.41416 227.000
87.43411 223.000
87.45405 262.000
87.47400 228.000
87.49395 251.000
87.51389 250.000
87.53384 224.000
87.55379 250.000
87.57373 268.000
87.59368 247.000
87.61363 248.000
87.63358 260.000
87.65352 261.000
87.67347 269.000
87.69342 252.000
87.71336 259.000
87.73331 218.000
87.75326 217.000
87.77320 263.000
87.79315 260.000
87.81310 236.000
87.83304 262.000
87.85299 255.000
87.87294 242.000
87.89289 231.000
87.91283 218.000
87.93278 240.000
87.95273 212.000
87.97267 267.000
87.99262 263.000
88.01257 256.000
88.03251 242.000
88.05246 245.000
88.07241 230.000
88.09236 250.000
88.11230 266.000
88.13225 251.000
88.15220 252.000
88.17214 246.000
88.19209 243.000
88.21204 259.000
88.23198 236.000
88.25193 228.000
88.27188 228.000
88.29183 237.000
88.31177 241.000
88.33172 220.000
88.35167 246.000
88.37161 234.000
88.39156 246.000
88.41151 249.000
88.43145 242.000
88.45140 269.000
88.47135 222.000
88.49129 252.000
88.51124 244.000
88.53119 248.000
88.55114 243.000
88.57108 243.000
88.59103 238.000
88.61098 243.000
88.63092 263.000
88.65087 242.000
88.67082 270.000
88.69076 251.000
88.71071 248.000
88.73066 260.000
88.75061 262.000
88.77055 257.000
88.79050 258.000
88.81045 239.000
88.83039 245.000
88.85034 250.000
88.87029 238.000
88.89023 234.000
88.91018 241.000
88.93013 247.000
88.95007 264.000
88.97002 275.000
88.98997 237.000
89.00992 270.000
89.02986 231.000
89.04981 243.000
89.06976 234.000
89.08970 245.000
89.10965 238.000
89.12960 252.000
89.14954 258.000
89.16949 241.000
89.18944 233.000
89.20939 257.000
89.22933 246.000
89.24928 255.000
89.26923 244.000
89.28917 248.000
89.30912 254.000
89.32907 280.000
89.34901 266.000
89.36896 253.000
89.38891 284.000
89.40885 267.000
89.42880 282.000
89.44875 318.000
89.46870 238.000
89.48864 270.000
89.50859 264.000
89.52854 261.000
89.54848 285.000
89.56843 265.000
89.58838 261.000
89.60832 274.000
89.62827 285.000
89.64822 261.000
89.66817 290.000
89.68811 276.000
89.70806 263.000
89.72801 310.000
89.74795 285.000
89.76790 306.000
89.78785 284.000
89.80779 285.000
89.82774 292.000
89.84769 275.000
89.86764 280.000
89.88758 307.000
89.90753 285.000
89.92748 299.000
89.94742 306.000
89.96737 280.000
89.98732 262.000
90.00726 283.000
