10.00000 50.000
10.01995 46.000
10.03989 41.000
10.05984 44.000
10.07979 71.000
10.09973 55.000
10.11968 53.000
10.13963 61.000
10.15958 45.000
10.17952 65.000
10.19947 47.000
10.21942 53.000
10.23936 55.000
10.25931 46.000
10.27926 54.000
10.29920 58.000
10.31915 46.000
10.33910 53.000
10.35905 47.000
10.37899 44.000
10.39894 60.000
10.41889 53.000
10.43883 42.000
10.45878 55.000
10.47873 46.000
10.49867 48.000
10.51862 52.000
10.53857 55.000
10.55851 56.000
10.57846 35.000
10.59841 60.000
10.61836 48.000
10.63830 52.000
10.65825 55.000
10.67820 55.000
10.69814 37.000
10.71809 52.000
10.73804 45.000
10.75798 62.000
10.77793 54.000
10.79788 54.000
10.81783 50.000
10.83777 52.000
10.85772 45.000
10.87767 52.000
10.89761 50.000
10.91756 56.000
10.93751 47.000
10.95745 60.000
10.97740 48.000
10.99735 56.000
11.01730 66.000
11.03724 55.000
11.05719 46.000
11.07714 61.000
11.09708 43.000
11.11703 45.000
11.13698 56.000
11.15692 65.000
11.17687 46.000
11.19682 47.000
11.21676 46.000
11.23671 50.000
11.25666 49.000
11.27661 58.000
11.29655 61.000
11.31650 56.000
11.33645 64.000
11.35639 58.000
11.37634 55.000
11.39629 51.000
11.41623 45.000
11.43618 52.000
11.45613 53.000
11.47608 53.000
11.49602 55.000
11.51597 38.000
11.53592 42.000
11.55586 42.000
11.57581 49.000
11.59576 48.000
11.61570 61.000
11.63565 46.000
11.65560 50.000
11.67554 41.000
11.69549 62.000
11.71544 53.000
11.73539 57.000
11.75533 38.000
11.77528 41.000
11.79523 49.000
11.81517 48.000
11.83512 47.000
11.85507 54.000
11.87501 39.000
11.89496 45.000
11.91491 49.000
11.93486 53.000
11.95480 41.000
11.97475 42.000
11.99470 46.000
12.01464 53.000
12.03459 42.000
12.05454 33.000
12.07448 64.000
12.09443 50.000
12.11438 55.000
12.13432 51.000
12.15427 44.000
12.17422 55.000
12.19417 48.000
12.21411 45.000
12.23406 50.000
12.25401 45.000
12.27395 44.000
12.29390 49.000
12.31385 54.000
12.33379 45.000
12.35374 38.000
12.37369 51.000
12.39364 51.000
12.41358 45.000
12.43353 53.000
12.45348 69.000
12.47342 64.000
12.49337 57.000
12.51332 52.000
12.53326 55.000
12.55321 44.000
12.57316 43.000
12.59311 58.000
12.61305 61.000
12.63300 56.000
12.65295 52.000
12.67289 51.000
12.69284 49.000
12.71279 52.000
12.73273 37.000
12.75268 53.000
12.77263 40.000
12.79257 46.000
12.81252 54.000
12.83247 47.000
12.85242 51.000
12.87236 62.000
12.89231 51.000
12.91226 44.000
12.93220 47.000
12.95215 45.000
12.97210 40.000
12.99204 41.000
13.01199 44.000
13.03194 51.000
13.05189 49.000
13.07183 37.000
13.09178 47.000
13.11173 43.000
13.13167 46.000
13.15162 56.000
13.17157 52.000
13.19151 44.000
13.21146 55.000
13.23141 58.000
13.25135 53.000
13.27130 55.000
13.29125 49.000
13.31120 48.000
13.33114 45.000
13.35109 64.000
13.37104 42.000
13.39098 51.000
13.41093 47.000
13.43088 55.000
13.45082 48.000
13.47077 38.000
13.49072 58.000
13.51067 59.000
13.53061 38.000
13.55056 35.000
13.57051 46.000
13.59045 39.000
13.61040 44.000
13.63035 53.000
13.65029 46.000
13.67024 47.000
13.69019 45.000
13.71013 48.000
13.73008 49.000
13.75003 46.000
13.76998 50.000
13.78992 58.000
13.80987 56.000
13.82982 46.000
13.84976 59.000
13.86971 39.000
13.88966 52.000
13.90960 46.000
13.92955 49.000
13.94950 43.000
13.96945 55.000
13.98939 62.000
14.00934 43.000
14.02929 60.000
14.04923 46.000
14.06918 59.000
14.08913 47.000
14.10907 44.000
14.12902 49.000
14.14897 43.000
14.16892 46.000
14.18886 61.000
14.20881 59.000
14.22876 45.000
14.24870 48.000
14.26865 49.000
14.28860 51.000
14.30854 52.000
14.32849 52.000
14.34844 39.000
14.36838 42.000
14.38833 42.000
14.40828 50.000
14.42823 53.000
14.44817 55.000
14.46812 51.000
14.48807 53.000
14.50801 67.000
14.52796 49.000
14.54791 59.000
14.56785 43.000
14.58780 59.000
14.60775 44.000
14.62770 48.000
14.64764 54.000
14.66759 47.000
14.68754 59.000
14.70748 42.000
14.72743 50.000
14.74738 66.000
14.76732 49.000
14.78727 59.000
14.80722 68.000
14.82716 67.000
14.84711 55.000
14.86706 48.000
14.88701 58.000
14.90695 50.000
14.92690 52.000
14.94685 59.000
14.96679 38.000
14.98674 48.000
15.00669 47.000
15.02663 44.000
15.04658 59.000
15.06653 55.000
15.08648 51.000
15.10642 43.000
15.12637 56.000
15.14632 59.000
15.16626 46.000
15.18621 47.000
15.20616 51.000
15.22610 53.000
15.24605 58.000
15.26600 50.000
15.28594 48.000
15.30589 63.000
15.32584 46.000
15.34579 61.000
15.36573 57.000
15.38568 52.000
15.40563 49.000
15.42557 49.000
15.44552 51.000
15.46547 58.000
15.48541 62.000
15.50536 49.000
15.52531 56.000
15.54526 69.000
15.56520 60.000
15.58515 58.000
15.60510 66.000
15.62504 64.000
15.64499 73.000
15.66494 62.000
15.68488 74.000
15.70483 103.000
15.72478 94.000
15.74472 102.000
15.76467 133.000
15.78462 119.000
15.80457 141.000
15.82451 192.000
15.84446 212.000
15.86441 236.000
15.88435 202.000
15.90430 184.000
15.92425 141.000
15.94419 134.000
15.96414 119.000
15.98409 136.000
16.00404 120.000
16.02398 125.000
16.04393 134.000
16.06388 160.000
16.08382 169.000
16.10377 191.000
16.12372 196.000
16.14366 235.000
16.16361 248.000
16.18356 275.000
16.20351 343.000
16.22345 376.000
16.24340 453.000
16.26335 477.000
16.28329 601.000
16.30324 761.000
16.32319 924.000
16.34313 1131.000
16.36308 1397.000
16.38303 1839.000
16.40297 2207.000
16.42292 2645.000
16.44287 2591.000
16.46282 2541.000
16.48276 2058.000
16.50271 1562.000
16.52266 1074.000
16.54260 712.000
16.56255 484.000
16.58250 375.000
16.60244 276.000
16.62239 217.000
16.64234 209.000
16.66229 194.000
16.68223 180.000
16.70218 146.000
16.72213 128.000
16.74207 135.000
16.76202 109.000
16.78197 124.000
16.80191 132.000
16.82186 91.000
16.84181 115.000
16.86175 105.000
16.88170 119.000
16.90165 85.000
16.92160 91.000
16.94154 85.000
16.96149 85.000
16.98144 85.000
17.00138 83.000
17.02133 67.000
17.04128 87.000
17.06122 102.000
17.08117 82.000
17.10112 90.000
17.12107 77.000
17.14101 79.000
17.16096 72.000
17.18091 70.000
17.20085 73.000
17.22080 63.000
17.24075 61.000
17.26069 82.000
17.28064 76.000
17.30059 73.000
17.32053 81.000
17.34048 94.000
17.36043 77.000
17.38038 88.000
17.40032 98.000
17.42027 59.000
17.44022 81.000
17.46016 76.000
17.48011 74.000
17.50006 74.000
17.52000 74.000
17.53995 52.000
17.55990 61.000
17.57985 57.000
17.59979 53.000
17.61974 45.000
17.63969 52.000
17.65963 49.000
17.67958 56.000
17.69953 63.000
17.71947 53.000
17.73942 60.000
17.75937 48.000
17.77932 64.000
17.79926 57.000
17.81921 51.000
17.83916 55.000
17.85910 55.000
17.87905 38.000
17.89900 65.000
17.91894 41.000
17.93889 60.000
17.95884 53.000
17.97878 46.000
17.99873 46.000
18.01868 44.000
18.03863 57.000
18.05857 56.000
18.07852 53.000
18.09847 41.000
18.11841 44.000
18.13836 48.000
18.15831 71.000
18.17825 49.000
18.19820 38.000
18.21815 47.000
18.23810 46.000
18.25804 58.000
18.27799 46.000
18.29794 56.000
18.31788 64.000
18.33783 46.000
18.35778 74.000
18.37772 69.000
18.39767 93.000
18.41762 97.000
18.43756 83.000
18.45751 92.000
18.47746 87.000
18.49741 70.000
18.51735 56.000
18.53730 44.000
18.55725 49.000
18.57719 57.000
18.59714 44.000
18.61709 53.000
18.63703 44.000
18.65698 49.000
18.67693 58.000
18.69688 44.000
18.71682 47.000
18.73677 50.000
18.75672 36.000
18.77666 52.000
18.79661 49.000
18.81656 50.000
18.83650 48.000
18.85645 43.000
18.87640 50.000
18.89634 43.000
18.91629 61.000
18.93624 52.000
18.95619 42.000
18.97613 42.000
18.99608 47.000
19.01603 46.000
19.03597 41.000
19.05592 57.000
19.07587 42.000
19.09581 43.000
19.11576 38.000
19.13571 42.000
19.15566 48.000
19.17560 50.000
19.19555 40.000
19.21550 39.000
19.23544 46.000
19.25539 48.000
19.27534 40.000
19.29528 56.000
19.31523 43.000
19.33518 44.000
19.35513 44.000
19.37507 46.000
19.39502 53.000
19.41497 43.000
19.43491 60.000
19.45486 31.000
19.47481 37.000
19.49475 42.000
19.51470 42.000
19.53465 38.000
19.55459 58.000
19.57454 54.000
19.59449 39.000
19.61444 56.000
19.63438 37.000
19.65433 31.000
19.67428 43.000
19.69422 45.000
19.71417 34.000
19.73412 40.000
19.75406 55.000
19.77401 40.000
19.79396 34.000
19.81391 59.000
19.83385 46.000
19.85380 52.000
19.87375 46.000
19.89369 39.000
19.91364 54.000
19.93359 48.000
19.95353 58.000
19.97348 56.000
19.99343 58.000
20.01337 65.000
20.03332 64.000
20.05327 58.000
20.07322 66.000
20.09316 64.000
20.11311 50.000
20.13306 56.000
20.15300 55.000
20.17295 55.000
20.19290 51.000
20.21284 54.000
20.23279 49.000
20.25274 53.000
20.27269 56.000
20.29263 53.000
20.31258 56.000
20.33253 53.000
20.35247 67.000
20.37242 58.000
20.39237 47.000
20.41231 56.000
20.43226 81.000
20.45221 98.000
20.47215 104.000
20.49210 151.000
20.51205 187.000
20.53200 224.000
20.55194 253.000
20.57189 253.000
20.59184 233.000
20.61178 249.000
20.63173 241.000
20.65168 248.000
20.67162 236.000
20.69157 234.000
20.71152 209.000
20.73147 230.000
20.75141 218.000
20.77136 188.000
20.79131 194.000
20.81125 208.000
20.83120 178.000
20.85115 170.000
20.87109 145.000
20.89104 156.000
20.91099 110.000
20.93094 107.000
20.95088 101.000
20.97083 94.000
20.99078 72.000
21.01072 74.000
21.03067 63.000
21.05062 65.000
21.07056 40.000
21.09051 70.000
21.11046 65.000
21.13040 53.000
21.15035 52.000
21.17030 56.000
21.19025 70.000
21.21019 44.000
21.23014 52.000
21.25009 64.000
21.27003 47.000
21.28998 56.000
21.30993 47.000
21.32987 53.000
21.34982 47.000
21.36977 48.000
21.38972 44.000
21.40966 47.000
21.42961 42.000
21.44956 47.000
21.46950 54.000
21.48945 29.000
21.50940 44.000
21.52934 53.000
21.54929 49.000
21.56924 47.000
21.58918 52.000
21.60913 42.000
21.62908 54.000
21.64903 53.000
21.66897 53.000
21.68892 53.000
21.70887 48.000
21.72881 55.000
21.74876 43.000
21.76871 55.000
21.78865 54.000
21.80860 57.000
21.82855 43.000
21.84850 40.000
21.86844 53.000
21.88839 34.000
21.90834 48.000
21.92828 37.000
21.94823 54.000
21.96818 46.000
21.98812 47.000
22.00807 45.000
22.02802 46.000
22.04796 56.000
22.06791 56.000
22.08786 53.000
22.10781 52.000
22.12775 48.000
22.14770 60.000
22.16765 36.000
22.18759 46.000
22.20754 36.000
22.22749 53.000
22.24743 51.000
22.26738 46.000
22.28733 48.000
22.30728 59.000
22.32722 51.000
22.34717 49.000
22.36712 45.000
22.38706 48.000
22.40701 58.000
22.42696 33.000
22.44690 51.000
22.46685 50.000
22.48680 45.000
22.50675 43.000
22.52669 58.000
22.54664 46.000
22.56659 45.000
22.58653 43.000
22.60648 53.000
22.62643 44.000
22.64637 54.000
22.66632 48.000
22.68627 53.000
22.70621 45.000
22.72616 39.000
22.74611 48.000
22.76606 39.000
22.78600 39.000
22.80595 47.000
22.82590 44.000
22.84584 31.000
22.86579 51.000
22.88574 52.000
22.90568 50.000
22.92563 53.000
22.94558 48.000
22.96553 56.000
22.98547 51.000
23.00542 42.000
23.02537 39.000
23.04531 53.000
23.06526 49.000
23.08521 55.000
23.10515 54.000
23.12510 38.000
23.14505 46.000
23.16499 54.000
23.18494 42.000
23.20489 47.000
23.22484 39.000
23.24478 51.000
23.26473 35.000
23.28468 51.000
23.30462 56.000
23.32457 57.000
23.34452 39.000
23.36446 48.000
23.38441 50.000
23.40436 45.000
23.42431 48.000
23.44425 54.000
23.46420 51.000
23.48415 38.000
23.50409 40.000
23.52404 34.000
23.54399 51.000
23.56393 54.000
23.58388 40.000
23.60383 61.000
23.62377 47.000
23.64372 61.000
23.66367 52.000
23.68362 50.000
23.70356 50.000
23.72351 57.000
23.74346 51.000
23.76340 46.000
23.78335 47.000
23.80330 52.000
23.82324 39.000
23.84319 40.000
23.86314 35.000
23.88309 51.000
23.90303 49.000
23.92298 50.000
23.94293 48.000
23.96287 47.000
23.98282 43.000
24.00277 49.000
24.02271 38.000
24.04266 47.000
24.06261 51.000
24.08256 54.000
24.10250 43.000
24.12245 43.000
24.14240 40.000
24.16234 55.000
24.18229 37.000
24.20224 52.000
24.22218 54.000
24.24213 47.000
24.26208 40.000
24.28202 54.000
24.30197 34.000
24.32192 52.000
24.34187 56.000
24.36181 43.000
24.38176 47.000
24.40171 54.000
24.42165 44.000
24.44160 48.000
24.46155 43.000
24.48149 47.000
24.50144 42.000
24.52139 60.000
24.54134 56.000
24.56128 56.000
24.58123 50.000
24.60118 49.000
24.62112 41.000
24.64107 55.000
24.66102 63.000
24.68096 40.000
24.70091 55.000
24.72086 54.000
24.74080 46.000
24.76075 38.000
24.78070 35.000
24.80065 43.000
24.82059 52.000
24.84054 49.000
24.86049 66.000
24.88043 54.000
24.90038 58.000
24.92033 60.000
24.94027 45.000
24.96022 53.000
24.98017 55.000
25.00012 59.000
25.02006 52.000
25.04001 37.000
25.05996 56.000
25.07990 56.000
25.09985 52.000
25.11980 40.000
25.13974 48.000
25.15969 48.000
25.17964 60.000
25.19958 46.000
25.21953 51.000
25.23948 54.000
25.25943 53.000
25.27937 49.000
25.29932 61.000
25.31927 68.000
25.33921 53.000
25.35916 53.000
25.37911 51.000
25.39905 40.000
25.41900 41.000
25.43895 60.000
25.45890 40.000
25.47884 49.000
25.49879 45.000
25.51874 43.000
25.53868 49.000
25.55863 46.000
25.57858 53.000
25.59852 43.000
25.61847 51.000
25.63842 43.000
25.65837 45.000
25.67831 45.000
25.69826 57.000
25.71821 66.000
25.73815 50.000
25.75810 60.000
25.77805 52.000
25.79799 55.000
25.81794 38.000
25.83789 51.000
25.85783 45.000
25.87778 67.000
25.89773 52.000
25.91768 64.000
25.93762 67.000
25.95757 70.000
25.97752 58.000
25.99746 62.000
26.01741 49.000
26.03736 52.000
26.05730 69.000
26.07725 56.000
26.09720 59.000
26.11715 58.000
26.13709 48.000
26.15704 50.000
26.17699 52.000
26.19693 52.000
26.21688 39.000
26.23683 57.000
26.25677 62.000
26.27672 62.000
26.29667 49.000
26.31661 43.000
26.33656 50.000
26.35651 47.000
26.37646 56.000
26.39640 57.000
26.41635 54.000
26.43630 61.000
26.45624 60.000
26.47619 55.000
26.49614 58.000
26.51608 57.000
26.53603 45.000
26.55598 62.000
26.57593 45.000
26.59587 63.000
26.61582 56.000
26.63577 49.000
26.65571 60.000
26.67566 57.000
26.69561 57.000
26.71555 58.000
26.73550 51.000
26.75545 55.000
26.77539 51.000
26.79534 53.000
26.81529 58.000
26.83524 61.000
26.85518 46.000
26.87513 60.000
26.89508 41.000
26.91502 58.000
26.93497 58.000
26.95492 52.000
26.97486 54.000
26.99481 50.000
27.01476 57.000
27.03471 50.000
27.05465 53.000
27.07460 55.000
27.09455 47.000
27.11449 58.000
27.13444 62.000
27.15439 57.000
27.17433 56.000
27.19428 51.000
27.21423 59.000
27.23417 64.000
27.25412 62.000
27.27407 49.000
27.29402 51.000
27.31396 63.000
27.33391 58.000
27.35386 50.000
27.37380 61.000
27.39375 58.000
27.41370 46.000
27.43364 54.000
27.45359 69.000
27.47354 60.000
27.49349 50.000
27.51343 59.000
27.53338 59.000
27.55333 58.000
27.57327 59.000
27.59322 51.000
27.61317 60.000
27.63311 56.000
27.65306 65.000
27.67301 67.000
27.69296 59.000
27.71290 53.000
27.73285 44.000
27.75280 51.000
27.77274 67.000
27.79269 52.000
27.81264 54.000
27.83258 52.000
27.85253 48.000
27.87248 57.000
27.89242 49.000
27.91237 60.000
27.93232 44.000
27.95227 51.000
27.97221 72.000
27.99216 44.000
28.01211 55.000
28.03205 57.000
28.05200 77.000
28.07195 59.000
28.09189 53.000
28.11184 54.000
28.13179 52.000
28.15174 61.000
28.17168 56.000
28.19163 57.000
28.21158 63.000
28.23152 58.000
28.25147 57.000
28.27142 56.000
28.29136 70.000
28.31131 38.000
28.33126 57.000
28.35120 54.000
28.37115 48.000
28.39110 42.000
28.41105 56.000
28.43099 65.000
28.45094 44.000
28.47089 55.000
28.49083 54.000
28.51078 45.000
28.53073 64.000
28.55067 52.000
28.57062 73.000
28.59057 62.000
28.61052 47.000
28.63046 45.000
28.65041 49.000
28.67036 54.000
28.69030 60.000
28.71025 46.000
28.73020 54.000
28.75014 62.000
28.77009 52.000
28.79004 67.000
28.80998 53.000
28.82993 56.000
28.84988 59.000
28.86983 57.000
28.88977 55.000
28.90972 50.000
28.92967 51.000
28.94961 58.000
28.96956 56.000
28.98951 60.000
29.00945 70.000
29.02940 60.000
29.04935 70.000
29.06930 56.000
29.08924 60.000
29.10919 59.000
29.12914 59.000
29.14908 52.000
29.16903 54.000
29.18898 61.000
29.20892 64.000
29.22887 65.000
29.24882 54.000
29.26877 75.000
29.28871 61.000
29.30866 67.000
29.32861 59.000
29.34855 57.000
29.36850 84.000
29.38845 92.000
29.40839 75.000
29.42834 79.000
29.44829 82.000
29.46823 85.000
29.48818 82.000
29.50813 96.000
29.52808 78.000
29.54802 89.000
29.56797 86.000
29.58792 71.000
29.60786 77.000
29.62781 93.000
29.64776 84.000
29.66770 55.000
29.68765 80.000
29.70760 79.000
29.72755 71.000
29.74749 73.000
29.76744 75.000
29.78739 60.000
29.80733 69.000
29.82728 71.000
29.84723 73.000
29.86717 59.000
29.88712 75.000
29.90707 88.000
29.92701 55.000
29.94696 62.000
29.96691 69.000
29.98686 54.000
30.00680 68.000
30.02675 61.000
30.04670 81.000
30.06664 71.000
30.08659 76.000
30.10654 71.000
30.12648 78.000
30.14643 92.000
30.16638 80.000
30.18633 96.000
30.20627 105.000
30.22622 107.000
30.24617 146.000
30.26611 134.000
30.28606 177.000
30.30601 176.000
30.32595 184.000
30.34590 175.000
30.36585 154.000
30.38579 158.000
30.40574 130.000
30.42569 130.000
30.44564 80.000
30.46558 76.000
30.48553 71.000
30.50548 71.000
30.52542 60.000
30.54537 57.000
30.56532 66.000
30.58526 66.000
30.60521 50.000
30.62516 57.000
30.64511 51.000
30.66505 51.000
30.68500 61.000
30.70495 58.000
30.72489 67.000
30.74484 57.000
30.76479 66.000
30.78473 61.000
30.80468 57.000
30.82463 59.000
30.84458 65.000
30.86452 59.000
30.88447 58.000
30.90442 64.000
30.92436 61.000
30.94431 54.000
30.96426 67.000
30.98420 56.000
31.00415 59.000
31.02410 70.000
31.04404 52.000
31.06399 58.000
31.08394 50.000
31.10389 58.000
31.12383 75.000
31.14378 53.000
31.16373 59.000
31.18367 63.000
31.20362 64.000
31.22357 57.000
31.24351 46.000
31.26346 47.000
31.28341 64.000
31.30336 45.000
31.32330 62.000
31.34325 60.000
31.36320 63.000
31.38314 62.000
31.40309 62.000
31.42304 56.000
31.44298 62.000
31.46293 52.000
31.48288 54.000
31.50282 67.000
31.52277 65.000
31.54272 58.000
31.56267 66.000
31.58261 69.000
31.60256 61.000
31.62251 75.000
31.64245 63.000
31.66240 65.000
31.68235 54.000
31.70229 65.000
31.72224 55.000
31.74219 57.000
31.76214 72.000
31.78208 56.000
31.80203 90.000
31.82198 76.000
31.84192 57.000
31.86187 51.000
31.88182 63.000
31.90176 54.000
31.92171 64.000
31.94166 51.000
31.96160 60.000
31.98155 81.000
32.00150 63.000
32.02145 49.000
32.04139 77.000
32.06134 82.000
32.08129 74.000
32.10123 51.000
32.12118 65.000
32.14113 67.000
32.16107 74.000
32.18102 91.000
32.20097 54.000
32.22092 66.000
32.24086 64.000
32.26081 67.000
32.28076 64.000
32.30070 57.000
32.32065 55.000
32.34060 58.000
32.36054 54.000
32.38049 65.000
32.40044 77.000
32.42039 67.000
32.44033 80.000
32.46028 58.000
32.48023 72.000
32.50017 56.000
32.52012 60.000
32.54007 80.000
32.56001 66.000
32.57996 65.000
32.59991 62.000
32.61985 70.000
32.63980 92.000
32.65975 76.000
32.67970 62.000
32.69964 81.000
32.71959 64.000
32.73954 74.000
32.75948 97.000
32.77943 83.000
32.79938 92.000
32.81932 76.000
32.83927 85.000
32.85922 86.000
32.87917 93.000
32.89911 84.000
32.91906 109.000
32.93901 111.000
32.95895 124.000
32.97890 132.000
32.99885 144.000
33.01879 144.000
33.03874 170.000
33.05869 160.000
33.07863 185.000
33.09858 202.000
33.11853 225.000
33.13848 273.000
33.15842 282.000
33.17837 335.000
33.19832 362.000
33.21826 400.000
33.23821 400.000
33.25816 379.000
33.27810 351.000
33.29805 364.000
33.31800 306.000
33.33795 286.000
33.35789 231.000
33.37784 185.000
33.39779 159.000
33.41773 154.000
33.43768 126.000
33.45763 96.000
33.47757 93.000
33.49752 95.000
33.51747 108.000
33.53741 100.000
33.55736 81.000
33.57731 96.000
33.59726 84.000
33.61720 94.000
33.63715 81.000
33.65710 122.000
33.67704 107.000
33.69699 135.000
33.71694 126.000
33.73688 145.000
33.75683 157.000
33.77678 184.000
33.79673 213.000
33.81667 254.000
33.83662 253.000
33.85657 300.000
33.87651 297.000
33.89646 292.000
33.91641 306.000
33.93635 244.000
33.95630 286.000
33.97625 293.000
33.99620 251.000
34.01614 268.000
34.03609 267.000
34.05604 251.000
34.07598 229.000
34.09593 234.000
34.11588 246.000
34.13582 243.000
34.15577 236.000
34.17572 240.000
34.19566 239.000
34.21561 237.000
34.23556 230.000
34.25551 208.000
34.27545 209.000
34.29540 198.000
34.31535 217.000
34.33529 193.000
34.35524 169.000
34.37519 189.000
34.39513 154.000
34.41508 165.000
34.43503 158.000
34.45498 148.000
34.47492 139.000
34.49487 130.000
34.51482 131.000
34.53476 126.000
34.55471 128.000
34.57466 112.000
34.59460 110.000
34.61455 117.000
34.63450 106.000
34.65444 95.000
34.67439 103.000
34.69434 105.000
34.71429 107.000
34.73423 105.000
34.75418 98.000
34.77413 87.000
34.79407 89.000
34.81402 85.000
34.83397 97.000
34.85391 94.000
34.87386 124.000
34.89381 116.000
34.91376 113.000
34.93370 154.000
34.95365 185.000
34.97360 227.000
34.99354 274.000
35.01349 308.000
35.03344 327.000
35.05338 398.000
35.07333 364.000
35.09328 390.000
35.11322 376.000
35.13317 417.000
35.15312 375.000
35.17307 342.000
35.19301 317.000
35.21296 330.000
35.23291 303.000
35.25285 278.000
35.27280 239.000
35.29275 208.000
35.31269 204.000
35.33264 205.000
35.35259 188.000
35.37254 162.000
35.39248 201.000
35.41243 203.000
35.43238 173.000
35.45232 177.000
35.47227 182.000
35.49222 182.000
35.51216 205.000
35.53211 183.000
35.55206 182.000
35.57201 196.000
35.59195 229.000
35.61190 246.000
35.63185 297.000
35.65179 371.000
35.67174 447.000
35.69169 494.000
35.71163 504.000
35.73158 464.000
35.75153 392.000
35.77147 374.000
35.79142 365.000
35.81137 269.000
35.83132 230.000
35.85126 211.000
35.87121 156.000
35.89116 171.000
35.91110 120.000
35.93105 125.000
35.95100 137.000
35.97094 113.000
35.99089 117.000
36.01084 108.000
36.03079 98.000
36.05073 98.000
36.07068 108.000
36.09063 95.000
36.11057 102.000
36.13052 113.000
36.15047 107.000
36.17041 110.000
36.19036 133.000
36.21031 122.000
36.23025 167.000
36.25020 173.000
36.27015 198.000
36.29010 258.000
36.31004 364.000
36.32999 398.000
36.34994 470.000
36.36988 507.000
36.38983 516.000
36.40978 596.000
36.42972 574.000
36.44967 629.000
36.46962 549.000
36.48957 574.000
36.50951 528.000
36.52946 506.000
36.54941 435.000
36.56935 403.000
36.58930 387.000
36.60925 342.000
36.62919 306.000
36.64914 275.000
36.66909 220.000
36.68903 217.000
36.70898 193.000
36.72893 162.000
36.74888 151.000
36.76882 138.000
36.78877 131.000
36.80872 118.000
36.82866 114.000
36.84861 107.000
36.86856 128.000
36.88850 103.000
36.90845 111.000
36.92840 91.000
36.94835 94.000
36.96829 85.000
36.98824 85.000
37.00819 73.000
37.02813 90.000
37.04808 92.000
37.06803 87.000
37.08797 80.000
37.10792 91.000
37.12787 121.000
37.14781 105.000
37.16776 117.000
37.18771 118.000
37.20766 134.000
37.22760 112.000
37.24755 132.000
37.26750 117.000
37.28744 110.000
37.30739 109.000
37.32734 116.000
37.34728 98.000
37.36723 98.000
37.38718 104.000
37.40713 107.000
37.42707 87.000
37.44702 87.000
37.46697 80.000
37.48691 62.000
37.50686 66.000
37.52681 75.000
37.54675 70.000
37.56670 72.000
37.58665 69.000
37.60660 68.000
37.62654 66.000
37.64649 65.000
37.66644 68.000
37.68638 58.000
37.70633 72.000
37.72628 55.000
37.74622 66.000
37.76617 78.000
37.78612 62.000
37.80606 64.000
37.82601 60.000
37.84596 69.000
37.86591 63.000
37.88585 68.000
37.90580 57.000
37.92575 66.000
37.94569 74.000
37.96564 73.000
37.98559 68.000
38.00553 69.000
38.02548 54.000
38.04543 52.000
38.06538 63.000
38.08532 61.000
38.10527 64.000
38.12522 66.000
38.14516 51.000
38.16511 54.000
38.18506 57.000
38.20500 39.000
38.22495 71.000
38.24490 60.000
38.26484 73.000
38.28479 62.000
38.30474 53.000
38.32469 49.000
38.34463 65.000
38.36458 67.000
38.38453 48.000
38.40447 67.000
38.42442 39.000
38.44437 51.000
38.46431 48.000
38.48426 54.000
38.50421 56.000
38.52416 54.000
38.54410 53.000
38.56405 49.000
38.58400 53.000
38.60394 50.000
38.62389 62.000
38.64384 48.000
38.66378 42.000
38.68373 63.000
38.70368 57.000
38.72362 57.000
38.74357 62.000
38.76352 63.000
38.78347 47.000
38.80341 49.000
38.82336 69.000
38.84331 47.000
38.86325 61.000
38.88320 60.000
38.90315 78.000
38.92309 62.000
38.94304 60.000
38.96299 45.000
38.98294 57.000
39.00288 62.000
39.02283 52.000
39.04278 62.000
39.06272 76.000
39.08267 61.000
39.10262 53.000
39.12256 66.000
39.14251 73.000
39.16246 84.000
39.18241 75.000
39.20235 84.000
39.22230 58.000
39.24225 69.000
39.26219 74.000
39.28214 66.000
39.30209 55.000
39.32203 67.000
39.34198 76.000
39.36193 62.000
39.38187 58.000
39.40182 84.000
39.42177 53.000
39.44172 61.000
39.46166 58.000
39.48161 66.000
39.50156 68.000
39.52150 79.000
39.54145 54.000
39.56140 63.000
39.58134 83.000
39.60129 62.000
39.62124 69.000
39.64119 64.000
39.66113 68.000
39.68108 49.000
39.70103 68.000
39.72097 64.000
39.74092 70.000
39.76087 59.000
39.78081 57.000
39.80076 52.000
39.82071 63.000
39.84065 62.000
39.86060 52.000
39.88055 72.000
39.90050 70.000
39.92044 83.000
39.94039 76.000
39.96034 62.000
39.98028 64.000
40.00023 67.000
40.02018 63.000
40.04012 61.000
40.06007 60.000
40.08002 68.000
40.09997 67.000
40.11991 62.000
40.13986 63.000
40.15981 53.000
40.17975 71.000
40.19970 71.000
40.21965 84.000
40.23959 60.000
40.25954 59.000
40.27949 73.000
40.29943 65.000
40.31938 70.000
40.33933 68.000
40.35928 59.000
40.37922 68.000
40.39917 68.000
40.41912 72.000
40.43906 68.000
40.45901 72.000
40.47896 71.000
40.49890 73.000
40.51885 52.000
40.53880 66.000
40.55875 71.000
40.57869 77.000
40.59864 77.000
40.61859 74.000
40.63853 72.000
40.65848 87.000
40.67843 85.000
40.69837 71.000
40.71832 64.000
40.73827 67.000
40.75822 82.000
40.77816 96.000
40.79811 76.000
40.81806 106.000
40.83800 100.000
40.85795 102.000
40.87790 108.000
40.89784 107.000
40.91779 127.000
40.93774 101.000
40.95768 121.000
40.97763 102.000
40.99758 131.000
41.01753 153.000
41.03747 124.000
41.05742 159.000
41.07737 167.000
41.09731 192.000
41.11726 189.000
41.13721 247.000
41.15715 218.000
41.17710 257.000
41.19705 353.000
41.21700 359.000
41.23694 540.000
41.25689 702.000
41.27684 909.000
41.29678 1305.000
41.31673 1522.000
41.33668 1856.000
41.35662 2165.000
41.37657 2209.000
41.39652 2319.000
41.41646 2329.000
41.43641 2326.000
41.45636 2218.000
41.47631 2017.000
41.49625 1785.000
41.51620 1639.000
41.53615 1393.000
41.55609 1202.000
41.57604 992.000
41.59599 819.000
41.61593 713.000
41.63588 614.000
41.65583 564.000
41.67578 451.000
41.69572 453.000
41.71567 364.000
41.73562 288.000
41.75556 280.000
41.77551 254.000
41.79546 224.000
41.81540 205.000
41.83535 185.000
41.85530 183.000
41.87524 184.000
41.89519 182.000
41.91514 201.000
41.93509 214.000
41.95503 242.000
41.97498 264.000
41.99493 251.000
42.01487 252.000
42.03482 229.000
42.05477 224.000
42.07471 233.000
42.09466 223.000
42.11461 236.000
42.13456 190.000
42.15450 178.000
42.17445 164.000
42.19440 153.000
42.21434 117.000
42.23429 121.000
42.25424 104.000
42.27418 80.000
42.29413 105.000
42.31408 90.000
42.33403 99.000
42.35397 97.000
42.37392 85.000
42.39387 85.000
42.41381 95.000
42.43376 97.000
42.45371 78.000
42.47365 71.000
42.49360 91.000
42.51355 69.000
42.53349 67.000
42.55344 67.000
42.57339 81.000
42.59334 69.000
42.61328 69.000
42.63323 76.000
42.65318 79.000
42.67312 65.000
42.69307 68.000
42.71302 73.000
42.73296 72.000
42.75291 77.000
42.77286 83.000
42.79281 70.000
42.81275 56.000
42.83270 80.000
42.85265 77.000
42.87259 79.000
42.89254 62.000
42.91249 82.000
42.93243 69.000
42.95238 76.000
42.97233 68.000
42.99227 69.000
43.01222 76.000
43.03217 89.000
43.05212 73.000
43.07206 91.000
43.09201 92.000
43.11196 99.000
43.13190 113.000
43.15185 125.000
43.17180 139.000
43.19174 144.000
43.21169 156.000
43.23164 139.000
43.25159 141.000
43.27153 157.000
43.29148 165.000
43.31143 159.000
43.33137 182.000
43.35132 163.000
43.37127 195.000
43.39121 150.000
43.41116 182.000
43.43111 135.000
43.45105 129.000
43.47100 136.000
43.49095 146.000
43.51090 101.000
43.53084 115.000
43.55079 99.000
43.57074 107.000
43.59068 70.000
43.61063 74.000
43.63058 66.000
43.65052 52.000
43.67047 66.000
43.69042 61.000
43.71037 64.000
43.73031 60.000
43.75026 66.000
43.77021 54.000
43.79015 48.000
43.81010 61.000
43.83005 60.000
43.84999 64.000
43.86994 45.000
43.88989 64.000
43.90984 58.000
43.92978 38.000
43.94973 51.000
43.96968 52.000
43.98962 52.000
44.00957 64.000
44.02952 60.000
44.04946 54.000
44.06941 54.000
44.08936 57.000
44.10930 50.000
44.12925 69.000
44.14920 45.000
44.16915 67.000
44.18909 53.000
44.20904 42.000
44.22899 44.000
44.24893 51.000
44.26888 75.000
44.28883 57.000
44.30877 50.000
44.32872 49.000
44.34867 62.000
44.36862 54.000
44.38856 56.000
44.40851 64.000
44.42846 51.000
44.44840 57.000
44.46835 56.000
44.48830 57.000
44.50824 54.000
44.52819 53.000
44.54814 35.000
44.56808 55.000
44.58803 59.000
44.60798 58.000
44.62793 65.000
44.64787 51.000
44.66782 60.000
44.68777 77.000
44.70771 66.000
44.72766 76.000
44.74761 93.000
44.76755 102.000
44.78750 93.000
44.80745 104.000
44.82740 102.000
44.84734 102.000
44.86729 112.000
44.88724 103.000
44.90718 107.000
44.92713 96.000
44.94708 85.000
44.96702 92.000
44.98697 80.000
45.00692 68.000
45.02686 66.000
45.04681 71.000
45.06676 65.000
45.08671 66.000
45.10665 53.000
45.12660 47.000
45.14655 66.000
45.16649 44.000
45.18644 55.000
45.20639 59.000
45.22633 57.000
45.24628 48.000
45.26623 67.000
45.28618 48.000
45.30612 54.000
45.32607 47.000
45.34602 56.000
45.36596 58.000
45.38591 46.000
45.40586 50.000
45.42580 28.000
45.44575 52.000
45.46570 54.000
45.48565 58.000
45.50559 46.000
45.52554 62.000
45.54549 51.000
45.56543 44.000
45.58538 48.000
45.60533 40.000
45.62527 54.000
45.64522 37.000
45.66517 45.000
45.68511 64.000
45.70506 43.000
45.72501 50.000
45.74496 47.000
45.76490 58.000
45.78485 58.000
45.80480 60.000
45.82474 61.000
45.84469 49.000
45.86464 46.000
45.88458 55.000
45.90453 57.000
45.92448 52.000
45.94443 52.000
45.96437 54.000
45.98432 49.000
46.00427 54.000
46.02421 56.000
46.04416 50.000
46.06411 35.000
46.08405 54.000
46.10400 53.000
46.12395 53.000
46.14389 51.000
46.16384 44.000
46.18379 57.000
46.20374 44.000
46.22368 54.000
46.24363 62.000
46.26358 54.000
46.28352 60.000
46.30347 61.000
46.32342 43.000
46.34336 59.000
46.36331 52.000
46.38326 60.000
46.40321 47.000
46.42315 56.000
46.44310 62.000
46.46305 64.000
46.48299 73.000
46.50294 46.000
46.52289 61.000
46.54283 54.000
46.56278 58.000
46.58273 50.000
46.60267 58.000
46.62262 60.000
46.64257 52.000
46.66252 50.000
46.68246 49.000
46.70241 42.000
46.72236 44.000
46.74230 39.000
46.76225 54.000
46.78220 55.000
46.80214 41.000
46.82209 50.000
46.84204 58.000
46.86199 48.000
46.88193 49.000
46.90188 47.000
46.92183 42.000
46.94177 48.000
46.96172 54.000
46.98167 45.000
47.00161 44.000
47.02156 31.000
47.04151 47.000
47.06146 49.000
47.08140 49.000
47.10135 43.000
47.12130 63.000
47.14124 43.000
47.16119 49.000
47.18114 51.000
47.20108 50.000
47.22103 60.000
47.24098 58.000
47.26092 43.000
47.28087 59.000
47.30082 48.000
47.32077 42.000
47.34071 33.000
47.36066 58.000
47.38061 41.000
47.40055 41.000
47.42050 57.000
47.44045 55.000
47.46039 61.000
47.48034 59.000
47.50029 45.000
47.52024 48.000
47.54018 42.000
47.56013 49.000
47.58008 59.000
47.60002 55.000
47.61997 34.000
47.63992 48.000
47.65986 32.000
47.67981 58.000
47.69976 50.000
47.71970 58.000
47.73965 38.000
47.75960 50.000
47.77955 42.000
47.79949 56.000
47.81944 59.000
47.83939 67.000
47.85933 69.000
47.87928 54.000
47.89923 53.000
47.91917 62.000
47.93912 49.000
47.95907 45.000
47.97902 45.000
47.99896 44.000
48.01891 53.000
48.03886 53.000
48.05880 51.000
48.07875 61.000
48.09870 62.000
48.11864 38.000
48.13859 52.000
48.15854 46.000
48.17848 55.000
48.19843 58.000
48.21838 47.000
48.23833 56.000
48.25827 55.000
48.27822 60.000
48.29817 38.000
48.31811 64.000
48.33806 48.000
48.35801 65.000
48.37795 62.000
48.39790 63.000
48.41785 80.000
48.43780 61.000
48.45774 68.000
48.47769 63.000
48.49764 71.000
48.51758 68.000
48.53753 74.000
48.55748 64.000
48.57742 70.000
48.59737 84.000
48.61732 67.000
48.63726 87.000
48.65721 81.000
48.67716 107.000
48.69711 66.000
48.71705 77.000
48.73700 72.000
48.75695 53.000
48.77689 74.000
48.79684 74.000
48.81679 78.000
48.83673 73.000
48.85668 68.000
48.87663 60.000
48.89658 59.000
48.91652 69.000
48.93647 56.000
48.95642 80.000
48.97636 49.000
48.99631 78.000
49.01626 74.000
49.03620 58.000
49.05615 71.000
49.07610 68.000
49.09605 54.000
49.11599 54.000
49.13594 48.000
49.15589 54.000
49.17583 64.000
49.19578 52.000
49.21573 53.000
49.23567 56.000
49.25562 67.000
49.27557 57.000
49.29551 57.000
49.31546 68.000
49.33541 53.000
49.35536 57.000
49.37530 45.000
49.39525 57.000
49.41520 52.000
49.43514 58.000
49.45509 37.000
49.47504 45.000
49.49498 67.000
49.51493 58.000
49.53488 51.000
49.55483 43.000
49.57477 67.000
49.59472 62.000
49.61467 56.000
49.63461 56.000
49.65456 58.000
49.67451 55.000
49.69445 64.000
49.71440 58.000
49.73435 50.000
49.75429 60.000
49.77424 49.000
49.79419 56.000
49.81414 55.000
49.83408 45.000
49.85403 52.000
49.87398 40.000
49.89392 50.000
49.91387 52.000
49.93382 51.000
49.95376 49.000
49.97371 51.000
49.99366 50.000
50.01361 45.000
50.03355 40.000
50.05350 47.000
50.07345 49.000
50.09339 50.000
50.11334 54.000
50.13329 48.000
50.15323 47.000
50.17318 50.000
50.19313 61.000
50.21307 45.000
50.23302 43.000
50.25297 43.000
50.27292 60.000
50.29286 42.000
50.31281 69.000
50.33276 49.000
50.35270 45.000
50.37265 46.000
50.39260 36.000
50.41254 50.000
50.43249 48.000
50.45244 42.000
50.47239 43.000
50.49233 45.000
50.51228 52.000
50.53223 35.000
50.55217 53.000
50.57212 51.000
50.59207 51.000
50.61201 51.000
50.63196 50.000
50.65191 48.000
50.67186 50.000
50.69180 46.000
50.71175 50.000
50.73170 52.000
50.75164 48.000
50.77159 59.000
50.79154 41.000
50.81148 60.000
50.83143 49.000
50.85138 64.000
50.87132 40.000
50.89127 53.000
50.91122 59.000
50.93117 46.000
50.95111 61.000
50.97106 42.000
50.99101 49.000
51.01095 44.000
51.03090 55.000
51.05085 39.000
51.07079 47.000
51.09074 53.000
51.11069 50.000
51.13064 56.000
51.15058 55.000
51.17053 50.000
51.19048 50.000
51.21042 53.000
51.23037 45.000
51.25032 39.000
51.27026 40.000
51.29021 49.000
51.31016 38.000
51.33010 38.000
51.35005 53.000
51.37000 54.000
51.38995 54.000
51.40989 45.000
51.42984 47.000
51.44979 40.000
51.46973 51.000
51.48968 38.000
51.50963 42.000
51.52957 64.000
51.54952 42.000
51.56947 59.000
51.58942 47.000
51.60936 44.000
51.62931 51.000
51.64926 54.000
51.66920 59.000
51.68915 38.000
51.70910 38.000
51.72904 50.000
51.74899 36.000
51.76894 34.000
51.78888 55.000
51.80883 40.000
51.82878 46.000
51.84873 38.000
51.86867 57.000
51.88862 44.000
51.90857 57.000
51.92851 57.000
51.94846 62.000
51.96841 41.000
51.98835 52.000
52.00830 41.000
52.02825 44.000
52.04820 60.000
52.06814 56.000
52.08809 49.000
52.10804 50.000
52.12798 48.000
52.14793 41.000
52.16788 67.000
52.18782 50.000
52.20777 60.000
52.22772 62.000
52.24767 72.000
52.26761 56.000
52.28756 51.000
52.30751 43.000
52.32745 54.000
52.34740 42.000
52.36735 42.000
52.38729 58.000
52.40724 59.000
52.42719 54.000
52.44713 54.000
52.46708 53.000
52.48703 47.000
52.50698 54.000
52.52692 43.000
52.54687 52.000
52.56682 56.000
52.58676 52.000
52.60671 61.000
52.62666 60.000
52.64660 61.000
52.66655 51.000
52.68650 62.000
52.70645 62.000
52.72639 78.000
52.74634 66.000
52.76629 65.000
52.78623 69.000
52.80618 71.000
52.82613 75.000
52.84607 96.000
52.86602 91.000
52.88597 102.000
52.90591 108.000
52.92586 128.000
52.94581 147.000
52.96576 142.000
52.98570 163.000
53.00565 214.000
53.02560 238.000
53.04554 274.000
53.06549 315.000
53.08544 356.000
53.10538 344.000
53.12533 314.000
53.14528 293.000
53.16523 271.000
53.18517 259.000
53.20512 272.000
53.22507 225.000
53.24501 204.000
53.26496 188.000
53.28491 166.000
53.30485 144.000
53.32480 125.000
53.34475 126.000
53.36469 87.000
53.38464 92.000
53.40459 96.000
53.42454 86.000
53.44448 89.000
53.46443 72.000
53.48438 81.000
53.50432 70.000
53.52427 57.000
53.54422 59.000
53.56416 80.000
53.58411 70.000
53.60406 61.000
53.62401 63.000
53.64395 72.000
53.66390 71.000
53.68385 75.000
53.70379 75.000
53.72374 76.000
53.74369 61.000
53.76363 71.000
53.78358 85.000
53.80353 79.000
53.82348 92.000
53.84342 90.000
53.86337 74.000
53.88332 74.000
53.90326 82.000
53.92321 68.000
53.94316 74.000
53.96310 65.000
53.98305 72.000
54.00300 70.000
54.02294 66.000
54.04289 56.000
54.06284 63.000
54.08279 58.000
54.10273 51.000
54.12268 44.000
54.14263 50.000
54.16257 58.000
54.18252 58.000
54.20247 57.000
54.22241 54.000
54.24236 49.000
54.26231 44.000
54.28226 58.000
54.30220 52.000
54.32215 45.000
54.34210 61.000
54.36204 58.000
54.38199 55.000
54.40194 54.000
54.42188 54.000
54.44183 52.000
54.46178 56.000
54.48172 46.000
54.50167 46.000
54.52162 40.000
54.54157 61.000
54.56151 53.000
54.58146 51.000
54.60141 46.000
54.62135 47.000
54.64130 50.000
54.66125 44.000
54.68119 44.000
54.70114 65.000
54.72109 42.000
54.74104 54.000
54.76098 54.000
54.78093 53.000
54.80088 50.000
54.82082 48.000
54.84077 44.000
54.86072 45.000
54.88066 60.000
54.90061 47.000
54.92056 44.000
54.94050 38.000
54.96045 61.000
54.98040 55.000
55.00035 50.000
55.02029 52.000
55.04024 53.000
55.06019 59.000
55.08013 61.000
55.10008 61.000
55.12003 59.000
55.13997 38.000
55.15992 57.000
55.17987 48.000
55.19982 52.000
55.21976 53.000
55.23971 52.000
55.25966 52.000
55.27960 60.000
55.29955 55.000
55.31950 51.000
55.33944 46.000
55.35939 57.000
55.37934 61.000
55.39929 50.000
55.41923 38.000
55.43918 57.000
55.45913 37.000
55.47907 48.000
55.49902 57.000
55.51897 48.000
55.53891 58.000
55.55886 46.000
55.57881 39.000
55.59875 51.000
55.61870 55.000
55.63865 49.000
55.65860 45.000
55.67854 55.000
55.69849 58.000
55.71844 61.000
55.73838 49.000
55.75833 55.000
55.77828 52.000
55.79822 48.000
55.81817 51.000
55.83812 54.000
55.85807 48.000
55.87801 47.000
55.89796 61.000
55.91791 58.000
55.93785 50.000
55.95780 63.000
55.97775 65.000
55.99769 65.000
56.01764 39.000
56.03759 58.000
56.05753 52.000
56.07748 51.000
56.09743 44.000
56.11738 56.000
56.13732 50.000
56.15727 54.000
56.17722 51.000
56.19716 58.000
56.21711 58.000
56.23706 45.000
56.25700 52.000
56.27695 49.000
56.29690 43.000
56.31685 44.000
56.33679 45.000
56.35674 61.000
56.37669 67.000
56.39663 51.000
56.41658 63.000
56.43653 59.000
56.45647 54.000
56.47642 44.000
56.49637 50.000
56.51631 55.000
56.53626 48.000
56.55621 60.000
56.57616 40.000
56.59610 60.000
56.61605 53.000
56.63600 52.000
56.65594 58.000
56.67589 49.000
56.69584 52.000
56.71578 52.000
56.73573 48.000
56.75568 50.000
56.77563 61.000
56.79557 52.000
56.81552 63.000
56.83547 52.000
56.85541 59.000
56.87536 53.000
56.89531 48.000
56.91525 64.000
56.93520 61.000
56.95515 57.000
56.97510 67.000
56.99504 58.000
57.01499 55.000
57.03494 61.000
57.05488 56.000
57.07483 69.000
57.09478 74.000
57.11472 56.000
57.13467 67.000
57.15462 51.000
57.17456 77.000
57.19451 84.000
57.21446 87.000
57.23441 99.000
57.25435 88.000
57.27430 93.000
57.29425 109.000
57.31419 92.000
57.33414 139.000
57.35409 142.000
57.37403 159.000
57.39398 146.000
57.41393 174.000
57.43388 142.000
57.45382 152.000
57.47377 166.000
57.49372 147.000
57.51366 163.000
57.53361 165.000
57.55356 178.000
57.57350 182.000
57.59345 193.000
57.61340 185.000
57.63334 188.000
57.65329 212.000
57.67324 268.000
57.69319 267.000
57.71313 308.000
57.73308 333.000
57.75303 410.000
57.77297 527.000
57.79292 551.000
57.81287 621.000
57.83281 642.000
57.85276 580.000
57.87271 510.000
57.89266 464.000
57.91260 426.000
57.93255 399.000
57.95250 453.000
57.97244 401.000
57.99239 352.000
58.01234 331.000
58.03228 300.000
58.05223 219.000
58.07218 155.000
58.09212 158.000
58.11207 141.000
58.13202 118.000
58.15197 124.000
58.17191 111.000
58.19186 104.000
58.21181 87.000
58.23175 78.000
58.25170 70.000
58.27165 75.000
58.29159 67.000
58.31154 66.000
58.33149 68.000
58.35144 70.000
58.37138 49.000
58.39133 59.000
58.41128 81.000
58.43122 61.000
58.45117 65.000
58.47112 63.000
58.49106 61.000
58.51101 56.000
58.53096 77.000
58.55090 52.000
58.57085 61.000
58.59080 63.000
58.61075 55.000
58.63069 49.000
58.65064 62.000
58.67059 51.000
58.69053 65.000
58.71048 58.000
58.73043 59.000
58.75037 66.000
58.77032 55.000
58.79027 55.000
58.81022 47.000
58.83016 56.000
58.85011 50.000
58.87006 58.000
58.89000 61.000
58.90995 52.000
58.92990 54.000
58.94984 49.000
58.96979 56.000
58.98974 55.000
59.00969 68.000
59.02963 68.000
59.04958 70.000
59.06953 61.000
59.08947 55.000
59.10942 54.000
59.12937 61.000
59.14931 45.000
59.16926 65.000
59.18921 52.000
59.20915 67.000
59.22910 70.000
59.24905 58.000
59.26900 47.000
59.28894 64.000
59.30889 59.000
59.32884 63.000
59.34878 59.000
59.36873 63.000
59.38868 52.000
59.40862 60.000
59.42857 71.000
59.44852 47.000
59.46847 63.000
59.48841 66.000
59.50836 49.000
59.52831 47.000
59.54825 55.000
59.56820 60.000
59.58815 72.000
59.60809 56.000
59.62804 52.000
59.64799 59.000
59.66793 53.000
59.68788 58.000
59.70783 53.000
59.72778 67.000
59.74772 55.000
59.76767 64.000
59.78762 63.000
59.80756 54.000
59.82751 67.000
59.84746 75.000
59.86740 73.000
59.88735 64.000
59.90730 77.000
59.92725 83.000
59.94719 74.000
59.96714 95.000
59.98709 76.000
60.00703 85.000
60.02698 86.000
60.04693 62.000
60.06687 74.000
60.08682 88.000
60.10677 78.000
60.12671 83.000
60.14666 65.000
60.16661 79.000
60.18656 72.000
60.20650 70.000
60.22645 59.000
60.24640 62.000
60.26634 62.000
60.28629 58.000
60.30624 79.000
60.32618 69.000
60.34613 76.000
60.36608 66.000
60.38603 73.000
60.40597 78.000
60.42592 92.000
60.44587 73.000
60.46581 84.000
60.48576 87.000
60.50571 104.000
60.52565 73.000
60.54560 96.000
60.56555 99.000
60.58550 94.000
60.60544 100.000
60.62539 84.000
60.64534 103.000
60.66528 74.000
60.68523 86.000
60.70518 76.000
60.72512 92.000
60.74507 93.000
60.76502 103.000
60.78496 91.000
60.80491 83.000
60.82486 84.000
60.84481 88.000
60.86475 79.000
60.88470 85.000
60.90465 93.000
60.92459 85.000
60.94454 85.000
60.96449 67.000
60.98443 84.000
61.00438 80.000
61.02433 69.000
61.04428 92.000
61.06422 61.000
61.08417 75.000
61.10412 86.000
61.12406 85.000
61.14401 82.000
61.16396 89.000
61.18390 72.000
61.20385 84.000
61.22380 90.000
61.24374 77.000
61.26369 67.000
61.28364 97.000
61.30359 84.000
61.32353 80.000
61.34348 83.000
61.36343 74.000
61.38337 87.000
61.40332 83.000
61.42327 81.000
61.44321 72.000
61.46316 86.000
61.48311 113.000
61.50306 101.000
61.52300 86.000
61.54295 84.000
61.56290 91.000
61.58284 90.000
61.60279 100.000
61.62274 120.000
61.64268 94.000
61.66263 117.000
61.68258 136.000
61.70252 122.000
61.72247 155.000
61.74242 158.000
61.76237 170.000
61.78231 195.000
61.80226 218.000
61.82221 266.000
61.84215 269.000
61.86210 288.000
61.88205 293.000
61.90199 351.000
61.92194 353.000
61.94189 358.000
61.96184 379.000
61.98178 376.000
62.00173 378.000
62.02168 319.000
62.04162 364.000
62.06157 384.000
62.08152 381.000
62.10146 386.000
62.12141 331.000
62.14136 340.000
62.16131 326.000
62.18125 304.000
62.20120 310.000
62.22115 298.000
62.24109 261.000
62.26104 237.000
62.28099 214.000
62.30093 216.000
62.32088 253.000
62.34083 201.000
62.36077 194.000
62.38072 224.000
62.40067 188.000
62.42062 158.000
62.44056 157.000
62.46051 124.000
62.48046 172.000
62.50040 140.000
62.52035 135.000
62.54030 136.000
62.56024 116.000
62.58019 95.000
62.60014 116.000
62.62009 103.000
62.64003 127.000
62.65998 118.000
62.67993 115.000
62.69987 128.000
62.71982 109.000
62.73977 126.000
62.75971 114.000
62.77966 108.000
62.79961 103.000
62.81955 109.000
62.83950 116.000
62.85945 148.000
62.87940 121.000
62.89934 140.000
62.91929 114.000
62.93924 160.000
62.95918 157.000
62.97913 179.000
62.99908 174.000
63.01902 191.000
63.03897 201.000
63.05892 191.000
63.07887 160.000
63.09881 146.000
63.11876 142.000
63.13871 146.000
63.15865 144.000
63.17860 149.000
63.19855 156.000
63.21849 120.000
63.23844 117.000
63.25839 104.000
63.27833 93.000
63.29828 77.000
63.31823 96.000
63.33818 67.000
63.35812 73.000
63.37807 62.000
63.39802 65.000
63.41796 79.000
63.43791 79.000
63.45786 69.000
63.47780 76.000
63.49775 62.000
63.51770 44.000
63.53765 53.000
63.55759 56.000
63.57754 63.000
63.59749 51.000
63.61743 54.000
63.63738 77.000
63.65733 53.000
63.67727 52.000
63.69722 52.000
63.71717 65.000
63.73712 60.000
63.75706 48.000
63.77701 59.000
63.79696 47.000
63.81690 51.000
63.83685 54.000
63.85680 47.000
63.87674 42.000
63.89669 52.000
63.91664 49.000
63.93658 52.000
63.95653 50.000
63.97648 53.000
63.99643 52.000
64.01637 62.000
64.03632 51.000
64.05627 44.000
64.07621 53.000
64.09616 63.000
64.11611 55.000
64.13605 49.000
64.15600 56.000
64.17595 54.000
64.19590 70.000
64.21584 59.000
64.23579 72.000
64.25574 48.000
64.27568 67.000
64.29563 81.000
64.31558 70.000
64.33552 51.000
64.35547 64.000
64.37542 60.000
64.39536 80.000
64.41531 73.000
64.43526 103.000
64.45521 96.000
64.47515 109.000
64.49510 107.000
64.51505 114.000
64.53499 132.000
64.55494 103.000
64.57489 134.000
64.59483 162.000
64.61478 122.000
64.63473 175.000
64.65468 130.000
64.67462 149.000
64.69457 149.000
64.71452 157.000
64.73446 167.000
64.75441 138.000
64.77436 145.000
64.79430 168.000
64.81425 141.000
64.83420 146.000
64.85414 123.000
64.87409 134.000
64.89404 146.000
64.91399 108.000
64.93393 132.000
64.95388 110.000
64.97383 105.000
64.99377 102.000
65.01372 102.000
65.03367 115.000
65.05361 82.000
65.07356 97.000
65.09351 78.000
65.11346 93.000
65.13340 71.000
65.15335 69.000
65.17330 79.000
65.19324 72.000
65.21319 74.000
65.23314 64.000
65.25308 64.000
65.27303 83.000
65.29298 51.000
65.31293 65.000
65.33287 67.000
65.35282 71.000
65.37277 88.000
65.39271 59.000
65.41266 67.000
65.43261 62.000
65.45255 81.000
65.47250 70.000
65.49245 64.000
65.51239 63.000
65.53234 64.000
65.55229 65.000
65.57224 51.000
65.59218 74.000
65.61213 66.000
65.63208 52.000
65.65202 53.000
65.67197 59.000
65.69192 59.000
65.71186 66.000
65.73181 60.000
65.75176 56.000
65.77171 65.000
65.79165 59.000
65.81160 43.000
65.83155 50.000
65.85149 49.000
65.87144 51.000
65.89139 46.000
65.91133 55.000
65.93128 51.000
65.95123 70.000
65.97117 55.000
65.99112 48.000
66.01107 46.000
66.03102 48.000
66.05096 47.000
66.07091 55.000
66.09086 48.000
66.11080 59.000
66.13075 60.000
66.15070 41.000
66.17064 46.000
66.19059 50.000
66.21054 52.000
66.23049 68.000
66.25043 60.000
66.27038 38.000
66.29033 57.000
66.31027 53.000
66.33022 60.000
66.35017 47.000
66.37011 47.000
66.39006 49.000
66.41001 48.000
66.42995 60.000
66.44990 51.000
66.46985 51.000
66.48980 50.000
66.50974 53.000
66.52969 57.000
66.54964 49.000
66.56958 64.000
66.58953 39.000
66.60948 47.000
66.62942 43.000
66.64937 53.000
66.66932 55.000
66.68927 48.000
66.70921 57.000
66.72916 52.000
66.74911 45.000
66.76905 54.000
66.78900 41.000
66.80895 43.000
66.82889 62.000
66.84884 53.000
66.86879 52.000
66.88874 37.000
66.90868 54.000
66.92863 51.000
66.94858 51.000
66.96852 54.000
66.98847 41.000
67.00842 60.000
67.02836 44.000
67.04831 43.000
67.06826 39.000
67.08820 48.000
67.10815 50.000
67.12810 41.000
67.14805 53.000
67.16799 36.000
67.18794 49.000
67.20789 54.000
67.22783 46.000
67.24778 50.000
67.26773 46.000
67.28767 45.000
67.30762 43.000
67.32757 52.000
67.34752 46.000
67.36746 55.000
67.38741 49.000
67.40736 53.000
67.42730 58.000
67.44725 48.000
67.46720 53.000
67.48714 57.000
67.50709 47.000
67.52704 55.000
67.54698 32.000
67.56693 58.000
67.58688 62.000
67.60683 51.000
67.62677 35.000
67.64672 46.000
67.66667 50.000
67.68661 52.000
67.70656 59.000
67.72651 43.000
67.74645 47.000
67.76640 49.000
67.78635 55.000
67.80630 51.000
67.82624 49.000
67.84619 51.000
67.86614 46.000
67.88608 58.000
67.90603 57.000
67.92598 62.000
67.94592 59.000
67.96587 62.000
67.98582 45.000
68.00576 77.000
68.02571 71.000
68.04566 66.000
68.06561 74.000
68.08555 72.000
68.10550 92.000
68.12545 96.000
68.14539 88.000
68.16534 89.000
68.18529 78.000
68.20523 104.000
68.22518 110.000
68.24513 103.000
68.26508 128.000
68.28502 127.000
68.30497 143.000
68.32492 147.000
68.34486 168.000
68.36481 180.000
68.38476 139.000
68.40470 126.000
68.42465 138.000
68.44460 128.000
68.46455 130.000
68.48449 126.000
68.50444 115.000
68.52439 128.000
68.54433 131.000
68.56428 109.000
68.58423 102.000
68.60417 80.000
68.62412 68.000
68.64407 70.000
68.66401 79.000
68.68396 65.000
68.70391 65.000
68.72386 59.000
68.74380 69.000
68.76375 58.000
68.78370 47.000
68.80364 56.000
68.82359 47.000
68.84354 51.000
68.86348 73.000
68.88343 55.000
68.90338 50.000
68.92333 46.000
68.94327 50.000
68.96322 54.000
68.98317 55.000
69.00311 57.000
69.02306 44.000
69.04301 54.000
69.06295 57.000
69.08290 56.000
69.10285 45.000
69.12279 50.000
69.14274 54.000
69.16269 51.000
69.18264 54.000
69.20258 53.000
69.22253 52.000
69.24248 55.000
69.26242 67.000
69.28237 60.000
69.30232 61.000
69.32226 50.000
69.34221 57.000
69.36216 54.000
69.38211 41.000
69.40205 61.000
69.42200 57.000
69.44195 56.000
69.46189 62.000
69.48184 64.000
69.50179 73.000
69.52173 65.000
69.54168 61.000
69.56163 64.000
69.58157 81.000
69.60152 59.000
69.62147 69.000
69.64142 85.000
69.66136 84.000
69.68131 73.000
69.70126 80.000
69.72120 74.000
69.74115 83.000
69.76110 100.000
69.78104 74.000
69.80099 88.000
69.82094 91.000
69.84089 85.000
69.86083 76.000
69.88078 70.000
69.90073 76.000
69.92067 76.000
69.94062 61.000
69.96057 64.000
69.98051 61.000
70.00046 61.000
70.02041 58.000
70.04035 49.000
70.06030 54.000
70.08025 69.000
70.10020 48.000
70.12014 49.000
70.14009 63.000
70.16004 47.000
70.17998 56.000
70.19993 52.000
70.21988 59.000
70.23982 53.000
70.25977 43.000
70.27972 42.000
70.29967 47.000
70.31961 49.000
70.33956 49.000
70.35951 65.000
70.37945 43.000
70.39940 52.000
70.41935 57.000
70.43929 36.000
70.45924 39.000
70.47919 52.000
70.49914 63.000
70.51908 52.000
70.53903 43.000
70.55898 46.000
70.57892 57.000
70.59887 55.000
70.61882 47.000
70.63876 52.000
70.65871 44.000
70.67866 42.000
70.69860 49.000
70.71855 46.000
70.73850 37.000
70.75845 48.000
70.77839 51.000
70.79834 47.000
70.81829 35.000
70.83823 55.000
70.85818 48.000
70.87813 44.000
70.89807 44.000
70.91802 44.000
70.93797 49.000
70.95792 48.000
70.97786 43.000
70.99781 50.000
71.01776 49.000
71.03770 51.000
71.05765 40.000
71.07760 65.000
71.09754 58.000
71.11749 60.000
71.13744 56.000
71.15738 54.000
71.17733 49.000
71.19728 53.000
71.21723 46.000
71.23717 75.000
71.25712 58.000
71.27707 64.000
71.29701 58.000
71.31696 68.000
71.33691 68.000
71.35685 55.000
71.37680 67.000
71.39675 62.000
71.41670 74.000
71.43664 66.000
71.45659 62.000
71.47654 57.000
71.49648 70.000
71.51643 61.000
71.53638 72.000
71.55632 65.000
71.57627 67.000
71.59622 63.000
71.61616 56.000
71.63611 58.000
71.65606 61.000
71.67601 65.000
71.69595 69.000
71.71590 58.000
71.73585 64.000
71.75579 53.000
71.77574 60.000
71.79569 52.000
71.81563 59.000
71.83558 59.000
71.85553 64.000
71.87548 80.000
71.89542 55.000
71.91537 75.000
71.93532 73.000
71.95526 65.000
71.97521 93.000
71.99516 66.000
72.01510 90.000
72.03505 103.000
72.05500 109.000
72.07495 108.000
72.09489 127.000
72.11484 133.000
72.13479 138.000
72.15473 148.000
72.17468 149.000
72.19463 145.000
72.21457 145.000
72.23452 140.000
72.25447 159.000
72.27441 159.000
72.29436 158.000
72.31431 137.000
72.33426 129.000
72.35420 161.000
72.37415 127.000
72.39410 159.000
72.41404 114.000
72.43399 124.000
72.45394 112.000
72.47388 112.000
72.49383 113.000
72.51378 84.000
72.53373 94.000
72.55367 107.000
72.57362 92.000
72.59357 94.000
72.61351 90.000
72.63346 78.000
72.65341 78.000
72.67335 83.000
72.69330 70.000
72.71325 71.000
72.73319 64.000
72.75314 69.000
72.77309 76.000
72.79304 55.000
72.81298 59.000
72.83293 71.000
72.85288 67.000
72.87282 57.000
72.89277 59.000
72.91272 61.000
72.93266 58.000
72.95261 70.000
72.97256 68.000
72.99251 61.000
73.01245 57.000
73.03240 57.000
73.05235 58.000
73.07229 70.000
73.09224 57.000
73.11219 74.000
73.13213 61.000
73.15208 79.000
73.17203 84.000
73.19197 83.000
73.21192 80.000
73.23187 83.000
73.25182 78.000
73.27176 74.000
73.29171 66.000
73.31166 71.000
73.33160 75.000
73.35155 84.000
73.37150 75.000
73.39144 70.000
73.41139 66.000
73.43134 75.000
73.45129 65.000
73.47123 62.000
73.49118 74.000
73.51113 63.000
73.53107 78.000
73.55102 75.000
73.57097 65.000
73.59091 70.000
73.61086 62.000
73.63081 67.000
73.65076 73.000
73.67070 54.000
73.69065 68.000
73.71060 85.000
73.73054 69.000
73.75049 66.000
73.77044 80.000
73.79038 78.000
73.81033 75.000
73.83028 86.000
73.85022 88.000
73.87017 83.000
73.89012 97.000
73.91007 108.000
73.93001 109.000
73.94996 108.000
73.96991 106.000
73.98985 126.000
74.00980 109.000
74.02975 119.000
74.04969 109.000
74.06964 133.000
74.08959 157.000
74.10954 161.000
74.12948 155.000
74.14943 133.000
74.16938 139.000
74.18932 142.000
74.20927 131.000
74.22922 118.000
74.24916 123.000
74.26911 123.000
74.28906 114.000
74.30900 103.000
74.32895 119.000
74.34890 98.000
74.36885 99.000
74.38879 80.000
74.40874 76.000
74.42869 89.000
74.44863 89.000
74.46858 96.000
74.48853 94.000
74.50847 82.000
74.52842 90.000
74.54837 90.000
74.56832 85.000
74.58826 94.000
74.60821 79.000
74.62816 84.000
74.64810 68.000
74.66805 55.000
74.68800 83.000
74.70794 65.000
74.72789 57.000
74.74784 64.000
74.76778 73.000
74.78773 58.000
74.80768 72.000
74.82763 71.000
74.84757 74.000
74.86752 63.000
74.88747 51.000
74.90741 76.000
74.92736 57.000
74.94731 51.000
74.96725 54.000
74.98720 56.000
75.00715 52.000
75.02710 52.000
75.04704 48.000
75.06699 43.000
75.08694 64.000
75.10688 59.000
75.12683 38.000
75.14678 60.000
75.16672 58.000
75.18667 57.000
75.20662 49.000
75.22657 71.000
75.24651 65.000
75.26646 58.000
75.28641 62.000
75.30635 49.000
75.32630 60.000
75.34625 50.000
75.36619 68.000
75.38614 53.000
75.40609 57.000
75.42603 52.000
75.44598 66.000
75.46593 49.000
75.48588 52.000
75.50582 53.000
75.52577 64.000
75.54572 62.000
75.56566 60.000
75.58561 53.000
75.60556 70.000
75.62550 51.000
75.64545 55.000
75.66540 48.000
75.68535 63.000
75.70529 53.000
75.72524 54.000
75.74519 55.000
75.76513 57.000
75.78508 60.000
75.80503 56.000
75.82497 48.000
75.84492 53.000
75.86487 51.000
75.88481 44.000
75.90476 40.000
75.92471 45.000
75.94466 37.000
75.96460 51.000
75.98455 46.000
76.00450 47.000
76.02444 69.000
76.04439 45.000
76.06434 53.000
76.08428 48.000
76.10423 41.000
76.12418 39.000
76.14413 58.000
76.16407 46.000
76.18402 32.000
76.20397 41.000
76.22391 40.000
76.24386 40.000
76.26381 32.000
76.28375 52.000
76.30370 38.000
76.32365 46.000
76.34359 29.000
76.36354 40.000
76.38349 59.000
76.40344 43.000
76.42338 52.000
76.44333 54.000
76.46328 63.000
76.48322 47.000
76.50317 48.000
76.52312 42.000
76.54306 46.000
76.56301 52.000
76.58296 58.000
76.60291 36.000
76.62285 51.000
76.64280 42.000
76.66275 43.000
76.68269 37.000
76.70264 50.000
76.72259 48.000
76.74253 50.000
76.76248 57.000
76.78243 56.000
76.80238 48.000
76.82232 56.000
76.84227 57.000
76.86222 67.000
76.88216 66.000
76.90211 54.000
76.92206 56.000
76.94200 68.000
76.96195 62.000
76.98190 74.000
77.00184 71.000
77.02179 79.000
77.04174 75.000
77.06169 87.000
77.08163 87.000
77.10158 107.000
77.12153 91.000
77.14147 122.000
77.16142 121.000
77.18137 107.000
77.20131 118.000
77.22126 127.000
77.24121 128.000
77.26116 113.000
77.28110 136.000
77.30105 110.000
77.32100 131.000
77.34094 133.000
77.36089 129.000
77.38084 128.000
77.40078 138.000
77.42073 150.000
77.44068 147.000
77.46062 145.000
77.48057 131.000
77.50052 135.000
77.52047 129.000
77.54041 144.000
77.56036 122.000
77.58031 123.000
77.60025 111.000
77.62020 115.000
77.64015 120.000
77.66009 114.000
77.68004 101.000
77.69999 118.000
77.71994 106.000
77.73988 108.000
77.75983 98.000
77.77978 90.000
77.79972 87.000
77.81967 90.000
77.83962 80.000
77.85956 84.000
77.87951 84.000
77.89946 81.000
77.91940 61.000
77.93935 80.000
77.95930 100.000
77.97925 67.000
77.99919 76.000
78.01914 58.000
78.03909 61.000
78.05903 54.000
78.07898 45.000
78.09893 41.000
78.11887 61.000
78.13882 43.000
78.15877 67.000
78.17872 51.000
78.19866 53.000
78.21861 51.000
78.23856 62.000
78.25850 43.000
78.27845 55.000
78.29840 49.000
78.31834 56.000
78.33829 64.000
78.35824 64.000
78.37819 54.000
78.39813 49.000
78.41808 41.000
78.43803 61.000
78.45797 46.000
78.47792 41.000
78.49787 48.000
78.51781 45.000
78.53776 57.000
78.55771 60.000
78.57765 46.000
78.59760 40.000
78.61755 44.000
78.63750 62.000
78.65744 45.000
78.67739 55.000
78.69734 48.000
78.71728 44.000
78.73723 37.000
78.75718 50.000
78.77712 51.000
78.79707 47.000
78.81702 40.000
78.83697 48.000
78.85691 38.000
78.87686 51.000
78.89681 37.000
78.91675 47.000
78.93670 37.000
78.95665 40.000
78.97659 47.000
78.99654 60.000
79.01649 43.000
79.03643 52.000
79.05638 61.000
79.07633 39.000
79.09628 45.000
79.11622 38.000
79.13617 40.000
79.15612 41.000
79.17606 48.000
79.19601 47.000
79.21596 34.000
79.23590 53.000
79.25585 57.000
79.27580 53.000
79.29575 74.000
79.31569 49.000
79.33564 45.000
79.35559 53.000
79.37553 48.000
79.39548 52.000
79.41543 42.000
79.43537 51.000
79.45532 54.000
79.47527 65.000
79.49521 48.000
79.51516 70.000
79.53511 64.000
79.55506 54.000
79.57500 58.000
79.59495 59.000
79.61490 54.000
79.63484 47.000
79.65479 57.000
79.67474 43.000
79.69468 51.000
79.71463 41.000
79.73458 56.000
79.75453 69.000
79.77447 64.000
79.79442 55.000
79.81437 54.000
79.83431 48.000
79.85426 55.000
79.87421 38.000
79.89415 59.000
79.91410 51.000
79.93405 43.000
79.95399 55.000
79.97394 41.000
79.99389 46.000
80.01384 50.000
80.03378 45.000
80.05373 47.000
80.07368 46.000
80.09362 46.000
80.11357 60.000
80.13352 46.000
80.15346 46.000
80.17341 55.000
80.19336 47.000
80.21331 37.000
80.23325 51.000
80.25320 41.000
80.27315 41.000
80.29309 49.000
80.31304 46.000
80.33299 38.000
80.35293 42.000
80.37288 39.000
80.39283 43.000
80.41278 44.000
80.43272 45.000
80.45267 50.000
80.47262 55.000
80.49256 49.000
80.51251 41.000
80.53246 51.000
80.55240 33.000
80.57235 47.000
80.59230 36.000
80.61224 36.000
80.63219 38.000
80.65214 33.000
80.67209 39.000
80.69203 46.000
80.71198 50.000
80.73193 57.000
80.75187 46.000
80.77182 48.000
80.79177 48.000
80.81171 46.000
80.83166 45.000
80.85161 45.000
80.87156 51.000
80.89150 42.000
80.91145 52.000
80.93140 39.000
80.95134 36.000
80.97129 53.000
80.99124 47.000
81.01118 49.000
81.03113 48.000
81.05108 46.000
81.07102 35.000
81.09097 39.000
81.11092 38.000
81.13087 51.000
81.15081 53.000
81.17076 49.000
81.19071 54.000
81.21065 45.000
81.23060 55.000
81.25055 48.000
81.27049 41.000
81.29044 56.000
81.31039 51.000
81.33034 55.000
81.35028 59.000
81.37023 45.000
81.39018 56.000
81.41012 57.000
81.43007 39.000
81.45002 51.000
81.46996 48.000
81.48991 46.000
81.50986 54.000
81.52980 39.000
81.54975 33.000
81.56970 43.000
81.58965 43.000
81.60959 36.000
81.62954 56.000
81.64949 52.000
81.66943 52.000
81.68938 50.000
81.70933 43.000
81.72927 44.000
81.74922 51.000
81.76917 48.000
81.78912 55.000
81.80906 44.000
81.82901 56.000
81.84896 50.000
81.86890 39.000
81.88885 52.000
81.90880 60.000
81.92874 44.000
81.94869 47.000
81.96864 51.000
81.98859 45.000
82.00853 46.000
82.02848 42.000
82.04843 56.000
82.06837 52.000
82.08832 42.000
82.10827 59.000
82.12821 38.000
82.14816 50.000
82.16811 42.000
82.18805 47.000
82.20800 37.000
82.22795 44.000
82.24790 50.000
82.26784 54.000
82.28779 44.000
82.30774 41.000
82.32768 41.000
82.34763 43.000
82.36758 52.000
82.38752 36.000
82.40747 33.000
82.42742 57.000
82.44737 43.000
82.46731 47.000
82.48726 40.000
82.50721 34.000
82.52715 43.000
82.54710 37.000
82.56705 55.000
82.58699 39.000
82.60694 53.000
82.62689 60.000
82.64683 41.000
82.66678 51.000
82.68673 39.000
82.70668 51.000
82.72662 47.000
82.74657 48.000
82.76652 34.000
82.78646 39.000
82.80641 52.000
82.82636 42.000
82.84630 41.000
82.86625 54.000
82.88620 35.000
82.90615 51.000
82.92609 48.000
82.94604 46.000
82.96599 37.000
82.98593 50.000
83.00588 53.000
83.02583 58.000
83.04577 34.000
83.06572 39.000
83.08567 37.000
83.10561 42.000
83.12556 34.000
83.14551 41.000
83.16546 51.000
83.18540 47.000
83.20535 56.000
83.22530 42.000
83.24524 42.000
83.26519 43.000
83.28514 51.000
83.30508 34.000
83.32503 30.000
83.34498 34.000
83.36493 46.000
83.38487 38.000
83.40482 50.000
83.42477 38.000
83.44471 35.000
83.46466 42.000
83.48461 42.000
83.50455 48.000
83.52450 42.000
83.54445 40.000
83.56440 33.000
83.58434 40.000
83.60429 41.000
83.62424 47.000
83.64418 48.000
83.66413 51.000
83.68408 42.000
83.70402 42.000
83.72397 36.000
83.74392 38.000
83.76386 45.000
83.78381 49.000
83.80376 52.000
83.82371 30.000
83.84365 39.000
83.86360 39.000
83.88355 36.000
83.90349 45.000
83.92344 51.000
83.94339 36.000
83.96333 41.000
83.98328 39.000
84.00323 44.000
84.02318 61.000
84.04312 42.000
84.06307 45.000
84.08302 62.000
84.10296 47.000
84.12291 65.000
84.14286 39.000
84.16280 62.000
84.18275 51.000
84.20270 43.000
84.22264 58.000
84.24259 31.000
84.26254 42.000
84.28249 42.000
84.30243 62.000
84.32238 52.000
84.34233 45.000
84.36227 49.000
84.38222 46.000
84.40217 41.000
84.42211 48.000
84.44206 37.000
84.46201 47.000
84.48196 46.000
84.50190 50.000
84.52185 41.000
84.54180 49.000
84.56174 59.000
84.58169 48.000
84.60164 43.000
84.62158 43.000
84.64153 48.000
84.66148 38.000
84.68142 39.000
84.70137 48.000
84.72132 40.000
84.74127 45.000
84.76121 50.000
84.78116 50.000
84.80111 50.000
84.82105 49.000
84.84100 38.000
84.86095 39.000
84.88089 42.000
84.90084 47.000
84.92079 37.000
84.94074 39.000
84.96068 46.000
84.98063 37.000
85.00058 41.000
85.02052 49.000
85.04047 48.000
85.06042 34.000
85.08036 39.000
85.10031 37.000
85.12026 44.000
85.14021 42.000
85.16015 40.000
85.18010 49.000
85.20005 34.000
85.21999 31.000
85.23994 56.000
85.25989 38.000
85.27983 43.000
85.29978 38.000
85.31973 34.000
85.33967 37.000
85.35962 43.000
85.37957 46.000
85.39952 38.000
85.41946 42.000
85.43941 42.000
85.45936 46.000
85.47930 37.000
85.49925 42.000
85.51920 50.000
85.53914 31.000
85.55909 43.000
85.57904 48.000
85.59899 40.000
85.61893 35.000
85.63888 52.000
85.65883 46.000
85.67877 42.000
85.69872 41.000
85.71867 61.000
85.73861 51.000
85.75856 46.000
85.77851 54.000
85.79845 48.000
85.81840 54.000
85.83835 60.000
85.85830 67.000
85.87824 48.000
85.89819 76.000
85.91814 54.000
85.93808 59.000
85.95803 64.000
85.97798 60.000
85.99792 63.000
86.01787 59.000
86.03782 63.000
86.05777 73.000
86.07771 61.000
86.09766 58.000
86.11761 56.000
86.13755 68.000
86.15750 58.000
86.17745 69.000
86.19739 72.000
86.21734 48.000
86.23729 58.000
86.25723 86.000
86.27718 57.000
86.29713 48.000
86.31708 59.000
86.33702 46.000
86.35697 50.000
86.37692 61.000
86.39686 50.000
86.41681 55.000
86.43676 53.000
86.45670 49.000
86.47665 54.000
86.49660 53.000
86.51655 57.000
86.53649 38.000
86.55644 53.000
86.57639 45.000
86.59633 46.000
86.61628 47.000
86.63623 42.000
86.65617 53.000
86.67612 35.000
86.69607 51.000
86.71602 53.000
86.73596 40.000
86.75591 57.000
86.77586 55.000
86.79580 62.000
86.81575 45.000
86.83570 57.000
86.85564 48.000
86.87559 57.000
86.89554 42.000
86.91548 52.000
86.93543 48.000
86.95538 56.000
86.97533 47.000
86.99527 51.000
87.01522 45.000
87.03517 35.000
87.05511 47.000
87.07506 54.000
87.09501 37.000
87.11495 50.000
87.13490 49.000
87.15485 41.000
87.17480 43.000
87.19474 50.000
87.21469 30.000
87.23464 39.000
87.25458 48.000
87.27453 42.000
87.29448 51.000
87.31442 39.000
87.33437 50.000
87.35432 44.000
87.37426 46.000
87.39421 54.000
87.41416 60.000
87.43411 48.000
87.45405 57.000
87.47400 62.000
87.49395 55.000
87.51389 63.000
87.53384 56.000
87.55379 55.000
87.57373 42.000
87.59368 41.000
87.61363 33.000
87.63358 48.000
87.65352 48.000
87.67347 43.000
87.69342 28.000
87.71336 55.000
87.73331 50.000
87.75326 45.000
87.77320 52.000
87.79315 46.000
87.81310 50.000
87.83304 35.000
87.85299 52.000
87.87294 44.000
87.89289 35.000
87.91283 28.000
87.93278 38.000
87.95273 58.000
87.97267 32.000
87.99262 35.000
88.01257 53.000
88.03251 45.000
88.05246 34.000
88.07241 46.000
88.09236 46.000
88.11230 45.000
88.13225 43.000
88.15220 38.000
88.17214 39.000
88.19209 46.000
88.21204 35.000
88.23198 52.000
88.25193 37.000
88.27188 40.000
88.29183 38.000
88.31177 46.000
88.33172 42.000
88.35167 36.000
88.37161 43.000
88.39156 47.000
88.41151 45.000
88.43145 30.000
88.45140 45.000
88.47135 36.000
88.49129 39.000
88.51124 44.000
88.53119 49.000
88.55114 37.000
88.57108 37.000
88.59103 47.000
88.61098 42.000
88.63092 29.000
88.65087 35.000
88.67082 46.000
88.69076 33.000
88.71071 40.000
88.73066 45.000
88.75061 26.000
88.77055 24.000
88.79050 47.000
88.81045 41.000
88.83039 31.000
88.85034 42.000
88.87029 48.000
88.89023 25.000
88.91018 36.000
88.93013 39.000
88.95007 44.000
88.97002 37.000
88.98997 33.000
89.00992 40.000
89.02986 48.000
89.04981 33.000
89.06976 34.000
89.08970 41.000
89.10965 38.000
89.12960 47.000
89.14954 34.000
89.16949 55.000
89.18944 38.000
89.20939 45.000
89.22933 43.000
89.24928 40.000
89.26923 42.000
89.28917 38.000
89.30912 48.000
89.32907 40.000
89.34901 47.000
89.36896 50.000
89.38891 46.000
89.40885 38.000
89.42880 56.000
89.44875 43.000
89.46870 44.000
89.48864 39.000
89.50859 41.000
89.52854 47.000
89.54848 46.000
89.56843 46.000
89.58838 50.000
89.60832 60.000
89.62827 47.000
89.64822 64.000
89.66817 68.000
89.68811 69.000
89.70806 68.000
89.72801 78.000
89.74795 69.000
89.76790 71.000
89.78785 79.000
89.80779 88.000
89.82774 79.000
89.84769 93.000
89.86764 92.000
89.88758 81.000
89.90753 95.000
89.92748 92.000
89.94742 103.000
89.96737 90.000
89.98732 95.000
90.00726 114.000
