10.00000 134.000
10.01995 171.000
10.03989 139.000
10.05984 154.000
10.07979 153.000
10.09973 143.000
10.11968 153.000
10.13963 162.000
10.15958 137.000
10.17952 144.000
10.19947 133.000
10.21942 166.000
10.23936 171.000
10.25931 152.000
10.27926 160.000
10.29920 173.000
10.31915 156.000
10.33910 151.000
10.35905 145.000
10.37899 157.000
10.39894 158.000
10.41889 134.000
10.43883 159.000
10.45878 166.000
10.47873 151.000
10.49867 156.000
10.51862 146.000
10.53857 163.000
10.55851 159.000
10.57846 140.000
10.59841 152.000
10.61836 133.000
10.63830 149.000
10.65825 149.000
10.67820 156.000
10.69814 144.000
10.71809 149.000
10.73804 143.000
10.75798 154.000
10.77793 155.000
10.79788 147.000
10.81783 160.000
10.83777 176.000
10.85772 157.000
10.87767 149.000
10.89761 149.000
10.91756 148.000
10.93751 138.000
10.95745 155.000
10.97740 142.000
10.99735 166.000
11.01730 154.000
11.03724 137.000
11.05719 128.000
11.07714 139.000
11.09708 147.000
11.11703 175.000
11.13698 116.000
11.15692 146.000
11.17687 148.000
11.19682 171.000
11.21676 172.000
11.23671 153.000
11.25666 168.000
11.27661 152.000
11.29655 148.000
11.31650 155.000
11.33645 164.000
11.35639 160.000
11.37634 145.000
11.39629 160.000
11.41623 153.000
11.43618 161.000
11.45613 148.000
11.47608 164.000
11.49602 154.000
11.51597 164.000
11.53592 157.000
11.55586 147.000
11.57581 155.000
11.59576 169.000
11.61570 139.000
11.63565 144.000
11.65560 160.000
11.67554 171.000
11.69549 158.000
11.71544 173.000
11.73539 148.000
11.75533 157.000
11.77528 160.000
11.79523 162.000
11.81517 143.000
11.83512 154.000
11.85507 138.000
11.87501 166.000
11.89496 159.000
11.91491 138.000
11.93486 156.000
11.95480 157.000
11.97475 164.000
11.99470 144.000
12.01464 152.000
12.03459 165.000
12.05454 159.000
12.07448 161.000
12.09443 146.000
12.11438 149.000
12.13432 156.000
12.15427 147.000
12.17422 142.000
12.19417 150.000
12.21411 159.000
12.23406 148.000
12.25401 132.000
12.27395 149.000
12.29390 143.000
12.31385 152.000
12.33379 157.000
12.35374 137.000
12.37369 159.000
12.39364 159.000
12.41358 179.000
12.43353 157.000
12.45348 167.000
12.47342 139.000
12.49337 146.000
12.51332 168.000
12.53326 146.000
12.55321 139.000
12.57316 157.000
12.59311 144.000
12.61305 157.000
12.63300 146.000
12.65295 152.000
12.67289 162.000
12.69284 137.000
12.71279 149.000
12.73273 163.000
12.75268 148.000
12.77263 153.000
12.79257 151.000
12.81252 147.000
12.83247 146.000
12.85242 140.000
12.87236 167.000
12.89231 152.000
12.91226 154.000
12.93220 156.000
12.95215 163.000
12.97210 153.000
12.99204 148.000
13.01199 141.000
13.03194 166.000
13.05189 160.000
13.07183 156.000
13.09178 139.000
13.11173 148.000
13.13167 178.000
13.15162 156.000
13.17157 165.000
13.19151 160.000
13.21146 161.000
13.23141 165.000
13.25135 151.000
13.27130 146.000
13.29125 163.000
13.31120 144.000
13.33114 153.000
13.35109 127.000
13.37104 158.000
13.39098 145.000
13.41093 161.000
13.43088 157.000
13.45082 150.000
13.47077 137.000
13.49072 158.000
13.51067 168.000
13.53061 170.000
13.55056 134.000
13.57051 141.000
13.59045 148.000
13.61040 165.000
13.63035 157.000
13.65029 188.000
13.67024 165.000
13.69019 127.000
13.71013 138.000
13.73008 179.000
13.75003 148.000
13.76998 155.000
13.78992 165.000
13.80987 156.000
13.82982 141.000
13.84976 157.000
13.86971 146.000
13.88966 152.000
13.90960 161.000
13.92955 165.000
13.94950 177.000
13.96945 161.000
13.98939 150.000
14.00934 167.000
14.02929 166.000
14.04923 135.000
14.06918 143.000
14.08913 157.000
14.10907 160.000
14.12902 167.000
14.14897 158.000
14.16892 145.000
14.18886 155.000
14.20881 151.000
14.22876 155.000
14.24870 151.000
14.26865 158.000
14.28860 163.000
14.30854 157.000
14.32849 151.000
14.34844 171.000
14.36838 159.000
14.38833 149.000
14.40828 162.000
14.42823 148.000
14.44817 131.000
14.46812 155.000
14.48807 142.000
14.50801 162.000
14.52796 176.000
14.54791 148.000
14.56785 189.000
14.58780 168.000
14.60775 156.000
14.62770 163.000
14.64764 154.000
14.66759 148.000
14.68754 170.000
14.70748 170.000
14.72743 165.000
14.74738 191.000
14.76732 159.000
14.78727 179.000
14.80722 176.000
14.82716 170.000
14.84711 167.000
14.86706 150.000
14.88701 168.000
14.90695 174.000
14.92690 156.000
14.94685 166.000
14.96679 158.000
14.98674 155.000
15.00669 176.000
15.02663 163.000
15.04658 169.000
15.06653 170.000
15.08648 184.000
15.10642 172.000
15.12637 182.000
15.14632 161.000
15.16626 177.000
15.18621 184.000
15.20616 170.000
15.22610 198.000
15.24605 196.000
15.26600 180.000
15.28594 193.000
15.30589 190.000
15.32584 190.000
15.34579 196.000
15.36573 220.000
15.38568 208.000
15.40563 178.000
15.42557 204.000
15.44552 193.000
15.46547 185.000
15.48541 213.000
15.50536 243.000
15.52531 240.000
15.54526 244.000
15.56520 259.000
15.58515 262.000
15.60510 251.000
15.62504 267.000
15.64499 297.000
15.66494 354.000
15.68488 363.000
15.70483 415.000
15.72478 524.000
15.74472 630.000
15.76467 834.000
15.78462 1020.000
15.80457 1298.000
15.82451 1753.000
15.84446 1893.000
15.86441 1855.000
15.88435 1536.000
15.90430 1134.000
15.92425 887.000
15.94419 683.000
15.96414 536.000
15.98409 462.000
16.00404 448.000
16.02398 424.000
16.04393 500.000
16.06388 549.000
16.08382 607.000
16.10377 627.000
16.12372 733.000
16.14366 761.000
16.16361 725.000
16.18356 593.000
16.20351 541.000
16.22345 434.000
16.24340 364.000
16.26335 315.000
16.28329 271.000
16.30324 258.000
16.32319 257.000
16.34313 223.000
16.36308 210.000
16.38303 206.000
16.40297 216.000
16.42292 181.000
16.44287 206.000
16.46282 203.000
16.48276 170.000
16.50271 199.000
16.52266 176.000
16.54260 185.000
16.56255 159.000
16.58250 194.000
16.60244 199.000
16.62239 176.000
16.64234 186.000
16.66229 171.000
16.68223 165.000
16.70218 156.000
16.72213 174.000
16.74207 160.000
16.76202 167.000
16.78197 149.000
16.80191 162.000
16.82186 173.000
16.84181 170.000
16.86175 163.000
16.88170 155.000
16.90165 188.000
16.92160 156.000
16.94154 182.000
16.96149 165.000
16.98144 172.000
17.00138 155.000
17.02133 172.000
17.04128 171.000
17.06122 191.000
17.08117 176.000
17.10112 191.000
17.12107 161.000
17.14101 161.000
17.16096 158.000
17.18091 167.000
17.20085 156.000
17.22080 166.000
17.24075 163.000
17.26069 154.000
17.28064 173.000
17.30059 143.000
17.32053 155.000
17.34048 161.000
17.36043 166.000
17.38038 149.000
17.40032 150.000
17.42027 164.000
17.44022 175.000
17.46016 182.000
17.48011 162.000
17.50006 152.000
17.52000 176.000
17.53995 173.000
17.55990 171.000
17.57985 137.000
17.59979 168.000
17.61974 178.000
17.63969 151.000
17.65963 172.000
17.67958 129.000
17.69953 189.000
17.71947 177.000
17.73942 156.000
17.75937 190.000
17.77932 161.000
17.79926 176.000
17.81921 176.000
17.83916 167.000
17.85910 151.000
17.87905 155.000
17.89900 163.000
17.91894 162.000
17.93889 167.000
17.95884 181.000
17.97878 187.000
17.99873 182.000
18.01868 151.000
18.03863 166.000
18.05857 146.000
18.07852 142.000
18.09847 162.000
18.11841 194.000
18.13836 175.000
18.15831 159.000
18.17825 158.000
18.19820 171.000
18.21815 172.000
18.23810 171.000
18.25804 185.000
18.27799 192.000
18.29794 220.000
18.31788 233.000
18.33783 243.000
18.35778 315.000
18.37772 375.000
18.39767 510.000
18.41762 523.000
18.43756 467.000
18.45751 395.000
18.47746 314.000
18.49741 270.000
18.51735 200.000
18.53730 182.000
18.55725 206.000
18.57719 144.000
18.59714 175.000
18.61709 186.000
18.63703 139.000
18.65698 156.000
18.67693 164.000
18.69688 163.000
18.71682 183.000
18.73677 162.000
18.75672 176.000
18.77666 152.000
18.79661 151.000
18.81656 167.000
18.83650 157.000
18.85645 153.000
18.87640 161.000
18.89634 168.000
18.91629 158.000
18.93624 165.000
18.95619 172.000
18.97613 149.000
18.99608 176.000
19.01603 151.000
19.03597 189.000
19.05592 164.000
19.07587 157.000
19.09581 147.000
19.11576 174.000
19.13571 160.000
19.15566 163.000
19.17560 199.000
19.19555 167.000
19.21550 155.000
19.23544 160.000
19.25539 176.000
19.27534 157.000
19.29528 164.000
19.31523 155.000
19.33518 143.000
19.35513 163.000
19.37507 159.000
19.39502 153.000
19.41497 149.000
19.43491 150.000
19.45486 147.000
19.47481 163.000
19.49475 147.000
19.51470 170.000
19.53465 153.000
19.55459 171.000
19.57454 155.000
19.59449 189.000
19.61444 160.000
19.63438 164.000
19.65433 143.000
19.67428 164.000
19.69422 169.000
19.71417 151.000
19.73412 169.000
19.75406 145.000
19.77401 150.000
19.79396 160.000
19.81391 151.000
19.83385 160.000
19.85380 168.000
19.87375 169.000
19.89369 150.000
19.91364 163.000
19.93359 156.000
19.95353 155.000
19.97348 166.000
19.99343 165.000
20.01337 159.000
20.03332 150.000
20.05327 150.000
20.07322 151.000
20.09316 144.000
20.11311 156.000
20.13306 138.000
20.15300 147.000
20.17295 146.000
20.19290 164.000
20.21284 154.000
20.23279 150.000
20.25274 165.000
20.27269 159.000
20.29263 160.000
20.31258 158.000
20.33253 170.000
20.35247 177.000
20.37242 166.000
20.39237 171.000
20.41231 173.000
20.43226 178.000
20.45221 156.000
20.47215 173.000
20.49210 172.000
20.51205 180.000
20.53200 151.000
20.55194 154.000
20.57189 157.000
20.59184 139.000
20.61178 170.000
20.63173 186.000
20.65168 149.000
20.67162 153.000
20.69157 178.000
20.71152 145.000
20.73147 168.000
20.75141 160.000
20.77136 173.000
20.79131 172.000
20.81125 182.000
20.83120 162.000
20.85115 151.000
20.87109 162.000
20.89104 161.000
20.91099 186.000
20.93094 193.000
20.95088 179.000
20.97083 172.000
20.99078 187.000
21.01072 195.000
21.03067 163.000
21.05062 179.000
21.07056 183.000
21.09051 199.000
21.11046 211.000
21.13040 211.000
21.15035 195.000
21.17030 181.000
21.19025 196.000
21.21019 162.000
21.23014 181.000
21.25009 166.000
21.27003 164.000
21.28998 166.000
21.30993 162.000
21.32987 174.000
21.34982 171.000
21.36977 200.000
21.38972 167.000
21.40966 170.000
21.42961 167.000
21.44956 151.000
21.46950 167.000
21.48945 149.000
21.50940 171.000
21.52934 160.000
21.54929 166.000
21.56924 158.000
21.58918 166.000
21.60913 185.000
21.62908 163.000
21.64903 159.000
21.66897 191.000
21.68892 178.000
21.70887 173.000
21.72881 152.000
21.74876 156.000
21.76871 176.000
21.78865 144.000
21.80860 171.000
21.82855 145.000
21.84850 156.000
21.86844 155.000
21.88839 161.000
21.90834 187.000
21.92828 150.000
21.94823 158.000
21.96818 167.000
21.98812 177.000
22.00807 169.000
22.02802 161.000
22.04796 179.000
22.06791 151.000
22.08786 147.000
22.10781 162.000
22.12775 183.000
22.14770 175.000
22.16765 169.000
22.18759 140.000
22.20754 188.000
22.22749 173.000
22.24743 183.000
22.26738 163.000
22.28733 165.000
22.30728 152.000
22.32722 144.000
22.34717 160.000
22.36712 171.000
22.38706 170.000
22.40701 150.000
22.42696 158.000
22.44690 170.000
22.46685 162.000
22.48680 163.000
22.50675 197.000
22.52669 161.000
22.54664 171.000
22.56659 172.000
22.58653 160.000
22.60648 160.000
22.62643 190.000
22.64637 179.000
22.66632 177.000
22.68627 176.000
22.70621 157.000
22.72616 153.000
22.74611 175.000
22.76606 182.000
22.78600 168.000
22.80595 173.000
22.82590 171.000
22.84584 179.000
22.86579 163.000
22.88574 176.000
22.90568 160.000
22.92563 168.000
22.94558 159.000
22.96553 174.000
22.98547 173.000
23.00542 161.000
23.02537 158.000
23.04531 161.000
23.06526 161.000
23.08521 188.000
23.10515 141.000
23.12510 164.000
23.14505 180.000
23.16499 165.000
23.18494 170.000
23.20489 181.000
23.22484 148.000
23.24478 162.000
23.26473 163.000
23.28468 175.000
23.30462 142.000
23.32457 176.000
23.34452 172.000
23.36446 172.000
23.38441 183.000
23.40436 165.000
23.42431 153.000
23.44425 144.000
23.46420 169.000
23.48415 138.000
23.50409 150.000
23.52404 168.000
23.54399 170.000
23.56393 192.000
23.58388 166.000
23.60383 162.000
23.62377 150.000
23.64372 164.000
23.66367 152.000
23.68362 172.000
23.70356 149.000
23.72351 167.000
23.74346 160.000
23.76340 157.000
23.78335 168.000
23.80330 179.000
23.82324 143.000
23.84319 162.000
23.86314 195.000
23.88309 166.000
23.90303 176.000
23.92298 198.000
23.94293 141.000
23.96287 159.000
23.98282 161.000
24.00277 162.000
24.02271 150.000
24.04266 174.000
24.06261 180.000
24.08256 166.000
24.10250 160.000
24.12245 146.000
24.14240 157.000
24.16234 172.000
24.18229 164.000
24.20224 170.000
24.22218 177.000
24.24213 168.000
24.26208 165.000
24.28202 165.000
24.30197 174.000
24.32192 163.000
24.34187 186.000
24.36181 170.000
24.38176 164.000
24.40171 177.000
24.42165 184.000
24.44160 158.000
24.46155 180.000
24.48149 184.000
24.50144 180.000
24.52139 169.000
24.54134 185.000
24.56128 163.000
24.58123 174.000
24.60118 156.000
24.62112 172.000
24.64107 180.000
24.66102 177.000
24.68096 170.000
24.70091 182.000
24.72086 154.000
24.74080 176.000
24.76075 173.000
24.78070 173.000
24.80065 147.000
24.82059 181.000
24.84054 155.000
24.86049 168.000
24.88043 174.000
24.90038 163.000
24.92033 180.000
24.94027 182.000
24.96022 168.000
24.98017 151.000
25.00012 156.000
25.02006 179.000
25.04001 179.000
25.05996 194.000
25.07990 162.000
25.09985 182.000
25.11980 178.000
25.13974 170.000
25.15969 173.000
25.17964 171.000
25.19958 178.000
25.21953 171.000
25.23948 167.000
25.25943 167.000
25.27937 147.000
25.29932 181.000
25.31927 179.000
25.33921 191.000
25.35916 192.000
25.37911 169.000
25.39905 198.000
25.41900 172.000
25.43895 165.000
25.45890 166.000
25.47884 158.000
25.49879 170.000
25.51874 167.000
25.53868 180.000
25.55863 175.000
25.57858 191.000
25.59852 165.000
25.61847 183.000
25.63842 177.000
25.65837 192.000
25.67831 152.000
25.69826 166.000
25.71821 161.000
25.73815 201.000
25.75810 172.000
25.77805 207.000
25.79799 158.000
25.81794 169.000
25.83789 168.000
25.85783 168.000
25.87778 198.000
25.89773 179.000
25.91768 187.000
25.93762 188.000
25.95757 175.000
25.97752 193.000
25.99746 152.000
26.01741 189.000
26.03736 163.000
26.05730 185.000
26.07725 169.000
26.09720 151.000
26.11715 200.000
26.13709 182.000
26.15704 178.000
26.17699 162.000
26.19693 175.000
26.21688 198.000
26.23683 156.000
26.25677 181.000
26.27672 188.000
26.29667 162.000
26.31661 173.000
26.33656 170.000
26.35651 161.000
26.37646 173.000
26.39640 171.000
26.41635 186.000
26.43630 197.000
26.45624 186.000
26.47619 167.000
26.49614 161.000
26.51608 167.000
26.53603 145.000
26.55598 162.000
26.57593 181.000
26.59587 186.000
26.61582 180.000
26.63577 184.000
26.65571 174.000
26.67566 192.000
26.69561 175.000
26.71555 170.000
26.73550 187.000
26.75545 173.000
26.77539 186.000
26.79534 190.000
26.81529 186.000
26.83524 169.000
26.85518 189.000
26.87513 202.000
26.89508 184.000
26.91502 197.000
26.93497 172.000
26.95492 186.000
26.97486 175.000
26.99481 185.000
27.01476 159.000
27.03471 169.000
27.05465 190.000
27.07460 194.000
27.09455 166.000
27.11449 197.000
27.13444 184.000
27.15439 199.000
27.17433 173.000
27.19428 175.000
27.21423 147.000
27.23417 169.000
27.25412 176.000
27.27407 183.000
27.29402 171.000
27.31396 187.000
27.33391 166.000
27.35386 152.000
27.37380 179.000
27.39375 186.000
27.41370 160.000
27.43364 174.000
27.45359 164.000
27.47354 173.000
27.49349 175.000
27.51343 165.000
27.53338 181.000
27.55333 170.000
27.57327 166.000
27.59322 189.000
27.61317 199.000
27.63311 174.000
27.65306 199.000
27.67301 173.000
27.69296 182.000
27.71290 168.000
27.73285 162.000
27.75280 177.000
27.77274 182.000
27.79269 167.000
27.81264 185.000
27.83258 191.000
27.85253 187.000
27.87248 185.000
27.89242 179.000
27.91237 203.000
27.93232 177.000
27.95227 179.000
27.97221 160.000
27.99216 196.000
28.01211 162.000
28.03205 183.000
28.05200 171.000
28.07195 162.000
28.09189 176.000
28.11184 180.000
28.13179 160.000
28.15174 164.000
28.17168 190.000
28.19163 189.000
28.21158 175.000
28.23152 204.000
28.25147 180.000
28.27142 180.000
28.29136 179.000
28.31131 184.000
28.33126 158.000
28.35120 194.000
28.37115 183.000
28.39110 187.000
28.41105 161.000
28.43099 184.000
28.45094 176.000
28.47089 179.000
28.49083 190.000
28.51078 205.000
28.53073 194.000
28.55067 187.000
28.57062 140.000
28.59057 177.000
28.61052 193.000
28.63046 177.000
28.65041 182.000
28.67036 196.000
28.69030 169.000
28.71025 186.000
28.73020 175.000
28.75014 189.000
28.77009 177.000
28.79004 182.000
28.80998 184.000
28.82993 145.000
28.84988 169.000
28.86983 206.000
28.88977 185.000
28.90972 174.000
28.92967 172.000
28.94961 177.000
28.96956 191.000
28.98951 175.000
29.00945 179.000
29.02940 162.000
29.04935 159.000
29.06930 184.000
29.08924 196.000
29.10919 183.000
29.12914 163.000
29.14908 172.000
29.16903 197.000
29.18898 186.000
29.20892 205.000
29.22887 190.000
29.24882 181.000
29.26877 183.000
29.28871 195.000
29.30866 187.000
29.32861 183.000
29.34855 198.000
29.36850 171.000
29.38845 179.000
29.40839 218.000
29.42834 180.000
29.44829 172.000
29.46823 176.000
29.48818 178.000
29.50813 186.000
29.52808 186.000
29.54802 169.000
29.56797 190.000
29.58792 176.000
29.60786 168.000
29.62781 190.000
29.64776 174.000
29.66770 203.000
29.68765 182.000
29.70760 195.000
29.72755 194.000
29.74749 204.000
29.76744 206.000
29.78739 179.000
29.80733 183.000
29.82728 177.000
29.84723 171.000
29.86717 175.000
29.88712 192.000
29.90707 203.000
29.92701 210.000
29.94696 202.000
29.96691 200.000
29.98686 194.000
30.00680 216.000
30.02675 216.000
30.04670 203.000
30.06664 232.000
30.08659 240.000
30.10654 251.000
30.12648 244.000
30.14643 261.000
30.16638 283.000
30.18633 308.000
30.20627 387.000
30.22622 525.000
30.24617 657.000
30.26611 738.000
30.28606 826.000
30.30601 808.000
30.32595 771.000
30.34590 690.000
30.36585 599.000
30.38579 532.000
30.40574 424.000
30.42569 322.000
30.44564 285.000
30.46558 263.000
30.48553 250.000
30.50548 228.000
30.52542 205.000
30.54537 210.000
30.56532 209.000
30.58526 184.000
30.60521 161.000
30.62516 213.000
30.64511 198.000
30.66505 184.000
30.68500 211.000
30.70495 200.000
30.72489 173.000
30.74484 195.000
30.76479 177.000
30.78473 201.000
30.80468 206.000
30.82463 189.000
30.84458 198.000
30.86452 176.000
30.88447 199.000
30.90442 187.000
30.92436 226.000
30.94431 199.000
30.96426 196.000
30.98420 169.000
31.00415 177.000
31.02410 204.000
31.04404 185.000
31.06399 205.000
31.08394 185.000
31.10389 185.000
31.12383 177.000
31.14378 183.000
31.16373 187.000
31.18367 188.000
31.20362 180.000
31.22357 187.000
31.24351 187.000
31.26346 202.000
31.28341 173.000
31.30336 199.000
31.32330 195.000
31.34325 175.000
31.36320 186.000
31.38314 185.000
31.40309 180.000
31.42304 175.000
31.44298 167.000
31.46293 176.000
31.48288 199.000
31.50282 170.000
31.52277 168.000
31.54272 200.000
31.56267 188.000
31.58261 165.000
31.60256 183.000
31.62251 215.000
31.64245 171.000
31.66240 208.000
31.68235 180.000
31.70229 199.000
31.72224 182.000
31.74219 183.000
31.76214 180.000
31.78208 217.000
31.80203 205.000
31.82198 207.000
31.84192 188.000
31.86187 235.000
31.88182 217.000
31.90176 239.000
31.92171 245.000
31.94166 221.000
31.96160 299.000
31.98155 297.000
32.00150 275.000
32.02145 300.000
32.04139 304.000
32.06134 290.000
32.08129 284.000
32.10123 282.000
32.12118 273.000
32.14113 276.000
32.16107 213.000
32.18102 224.000
32.20097 194.000
32.22092 203.000
32.24086 207.000
32.26081 216.000
32.28076 208.000
32.30070 196.000
32.32065 195.000
32.34060 217.000
32.36054 191.000
32.38049 189.000
32.40044 205.000
32.42039 206.000
32.44033 203.000
32.46028 207.000
32.48023 216.000
32.50017 203.000
32.52012 204.000
32.54007 241.000
32.56001 213.000
32.57996 232.000
32.59991 233.000
32.61985 248.000
32.63980 248.000
32.65975 236.000
32.67970 201.000
32.69964 241.000
32.71959 228.000
32.73954 190.000
32.75948 214.000
32.77943 226.000
32.79938 223.000
32.81932 189.000
32.83927 189.000
32.85922 204.000
32.87917 177.000
32.89911 196.000
32.91906 198.000
32.93901 200.000
32.95895 210.000
32.97890 206.000
32.99885 190.000
33.01879 182.000
33.03874 220.000
33.05869 185.000
33.07863 192.000
33.09858 168.000
33.11853 186.000
33.13848 195.000
33.15842 162.000
33.17837 182.000
33.19832 187.000
33.21826 186.000
33.23821 173.000
33.25816 179.000
33.27810 185.000
33.29805 188.000
33.31800 167.000
33.33795 181.000
33.35789 196.000
33.37784 178.000
33.39779 195.000
33.41773 166.000
33.43768 176.000
33.45763 200.000
33.47757 160.000
33.49752 187.000
33.51747 203.000
33.53741 179.000
33.55736 183.000
33.57731 188.000
33.59726 171.000
33.61720 167.000
33.63715 190.000
33.65710 184.000
33.67704 176.000
33.69699 192.000
33.71694 175.000
33.73688 164.000
33.75683 175.000
33.77678 163.000
33.79673 175.000
33.81667 171.000
33.83662 147.000
33.85657 182.000
33.87651 190.000
33.89646 172.000
33.91641 191.000
33.93635 193.000
33.95630 204.000
33.97625 144.000
33.99620 150.000
34.01614 181.000
34.03609 206.000
34.05604 206.000
34.07598 174.000
34.09593 199.000
34.11588 209.000
34.13582 184.000
34.15577 213.000
34.17572 194.000
34.19566 195.000
34.21561 193.000
34.23556 171.000
34.25551 183.000
34.27545 168.000
34.29540 194.000
34.31535 160.000
34.33529 187.000
34.35524 179.000
34.37519 176.000
34.39513 189.000
34.41508 183.000
34.43503 181.000
34.45498 157.000
34.47492 205.000
34.49487 189.000
34.51482 203.000
34.53476 212.000
34.55471 182.000
34.57466 183.000
34.59460 172.000
34.61455 184.000
34.63450 212.000
34.65444 205.000
34.67439 221.000
34.69434 218.000
34.71429 215.000
34.73423 203.000
34.75418 202.000
34.77413 175.000
34.79407 189.000
34.81402 193.000
34.83397 186.000
34.85391 205.000
34.87386 204.000
34.89381 224.000
34.91376 189.000
34.93370 190.000
34.95365 194.000
34.97360 183.000
34.99354 177.000
35.01349 210.000
35.03344 190.000
35.05338 216.000
35.07333 167.000
35.09328 209.000
35.11322 217.000
35.13317 202.000
35.15312 205.000
35.17307 192.000
35.19301 245.000
35.21296 234.000
35.23291 200.000
35.25285 240.000
35.27280 243.000
35.29275 207.000
35.31269 238.000
35.33264 251.000
35.35259 257.000
35.37254 256.000
35.39248 258.000
35.41243 266.000
35.43238 278.000
35.45232 330.000
35.47227 344.000
35.49222 413.000
35.51216 493.000
35.53211 538.000
35.55206 707.000
35.57201 818.000
35.59195 1058.000
35.61190 1411.000
35.63185 1786.000
35.65179 2044.000
35.67174 2224.000
35.69169 2219.000
35.71163 2273.000
35.73158 2084.000
35.75153 1808.000
35.77147 1619.000
35.79142 1420.000
35.81137 1172.000
35.83132 919.000
35.85126 828.000
35.87121 600.000
35.89116 536.000
35.91110 449.000
35.93105 401.000
35.95100 364.000
35.97094 304.000
35.99089 331.000
36.01084 306.000
36.03079 284.000
36.05073 284.000
36.07068 255.000
36.09063 248.000
36.11057 240.000
36.13052 226.000
36.15047 224.000
36.17041 210.000
36.19036 224.000
36.21031 196.000
36.23025 202.000
36.25020 204.000
36.27015 231.000
36.29010 206.000
36.31004 207.000
36.32999 204.000
36.34994 231.000
36.36988 224.000
36.38983 212.000
36.40978 201.000
36.42972 213.000
36.44967 217.000
36.46962 187.000
36.48957 200.000
36.50951 220.000
36.52946 233.000
36.54941 219.000
36.56935 192.000
36.58930 211.000
36.60925 224.000
36.62919 207.000
36.64914 229.000
36.66909 248.000
36.68903 248.000
36.70898 227.000
36.72893 240.000
36.74888 241.000
36.76882 248.000
36.78877 245.000
36.80872 226.000
36.82866 273.000
36.84861 314.000
36.86856 272.000
36.88850 308.000
36.90845 342.000
36.92840 317.000
36.94835 377.000
36.96829 424.000
36.98824 426.000
37.00819 449.000
37.02813 485.000
37.04808 506.000
37.06803 606.000
37.08797 673.000
37.10792 790.000
37.12787 960.000
37.14781 1312.000
37.16776 1806.000
37.18771 2432.000
37.20766 3054.000
37.22760 3245.000
37.24755 3299.000
37.26750 3096.000
37.28744 2817.000
37.30739 2572.000
37.32734 2187.000
37.34728 1916.000
37.36723 1450.000
37.38718 1128.000
37.40713 782.000
37.42707 647.000
37.44702 504.000
37.46697 420.000
37.48691 367.000
37.50686 331.000
37.52681 302.000
37.54675 267.000
37.56670 272.000
37.58665 239.000
37.60660 225.000
37.62654 213.000
37.64649 221.000
37.66644 191.000
37.68638 207.000
37.70633 209.000
37.72628 188.000
37.74622 232.000
37.76617 208.000
37.78612 228.000
37.80606 185.000
37.82601 192.000
37.84596 207.000
37.86591 185.000
37.88585 194.000
37.90580 187.000
37.92575 207.000
37.94569 218.000
37.96564 197.000
37.98559 174.000
38.00553 178.000
38.02548 170.000
38.04543 183.000
38.06538 164.000
38.08532 160.000
38.10527 181.000
38.12522 195.000
38.14516 157.000
38.16511 176.000
38.18506 172.000
38.20500 175.000
38.22495 191.000
38.24490 196.000
38.26484 156.000
38.28479 191.000
38.30474 188.000
38.32469 178.000
38.34463 175.000
38.36458 190.000
38.38453 201.000
38.40447 179.000
38.42442 180.000
38.44437 185.000
38.46431 169.000
38.48426 184.000
38.50421 177.000
38.52416 167.000
38.54410 191.000
38.56405 198.000
38.58400 190.000
38.60394 161.000
38.62389 184.000
38.64384 206.000
38.66378 183.000
38.68373 183.000
38.70368 183.000
38.72362 180.000
38.74357 191.000
38.76352 198.000
38.78347 181.000
38.80341 195.000
38.82336 194.000
38.84331 209.000
38.86325 203.000
38.88320 214.000
38.90315 206.000
38.92309 178.000
38.94304 185.000
38.96299 220.000
38.98294 193.000
39.00288 259.000
39.02283 208.000
39.04278 229.000
39.06272 201.000
39.08267 252.000
39.10262 228.000
39.12256 263.000
39.14251 298.000
39.16246 319.000
39.18241 329.000
39.20235 368.000
39.22230 377.000
39.24225 375.000
39.26219 388.000
39.28214 408.000
39.30209 411.000
39.32203 396.000
39.34198 418.000
39.36193 438.000
39.38187 406.000
39.40182 386.000
39.42177 411.000
39.44172 381.000
39.46166 334.000
39.48161 327.000
39.50156 318.000
39.52150 297.000
39.54145 263.000
39.56140 258.000
39.58134 218.000
39.60129 219.000
39.62124 200.000
39.64119 184.000
39.66113 217.000
39.68108 211.000
39.70103 179.000
39.72097 191.000
39.74092 194.000
39.76087 178.000
39.78081 153.000
39.80076 181.000
39.82071 171.000
39.84065 187.000
39.86060 165.000
39.88055 163.000
39.90050 154.000
39.92044 199.000
39.94039 197.000
39.96034 183.000
39.98028 195.000
40.00023 152.000
40.02018 168.000
40.04012 167.000
40.06007 157.000
40.08002 152.000
40.09997 186.000
40.11991 175.000
40.13986 173.000
40.15981 185.000
40.17975 172.000
40.19970 191.000
40.21965 164.000
40.23959 151.000
40.25954 198.000
40.27949 158.000
40.29943 159.000
40.31938 181.000
40.33933 178.000
40.35928 170.000
40.37922 159.000
40.39917 178.000
40.41912 177.000
40.43906 139.000
40.45901 181.000
40.47896 153.000
40.49890 167.000
40.51885 182.000
40.53880 178.000
40.55875 182.000
40.57869 175.000
40.59864 167.000
40.61859 172.000
40.63853 188.000
40.65848 173.000
40.67843 159.000
40.69837 168.000
40.71832 171.000
40.73827 188.000
40.75822 176.000
40.77816 176.000
40.79811 180.000
40.81806 186.000
40.83800 187.000
40.85795 161.000
40.87790 155.000
40.89784 190.000
40.91779 167.000
40.93774 157.000
40.95768 172.000
40.97763 160.000
40.99758 185.000
41.01753 196.000
41.03747 158.000
41.05742 177.000
41.07737 183.000
41.09731 175.000
41.11726 170.000
41.13721 164.000
41.15715 186.000
41.17710 201.000
41.19705 149.000
41.21700 196.000
41.23694 163.000
41.25689 182.000
41.27684 188.000
41.29678 200.000
41.31673 177.000
41.33668 170.000
41.35662 205.000
41.37657 190.000
41.39652 186.000
41.41646 187.000
41.43641 199.000
41.45636 198.000
41.47631 210.000
41.49625 197.000
41.51620 228.000
41.53615 204.000
41.55609 240.000
41.57604 271.000
41.59599 264.000
41.61593 264.000
41.63588 327.000
41.65583 358.000
41.67578 412.000
41.69572 391.000
41.71567 487.000
41.73562 498.000
41.75556 481.000
41.77551 481.000
41.79546 439.000
41.81540 434.000
41.83535 409.000
41.85530 362.000
41.87524 366.000
41.89519 365.000
41.91514 326.000
41.93509 260.000
41.95503 255.000
41.97498 254.000
41.99493 209.000
42.01487 224.000
42.03482 187.000
42.05477 227.000
42.07471 218.000
42.09466 229.000
42.11461 218.000
42.13456 223.000
42.15450 214.000
42.17445 187.000
42.19440 174.000
42.21434 208.000
42.23429 203.000
42.25424 233.000
42.27418 211.000
42.29413 176.000
42.31408 211.000
42.33403 205.000
42.35397 197.000
42.37392 206.000
42.39387 187.000
42.41381 190.000
42.43376 192.000
42.45371 228.000
42.47365 203.000
42.49360 189.000
42.51355 184.000
42.53349 182.000
42.55344 217.000
42.57339 230.000
42.59334 185.000
42.61328 215.000
42.63323 202.000
42.65318 259.000
42.67312 222.000
42.69307 231.000
42.71302 215.000
42.73296 238.000
42.75291 251.000
42.77286 234.000
42.79281 243.000
42.81275 256.000
42.83270 260.000
42.85265 300.000
42.87259 297.000
42.89254 315.000
42.91249 319.000
42.93243 310.000
42.95238 324.000
42.97233 410.000
42.99227 431.000
43.01222 437.000
43.03217 520.000
43.05212 569.000
43.07206 604.000
43.09201 689.000
43.11196 853.000
43.13190 1014.000
43.15185 1324.000
43.17180 1829.000
43.19174 2634.000
43.21169 3671.000
43.23164 4664.000
43.25159 5287.000
43.27153 5417.000
43.29148 4875.000
43.31143 4364.000
43.33137 3795.000
43.35132 3647.000
43.37127 3519.000
43.39121 3195.000
43.41116 2546.000
43.43111 1902.000
43.45105 1386.000
43.47100 1075.000
43.49095 850.000
43.51090 757.000
43.53084 690.000
43.55079 598.000
43.57074 466.000
43.59068 454.000
43.61063 374.000
43.63058 378.000
43.65052 348.000
43.67047 326.000
43.69042 314.000
43.71037 288.000
43.73031 259.000
43.75026 248.000
43.77021 248.000
43.79015 230.000
43.81010 230.000
43.83005 240.000
43.84999 244.000
43.86994 194.000
43.88989 214.000
43.90984 194.000
43.92978 211.000
43.94973 191.000
43.96968 199.000
43.98962 224.000
44.00957 227.000
44.02952 202.000
44.04946 184.000
44.06941 192.000
44.08936 205.000
44.10930 194.000
44.12925 212.000
44.14920 196.000
44.16915 179.000
44.18909 189.000
44.20904 203.000
44.22899 201.000
44.24893 176.000
44.26888 229.000
44.28883 178.000
44.30877 180.000
44.32872 199.000
44.34867 184.000
44.36862 186.000
44.38856 186.000
44.40851 185.000
44.42846 181.000
44.44840 200.000
44.46835 166.000
44.48830 183.000
44.50824 181.000
44.52819 185.000
44.54814 201.000
44.56808 199.000
44.58803 192.000
44.60798 209.000
44.62793 216.000
44.64787 186.000
44.66782 174.000
44.68777 164.000
44.70771 217.000
44.72766 185.000
44.74761 187.000
44.76755 171.000
44.78750 209.000
44.80745 185.000
44.82740 172.000
44.84734 208.000
44.86729 193.000
44.88724 198.000
44.90718 189.000
44.92713 198.000
44.94708 192.000
44.96702 209.000
44.98697 215.000
45.00692 202.000
45.02686 192.000
45.04681 198.000
45.06676 190.000
45.08671 199.000
45.10665 215.000
45.12660 186.000
45.14655 181.000
45.16649 186.000
45.18644 193.000
45.20639 215.000
45.22633 195.000
45.24628 201.000
45.26623 179.000
45.28618 170.000
45.30612 181.000
45.32607 198.000
45.34602 159.000
45.36596 172.000
45.38591 186.000
45.40586 197.000
45.42580 150.000
45.44575 180.000
45.46570 160.000
45.48565 190.000
45.50559 178.000
45.52554 174.000
45.54549 160.000
45.56543 156.000
45.58538 174.000
45.60533 178.000
45.62527 170.000
45.64522 180.000
45.66517 168.000
45.68511 167.000
45.70506 198.000
45.72501 170.000
45.74496 174.000
45.76490 187.000
45.78485 151.000
45.80480 177.000
45.82474 157.000
45.84469 158.000
45.86464 179.000
45.88458 169.000
45.90453 179.000
45.92448 169.000
45.94443 151.000
45.96437 177.000
45.98432 152.000
46.00427 171.000
46.02421 161.000
46.04416 181.000
46.06411 158.000
46.08405 143.000
46.10400 177.000
46.12395 178.000
46.14389 140.000
46.16384 155.000
46.18379 152.000
46.20374 162.000
46.22368 176.000
46.24363 155.000
46.26358 142.000
46.28352 164.000
46.30347 169.000
46.32342 162.000
46.34336 184.000
46.36331 136.000
46.38326 163.000
46.40321 167.000
46.42315 169.000
46.44310 182.000
46.46305 140.000
46.48299 171.000
46.50294 158.000
46.52289 158.000
46.54283 162.000
46.56278 138.000
46.58273 177.000
46.60267 175.000
46.62262 177.000
46.64257 139.000
46.66252 171.000
46.68246 175.000
46.70241 163.000
46.72236 159.000
46.74230 153.000
46.76225 173.000
46.78220 158.000
46.80214 153.000
46.82209 161.000
46.84204 147.000
46.86199 155.000
46.88193 176.000
46.90188 164.000
46.92183 156.000
46.94177 159.000
46.96172 169.000
46.98167 168.000
47.00161 146.000
47.02156 158.000
47.04151 163.000
47.06146 156.000
47.08140 144.000
47.10135 158.000
47.12130 185.000
47.14124 173.000
47.16119 150.000
47.18114 175.000
47.20108 190.000
47.22103 156.000
47.24098 163.000
47.26092 185.000
47.28087 160.000
47.30082 159.000
47.32077 185.000
47.34071 155.000
47.36066 188.000
47.38061 160.000
47.40055 159.000
47.42050 182.000
47.44045 138.000
47.46039 168.000
47.48034 182.000
47.50029 122.000
47.52024 142.000
47.54018 186.000
47.56013 194.000
47.58008 177.000
47.60002 172.000
47.61997 165.000
47.63992 181.000
47.65986 156.000
47.67981 163.000
47.69976 195.000
47.71970 151.000
47.73965 166.000
47.75960 157.000
47.77955 177.000
47.79949 166.000
47.81944 193.000
47.83939 173.000
47.85933 151.000
47.87928 157.000
47.89923 173.000
47.91917 169.000
47.93912 169.000
47.95907 152.000
47.97902 159.000
47.99896 179.000
48.01891 174.000
48.03886 169.000
48.05880 169.000
48.07875 169.000
48.09870 171.000
48.11864 168.000
48.13859 189.000
48.15854 168.000
48.17848 171.000
48.19843 196.000
48.21838 164.000
48.23833 185.000
48.25827 171.000
48.27822 161.000
48.29817 188.000
48.31811 176.000
48.33806 196.000
48.35801 185.000
48.37795 187.000
48.39790 194.000
48.41785 181.000
48.43780 205.000
48.45774 199.000
48.47769 185.000
48.49764 210.000
48.51758 190.000
48.53753 219.000
48.55748 226.000
48.57742 243.000
48.59737 266.000
48.61732 249.000
48.63726 311.000
48.65721 351.000
48.67716 384.000
48.69711 383.000
48.71705 360.000
48.73700 407.000
48.75695 381.000
48.77689 423.000
48.79684 390.000
48.81679 371.000
48.83673 410.000
48.85668 336.000
48.87663 357.000
48.89658 318.000
48.91652 327.000
48.93647 315.000
48.95642 250.000
48.97636 213.000
48.99631 252.000
49.01626 206.000
49.03620 214.000
49.05615 194.000
49.07610 205.000
49.09605 187.000
49.11599 187.000
49.13594 186.000
49.15589 184.000
49.17583 179.000
49.19578 171.000
49.21573 162.000
49.23567 160.000
49.25562 156.000
49.27557 164.000
49.29551 178.000
49.31546 173.000
49.33541 161.000
49.35536 168.000
49.37530 183.000
49.39525 153.000
49.41520 157.000
49.43514 169.000
49.45509 172.000
49.47504 165.000
49.49498 182.000
49.51493 153.000
49.53488 159.000
49.55483 167.000
49.57477 163.000
49.59472 175.000
49.61467 176.000
49.63461 168.000
49.65456 159.000
49.67451 167.000
49.69445 140.000
49.71440 153.000
49.73435 166.000
49.75429 147.000
49.77424 190.000
49.79419 160.000
49.81414 144.000
49.83408 171.000
49.85403 169.000
49.87398 153.000
49.89392 137.000
49.91387 156.000
49.93382 154.000
49.95376 147.000
49.97371 180.000
49.99366 159.000
50.01361 167.000
50.03355 161.000
50.05350 163.000
50.07345 178.000
50.09339 170.000
50.11334 157.000
50.13329 149.000
50.15323 171.000
50.17318 158.000
50.19313 150.000
50.21307 171.000
50.23302 176.000
50.25297 174.000
50.27292 156.000
50.29286 169.000
50.31281 156.000
50.33276 158.000
50.35270 166.000
50.37265 183.000
50.39260 145.000
50.41254 158.000
50.43249 158.000
50.45244 166.000
50.47239 160.000
50.49233 145.000
50.51228 175.000
50.53223 160.000
50.55217 163.000
50.57212 182.000
50.59207 159.000
50.61201 165.000
50.63196 137.000
50.65191 181.000
50.67186 178.000
50.69180 178.000
50.71175 173.000
50.73170 153.000
50.75164 153.000
50.77159 170.000
50.79154 166.000
50.81148 170.000
50.83143 183.000
50.85138 164.000
50.87132 181.000
50.89127 165.000
50.91122 146.000
50.93117 165.000
50.95111 174.000
50.97106 174.000
50.99101 165.000
51.01095 178.000
51.03090 141.000
51.05085 144.000
51.07079 170.000
51.09074 151.000
51.11069 150.000
51.13064 144.000
51.15058 177.000
51.17053 159.000
51.19048 139.000
51.21042 148.000
51.23037 171.000
51.25032 163.000
51.27026 158.000
51.29021 155.000
51.31016 162.000
51.33010 159.000
51.35005 166.000
51.37000 147.000
51.38995 155.000
51.40989 155.000
51.42984 168.000
51.44979 152.000
51.46973 159.000
51.48968 157.000
51.50963 150.000
51.52957 165.000
51.54952 163.000
51.56947 167.000
51.58942 166.000
51.60936 161.000
51.62931 174.000
51.64926 162.000
51.66920 148.000
51.68915 189.000
51.70910 140.000
51.72904 142.000
51.74899 162.000
51.76894 186.000
51.78888 180.000
51.80883 153.000
51.82878 175.000
51.84873 165.000
51.86867 173.000
51.88862 167.000
51.90857 181.000
51.92851 161.000
51.94846 150.000
51.96841 163.000
51.98835 165.000
52.00830 160.000
52.02825 147.000
52.04820 163.000
52.06814 162.000
52.08809 167.000
52.10804 177.000
52.12798 161.000
52.14793 146.000
52.16788 182.000
52.18782 154.000
52.20777 178.000
52.22772 153.000
52.24767 150.000
52.26761 189.000
52.28756 145.000
52.30751 154.000
52.32745 161.000
52.34740 176.000
52.36735 166.000
52.38729 154.000
52.40724 159.000
52.42719 167.000
52.44713 159.000
52.46708 163.000
52.48703 181.000
52.50698 143.000
52.52692 139.000
52.54687 161.000
52.56682 147.000
52.58676 156.000
52.60671 144.000
52.62666 157.000
52.64660 183.000
52.66655 156.000
52.68650 189.000
52.70645 169.000
52.72639 159.000
52.74634 184.000
52.76629 155.000
52.78623 179.000
52.80618 174.000
52.82613 183.000
52.84607 192.000
52.86602 190.000
52.88597 191.000
52.90591 196.000
52.92586 193.000
52.94581 176.000
52.96576 232.000
52.98570 230.000
53.00565 228.000
53.02560 179.000
53.04554 207.000
53.06549 213.000
53.08544 217.000
53.10538 174.000
53.12533 189.000
53.14528 231.000
53.16523 189.000
53.18517 214.000
53.20512 185.000
53.22507 188.000
53.24501 201.000
53.26496 181.000
53.28491 183.000
53.30485 175.000
53.32480 198.000
53.34475 204.000
53.36469 182.000
53.38464 165.000
53.40459 160.000
53.42454 180.000
53.44448 163.000
53.46443 166.000
53.48438 175.000
53.50432 179.000
53.52427 185.000
53.54422 184.000
53.56416 179.000
53.58411 192.000
53.60406 144.000
53.62401 185.000
53.64395 162.000
53.66390 227.000
53.68385 198.000
53.70379 231.000
53.72374 242.000
53.74369 244.000
53.76363 261.000
53.78358 259.000
53.80353 289.000
53.82348 258.000
53.84342 285.000
53.86337 267.000
53.88332 250.000
53.90326 250.000
53.92321 245.000
53.94316 252.000
53.96310 221.000
53.98305 220.000
54.00300 230.000
54.02294 185.000
54.04289 214.000
54.06284 204.000
54.08279 181.000
54.10273 172.000
54.12268 184.000
54.14263 178.000
54.16257 177.000
54.18252 166.000
54.20247 156.000
54.22241 157.000
54.24236 161.000
54.26231 167.000
54.28226 151.000
54.30220 162.000
54.32215 162.000
54.34210 175.000
54.36204 167.000
54.38199 155.000
54.40194 152.000
54.42188 159.000
54.44183 176.000
54.46178 146.000
54.48172 147.000
54.50167 183.000
54.52162 169.000
54.54157 170.000
54.56151 167.000
54.58146 153.000
54.60141 155.000
54.62135 143.000
54.64130 153.000
54.66125 154.000
54.68119 146.000
54.70114 151.000
54.72109 157.000
54.74104 169.000
54.76098 162.000
54.78093 182.000
54.80088 168.000
54.82082 164.000
54.84077 153.000
54.86072 147.000
54.88066 147.000
54.90061 165.000
54.92056 211.000
54.94050 184.000
54.96045 157.000
54.98040 163.000
55.00035 146.000
55.02029 159.000
55.04024 146.000
55.06019 162.000
55.08013 156.000
55.10008 154.000
55.12003 176.000
55.13997 166.000
55.15992 160.000
55.17987 170.000
55.19982 158.000
55.21976 166.000
55.23971 143.000
55.25966 150.000
55.27960 164.000
55.29955 174.000
55.31950 170.000
55.33944 160.000
55.35939 177.000
55.37934 159.000
55.39929 151.000
55.41923 157.000
55.43918 161.000
55.45913 145.000
55.47907 168.000
55.49902 147.000
55.51897 163.000
55.53891 159.000
55.55886 154.000
55.57881 171.000
55.59875 150.000
55.61870 171.000
55.63865 160.000
55.65860 175.000
55.67854 152.000
55.69849 148.000
55.71844 167.000
55.73838 152.000
55.75833 150.000
55.77828 153.000
55.79822 177.000
55.81817 177.000
55.83812 173.000
55.85807 181.000
55.87801 143.000
55.89796 160.000
55.91791 164.000
55.93785 161.000
55.95780 177.000
55.97775 144.000
55.99769 154.000
56.01764 166.000
56.03759 167.000
56.05753 150.000
56.07748 162.000
56.09743 169.000
56.11738 168.000
56.13732 188.000
56.15727 174.000
56.17722 165.000
56.19716 161.000
56.21711 158.000
56.23706 167.000
56.25700 141.000
56.27695 161.000
56.29690 180.000
56.31685 154.000
56.33679 166.000
56.35674 148.000
56.37669 184.000
56.39663 159.000
56.41658 157.000
56.43653 158.000
56.45647 190.000
56.47642 175.000
56.49637 162.000
56.51631 184.000
56.53626 165.000
56.55621 153.000
56.57616 161.000
56.59610 155.000
56.61605 166.000
56.63600 179.000
56.65594 171.000
56.67589 133.000
56.69584 167.000
56.71578 166.000
56.73573 155.000
56.75568 170.000
56.77563 183.000
56.79557 157.000
56.81552 161.000
56.83547 163.000
56.85541 177.000
56.87536 186.000
56.89531 170.000
56.91525 204.000
56.93520 157.000
56.95515 203.000
56.97510 181.000
56.99504 188.000
57.01499 197.000
57.03494 186.000
57.05488 200.000
57.07483 209.000
57.09478 160.000
57.11472 209.000
57.13467 225.000
57.15462 237.000
57.17456 252.000
57.19451 309.000
57.21446 290.000
57.23441 341.000
57.25435 395.000
57.27430 424.000
57.29425 432.000
57.31419 508.000
57.33414 532.000
57.35409 522.000
57.37403 558.000
57.39398 594.000
57.41393 617.000
57.43388 562.000
57.45382 543.000
57.47377 531.000
57.49372 476.000
57.51366 489.000
57.53361 480.000
57.55356 379.000
57.57350 408.000
57.59345 396.000
57.61340 373.000
57.63334 325.000
57.65329 286.000
57.67324 265.000
57.69319 265.000
57.71313 268.000
57.73308 251.000
57.75303 242.000
57.77297 224.000
57.79292 216.000
57.81287 232.000
57.83281 214.000
57.85276 226.000
57.87271 205.000
57.89266 169.000
57.91260 179.000
57.93255 162.000
57.95250 199.000
57.97244 168.000
57.99239 187.000
58.01234 180.000
58.03228 149.000
58.05223 176.000
58.07218 185.000
58.09212 177.000
58.11207 161.000
58.13202 169.000
58.15197 161.000
58.17191 164.000
58.19186 182.000
58.21181 146.000
58.23175 190.000
58.25170 168.000
58.27165 161.000
58.29159 181.000
58.31154 170.000
58.33149 189.000
58.35144 170.000
58.37138 181.000
58.39133 159.000
58.41128 196.000
58.43122 163.000
58.45117 172.000
58.47112 146.000
58.49106 154.000
58.51101 162.000
58.53096 162.000
58.55090 166.000
58.57085 163.000
58.59080 166.000
58.61075 184.000
58.63069 182.000
58.65064 161.000
58.67059 178.000
58.69053 148.000
58.71048 160.000
58.73043 177.000
58.75037 170.000
58.77032 158.000
58.79027 169.000
58.81022 143.000
58.83016 166.000
58.85011 156.000
58.87006 147.000
58.89000 186.000
58.90995 185.000
58.92990 168.000
58.94984 173.000
58.96979 188.000
58.98974 152.000
59.00969 144.000
59.02963 158.000
59.04958 159.000
59.06953 172.000
59.08947 174.000
59.10942 179.000
59.12937 151.000
59.14931 161.000
59.16926 161.000
59.18921 166.000
59.20915 173.000
59.22910 174.000
59.24905 146.000
59.26900 169.000
59.28894 172.000
59.30889 169.000
59.32884 140.000
59.34878 153.000
59.36873 152.000
59.38868 166.000
59.40862 167.000
59.42857 159.000
59.44852 183.000
59.46847 155.000
59.48841 147.000
59.50836 143.000
59.52831 159.000
59.54825 149.000
59.56820 171.000
59.58815 187.000
59.60809 175.000
59.62804 166.000
59.64799 165.000
59.66793 156.000
59.68788 146.000
59.70783 163.000
59.72778 179.000
59.74772 156.000
59.76767 141.000
59.78762 157.000
59.80756 161.000
59.82751 153.000
59.84746 186.000
59.86740 159.000
59.88735 155.000
59.90730 165.000
59.92725 187.000
59.94719 170.000
59.96714 185.000
59.98709 168.000
60.00703 144.000
60.02698 177.000
60.04693 144.000
60.06687 154.000
60.08682 145.000
60.10677 169.000
60.12671 181.000
60.14666 169.000
60.16661 159.000
60.18656 184.000
60.20650 155.000
60.22645 180.000
60.24640 162.000
60.26634 156.000
60.28629 143.000
60.30624 153.000
60.32618 145.000
60.34613 145.000
60.36608 165.000
60.38603 148.000
60.40597 151.000
60.42592 187.000
60.44587 172.000
60.46581 165.000
60.48576 182.000
60.50571 178.000
60.52565 152.000
60.54560 168.000
60.56555 155.000
60.58550 152.000
60.60544 157.000
60.62539 169.000
60.64534 144.000
60.66528 183.000
60.68523 172.000
60.70518 171.000
60.72512 180.000
60.74507 142.000
60.76502 146.000
60.78496 187.000
60.80491 174.000
60.82486 142.000
60.84481 183.000
60.86475 169.000
60.88470 178.000
60.90465 158.000
60.92459 149.000
60.94454 178.000
60.96449 172.000
60.98443 168.000
61.00438 157.000
61.02433 155.000
61.04428 164.000
61.06422 143.000
61.08417 177.000
61.10412 162.000
61.12406 171.000
61.14401 173.000
61.16396 169.000
61.18390 188.000
61.20385 171.000
61.22380 140.000
61.24374 187.000
61.26369 158.000
61.28364 161.000
61.30359 168.000
61.32353 172.000
61.34348 167.000
61.36343 165.000
61.38337 154.000
61.40332 146.000
61.42327 173.000
61.44321 168.000
61.46316 162.000
61.48311 166.000
61.50306 164.000
61.52300 170.000
61.54295 198.000
61.56290 181.000
61.58284 180.000
61.60279 193.000
61.62274 154.000
61.64268 185.000
61.66263 192.000
61.68258 191.000
61.70252 165.000
61.72247 178.000
61.74242 210.000
61.76237 172.000
61.78231 168.000
61.80226 198.000
61.82221 190.000
61.84215 216.000
61.86210 207.000
61.88205 208.000
61.90199 215.000
61.92194 231.000
61.94189 274.000
61.96184 236.000
61.98178 289.000
62.00173 284.000
62.02168 262.000
62.04162 270.000
62.06157 292.000
62.08152 299.000
62.10146 282.000
62.12141 286.000
62.14136 272.000
62.16131 295.000
62.18125 245.000
62.20120 263.000
62.22115 260.000
62.24109 270.000
62.26104 240.000
62.28099 227.000
62.30093 246.000
62.32088 241.000
62.34083 239.000
62.36077 222.000
62.38072 250.000
62.40067 238.000
62.42062 243.000
62.44056 245.000
62.46051 261.000
62.48046 295.000
62.50040 294.000
62.52035 301.000
62.54030 340.000
62.56024 365.000
62.58019 355.000
62.60014 400.000
62.62009 435.000
62.64003 527.000
62.65998 556.000
62.67993 624.000
62.69987 795.000
62.71982 972.000
62.73977 1115.000
62.75971 1448.000
62.77966 1631.000
62.79961 1712.000
62.81955 1921.000
62.83950 1950.000
62.85945 2067.000
62.87940 1980.000
62.89934 2030.000
62.91929 1910.000
62.93924 1741.000
62.95918 1768.000
62.97913 1729.000
62.99908 1740.000
63.01902 1646.000
63.03897 1549.000
63.05892 1444.000
63.07887 1277.000
63.09881 1105.000
63.11876 909.000
63.13871 781.000
63.15865 724.000
63.17860 714.000
63.19855 618.000
63.21849 588.000
63.23844 505.000
63.25839 519.000
63.27833 425.000
63.29828 355.000
63.31823 354.000
63.33818 347.000
63.35812 306.000
63.37807 310.000
63.39802 295.000
63.41796 255.000
63.43791 260.000
63.45786 252.000
63.47780 267.000
63.49775 258.000
63.51770 239.000
63.53765 256.000
63.55759 245.000
63.57754 240.000
63.59749 227.000
63.61743 253.000
63.63738 214.000
63.65733 190.000
63.67727 208.000
63.69722 180.000
63.71717 185.000
63.73712 208.000
63.75706 187.000
63.77701 214.000
63.79696 215.000
63.81690 201.000
63.83685 197.000
63.85680 202.000
63.87674 181.000
63.89669 203.000
63.91664 229.000
63.93658 225.000
63.95653 213.000
63.97648 250.000
63.99643 217.000
64.01637 220.000
64.03632 257.000
64.05627 223.000
64.07621 201.000
64.09616 235.000
64.11611 260.000
64.13605 240.000
64.15600 229.000
64.17595 233.000
64.19590 214.000
64.21584 213.000
64.23579 231.000
64.25574 221.000
64.27568 200.000
64.29563 229.000
64.31558 217.000
64.33552 206.000
64.35547 225.000
64.37542 214.000
64.39536 202.000
64.41531 209.000
64.43526 202.000
64.45521 225.000
64.47515 209.000
64.49510 203.000
64.51505 223.000
64.53499 209.000
64.55494 205.000
64.57489 219.000
64.59483 191.000
64.61478 202.000
64.63473 203.000
64.65468 205.000
64.67462 205.000
64.69457 192.000
64.71452 198.000
64.73446 167.000
64.75441 198.000
64.77436 173.000
64.79430 192.000
64.81425 171.000
64.83420 179.000
64.85414 175.000
64.87409 170.000
64.89404 175.000
64.91399 179.000
64.93393 177.000
64.95388 190.000
64.97383 171.000
64.99377 184.000
65.01372 171.000
65.03367 159.000
65.05361 167.000
65.07356 171.000
65.09351 159.000
65.11346 168.000
65.13340 172.000
65.15335 145.000
65.17330 189.000
65.19324 174.000
65.21319 154.000
65.23314 157.000
65.25308 145.000
65.27303 171.000
65.29298 180.000
65.31293 182.000
65.33287 177.000
65.35282 159.000
65.37277 188.000
65.39271 171.000
65.41266 161.000
65.43261 182.000
65.45255 149.000
65.47250 163.000
65.49245 150.000
65.51239 190.000
65.53234 172.000
65.55229 172.000
65.57224 172.000
65.59218 188.000
65.61213 157.000
65.63208 213.000
65.65202 158.000
65.67197 162.000
65.69192 192.000
65.71186 170.000
65.73181 178.000
65.75176 178.000
65.77171 216.000
65.79165 192.000
65.81160 214.000
65.83155 186.000
65.85149 188.000
65.87144 191.000
65.89139 175.000
65.91133 194.000
65.93128 195.000
65.95123 225.000
65.97117 196.000
65.99112 189.000
66.01107 204.000
66.03102 188.000
66.05096 188.000
66.07091 198.000
66.09086 197.000
66.11080 200.000
66.13075 202.000
66.15070 194.000
66.17064 183.000
66.19059 185.000
66.21054 210.000
66.23049 225.000
66.25043 177.000
66.27038 231.000
66.29033 190.000
66.31027 206.000
66.33022 211.000
66.35017 243.000
66.37011 188.000
66.39006 205.000
66.41001 204.000
66.42995 212.000
66.44990 200.000
66.46985 189.000
66.48980 204.000
66.50974 201.000
66.52969 217.000
66.54964 196.000
66.56958 189.000
66.58953 183.000
66.60948 202.000
66.62942 209.000
66.64937 197.000
66.66932 211.000
66.68927 218.000
66.70921 184.000
66.72916 194.000
66.74911 178.000
66.76905 196.000
66.78900 193.000
66.80895 211.000
66.82889 212.000
66.84884 208.000
66.86879 205.000
66.88874 194.000
66.90868 217.000
66.92863 196.000
66.94858 191.000
66.96852 203.000
66.98847 185.000
67.00842 199.000
67.02836 179.000
67.04831 195.000
67.06826 193.000
67.08820 194.000
67.10815 215.000
67.12810 200.000
67.14805 188.000
67.16799 173.000
67.18794 177.000
67.20789 162.000
67.22783 160.000
67.24778 176.000
67.26773 171.000
67.28767 180.000
67.30762 172.000
67.32757 152.000
67.34752 169.000
67.36746 144.000
67.38741 168.000
67.40736 164.000
67.42730 154.000
67.44725 179.000
67.46720 148.000
67.48714 145.000
67.50709 167.000
67.52704 152.000
67.54698 157.000
67.56693 157.000
67.58688 160.000
67.60683 158.000
67.62677 194.000
67.64672 165.000
67.66667 180.000
67.68661 172.000
67.70656 162.000
67.72651 191.000
67.74645 169.000
67.76640 191.000
67.78635 165.000
67.80630 176.000
67.82624 184.000
67.84619 168.000
67.86614 175.000
67.88608 181.000
67.90603 166.000
67.92598 162.000
67.94592 173.000
67.96587 185.000
67.98582 168.000
68.00576 154.000
68.02571 167.000
68.04566 172.000
68.06561 159.000
68.08555 171.000
68.10550 171.000
68.12545 177.000
68.14539 167.000
68.16534 193.000
68.18529 166.000
68.20523 166.000
68.22518 175.000
68.24513 169.000
68.26508 178.000
68.28502 165.000
68.30497 140.000
68.32492 162.000
68.34486 148.000
68.36481 155.000
68.38476 173.000
68.40470 162.000
68.42465 174.000
68.44460 201.000
68.46455 169.000
68.48449 156.000
68.50444 163.000
68.52439 173.000
68.54433 143.000
68.56428 147.000
68.58423 163.000
68.60417 170.000
68.62412 148.000
68.64407 171.000
68.66401 150.000
68.68396 156.000
68.70391 175.000
68.72386 174.000
68.74380 166.000
68.76375 148.000
68.78370 162.000
68.80364 169.000
68.82359 191.000
68.84354 171.000
68.86348 157.000
68.88343 139.000
68.90338 152.000
68.92333 181.000
68.94327 151.000
68.96322 149.000
68.98317 181.000
69.00311 154.000
69.02306 177.000
69.04301 163.000
69.06295 176.000
69.08290 165.000
69.10285 149.000
69.12279 188.000
69.14274 159.000
69.16269 160.000
69.18264 177.000
69.20258 139.000
69.22253 161.000
69.24248 158.000
69.26242 149.000
69.28237 161.000
69.30232 159.000
69.32226 169.000
69.34221 163.000
69.36216 168.000
69.38211 173.000
69.40205 148.000
69.42200 147.000
69.44195 157.000
69.46189 180.000
69.48184 150.000
69.50179 161.000
69.52173 151.000
69.54168 158.000
69.56163 152.000
69.58157 154.000
69.60152 174.000
69.62147 160.000
69.64142 163.000
69.66136 154.000
69.68131 157.000
69.70126 147.000
69.72120 163.000
69.74115 164.000
69.76110 146.000
69.78104 142.000
69.80099 154.000
69.82094 155.000
69.84089 164.000
69.86083 162.000
69.88078 164.000
69.90073 142.000
69.92067 165.000
69.94062 164.000
69.96057 152.000
69.98051 135.000
70.00046 195.000
70.02041 137.000
70.04035 142.000
70.06030 143.000
70.08025 158.000
70.10020 153.000
70.12014 179.000
70.14009 171.000
70.16004 142.000
70.17998 157.000
70.19993 162.000
70.21988 138.000
70.23982 158.000
70.25977 152.000
70.27972 157.000
70.29967 164.000
70.31961 166.000
70.33956 168.000
70.35951 150.000
70.37945 145.000
70.39940 154.000
70.41935 136.000
70.43929 147.000
70.45924 160.000
70.47919 185.000
70.49914 179.000
70.51908 144.000
70.53903 163.000
70.55898 160.000
70.57892 157.000
70.59887 184.000
70.61882 169.000
70.63876 161.000
70.65871 154.000
70.67866 148.000
70.69860 163.000
70.71855 153.000
70.73850 173.000
70.75845 148.000
70.77839 150.000
70.79834 159.000
70.81829 142.000
70.83823 152.000
70.85818 149.000
70.87813 148.000
70.89807 151.000
70.91802 155.000
70.93797 139.000
70.95792 166.000
70.97786 139.000
70.99781 153.000
71.01776 130.000
71.03770 191.000
71.05765 146.000
71.07760 162.000
71.09754 164.000
71.11749 155.000
71.13744 149.000
71.15738 165.000
71.17733 158.000
71.19728 141.000
71.21723 160.000
71.23717 171.000
71.25712 167.000
71.27707 155.000
71.29701 189.000
71.31696 187.000
71.33691 165.000
71.35685 189.000
71.37680 187.000
71.39675 156.000
71.41670 178.000
71.43664 197.000
71.45659 169.000
71.47654 179.000
71.49648 185.000
71.51643 183.000
71.53638 186.000
71.55632 199.000
71.57627 198.000
71.59622 182.000
71.61616 190.000
71.63611 174.000
71.65606 172.000
71.67601 207.000
71.69595 192.000
71.71590 163.000
71.73585 162.000
71.75579 153.000
71.77574 189.000
71.79569 143.000
71.81563 160.000
71.83558 178.000
71.85553 164.000
71.87548 140.000
71.89542 151.000
71.91537 168.000
71.93532 158.000
71.95526 170.000
71.97521 173.000
71.99516 143.000
72.01510 174.000
72.03505 138.000
72.05500 156.000
72.07495 154.000
72.09489 150.000
72.11484 142.000
72.13479 169.000
72.15473 174.000
72.17468 153.000
72.19463 168.000
72.21457 155.000
72.23452 174.000
72.25447 156.000
72.27441 159.000
72.29436 146.000
72.31431 170.000
72.33426 162.000
72.35420 177.000
72.37415 162.000
72.39410 164.000
72.41404 160.000
72.43399 139.000
72.45394 156.000
72.47388 147.000
72.49383 162.000
72.51378 161.000
72.53373 156.000
72.55367 158.000
72.57362 162.000
72.59357 174.000
72.61351 177.000
72.63346 159.000
72.65341 167.000
72.67335 167.000
72.69330 153.000
72.71325 164.000
72.73319 141.000
72.75314 150.000
72.77309 149.000
72.79304 135.000
72.81298 161.000
72.83293 160.000
72.85288 162.000
72.87282 151.000
72.89277 176.000
72.91272 179.000
72.93266 179.000
72.95261 179.000
72.97256 169.000
72.99251 188.000
73.01245 174.000
73.03240 182.000
73.05235 171.000
73.07229 173.000
73.09224 182.000
73.11219 163.000
73.13213 213.000
73.15208 167.000
73.17203 138.000
73.19197 197.000
73.21192 178.000
73.23187 176.000
73.25182 197.000
73.27176 186.000
73.29171 193.000
73.31166 208.000
73.33160 202.000
73.35155 188.000
73.37150 189.000
73.39144 190.000
73.41139 184.000
73.43134 204.000
73.45129 189.000
73.47123 188.000
73.49118 203.000
73.51113 177.000
73.53107 191.000
73.55102 187.000
73.57097 194.000
73.59091 156.000
73.61086 178.000
73.63081 187.000
73.65076 171.000
73.67070 198.000
73.69065 184.000
73.71060 195.000
73.73054 178.000
73.75049 194.000
73.77044 174.000
73.79038 179.000
73.81033 168.000
73.83028 169.000
73.85022 171.000
73.87017 168.000
73.89012 169.000
73.91007 179.000
73.93001 170.000
73.94996 206.000
73.96991 164.000
73.98985 161.000
74.00980 158.000
74.02975 187.000
74.04969 165.000
74.06964 170.000
74.08959 165.000
74.10954 155.000
74.12948 153.000
74.14943 171.000
74.16938 169.000
74.18932 163.000
74.20927 164.000
74.22922 180.000
74.24916 178.000
74.26911 161.000
74.28906 185.000
74.30900 184.000
74.32895 198.000
74.34890 174.000
74.36885 179.000
74.38879 191.000
74.40874 195.000
74.42869 193.000
74.44863 246.000
74.46858 255.000
74.48853 214.000
74.50847 248.000
74.52842 237.000
74.54837 238.000
74.56832 246.000
74.58826 252.000
74.60821 242.000
74.62816 281.000
74.64810 226.000
74.66805 255.000
74.68800 242.000
74.70794 225.000
74.72789 238.000
74.74784 238.000
74.76778 241.000
74.78773 212.000
74.80768 226.000
74.82763 212.000
74.84757 229.000
74.86752 225.000
74.88747 238.000
74.90741 201.000
74.92736 204.000
74.94731 210.000
74.96725 209.000
74.98720 205.000
75.00715 204.000
75.02710 215.000
75.04704 194.000
75.06699 233.000
75.08694 233.000
75.10688 273.000
75.12683 229.000
75.14678 280.000
75.16672 282.000
75.18667 307.000
75.20662 359.000
75.22657 433.000
75.24651 481.000
75.26646 574.000
75.28641 588.000
75.30635 576.000
75.32630 715.000
75.34625 701.000
75.36619 719.000
75.38614 695.000
75.40609 653.000
75.42603 603.000
75.44598 627.000
75.46593 574.000
75.48588 526.000
75.50582 586.000
75.52577 517.000
75.54572 482.000
75.56566 506.000
75.58561 491.000
75.60556 494.000
75.62550 479.000
75.64545 402.000
75.66540 387.000
75.68535 371.000
75.70529 328.000
75.72524 288.000
75.74519 269.000
75.76513 261.000
75.78508 259.000
75.80503 221.000
75.82497 221.000
75.84492 199.000
75.86487 186.000
75.88481 198.000
75.90476 181.000
75.92471 213.000
75.94466 178.000
75.96460 159.000
75.98455 176.000
76.00450 198.000
76.02444 204.000
76.04439 171.000
76.06434 201.000
76.08428 191.000
76.10423 178.000
76.12418 175.000
76.14413 175.000
76.16407 181.000
76.18402 172.000
76.20397 166.000
76.22391 150.000
76.24386 167.000
76.26381 159.000
76.28375 137.000
76.30370 160.000
76.32365 152.000
76.34359 171.000
76.36354 185.000
76.38349 164.000
76.40344 168.000
76.42338 156.000
76.44333 159.000
76.46328 159.000
76.48322 156.000
76.50317 167.000
76.52312 155.000
76.54306 139.000
76.56301 187.000
76.58296 153.000
76.60291 144.000
76.62285 152.000
76.64280 149.000
76.66275 166.000
76.68269 173.000
76.70264 155.000
76.72259 138.000
76.74253 162.000
76.76248 155.000
76.78243 152.000
76.80238 164.000
76.82232 175.000
76.84227 169.000
76.86222 178.000
76.88216 191.000
76.90211 153.000
76.92206 156.000
76.94200 156.000
76.96195 158.000
76.98190 151.000
77.00184 160.000
77.02179 159.000
77.04174 156.000
77.06169 160.000
77.08163 139.000
77.10158 143.000
77.12153 177.000
77.14147 168.000
77.16142 160.000
77.18137 154.000
77.20131 153.000
77.22126 156.000
77.24121 155.000
77.26116 171.000
77.28110 159.000
77.30105 153.000
77.32100 155.000
77.34094 151.000
77.36089 142.000
77.38084 160.000
77.40078 161.000
77.42073 151.000
77.44068 155.000
77.46062 144.000
77.48057 159.000
77.50052 163.000
77.52047 162.000
77.54041 173.000
77.56036 166.000
77.58031 171.000
77.60025 163.000
77.62020 181.000
77.64015 166.000
77.66009 165.000
77.68004 156.000
77.69999 191.000
77.71994 181.000
77.73988 147.000
77.75983 162.000
77.77978 169.000
77.79972 177.000
77.81967 182.000
77.83962 190.000
77.85956 145.000
77.87951 178.000
77.89946 151.000
77.91940 195.000
77.93935 168.000
77.95930 189.000
77.97925 153.000
77.99919 182.000
78.01914 171.000
78.03909 163.000
78.05903 178.000
78.07898 185.000
78.09893 188.000
78.11887 179.000
78.13882 204.000
78.15877 179.000
78.17872 187.000
78.19866 181.000
78.21861 180.000
78.23856 191.000
78.25850 163.000
78.27845 181.000
78.29840 203.000
78.31834 195.000
78.33829 214.000
78.35824 190.000
78.37819 205.000
78.39813 191.000
78.41808 184.000
78.43803 197.000
78.45797 191.000
78.47792 186.000
78.49787 180.000
78.51781 213.000
78.53776 152.000
78.55771 195.000
78.57765 171.000
78.59760 177.000
78.61755 182.000
78.63750 159.000
78.65744 166.000
78.67739 194.000
78.69734 196.000
78.71728 192.000
78.73723 189.000
78.75718 197.000
78.77712 173.000
78.79707 177.000
78.81702 190.000
78.83697 214.000
78.85691 192.000
78.87686 220.000
78.89681 167.000
78.91675 184.000
78.93670 177.000
78.95665 190.000
78.97659 208.000
78.99654 207.000
79.01649 198.000
79.03643 199.000
79.05638 219.000
79.07633 216.000
79.09628 214.000
79.11622 255.000
79.13617 284.000
79.15612 259.000
79.17606 297.000
79.19601 328.000
79.21596 395.000
79.23590 409.000
79.25585 459.000
79.27580 484.000
79.29575 473.000
79.31569 556.000
79.33564 525.000
79.35559 503.000
79.37553 525.000
79.39548 503.000
79.41543 464.000
79.43537 509.000
79.45532 472.000
79.47527 456.000
79.49521 423.000
79.51516 471.000
79.53511 426.000
79.55506 417.000
79.57500 422.000
79.59495 374.000
79.61490 396.000
79.63484 330.000
79.65479 345.000
79.67474 287.000
79.69468 284.000
79.71463 255.000
79.73458 225.000
79.75453 255.000
79.77447 260.000
79.79442 242.000
79.81437 208.000
79.83431 204.000
79.85426 195.000
79.87421 189.000
79.89415 164.000
79.91410 162.000
79.93405 184.000
79.95399 163.000
79.97394 190.000
79.99389 161.000
80.01384 183.000
80.03378 168.000
80.05373 142.000
80.07368 176.000
80.09362 167.000
80.11357 162.000
80.13352 182.000
80.15346 158.000
80.17341 160.000
80.19336 152.000
80.21331 164.000
80.23325 158.000
80.25320 150.000
80.27315 182.000
80.29309 141.000
80.31304 175.000
80.33299 179.000
80.35293 152.000
80.37288 183.000
80.39283 151.000
80.41278 161.000
80.43272 146.000
80.45267 154.000
80.47262 156.000
80.49256 163.000
80.51251 147.000
80.53246 171.000
80.55240 156.000
80.57235 174.000
80.59230 159.000
80.61224 172.000
80.63219 159.000
80.65214 163.000
80.67209 165.000
80.69203 168.000
80.71198 163.000
80.73193 159.000
80.75187 156.000
80.77182 147.000
80.79177 151.000
80.81171 167.000
80.83166 132.000
80.85161 159.000
80.87156 160.000
80.89150 186.000
80.91145 139.000
80.93140 148.000
80.95134 176.000
80.97129 142.000
80.99124 155.000
81.01118 150.000
81.03113 157.000
81.05108 177.000
81.07102 133.000
81.09097 157.000
81.11092 169.000
81.13087 156.000
81.15081 177.000
81.17076 160.000
81.19071 159.000
81.21065 154.000
81.23060 176.000
81.25055 155.000
81.27049 143.000
81.29044 153.000
81.31039 155.000
81.33034 158.000
81.35028 146.000
81.37023 154.000
81.39018 157.000
81.41012 144.000
81.43007 166.000
81.45002 147.000
81.46996 175.000
81.48991 141.000
81.50986 166.000
81.52980 161.000
81.54975 142.000
81.56970 154.000
81.58965 164.000
81.60959 140.000
81.62954 169.000
81.64949 137.000
81.66943 163.000
81.68938 198.000
81.70933 163.000
81.72927 172.000
81.74922 160.000
81.76917 131.000
81.78912 162.000
81.80906 172.000
81.82901 139.000
81.84896 153.000
81.86890 159.000
81.88885 153.000
81.90880 144.000
81.92874 173.000
81.94869 167.000
81.96864 154.000
81.98859 161.000
82.00853 147.000
82.02848 154.000
82.04843 153.000
82.06837 157.000
82.08832 164.000
82.10827 142.000
82.12821 143.000
82.14816 155.000
82.16811 175.000
82.18805 164.000
82.20800 152.000
82.22795 143.000
82.24790 139.000
82.26784 162.000
82.28779 144.000
82.30774 142.000
82.32768 143.000
82.34763 180.000
82.36758 150.000
82.38752 167.000
82.40747 157.000
82.42742 169.000
82.44737 137.000
82.46731 163.000
82.48726 154.000
82.50721 162.000
82.52715 153.000
82.54710 159.000
82.56705 176.000
82.58699 163.000
82.60694 148.000
82.62689 169.000
82.64683 170.000
82.66678 161.000
82.68673 183.000
82.70668 128.000
82.72662 160.000
82.74657 154.000
82.76652 162.000
82.78646 151.000
82.80641 165.000
82.82636 154.000
82.84630 176.000
82.86625 165.000
82.88620 161.000
82.90615 157.000
82.92609 145.000
82.94604 145.000
82.96599 154.000
82.98593 133.000
83.00588 151.000
83.02583 149.000
83.04577 146.000
83.06572 157.000
83.08567 141.000
83.10561 163.000
83.12556 142.000
83.14551 158.000
83.16546 156.000
83.18540 152.000
83.20535 152.000
83.22530 167.000
83.24524 125.000
83.26519 155.000
83.28514 133.000
83.30508 163.000
83.32503 149.000
83.34498 159.000
83.36493 131.000
83.38487 159.000
83.40482 144.000
83.42477 163.000
83.44471 182.000
83.46466 141.000
83.48461 162.000
83.50455 152.000
83.52450 160.000
83.54445 162.000
83.56440 147.000
83.58434 153.000
83.60429 160.000
83.62424 153.000
83.64418 172.000
83.66413 159.000
83.68408 151.000
83.70402 144.000
83.72397 145.000
83.74392 166.000
83.76386 152.000
83.78381 143.000
83.80376 167.000
83.82371 172.000
83.84365 150.000
83.86360 153.000
83.88355 151.000
83.90349 176.000
83.92344 177.000
83.94339 177.000
83.96333 158.000
83.98328 141.000
84.00323 169.000
84.02318 132.000
84.04312 175.000
84.06307 157.000
84.08302 146.000
84.10296 181.000
84.12291 148.000
84.14286 167.000
84.16280 175.000
84.18275 155.000
84.20270 179.000
84.22264 174.000
84.24259 164.000
84.26254 159.000
84.28249 147.000
84.30243 180.000
84.32238 157.000
84.34233 139.000
84.36227 173.000
84.38222 167.000
84.40217 168.000
84.42211 170.000
84.44206 174.000
84.46201 178.000
84.48196 169.000
84.50190 196.000
84.52185 150.000
84.54180 159.000
84.56174 161.000
84.58169 174.000
84.60164 176.000
84.62158 202.000
84.64153 183.000
84.66148 160.000
84.68142 169.000
84.70137 161.000
84.72132 172.000
84.74127 181.000
84.76121 166.000
84.78116 160.000
84.80111 168.000
84.82105 170.000
84.84100 174.000
84.86095 179.000
84.88089 159.000
84.90084 184.000
84.92079 174.000
84.94074 150.000
84.96068 172.000
84.98063 160.000
85.00058 159.000
85.02052 171.000
85.04047 147.000
85.06042 166.000
85.08036 152.000
85.10031 151.000
85.12026 153.000
85.14021 151.000
85.16015 141.000
85.18010 156.000
85.20005 174.000
85.21999 147.000
85.23994 140.000
85.25989 164.000
85.27983 142.000
85.29978 154.000
85.31973 154.000
85.33967 170.000
85.35962 154.000
85.37957 155.000
85.39952 174.000
85.41946 171.000
85.43941 148.000
85.45936 148.000
85.47930 149.000
85.49925 177.000
85.51920 158.000
85.53914 168.000
85.55909 165.000
85.57904 165.000
85.59899 146.000
85.61893 136.000
85.63888 157.000
85.65883 160.000
85.67877 153.000
85.69872 138.000
85.71867 136.000
85.73861 151.000
85.75856 153.000
85.77851 129.000
85.79845 131.000
85.81840 176.000
85.83835 152.000
85.85830 160.000
85.87824 130.000
85.89819 155.000
85.91814 152.000
85.93808 144.000
85.95803 160.000
85.97798 150.000
85.99792 148.000
86.01787 171.000
86.03782 163.000
86.05777 145.000
86.07771 147.000
86.09766 156.000
86.11761 143.000
86.13755 147.000
86.15750 168.000
86.17745 132.000
86.19739 145.000
86.21734 145.000
86.23729 145.000
86.25723 153.000
86.27718 143.000
86.29713 172.000
86.31708 143.000
86.33702 147.000
86.35697 149.000
86.37692 154.000
86.39686 147.000
86.41681 150.000
86.43676 154.000
86.45670 141.000
86.47665 143.000
86.49660 140.000
86.51655 147.000
86.53649 136.000
86.55644 157.000
86.57639 158.000
86.59633 163.000
86.61628 164.000
86.63623 150.000
86.65617 172.000
86.67612 148.000
86.69607 152.000
86.71602 155.000
86.73596 161.000
86.75591 131.000
86.77586 141.000
86.79580 148.000
86.81575 159.000
86.83570 184.000
86.85564 162.000
86.87559 144.000
86.89554 163.000
86.91548 142.000
86.93543 137.000
86.95538 147.000
86.97533 148.000
86.99527 180.000
87.01522 160.000
87.03517 181.000
87.05511 156.000
87.07506 166.000
87.09501 164.000
87.11495 167.000
87.13490 170.000
87.15485 173.000
87.17480 153.000
87.19474 181.000
87.21469 213.000
87.23464 178.000
87.25458 173.000
87.27453 191.000
87.29448 192.000
87.31442 184.000
87.33437 213.000
87.35432 189.000
87.37426 197.000
87.39421 197.000
87.41416 182.000
87.43411 197.000
87.45405 180.000
87.47400 187.000
87.49395 191.000
87.51389 167.000
87.53384 199.000
87.55379 203.000
87.57373 188.000
87.59368 167.000
87.61363 186.000
87.63358 168.000
87.65352 169.000
87.67347 164.000
87.69342 172.000
87.71336 172.000
87.73331 184.000
87.75326 182.000
87.77320 181.000
87.79315 165.000
87.81310 174.000
87.83304 161.000
87.85299 180.000
87.87294 180.000
87.89289 149.000
87.91283 152.000
87.93278 183.000
87.95273 154.000
87.97267 150.000
87.99262 156.000
88.01257 167.000
88.03251 148.000
88.05246 181.000
88.07241 129.000
88.09236 158.000
88.11230 145.000
88.13225 147.000
88.15220 157.000
88.17214 181.000
88.19209 145.000
88.21204 157.000
88.23198 154.000
88.25193 153.000
88.27188 161.000
88.29183 138.000
88.31177 146.000
88.33172 129.000
88.35167 154.000
88.37161 137.000
88.39156 162.000
88.41151 160.000
88.43145 142.000
88.45140 159.000
88.47135 172.000
88.49129 153.000
88.51124 156.000
88.53119 151.000
88.55114 131.000
88.57108 162.000
88.59103 156.000
88.61098 131.000
88.63092 138.000
88.65087 152.000
88.67082 161.000
88.69076 140.000
88.71071 148.000
88.73066 151.000
88.75061 149.000
88.77055 172.000
88.79050 135.000
88.81045 150.000
88.83039 146.000
88.85034 163.000
88.87029 168.000
88.89023 173.000
88.91018 153.000
88.93013 128.000
88.95007 145.000
88.97002 152.000
88.98997 152.000
89.00992 158.000
89.02986 136.000
89.04981 156.000
89.06976 158.000
89.08970 151.000
89.10965 161.000
89.12960 141.000
89.14954 145.000
89.16949 123.000
89.18944 151.000
89.20939 153.000
89.22933 160.000
89.24928 162.000
89.26923 157.000
89.28917 172.000
89.30912 147.000
89.32907 153.000
89.34901 144.000
89.36896 152.000
89.38891 137.000
89.40885 156.000
89.42880 131.000
89.44875 152.000
89.46870 165.000
89.48864 153.000
89.50859 162.000
89.52854 162.000
89.54848 164.000
89.56843 156.000
89.58838 165.000
89.60832 154.000
89.62827 167.000
89.64822 150.000
89.66817 158.000
89.68811 178.000
89.70806 177.000
89.72801 182.000
89.74795 154.000
89.76790 162.000
89.78785 141.000
89.80779 183.000
89.82774 160.000
89.84769 140.000
89.86764 163.000
89.88758 164.000
89.90753 174.000
89.92748 167.000
89.94742 158.000
89.96737 155.000
89.98732 162.000
90.00726 156.000
