10.00000 144.000
10.01995 115.000
10.03989 129.000
10.05984 155.000
10.07979 133.000
10.09973 145.000
10.11968 137.000
10.13963 148.000
10.15958 126.000
10.17952 103.000
10.19947 147.000
10.21942 127.000
10.23936 125.000
10.25931 146.000
10.27926 142.000
10.29920 129.000
10.31915 136.000
10.33910 137.000
10.35905 150.000
10.37899 137.000
10.39894 120.000
10.41889 147.000
10.43883 128.000
10.45878 132.000
10.47873 129.000
10.49867 129.000
10.51862 147.000
10.53857 142.000
10.55851 144.000
10.57846 138.000
10.59841 155.000
10.61836 139.000
10.63830 141.000
10.65825 135.000
10.67820 150.000
10.69814 135.000
10.71809 147.000
10.73804 133.000
10.75798 125.000
10.77793 120.000
10.79788 127.000
10.81783 134.000
10.83777 125.000
10.85772 133.000
10.87767 131.000
10.89761 125.000
10.91756 163.000
10.93751 122.000
10.95745 143.000
10.97740 124.000
10.99735 133.000
11.01730 154.000
11.03724 132.000
11.05719 138.000
11.07714 131.000
11.09708 151.000
11.11703 149.000
11.13698 134.000
11.15692 141.000
11.17687 157.000
11.19682 135.000
11.21676 135.000
11.23671 151.000
11.25666 135.000
11.27661 139.000
11.29655 134.000
11.31650 132.000
11.33645 114.000
11.35639 139.000
11.37634 131.000
11.39629 140.000
11.41623 124.000
11.43618 124.000
11.45613 131.000
11.47608 129.000
11.49602 156.000
11.51597 134.000
11.53592 128.000
11.55586 170.000
11.57581 134.000
11.59576 135.000
11.61570 138.000
11.63565 138.000
11.65560 139.000
11.67554 133.000
11.69549 131.000
11.71544 133.000
11.73539 149.000
11.75533 117.000
11.77528 155.000
11.79523 141.000
11.81517 126.000
11.83512 149.000
11.85507 144.000
11.87501 125.000
11.89496 134.000
11.91491 163.000
11.93486 160.000
11.95480 158.000
11.97475 135.000
11.99470 162.000
12.01464 144.000
12.03459 127.000
12.05454 135.000
12.07448 149.000
12.09443 129.000
12.11438 149.000
12.13432 150.000
12.15427 143.000
12.17422 131.000
12.19417 146.000
12.21411 136.000
12.23406 147.000
12.25401 148.000
12.27395 139.000
12.29390 135.000
12.31385 139.000
12.33379 143.000
12.35374 133.000
12.37369 127.000
12.39364 152.000
12.41358 151.000
12.43353 153.000
12.45348 140.000
12.47342 157.000
12.49337 136.000
12.51332 152.000
12.53326 150.000
12.55321 158.000
12.57316 141.000
12.59311 126.000
12.61305 147.000
12.63300 134.000
12.65295 150.000
12.67289 157.000
12.69284 143.000
12.71279 155.000
12.73273 153.000
12.75268 127.000
12.77263 142.000
12.79257 137.000
12.81252 142.000
12.83247 154.000
12.85242 121.000
12.87236 152.000
12.89231 147.000
12.91226 164.000
12.93220 159.000
12.95215 129.000
12.97210 133.000
12.99204 130.000
13.01199 138.000
13.03194 117.000
13.05189 151.000
13.07183 161.000
13.09178 143.000
13.11173 148.000
13.13167 147.000
13.15162 150.000
13.17157 151.000
13.19151 151.000
13.21146 151.000
13.23141 157.000
13.25135 145.000
13.27130 128.000
13.29125 155.000
13.31120 162.000
13.33114 145.000
13.35109 146.000
13.37104 160.000
13.39098 138.000
13.41093 146.000
13.43088 176.000
13.45082 166.000
13.47077 152.000
13.49072 158.000
13.51067 151.000
13.53061 151.000
13.55056 168.000
13.57051 146.000
13.59045 149.000
13.61040 161.000
13.63035 140.000
13.65029 164.000
13.67024 132.000
13.69019 159.000
13.71013 131.000
13.73008 139.000
13.75003 157.000
13.76998 159.000
13.78992 151.000
13.80987 141.000
13.82982 137.000
13.84976 143.000
13.86971 141.000
13.88966 172.000
13.90960 159.000
13.92955 149.000
13.94950 143.000
13.96945 168.000
13.98939 143.000
14.00934 142.000
14.02929 148.000
14.04923 144.000
14.06918 159.000
14.08913 163.000
14.10907 165.000
14.12902 159.000
14.14897 149.000
14.16892 135.000
14.18886 159.000
14.20881 141.000
14.22876 149.000
14.24870 168.000
14.26865 146.000
14.28860 172.000
14.30854 160.000
14.32849 168.000
14.34844 163.000
14.36838 173.000
14.38833 135.000
14.40828 175.000
14.42823 162.000
14.44817 160.000
14.46812 189.000
14.48807 133.000
14.50801 183.000
14.52796 145.000
14.54791 134.000
14.56785 154.000
14.58780 136.000
14.60775 142.000
14.62770 173.000
14.64764 158.000
14.66759 161.000
14.68754 158.000
14.70748 147.000
14.72743 162.000
14.74738 149.000
14.76732 145.000
14.78727 184.000
14.80722 148.000
14.82716 181.000
14.84711 163.000
14.86706 146.000
14.88701 157.000
14.90695 160.000
14.92690 173.000
14.94685 166.000
14.96679 179.000
14.98674 165.000
15.00669 158.000
15.02663 181.000
15.04658 167.000
15.06653 165.000
15.08648 177.000
15.10642 171.000
15.12637 139.000
15.14632 186.000
15.16626 179.000
15.18621 195.000
15.20616 183.000
15.22610 203.000
15.24605 183.000
15.26600 178.000
15.28594 189.000
15.30589 195.000
15.32584 209.000
15.34579 183.000
15.36573 197.000
15.38568 180.000
15.40563 194.000
15.42557 212.000
15.44552 217.000
15.46547 210.000
15.48541 189.000
15.50536 232.000
15.52531 194.000
15.54526 240.000
15.56520 218.000
15.58515 258.000
15.60510 248.000
15.62504 274.000
15.64499 242.000
15.66494 310.000
15.68488 299.000
15.70483 345.000
15.72478 435.000
15.74472 517.000
15.76467 658.000
15.78462 997.000
15.80457 1378.000
15.82451 2131.000
15.84446 3227.000
15.86441 3937.000
15.88435 4543.000
15.90430 4322.000
15.92425 3943.000
15.94419 3980.000
15.96414 4030.000
15.98409 3782.000
16.00404 3138.000
16.02398 2323.000
16.04393 1514.000
16.06388 900.000
16.08382 541.000
16.10377 416.000
16.12372 339.000
16.14366 304.000
16.16361 307.000
16.18356 279.000
16.20351 254.000
16.22345 230.000
16.24340 250.000
16.26335 242.000
16.28329 223.000
16.30324 222.000
16.32319 215.000
16.34313 218.000
16.36308 210.000
16.38303 203.000
16.40297 219.000
16.42292 178.000
16.44287 192.000
16.46282 206.000
16.48276 170.000
16.50271 198.000
16.52266 177.000
16.54260 186.000
16.56255 178.000
16.58250 191.000
16.60244 172.000
16.62239 160.000
16.64234 186.000
16.66229 175.000
16.68223 170.000
16.70218 184.000
16.72213 197.000
16.74207 183.000
16.76202 201.000
16.78197 188.000
16.80191 183.000
16.82186 183.000
16.84181 214.000
16.86175 200.000
16.88170 215.000
16.90165 182.000
16.92160 221.000
16.94154 198.000
16.96149 183.000
16.98144 184.000
17.00138 167.000
17.02133 161.000
17.04128 178.000
17.06122 177.000
17.08117 181.000
17.10112 166.000
17.12107 173.000
17.14101 147.000
17.16096 178.000
17.18091 176.000
17.20085 162.000
17.22080 187.000
17.24075 197.000
17.26069 193.000
17.28064 169.000
17.30059 166.000
17.32053 183.000
17.34048 162.000
17.36043 166.000
17.38038 184.000
17.40032 188.000
17.42027 171.000
17.44022 163.000
17.46016 163.000
17.48011 167.000
17.50006 157.000
17.52000 178.000
17.53995 170.000
17.55990 178.000
17.57985 159.000
17.59979 160.000
17.61974 195.000
17.63969 154.000
17.65963 168.000
17.67958 179.000
17.69953 183.000
17.71947 157.000
17.73942 181.000
17.75937 167.000
17.77932 169.000
17.79926 179.000
17.81921 159.000
17.83916 179.000
17.85910 138.000
17.87905 158.000
17.89900 161.000
17.91894 151.000
17.93889 176.000
17.95884 177.000
17.97878 178.000
17.99873 164.000
18.01868 161.000
18.03863 164.000
18.05857 165.000
18.07852 166.000
18.09847 200.000
18.11841 174.000
18.13836 179.000
18.15831 154.000
18.17825 156.000
18.19820 166.000
18.21815 185.000
18.23810 160.000
18.25804 160.000
18.27799 162.000
18.29794 179.000
18.31788 167.000
18.33783 194.000
18.35778 195.000
18.37772 182.000
18.39767 197.000
18.41762 209.000
18.43756 215.000
18.45751 197.000
18.47746 198.000
18.49741 196.000
18.51735 211.000
18.53730 186.000
18.55725 180.000
18.57719 195.000
18.59714 182.000
18.61709 203.000
18.63703 156.000
18.65698 154.000
18.67693 171.000
18.69688 196.000
18.71682 176.000
18.73677 154.000
18.75672 165.000
18.77666 174.000
18.79661 193.000
18.81656 169.000
18.83650 166.000
18.85645 167.000
18.87640 170.000
18.89634 176.000
18.91629 177.000
18.93624 176.000
18.95619 163.000
18.97613 161.000
18.99608 145.000
19.01603 168.000
19.03597 168.000
19.05592 180.000
19.07587 190.000
19.09581 177.000
19.11576 193.000
19.13571 176.000
19.15566 158.000
19.17560 182.000
19.19555 163.000
19.21550 176.000
19.23544 183.000
19.25539 170.000
19.27534 185.000
19.29528 186.000
19.31523 161.000
19.33518 195.000
19.35513 187.000
19.37507 180.000
19.39502 188.000
19.41497 190.000
19.43491 172.000
19.45486 185.000
19.47481 160.000
19.49475 185.000
19.51470 193.000
19.53465 171.000
19.55459 174.000
19.57454 184.000
19.59449 172.000
19.61444 164.000
19.63438 175.000
19.65433 174.000
19.67428 170.000
19.69422 168.000
19.71417 175.000
19.73412 182.000
19.75406 201.000
19.77401 175.000
19.79396 190.000
19.81391 185.000
19.83385 166.000
19.85380 171.000
19.87375 184.000
19.89369 180.000
19.91364 162.000
19.93359 164.000
19.95353 177.000
19.97348 181.000
19.99343 189.000
20.01337 190.000
20.03332 158.000
20.05327 189.000
20.07322 184.000
20.09316 170.000
20.11311 174.000
20.13306 174.000
20.15300 156.000
20.17295 152.000
20.19290 186.000
20.21284 199.000
20.23279 157.000
20.25274 192.000
20.27269 183.000
20.29263 167.000
20.31258 171.000
20.33253 195.000
20.35247 147.000
20.37242 156.000
20.39237 168.000
20.41231 174.000
20.43226 195.000
20.45221 196.000
20.47215 186.000
20.49210 169.000
20.51205 178.000
20.53200 187.000
20.55194 178.000
20.57189 202.000
20.59184 169.000
20.61178 192.000
20.63173 181.000
20.65168 191.000
20.67162 194.000
20.69157 169.000
20.71152 186.000
20.73147 169.000
20.75141 181.000
20.77136 193.000
20.79131 176.000
20.81125 193.000
20.83120 195.000
20.85115 205.000
20.87109 213.000
20.89104 232.000
20.91099 211.000
20.93094 219.000
20.95088 226.000
20.97083 267.000
20.99078 290.000
21.01072 294.000
21.03067 287.000
21.05062 298.000
21.07056 313.000
21.09051 313.000
21.11046 311.000
21.13040 268.000
21.15035 295.000
21.17030 315.000
21.19025 257.000
21.21019 236.000
21.23014 252.000
21.25009 228.000
21.27003 197.000
21.28998 226.000
21.30993 173.000
21.32987 187.000
21.34982 200.000
21.36977 182.000
21.38972 187.000
21.40966 194.000
21.42961 176.000
21.44956 169.000
21.46950 177.000
21.48945 181.000
21.50940 187.000
21.52934 190.000
21.54929 188.000
21.56924 191.000
21.58918 183.000
21.60913 190.000
21.62908 199.000
21.64903 199.000
21.66897 171.000
21.68892 176.000
21.70887 163.000
21.72881 192.000
21.74876 166.000
21.76871 181.000
21.78865 190.000
21.80860 181.000
21.82855 169.000
21.84850 186.000
21.86844 156.000
21.88839 168.000
21.90834 190.000
21.92828 215.000
21.94823 194.000
21.96818 180.000
21.98812 164.000
22.00807 207.000
22.02802 184.000
22.04796 186.000
22.06791 191.000
22.08786 178.000
22.10781 175.000
22.12775 181.000
22.14770 177.000
22.16765 188.000
22.18759 177.000
22.20754 162.000
22.22749 181.000
22.24743 175.000
22.26738 179.000
22.28733 170.000
22.30728 190.000
22.32722 170.000
22.34717 192.000
22.36712 187.000
22.38706 195.000
22.40701 205.000
22.42696 200.000
22.44690 192.000
22.46685 192.000
22.48680 174.000
22.50675 194.000
22.52669 179.000
22.54664 173.000
22.56659 182.000
22.58653 224.000
22.60648 171.000
22.62643 196.000
22.64637 223.000
22.66632 163.000
22.68627 171.000
22.70621 169.000
22.72616 214.000
22.74611 167.000
22.76606 194.000
22.78600 170.000
22.80595 207.000
22.82590 202.000
22.84584 208.000
22.86579 190.000
22.88574 192.000
22.90568 161.000
22.92563 193.000
22.94558 193.000
22.96553 202.000
22.98547 186.000
23.00542 200.000
23.02537 172.000
23.04531 186.000
23.06526 200.000
23.08521 196.000
23.10515 217.000
23.12510 185.000
23.14505 191.000
23.16499 174.000
23.18494 186.000
23.20489 171.000
23.22484 189.000
23.24478 162.000
23.26473 166.000
23.28468 159.000
23.30462 180.000
23.32457 200.000
23.34452 189.000
23.36446 177.000
23.38441 189.000
23.40436 207.000
23.42431 199.000
23.44425 173.000
23.46420 189.000
23.48415 199.000
23.50409 182.000
23.52404 198.000
23.54399 188.000
23.56393 182.000
23.58388 195.000
23.60383 191.000
23.62377 188.000
23.64372 216.000
23.66367 198.000
23.68362 218.000
23.70356 198.000
23.72351 203.000
23.74346 208.000
23.76340 181.000
23.78335 193.000
23.80330 185.000
23.82324 202.000
23.84319 194.000
23.86314 200.000
23.88309 193.000
23.90303 192.000
23.92298 200.000
23.94293 187.000
23.96287 198.000
23.98282 187.000
24.00277 201.000
24.02271 178.000
24.04266 186.000
24.06261 188.000
24.08256 202.000
24.10250 217.000
24.12245 196.000
24.14240 167.000
24.16234 187.000
24.18229 182.000
24.20224 182.000
24.22218 195.000
24.24213 207.000
24.26208 171.000
24.28202 189.000
24.30197 207.000
24.32192 203.000
24.34187 206.000
24.36181 180.000
24.38176 202.000
24.40171 192.000
24.42165 216.000
24.44160 221.000
24.46155 196.000
24.48149 203.000
24.50144 191.000
24.52139 201.000
24.54134 195.000
24.56128 190.000
24.58123 184.000
24.60118 180.000
24.62112 194.000
24.64107 196.000
24.66102 193.000
24.68096 208.000
24.70091 186.000
24.72086 188.000
24.74080 207.000
24.76075 182.000
24.78070 201.000
24.80065 188.000
24.82059 218.000
24.84054 183.000
24.86049 175.000
24.88043 209.000
24.90038 200.000
24.92033 189.000
24.94027 211.000
24.96022 204.000
24.98017 202.000
25.00012 211.000
25.02006 222.000
25.04001 226.000
25.05996 192.000
25.07990 224.000
25.09985 233.000
25.11980 209.000
25.13974 224.000
25.15969 199.000
25.17964 190.000
25.19958 201.000
25.21953 209.000
25.23948 203.000
25.25943 223.000
25.27937 194.000
25.29932 214.000
25.31927 207.000
25.33921 207.000
25.35916 221.000
25.37911 199.000
25.39905 205.000
25.41900 233.000
25.43895 170.000
25.45890 225.000
25.47884 188.000
25.49879 200.000
25.51874 199.000
25.53868 196.000
25.55863 219.000
25.57858 206.000
25.59852 191.000
25.61847 174.000
25.63842 227.000
25.65837 211.000
25.67831 204.000
25.69826 213.000
25.71821 223.000
25.73815 204.000
25.75810 193.000
25.77805 200.000
25.79799 191.000
25.81794 209.000
25.83789 196.000
25.85783 194.000
25.87778 235.000
25.89773 203.000
25.91768 205.000
25.93762 198.000
25.95757 188.000
25.97752 205.000
25.99746 216.000
26.01741 221.000
26.03736 207.000
26.05730 192.000
26.07725 196.000
26.09720 206.000
26.11715 188.000
26.13709 228.000
26.15704 217.000
26.17699 210.000
26.19693 226.000
26.21688 219.000
26.23683 206.000
26.25677 225.000
26.27672 210.000
26.29667 226.000
26.31661 182.000
26.33656 214.000
26.35651 219.000
26.37646 208.000
26.39640 201.000
26.41635 207.000
26.43630 204.000
26.45624 228.000
26.47619 206.000
26.49614 186.000
26.51608 195.000
26.53603 208.000
26.55598 194.000
26.57593 217.000
26.59587 213.000
26.61582 202.000
26.63577 203.000
26.65571 241.000
26.67566 197.000
26.69561 228.000
26.71555 223.000
26.73550 252.000
26.75545 204.000
26.77539 200.000
26.79534 234.000
26.81529 180.000
26.83524 201.000
26.85518 215.000
26.87513 188.000
26.89508 242.000
26.91502 226.000
26.93497 195.000
26.95492 182.000
26.97486 201.000
26.99481 216.000
27.01476 228.000
27.03471 198.000
27.05465 223.000
27.07460 213.000
27.09455 231.000
27.11449 218.000
27.13444 227.000
27.15439 216.000
27.17433 200.000
27.19428 197.000
27.21423 221.000
27.23417 210.000
27.25412 225.000
27.27407 206.000
27.29402 241.000
27.31396 186.000
27.33391 202.000
27.35386 194.000
27.37380 203.000
27.39375 229.000
27.41370 232.000
27.43364 194.000
27.45359 206.000
27.47354 239.000
27.49349 216.000
27.51343 179.000
27.53338 230.000
27.55333 212.000
27.57327 232.000
27.59322 242.000
27.61317 220.000
27.63311 217.000
27.65306 227.000
27.67301 203.000
27.69296 240.000
27.71290 198.000
27.73285 213.000
27.75280 221.000
27.77274 242.000
27.79269 193.000
27.81264 186.000
27.83258 191.000
27.85253 199.000
27.87248 209.000
27.89242 220.000
27.91237 205.000
27.93232 206.000
27.95227 214.000
27.97221 225.000
27.99216 202.000
28.01211 214.000
28.03205 198.000
28.05200 217.000
28.07195 214.000
28.09189 213.000
28.11184 212.000
28.13179 211.000
28.15174 213.000
28.17168 204.000
28.19163 244.000
28.21158 228.000
28.23152 245.000
28.25147 222.000
28.27142 236.000
28.29136 263.000
28.31131 214.000
28.33126 222.000
28.35120 221.000
28.37115 227.000
28.39110 231.000
28.41105 217.000
28.43099 263.000
28.45094 253.000
28.47089 238.000
28.49083 261.000
28.51078 242.000
28.53073 245.000
28.55067 249.000
28.57062 223.000
28.59057 208.000
28.61052 222.000
28.63046 227.000
28.65041 254.000
28.67036 207.000
28.69030 225.000
28.71025 240.000
28.73020 230.000
28.75014 225.000
28.77009 209.000
28.79004 238.000
28.80998 240.000
28.82993 228.000
28.84988 217.000
28.86983 203.000
28.88977 237.000
28.90972 204.000
28.92967 196.000
28.94961 203.000
28.96956 222.000
28.98951 234.000
29.00945 222.000
29.02940 231.000
29.04935 208.000
29.06930 225.000
29.08924 215.000
29.10919 234.000
29.12914 270.000
29.14908 233.000
29.16903 202.000
29.18898 231.000
29.20892 205.000
29.22887 220.000
29.24882 225.000
29.26877 247.000
29.28871 250.000
29.30866 256.000
29.32861 260.000
29.34855 260.000
29.36850 273.000
29.38845 273.000
29.40839 280.000
29.42834 294.000
29.44829 266.000
29.46823 325.000
29.48818 270.000
29.50813 273.000
29.52808 286.000
29.54802 261.000
29.56797 272.000
29.58792 227.000
29.60786 252.000
29.62781 261.000
29.64776 224.000
29.66770 238.000
29.68765 247.000
29.70760 235.000
29.72755 231.000
29.74749 226.000
29.76744 232.000
29.78739 195.000
29.80733 210.000
29.82728 231.000
29.84723 232.000
29.86717 206.000
29.88712 212.000
29.90707 221.000
29.92701 218.000
29.94696 230.000
29.96691 250.000
29.98686 211.000
30.00680 207.000
30.02675 244.000
30.04670 242.000
30.06664 243.000
30.08659 234.000
30.10654 217.000
30.12648 226.000
30.14643 213.000
30.16638 233.000
30.18633 222.000
30.20627 269.000
30.22622 245.000
30.24617 282.000
30.26611 271.000
30.28606 277.000
30.30601 291.000
30.32595 265.000
30.34590 308.000
30.36585 337.000
30.38579 301.000
30.40574 317.000
30.42569 344.000
30.44564 319.000
30.46558 309.000
30.48553 263.000
30.50548 269.000
30.52542 267.000
30.54537 286.000
30.56532 224.000
30.58526 250.000
30.60521 240.000
30.62516 238.000
30.64511 229.000
30.66505 258.000
30.68500 232.000
30.70495 244.000
30.72489 254.000
30.74484 212.000
30.76479 240.000
30.78473 235.000
30.80468 238.000
30.82463 252.000
30.84458 242.000
30.86452 251.000
30.88447 229.000
30.90442 218.000
30.92436 225.000
30.94431 239.000
30.96426 267.000
30.98420 206.000
31.00415 195.000
31.02410 225.000
31.04404 192.000
31.06399 245.000
31.08394 219.000
31.10389 242.000
31.12383 224.000
31.14378 244.000
31.16373 240.000
31.18367 235.000
31.20362 232.000
31.22357 242.000
31.24351 218.000
31.26346 209.000
31.28341 239.000
31.30336 254.000
31.32330 230.000
31.34325 212.000
31.36320 218.000
31.38314 207.000
31.40309 263.000
31.42304 239.000
31.44298 246.000
31.46293 253.000
31.48288 244.000
31.50282 230.000
31.52277 230.000
31.54272 237.000
31.56267 259.000
31.58261 251.000
31.60256 211.000
31.62251 238.000
31.64245 229.000
31.66240 223.000
31.68235 235.000
31.70229 265.000
31.72224 249.000
31.74219 271.000
31.76214 247.000
31.78208 250.000
31.80203 265.000
31.82198 260.000
31.84192 277.000
31.86187 237.000
31.88182 261.000
31.90176 296.000
31.92171 264.000
31.94166 298.000
31.96160 339.000
31.98155 375.000
32.00150 428.000
32.02145 560.000
32.04139 603.000
32.06134 655.000
32.08129 689.000
32.10123 756.000
32.12118 815.000
32.14113 797.000
32.16107 762.000
32.18102 716.000
32.20097 621.000
32.22092 583.000
32.24086 518.000
32.26081 456.000
32.28076 384.000
32.30070 348.000
32.32065 268.000
32.34060 267.000
32.36054 249.000
32.38049 257.000
32.40044 253.000
32.42039 253.000
32.44033 258.000
32.46028 281.000
32.48023 271.000
32.50017 286.000
32.52012 256.000
32.54007 303.000
32.56001 284.000
32.57996 312.000
32.59991 288.000
32.61985 276.000
32.63980 287.000
32.65975 299.000
32.67970 249.000
32.69964 286.000
32.71959 263.000
32.73954 250.000
32.75948 240.000
32.77943 225.000
32.79938 247.000
32.81932 244.000
32.83927 228.000
32.85922 218.000
32.87917 254.000
32.89911 268.000
32.91906 232.000
32.93901 227.000
32.95895 268.000
32.97890 233.000
32.99885 239.000
33.01879 271.000
33.03874 207.000
33.05869 232.000
33.07863 236.000
33.09858 251.000
33.11853 225.000
33.13848 222.000
33.15842 244.000
33.17837 226.000
33.19832 226.000
33.21826 224.000
33.23821 248.000
33.25816 214.000
33.27810 225.000
33.29805 238.000
33.31800 241.000
33.33795 244.000
33.35789 239.000
33.37784 223.000
33.39779 227.000
33.41773 247.000
33.43768 223.000
33.45763 237.000
33.47757 235.000
33.49752 241.000
33.51747 221.000
33.53741 254.000
33.55736 227.000
33.57731 249.000
33.59726 222.000
33.61720 229.000
33.63715 228.000
33.65710 214.000
33.67704 228.000
33.69699 255.000
33.71694 221.000
33.73688 229.000
33.75683 251.000
33.77678 212.000
33.79673 200.000
33.81667 228.000
33.83662 224.000
33.85657 255.000
33.87651 250.000
33.89646 250.000
33.91641 233.000
33.93635 245.000
33.95630 221.000
33.97625 233.000
33.99620 238.000
34.01614 268.000
34.03609 255.000
34.05604 239.000
34.07598 199.000
34.09593 230.000
34.11588 235.000
34.13582 217.000
34.15577 251.000
34.17572 219.000
34.19566 253.000
34.21561 282.000
34.23556 256.000
34.25551 247.000
34.27545 247.000
34.29540 236.000
34.31535 248.000
34.33529 229.000
34.35524 272.000
34.37519 259.000
34.39513 283.000
34.41508 282.000
34.43503 290.000
34.45498 266.000
34.47492 316.000
34.49487 275.000
34.51482 299.000
34.53476 312.000
34.55471 306.000
34.57466 351.000
34.59460 351.000
34.61455 345.000
34.63450 345.000
34.65444 359.000
34.67439 355.000
34.69434 379.000
34.71429 356.000
34.73423 369.000
34.75418 396.000
34.77413 351.000
34.79407 380.000
34.81402 376.000
34.83397 398.000
34.85391 371.000
34.87386 381.000
34.89381 329.000
34.91376 327.000
34.93370 321.000
34.95365 318.000
34.97360 283.000
34.99354 299.000
35.01349 276.000
35.03344 286.000
35.05338 277.000
35.07333 269.000
35.09328 251.000
35.11322 296.000
35.13317 273.000
35.15312 265.000
35.17307 284.000
35.19301 259.000
35.21296 303.000
35.23291 340.000
35.25285 287.000
35.27280 323.000
35.29275 351.000
35.31269 350.000
35.33264 347.000
35.35259 388.000
35.37254 418.000
35.39248 455.000
35.41243 477.000
35.43238 580.000
35.45232 633.000
35.47227 689.000
35.49222 796.000
35.51216 979.000
35.53211 941.000
35.55206 1022.000
35.57201 1064.000
35.59195 1178.000
35.61190 1195.000
35.63185 1335.000
35.65179 1306.000
35.67174 1242.000
35.69169 1249.000
35.71163 1269.000
35.73158 1218.000
35.75153 1196.000
35.77147 1252.000
35.79142 1222.000
35.81137 1139.000
35.83132 1097.000
35.85126 1028.000
35.87121 1046.000
35.89116 929.000
35.91110 824.000
35.93105 798.000
35.95100 672.000
35.97094 654.000
35.99089 510.000
36.01084 507.000
36.03079 434.000
36.05073 419.000
36.07068 352.000
36.09063 352.000
36.11057 330.000
36.13052 333.000
36.15047 300.000
36.17041 303.000
36.19036 305.000
36.21031 301.000
36.23025 266.000
36.25020 272.000
36.27015 294.000
36.29010 290.000
36.31004 294.000
36.32999 259.000
36.34994 266.000
36.36988 295.000
36.38983 293.000
36.40978 279.000
36.42972 251.000
36.44967 295.000
36.46962 279.000
36.48957 283.000
36.50951 263.000
36.52946 272.000
36.54941 300.000
36.56935 290.000
36.58930 300.000
36.60925 274.000
36.62919 287.000
36.64914 320.000
36.66909 293.000
36.68903 322.000
36.70898 304.000
36.72893 317.000
36.74888 328.000
36.76882 328.000
36.78877 324.000
36.80872 288.000
36.82866 279.000
36.84861 321.000
36.86856 304.000
36.88850 307.000
36.90845 319.000
36.92840 339.000
36.94835 348.000
36.96829 324.000
36.98824 390.000
37.00819 370.000
37.02813 486.000
37.04808 569.000
37.06803 630.000
37.08797 701.000
37.10792 829.000
37.12787 928.000
37.14781 945.000
37.16776 988.000
37.18771 1064.000
37.20766 1040.000
37.22760 1026.000
37.24755 975.000
37.26750 938.000
37.28744 822.000
37.30739 730.000
37.32734 724.000
37.34728 604.000
37.36723 526.000
37.38718 439.000
37.40713 402.000
37.42707 380.000
37.44702 364.000
37.46697 318.000
37.48691 293.000
37.50686 344.000
37.52681 283.000
37.54675 275.000
37.56670 272.000
37.58665 260.000
37.60660 260.000
37.62654 270.000
37.64649 271.000
37.66644 279.000
37.68638 242.000
37.70633 253.000
37.72628 259.000
37.74622 228.000
37.76617 239.000
37.78612 230.000
37.80606 276.000
37.82601 253.000
37.84596 281.000
37.86591 244.000
37.88585 303.000
37.90580 261.000
37.92575 236.000
37.94569 227.000
37.96564 273.000
37.98559 252.000
38.00553 291.000
38.02548 279.000
38.04543 279.000
38.06538 245.000
38.08532 275.000
38.10527 243.000
38.12522 311.000
38.14516 245.000
38.16511 253.000
38.18506 252.000
38.20500 278.000
38.22495 276.000
38.24490 302.000
38.26484 260.000
38.28479 278.000
38.30474 290.000
38.32469 295.000
38.34463 293.000
38.36458 300.000
38.38453 283.000
38.40447 311.000
38.42442 328.000
38.44437 331.000
38.46431 332.000
38.48426 359.000
38.50421 355.000
38.52416 387.000
38.54410 417.000
38.56405 455.000
38.58400 522.000
38.60394 529.000
38.62389 595.000
38.64384 655.000
38.66378 782.000
38.68373 771.000
38.70368 872.000
38.72362 909.000
38.74357 950.000
38.76352 895.000
38.78347 944.000
38.80341 900.000
38.82336 873.000
38.84331 791.000
38.86325 769.000
38.88320 768.000
38.90315 650.000
38.92309 685.000
38.94304 620.000
38.96299 585.000
38.98294 619.000
39.00288 556.000
39.02283 575.000
39.04278 591.000
39.06272 494.000
39.08267 564.000
39.10262 541.000
39.12256 510.000
39.14251 533.000
39.16246 547.000
39.18241 544.000
39.20235 572.000
39.22230 616.000
39.24225 606.000
39.26219 759.000
39.28214 861.000
39.30209 956.000
39.32203 1017.000
39.34198 1141.000
39.36193 1257.000
39.38187 1330.000
39.40182 1370.000
39.42177 1340.000
39.44172 1339.000
39.46166 1323.000
39.48161 1204.000
39.50156 1061.000
39.52150 959.000
39.54145 865.000
39.56140 823.000
39.58134 680.000
39.60129 660.000
39.62124 533.000
39.64119 514.000
39.66113 437.000
39.68108 397.000
39.70103 354.000
39.72097 332.000
39.74092 315.000
39.76087 308.000
39.78081 309.000
39.80076 292.000
39.82071 283.000
39.84065 281.000
39.86060 259.000
39.88055 283.000
39.90050 260.000
39.92044 272.000
39.94039 258.000
39.96034 251.000
39.98028 249.000
40.00023 246.000
40.02018 235.000
40.04012 264.000
40.06007 259.000
40.08002 236.000
40.09997 247.000
40.11991 262.000
40.13986 262.000
40.15981 251.000
40.17975 218.000
40.19970 247.000
40.21965 255.000
40.23959 224.000
40.25954 232.000
40.27949 252.000
40.29943 264.000
40.31938 234.000
40.33933 242.000
40.35928 269.000
40.37922 259.000
40.39917 262.000
40.41912 248.000
40.43906 239.000
40.45901 250.000
40.47896 261.000
40.49890 236.000
40.51885 257.000
40.53880 224.000
40.55875 232.000
40.57869 249.000
40.59864 258.000
40.61859 251.000
40.63853 243.000
40.65848 262.000
40.67843 245.000
40.69837 213.000
40.71832 242.000
40.73827 244.000
40.75822 211.000
40.77816 231.000
40.79811 249.000
40.81806 243.000
40.83800 264.000
40.85795 233.000
40.87790 245.000
40.89784 233.000
40.91779 216.000
40.93774 229.000
40.95768 245.000
40.97763 242.000
40.99758 254.000
41.01753 236.000
41.03747 242.000
41.05742 239.000
41.07737 256.000
41.09731 222.000
41.11726 224.000
41.13721 234.000
41.15715 232.000
41.17710 268.000
41.19705 247.000
41.21700 220.000
41.23694 250.000
41.25689 254.000
41.27684 212.000
41.29678 262.000
41.31673 238.000
41.33668 244.000
41.35662 247.000
41.37657 240.000
41.39652 236.000
41.41646 271.000
41.43641 235.000
41.45636 243.000
41.47631 262.000
41.49625 204.000
41.51620 241.000
41.53615 235.000
41.55609 296.000
41.57604 258.000
41.59599 264.000
41.61593 238.000
41.63588 270.000
41.65583 263.000
41.67578 264.000
41.69572 236.000
41.71567 266.000
41.73562 251.000
41.75556 231.000
41.77551 267.000
41.79546 234.000
41.81540 285.000
41.83535 237.000
41.85530 248.000
41.87524 269.000
41.89519 270.000
41.91514 240.000
41.93509 217.000
41.95503 230.000
41.97498 211.000
41.99493 241.000
42.01487 230.000
42.03482 239.000
42.05477 240.000
42.07471 239.000
42.09466 229.000
42.11461 216.000
42.13456 267.000
42.15450 233.000
42.17445 252.000
42.19440 239.000
42.21434 235.000
42.23429 255.000
42.25424 227.000
42.27418 246.000
42.29413 234.000
42.31408 227.000
42.33403 259.000
42.35397 234.000
42.37392 256.000
42.39387 240.000
42.41381 233.000
42.43376 268.000
42.45371 271.000
42.47365 265.000
42.49360 278.000
42.51355 241.000
42.53349 236.000
42.55344 263.000
42.57339 245.000
42.59334 276.000
42.61328 289.000
42.63323 258.000
42.65318 262.000
42.67312 293.000
42.69307 281.000
42.71302 266.000
42.73296 268.000
42.75291 294.000
42.77286 292.000
42.79281 300.000
42.81275 310.000
42.83270 327.000
42.85265 323.000
42.87259 318.000
42.89254 347.000
42.91249 392.000
42.93243 415.000
42.95238 445.000
42.97233 510.000
42.99227 570.000
43.01222 578.000
43.03217 670.000
43.05212 756.000
43.07206 735.000
43.09201 804.000
43.11196 912.000
43.13190 1033.000
43.15185 1065.000
43.17180 1128.000
43.19174 1136.000
43.21169 1232.000
43.23164 1225.000
43.25159 1149.000
43.27153 1214.000
43.29148 1134.000
43.31143 1097.000
43.33137 1050.000
43.35132 1000.000
43.37127 945.000
43.39121 882.000
43.41116 887.000
43.43111 949.000
43.45105 818.000
43.47100 913.000
43.49095 838.000
43.51090 818.000
43.53084 866.000
43.55079 832.000
43.57074 770.000
43.59068 768.000
43.61063 728.000
43.63058 642.000
43.65052 567.000
43.67047 540.000
43.69042 503.000
43.71037 469.000
43.73031 417.000
43.75026 386.000
43.77021 368.000
43.79015 374.000
43.81010 303.000
43.83005 278.000
43.84999 306.000
43.86994 281.000
43.88989 278.000
43.90984 253.000
43.92978 248.000
43.94973 279.000
43.96968 231.000
43.98962 269.000
44.00957 264.000
44.02952 272.000
44.04946 252.000
44.06941 256.000
44.08936 251.000
44.10930 274.000
44.12925 269.000
44.14920 220.000
44.16915 253.000
44.18909 221.000
44.20904 229.000
44.22899 247.000
44.24893 266.000
44.26888 244.000
44.28883 251.000
44.30877 247.000
44.32872 258.000
44.34867 237.000
44.36862 246.000
44.38856 237.000
44.40851 247.000
44.42846 223.000
44.44840 226.000
44.46835 246.000
44.48830 251.000
44.50824 233.000
44.52819 251.000
44.54814 229.000
44.56808 241.000
44.58803 223.000
44.60798 242.000
44.62793 245.000
44.64787 241.000
44.66782 243.000
44.68777 235.000
44.70771 207.000
44.72766 224.000
44.74761 223.000
44.76755 214.000
44.78750 237.000
44.80745 244.000
44.82740 227.000
44.84734 236.000
44.86729 238.000
44.88724 242.000
44.90718 216.000
44.92713 265.000
44.94708 254.000
44.96702 262.000
44.98697 255.000
45.00692 246.000
45.02686 263.000
45.04681 259.000
45.06676 225.000
45.08671 247.000
45.10665 242.000
45.12660 262.000
45.14655 223.000
45.16649 240.000
45.18644 225.000
45.20639 228.000
45.22633 212.000
45.24628 244.000
45.26623 226.000
45.28618 222.000
45.30612 224.000
45.32607 232.000
45.34602 252.000
45.36596 220.000
45.38591 218.000
45.40586 218.000
45.42580 231.000
45.44575 225.000
45.46570 257.000
45.48565 231.000
45.50559 229.000
45.52554 230.000
45.54549 227.000
45.56543 245.000
45.58538 243.000
45.60533 199.000
45.62527 239.000
45.64522 246.000
45.66517 238.000
45.68511 247.000
45.70506 232.000
45.72501 227.000
45.74496 234.000
45.76490 210.000
45.78485 244.000
45.80480 233.000
45.82474 232.000
45.84469 226.000
45.86464 230.000
45.88458 235.000
45.90453 218.000
45.92448 221.000
45.94443 243.000
45.96437 238.000
45.98432 213.000
46.00427 250.000
46.02421 207.000
46.04416 237.000
46.06411 230.000
46.08405 231.000
46.10400 219.000
46.12395 254.000
46.14389 233.000
46.16384 239.000
46.18379 229.000
46.20374 224.000
46.22368 224.000
46.24363 256.000
46.26358 259.000
46.28352 225.000
46.30347 263.000
46.32342 255.000
46.34336 247.000
46.36331 243.000
46.38326 218.000
46.40321 259.000
46.42315 238.000
46.44310 259.000
46.46305 248.000
46.48299 237.000
46.50294 228.000
46.52289 258.000
46.54283 241.000
46.56278 224.000
46.58273 252.000
46.60267 231.000
46.62262 248.000
46.64257 233.000
46.66252 272.000
46.68246 245.000
46.70241 245.000
46.72236 221.000
46.74230 223.000
46.76225 224.000
46.78220 216.000
46.80214 240.000
46.82209 238.000
46.84204 218.000
46.86199 250.000
46.88193 211.000
46.90188 223.000
46.92183 246.000
46.94177 219.000
46.96172 225.000
46.98167 235.000
47.00161 217.000
47.02156 215.000
47.04151 239.000
47.06146 243.000
47.08140 231.000
47.10135 240.000
47.12130 255.000
47.14124 217.000
47.16119 230.000
47.18114 210.000
47.20108 223.000
47.22103 244.000
47.24098 240.000
47.26092 260.000
47.28087 260.000
47.30082 256.000
47.32077 207.000
47.34071 220.000
47.36066 228.000
47.38061 249.000
47.40055 230.000
47.42050 231.000
47.44045 261.000
47.46039 247.000
47.48034 226.000
47.50029 255.000
47.52024 242.000
47.54018 248.000
47.56013 215.000
47.58008 233.000
47.60002 240.000
47.61997 250.000
47.63992 237.000
47.65986 253.000
47.67981 248.000
47.69976 229.000
47.71970 224.000
47.73965 247.000
47.75960 229.000
47.77955 235.000
47.79949 269.000
47.81944 249.000
47.83939 240.000
47.85933 234.000
47.87928 228.000
47.89923 261.000
47.91917 238.000
47.93912 249.000
47.95907 267.000
47.97902 245.000
47.99896 267.000
48.01891 252.000
48.03886 266.000
48.05880 271.000
48.07875 271.000
48.09870 256.000
48.11864 251.000
48.13859 261.000
48.15854 269.000
48.17848 277.000
48.19843 242.000
48.21838 281.000
48.23833 265.000
48.25827 292.000
48.27822 289.000
48.29817 308.000
48.31811 313.000
48.33806 302.000
48.35801 288.000
48.37795 248.000
48.39790 280.000
48.41785 294.000
48.43780 285.000
48.45774 288.000
48.47769 304.000
48.49764 339.000
48.51758 330.000
48.53753 388.000
48.55748 383.000
48.57742 416.000
48.59737 394.000
48.61732 461.000
48.63726 478.000
48.65721 574.000
48.67716 614.000
48.69711 733.000
48.71705 787.000
48.73700 894.000
48.75695 1084.000
48.77689 1138.000
48.79684 1260.000
48.81679 1404.000
48.83673 1437.000
48.85668 1456.000
48.87663 1542.000
48.89658 1425.000
48.91652 1360.000
48.93647 1225.000
48.95642 1203.000
48.97636 1071.000
48.99631 1000.000
49.01626 990.000
49.03620 822.000
49.05615 678.000
49.07610 604.000
49.09605 586.000
49.11599 531.000
49.13594 442.000
49.15589 409.000
49.17583 372.000
49.19578 337.000
49.21573 349.000
49.23567 311.000
49.25562 304.000
49.27557 278.000
49.29551 297.000
49.31546 273.000
49.33541 282.000
49.35536 275.000
49.37530 273.000
49.39525 259.000
49.41520 278.000
49.43514 238.000
49.45509 282.000
49.47504 273.000
49.49498 232.000
49.51493 276.000
49.53488 260.000
49.55483 270.000
49.57477 262.000
49.59472 252.000
49.61467 246.000
49.63461 265.000
49.65456 237.000
49.67451 246.000
49.69445 245.000
49.71440 270.000
49.73435 239.000
49.75429 258.000
49.77424 265.000
49.79419 259.000
49.81414 245.000
49.83408 228.000
49.85403 241.000
49.87398 245.000
49.89392 272.000
49.91387 250.000
49.93382 223.000
49.95376 261.000
49.97371 233.000
49.99366 256.000
50.01361 256.000
50.03355 239.000
50.05350 240.000
50.07345 216.000
50.09339 215.000
50.11334 238.000
50.13329 274.000
50.15323 205.000
50.17318 247.000
50.19313 260.000
50.21307 250.000
50.23302 284.000
50.25297 234.000
50.27292 251.000
50.29286 256.000
50.31281 213.000
50.33276 222.000
50.35270 240.000
50.37265 243.000
50.39260 242.000
50.41254 230.000
50.43249 257.000
50.45244 239.000
50.47239 246.000
50.49233 227.000
50.51228 220.000
50.53223 249.000
50.55217 229.000
50.57212 225.000
50.59207 248.000
50.61201 199.000
50.63196 236.000
50.65191 214.000
50.67186 225.000
50.69180 233.000
50.71175 207.000
50.73170 233.000
50.75164 213.000
50.77159 235.000
50.79154 242.000
50.81148 245.000
50.83143 235.000
50.85138 234.000
50.87132 211.000
50.89127 242.000
50.91122 243.000
50.93117 214.000
50.95111 252.000
50.97106 232.000
50.99101 248.000
51.01095 219.000
51.03090 227.000
51.05085 233.000
51.07079 220.000
51.09074 233.000
51.11069 241.000
51.13064 213.000
51.15058 206.000
51.17053 222.000
51.19048 226.000
51.21042 252.000
51.23037 224.000
51.25032 240.000
51.27026 239.000
51.29021 237.000
51.31016 252.000
51.33010 218.000
51.35005 232.000
51.37000 231.000
51.38995 220.000
51.40989 220.000
51.42984 211.000
51.44979 228.000
51.46973 230.000
51.48968 245.000
51.50963 236.000
51.52957 222.000
51.54952 247.000
51.56947 257.000
51.58942 234.000
51.60936 234.000
51.62931 220.000
51.64926 244.000
51.66920 224.000
51.68915 224.000
51.70910 241.000
51.72904 238.000
51.74899 220.000
51.76894 228.000
51.78888 221.000
51.80883 223.000
51.82878 237.000
51.84873 235.000
51.86867 203.000
51.88862 214.000
51.90857 219.000
51.92851 222.000
51.94846 223.000
51.96841 281.000
51.98835 219.000
52.00830 234.000
52.02825 212.000
52.04820 281.000
52.06814 260.000
52.08809 272.000
52.10804 218.000
52.12798 238.000
52.14793 256.000
52.16788 257.000
52.18782 259.000
52.20777 239.000
52.22772 234.000
52.24767 239.000
52.26761 214.000
52.28756 234.000
52.30751 254.000
52.32745 253.000
52.34740 231.000
52.36735 250.000
52.38729 238.000
52.40724 215.000
52.42719 242.000
52.44713 246.000
52.46708 227.000
52.48703 238.000
52.50698 253.000
52.52692 232.000
52.54687 208.000
52.56682 247.000
52.58676 231.000
52.60671 237.000
52.62666 220.000
52.64660 212.000
52.66655 211.000
52.68650 203.000
52.70645 224.000
52.72639 239.000
52.74634 232.000
52.76629 221.000
52.78623 236.000
52.80618 196.000
52.82613 234.000
52.84607 199.000
52.86602 253.000
52.88597 228.000
52.90591 221.000
52.92586 252.000
52.94581 242.000
52.96576 244.000
52.98570 246.000
53.00565 232.000
53.02560 251.000
53.04554 225.000
53.06549 230.000
53.08544 256.000
53.10538 260.000
53.12533 262.000
53.14528 237.000
53.16523 236.000
53.18517 264.000
53.20512 246.000
53.22507 244.000
53.24501 260.000
53.26496 279.000
53.28491 245.000
53.30485 261.000
53.32480 273.000
53.34475 258.000
53.36469 256.000
53.38464 251.000
53.40459 260.000
53.42454 264.000
53.44448 267.000
53.46443 243.000
53.48438 263.000
53.50432 280.000
53.52427 283.000
53.54422 259.000
53.56416 258.000
53.58411 245.000
53.60406 276.000
53.62401 248.000
53.64395 240.000
53.66390 290.000
53.68385 276.000
53.70379 251.000
53.72374 249.000
53.74369 244.000
53.76363 250.000
53.78358 273.000
53.80353 253.000
53.82348 262.000
53.84342 267.000
53.86337 260.000
53.88332 253.000
53.90326 253.000
53.92321 266.000
53.94316 264.000
53.96310 221.000
53.98305 271.000
54.00300 257.000
54.02294 247.000
54.04289 243.000
54.06284 237.000
54.08279 255.000
54.10273 229.000
54.12268 246.000
54.14263 227.000
54.16257 218.000
54.18252 223.000
54.20247 245.000
54.22241 240.000
54.24236 244.000
54.26231 230.000
54.28226 248.000
54.30220 239.000
54.32215 222.000
54.34210 243.000
54.36204 236.000
54.38199 212.000
54.40194 242.000
54.42188 263.000
54.44183 231.000
54.46178 214.000
54.48172 241.000
54.50167 224.000
54.52162 229.000
54.54157 241.000
54.56151 224.000
54.58146 242.000
54.60141 216.000
54.62135 237.000
54.64130 255.000
54.66125 229.000
54.68119 239.000
54.70114 241.000
54.72109 228.000
54.74104 234.000
54.76098 283.000
54.78093 220.000
54.80088 219.000
54.82082 220.000
54.84077 232.000
54.86072 215.000
54.88066 219.000
54.90061 243.000
54.92056 230.000
54.94050 223.000
54.96045 235.000
54.98040 217.000
55.00035 228.000
55.02029 210.000
55.04024 229.000
55.06019 229.000
55.08013 219.000
55.10008 225.000
55.12003 226.000
55.13997 231.000
55.15992 243.000
55.17987 224.000
55.19982 224.000
55.21976 208.000
55.23971 251.000
55.25966 231.000
55.27960 260.000
55.29955 216.000
55.31950 235.000
55.33944 201.000
55.35939 232.000
55.37934 241.000
55.39929 181.000
55.41923 231.000
55.43918 241.000
55.45913 243.000
55.47907 197.000
55.49902 221.000
55.51897 239.000
55.53891 261.000
55.55886 251.000
55.57881 219.000
55.59875 235.000
55.61870 223.000
55.63865 217.000
55.65860 247.000
55.67854 220.000
55.69849 218.000
55.71844 202.000
55.73838 213.000
55.75833 221.000
55.77828 207.000
55.79822 232.000
55.81817 237.000
55.83812 209.000
55.85807 214.000
55.87801 209.000
55.89796 225.000
55.91791 239.000
55.93785 235.000
55.95780 225.000
55.97775 238.000
55.99769 226.000
56.01764 206.000
56.03759 227.000
56.05753 206.000
56.07748 227.000
56.09743 226.000
56.11738 224.000
56.13732 221.000
56.15727 244.000
56.17722 240.000
56.19716 245.000
56.21711 232.000
56.23706 199.000
56.25700 236.000
56.27695 194.000
56.29690 244.000
56.31685 243.000
56.33679 236.000
56.35674 258.000
56.37669 234.000
56.39663 232.000
56.41658 246.000
56.43653 220.000
56.45647 263.000
56.47642 234.000
56.49637 247.000
56.51631 246.000
56.53626 245.000
56.55621 235.000
56.57616 198.000
56.59610 227.000
56.61605 250.000
56.63600 250.000
56.65594 244.000
56.67589 228.000
56.69584 222.000
56.71578 248.000
56.73573 221.000
56.75568 222.000
56.77563 247.000
56.79557 258.000
56.81552 223.000
56.83547 245.000
56.85541 240.000
56.87536 239.000
56.89531 226.000
56.91525 228.000
56.93520 231.000
56.95515 215.000
56.97510 218.000
56.99504 230.000
57.01499 268.000
57.03494 228.000
57.05488 209.000
57.07483 239.000
57.09478 220.000
57.11472 216.000
57.13467 203.000
57.15462 229.000
57.17456 252.000
57.19451 258.000
57.21446 268.000
57.23441 250.000
57.25435 274.000
57.27430 251.000
57.29425 275.000
57.31419 271.000
57.33414 273.000
57.35409 308.000
57.37403 291.000
57.39398 334.000
57.41393 318.000
57.43388 288.000
57.45382 293.000
57.47377 268.000
57.49372 299.000
57.51366 297.000
57.53361 301.000
57.55356 298.000
57.57350 296.000
57.59345 300.000
57.61340 288.000
57.63334 249.000
57.65329 247.000
57.67324 291.000
57.69319 256.000
57.71313 264.000
57.73308 263.000
57.75303 265.000
57.77297 266.000
57.79292 250.000
57.81287 266.000
57.83281 254.000
57.85276 265.000
57.87271 239.000
57.89266 242.000
57.91260 234.000
57.93255 258.000
57.95250 260.000
57.97244 252.000
57.99239 265.000
58.01234 265.000
58.03228 236.000
58.05223 267.000
58.07218 260.000
58.09212 239.000
58.11207 280.000
58.13202 321.000
58.15197 276.000
58.17191 274.000
58.19186 291.000
58.21181 244.000
58.23175 309.000
58.25170 327.000
58.27165 339.000
58.29159 330.000
58.31154 332.000
58.33149 300.000
58.35144 339.000
58.37138 338.000
58.39133 344.000
58.41128 324.000
58.43122 290.000
58.45117 304.000
58.47112 295.000
58.49106 302.000
58.51101 284.000
58.53096 268.000
58.55090 295.000
58.57085 318.000
58.59080 257.000
58.61075 236.000
58.63069 267.000
58.65064 250.000
58.67059 217.000
58.69053 249.000
58.71048 234.000
58.73043 249.000
58.75037 227.000
58.77032 256.000
58.79027 234.000
58.81022 252.000
58.83016 233.000
58.85011 231.000
58.87006 245.000
58.89000 215.000
58.90995 230.000
58.92990 241.000
58.94984 238.000
58.96979 227.000
58.98974 225.000
59.00969 247.000
59.02963 217.000
59.04958 240.000
59.06953 249.000
59.08947 220.000
59.10942 218.000
59.12937 231.000
59.14931 230.000
59.16926 218.000
59.18921 230.000
59.20915 228.000
59.22910 241.000
59.24905 252.000
59.26900 230.000
59.28894 242.000
59.30889 233.000
59.32884 234.000
59.34878 252.000
59.36873 251.000
59.38868 229.000
59.40862 224.000
59.42857 219.000
59.44852 202.000
59.46847 255.000
59.48841 232.000
59.50836 232.000
59.52831 209.000
59.54825 233.000
59.56820 247.000
59.58815 233.000
59.60809 230.000
59.62804 250.000
59.64799 254.000
59.66793 226.000
59.68788 235.000
59.70783 243.000
59.72778 240.000
59.74772 258.000
59.76767 260.000
59.78762 227.000
59.80756 264.000
59.82751 247.000
59.84746 204.000
59.86740 231.000
59.88735 248.000
59.90730 239.000
59.92725 248.000
59.94719 228.000
59.96714 224.000
59.98709 221.000
60.00703 231.000
60.02698 225.000
60.04693 247.000
60.06687 225.000
60.08682 242.000
60.10677 237.000
60.12671 216.000
60.14666 220.000
60.16661 233.000
60.18656 261.000
60.20650 215.000
60.22645 240.000
60.24640 258.000
60.26634 202.000
60.28629 234.000
60.30624 254.000
60.32618 229.000
60.34613 247.000
60.36608 254.000
60.38603 240.000
60.40597 236.000
60.42592 247.000
60.44587 238.000
60.46581 217.000
60.48576 212.000
60.50571 247.000
60.52565 267.000
60.54560 232.000
60.56555 218.000
60.58550 257.000
60.60544 239.000
60.62539 231.000
60.64534 246.000
60.66528 227.000
60.68523 238.000
60.70518 198.000
60.72512 249.000
60.74507 218.000
60.76502 253.000
60.78496 229.000
60.80491 224.000
60.82486 213.000
60.84481 223.000
60.86475 242.000
60.88470 244.000
60.90465 258.000
60.92459 242.000
60.94454 234.000
60.96449 246.000
60.98443 251.000
61.00438 219.000
61.02433 257.000
61.04428 231.000
61.06422 250.000
61.08417 214.000
61.10412 251.000
61.12406 223.000
61.14401 267.000
61.16396 252.000
61.18390 237.000
61.20385 262.000
61.22380 238.000
61.24374 270.000
61.26369 239.000
61.28364 265.000
61.30359 234.000
61.32353 280.000
61.34348 272.000
61.36343 272.000
61.38337 329.000
61.40332 324.000
61.42327 287.000
61.44321 310.000
61.46316 305.000
61.48311 309.000
61.50306 308.000
61.52300 334.000
61.54295 351.000
61.56290 382.000
61.58284 352.000
61.60279 422.000
61.62274 379.000
61.64268 368.000
61.66263 364.000
61.68258 386.000
61.70252 365.000
61.72247 405.000
61.74242 386.000
61.76237 389.000
61.78231 394.000
61.80226 342.000
61.82221 378.000
61.84215 371.000
61.86210 425.000
61.88205 375.000
61.90199 373.000
61.92194 448.000
61.94189 454.000
61.96184 474.000
61.98178 532.000
62.00173 522.000
62.02168 562.000
62.04162 599.000
62.06157 660.000
62.08152 658.000
62.10146 712.000
62.12141 741.000
62.14136 745.000
62.16131 707.000
62.18125 716.000
62.20120 713.000
62.22115 669.000
62.24109 617.000
62.26104 609.000
62.28099 596.000
62.30093 581.000
62.32088 577.000
62.34083 584.000
62.36077 488.000
62.38072 437.000
62.40067 454.000
62.42062 476.000
62.44056 438.000
62.46051 471.000
62.48046 473.000
62.50040 481.000
62.52035 469.000
62.54030 545.000
62.56024 548.000
62.58019 540.000
62.60014 585.000
62.62009 634.000
62.64003 624.000
62.65998 657.000
62.67993 672.000
62.69987 651.000
62.71982 679.000
62.73977 677.000
62.75971 672.000
62.77966 664.000
62.79961 660.000
62.81955 589.000
62.83950 636.000
62.85945 599.000
62.87940 590.000
62.89934 542.000
62.91929 515.000
62.93924 529.000
62.95918 516.000
62.97913 462.000
62.99908 484.000
63.01902 444.000
63.03897 414.000
63.05892 425.000
63.07887 373.000
63.09881 374.000
63.11876 372.000
63.13871 350.000
63.15865 325.000
63.17860 322.000
63.19855 340.000
63.21849 312.000
63.23844 350.000
63.25839 310.000
63.27833 333.000
63.29828 309.000
63.31823 279.000
63.33818 289.000
63.35812 268.000
63.37807 269.000
63.39802 275.000
63.41796 264.000
63.43791 261.000
63.45786 273.000
63.47780 264.000
63.49775 251.000
63.51770 257.000
63.53765 276.000
63.55759 268.000
63.57754 241.000
63.59749 275.000
63.61743 267.000
63.63738 272.000
63.65733 264.000
63.67727 269.000
63.69722 265.000
63.71717 298.000
63.73712 234.000
63.75706 266.000
63.77701 239.000
63.79696 267.000
63.81690 264.000
63.83685 266.000
63.85680 281.000
63.87674 306.000
63.89669 268.000
63.91664 270.000
63.93658 302.000
63.95653 272.000
63.97648 285.000
63.99643 288.000
64.01637 346.000
64.03632 314.000
64.05627 357.000
64.07621 338.000
64.09616 354.000
64.11611 354.000
64.13605 406.000
64.15600 425.000
64.17595 414.000
64.19590 417.000
64.21584 389.000
64.23579 444.000
64.25574 438.000
64.27568 488.000
64.29563 454.000
64.31558 482.000
64.33552 440.000
64.35547 505.000
64.37542 453.000
64.39536 481.000
64.41531 477.000
64.43526 467.000
64.45521 479.000
64.47515 445.000
64.49510 379.000
64.51505 420.000
64.53499 408.000
64.55494 371.000
64.57489 388.000
64.59483 365.000
64.61478 369.000
64.63473 327.000
64.65468 289.000
64.67462 287.000
64.69457 309.000
64.71452 286.000
64.73446 277.000
64.75441 276.000
64.77436 283.000
64.79430 252.000
64.81425 265.000
64.83420 256.000
64.85414 272.000
64.87409 252.000
64.89404 301.000
64.91399 283.000
64.93393 236.000
64.95388 261.000
64.97383 242.000
64.99377 250.000
65.01372 270.000
65.03367 244.000
65.05361 286.000
65.07356 241.000
65.09351 241.000
65.11346 240.000
65.13340 252.000
65.15335 263.000
65.17330 235.000
65.19324 270.000
65.21319 238.000
65.23314 233.000
65.25308 259.000
65.27303 263.000
65.29298 285.000
65.31293 252.000
65.33287 256.000
65.35282 257.000
65.37277 251.000
65.39271 234.000
65.41266 295.000
65.43261 283.000
65.45255 286.000
65.47250 261.000
65.49245 308.000
65.51239 261.000
65.53234 258.000
65.55229 290.000
65.57224 288.000
65.59218 290.000
65.61213 307.000
65.63208 295.000
65.65202 309.000
65.67197 294.000
65.69192 285.000
65.71186 316.000
65.73181 348.000
65.75176 332.000
65.77171 311.000
65.79165 298.000
65.81160 318.000
65.83155 346.000
65.85149 330.000
65.87144 332.000
65.89139 298.000
65.91133 302.000
65.93128 293.000
65.95123 323.000
65.97117 283.000
65.99112 277.000
66.01107 327.000
66.03102 293.000
66.05096 303.000
66.07091 304.000
66.09086 271.000
66.11080 281.000
66.13075 297.000
66.15070 304.000
66.17064 302.000
66.19059 278.000
66.21054 307.000
66.23049 319.000
66.25043 354.000
66.27038 331.000
66.29033 316.000
66.31027 358.000
66.33022 328.000
66.35017 342.000
66.37011 381.000
66.39006 368.000
66.41001 373.000
66.42995 404.000
66.44990 401.000
66.46985 393.000
66.48980 447.000
66.50974 408.000
66.52969 445.000
66.54964 399.000
66.56958 432.000
66.58953 443.000
66.60948 446.000
66.62942 439.000
66.64937 449.000
66.66932 408.000
66.68927 405.000
66.70921 443.000
66.72916 424.000
66.74911 447.000
66.76905 372.000
66.78900 389.000
66.80895 381.000
66.82889 423.000
66.84884 377.000
66.86879 404.000
66.88874 382.000
66.90868 359.000
66.92863 395.000
66.94858 391.000
66.96852 364.000
66.98847 365.000
67.00842 379.000
67.02836 371.000
67.04831 356.000
67.06826 317.000
67.08820 346.000
67.10815 344.000
67.12810 299.000
67.14805 328.000
67.16799 307.000
67.18794 304.000
67.20789 307.000
67.22783 290.000
67.24778 296.000
67.26773 283.000
67.28767 300.000
67.30762 312.000
67.32757 265.000
67.34752 288.000
67.36746 271.000
67.38741 244.000
67.40736 288.000
67.42730 292.000
67.44725 260.000
67.46720 280.000
67.48714 244.000
67.50709 233.000
67.52704 274.000
67.54698 243.000
67.56693 237.000
67.58688 272.000
67.60683 241.000
67.62677 243.000
67.64672 255.000
67.66667 264.000
67.68661 251.000
67.70656 279.000
67.72651 257.000
67.74645 247.000
67.76640 294.000
67.78635 304.000
67.80630 270.000
67.82624 312.000
67.84619 311.000
67.86614 299.000
67.88608 331.000
67.90603 340.000
67.92598 311.000
67.94592 302.000
67.96587 318.000
67.98582 332.000
68.00576 343.000
68.02571 338.000
68.04566 322.000
68.06561 343.000
68.08555 332.000
68.10550 342.000
68.12545 322.000
68.14539 331.000
68.16534 295.000
68.18529 330.000
68.20523 314.000
68.22518 334.000
68.24513 317.000
68.26508 300.000
68.28502 271.000
68.30497 282.000
68.32492 268.000
68.34486 276.000
68.36481 261.000
68.38476 292.000
68.40470 285.000
68.42465 282.000
68.44460 272.000
68.46455 247.000
68.48449 239.000
68.50444 252.000
68.52439 232.000
68.54433 218.000
68.56428 240.000
68.58423 208.000
68.60417 245.000
68.62412 235.000
68.64407 231.000
68.66401 242.000
68.68396 243.000
68.70391 240.000
68.72386 249.000
68.74380 251.000
68.76375 231.000
68.78370 244.000
68.80364 222.000
68.82359 230.000
68.84354 238.000
68.86348 229.000
68.88343 216.000
68.90338 222.000
68.92333 219.000
68.94327 236.000
68.96322 224.000
68.98317 204.000
69.00311 262.000
69.02306 207.000
69.04301 249.000
69.06295 230.000
69.08290 227.000
69.10285 225.000
69.12279 239.000
69.14274 227.000
69.16269 247.000
69.18264 214.000
69.20258 223.000
69.22253 210.000
69.24248 258.000
69.26242 208.000
69.28237 223.000
69.30232 213.000
69.32226 227.000
69.34221 249.000
69.36216 231.000
69.38211 237.000
69.40205 224.000
69.42200 234.000
69.44195 225.000
69.46189 216.000
69.48184 223.000
69.50179 244.000
69.52173 229.000
69.54168 235.000
69.56163 220.000
69.58157 216.000
69.60152 237.000
69.62147 247.000
69.64142 198.000
69.66136 204.000
69.68131 238.000
69.70126 208.000
69.72120 218.000
69.74115 231.000
69.76110 225.000
69.78104 192.000
69.80099 245.000
69.82094 239.000
69.84089 261.000
69.86083 229.000
69.88078 274.000
69.90073 240.000
69.92067 213.000
69.94062 231.000
69.96057 251.000
69.98051 212.000
70.00046 239.000
70.02041 258.000
70.04035 205.000
70.06030 220.000
70.08025 258.000
70.10020 225.000
70.12014 230.000
70.14009 223.000
70.16004 236.000
70.17998 235.000
70.19993 235.000
70.21988 239.000
70.23982 222.000
70.25977 232.000
70.27972 215.000
70.29967 248.000
70.31961 232.000
70.33956 245.000
70.35951 256.000
70.37945 215.000
70.39940 245.000
70.41935 257.000
70.43929 216.000
70.45924 249.000
70.47919 226.000
70.49914 248.000
70.51908 239.000
70.53903 196.000
70.55898 201.000
70.57892 234.000
70.59887 239.000
70.61882 233.000
70.63876 241.000
70.65871 247.000
70.67866 230.000
70.69860 232.000
70.71855 244.000
70.73850 237.000
70.75845 244.000
70.77839 240.000
70.79834 236.000
70.81829 266.000
70.83823 236.000
70.85818 242.000
70.87813 228.000
70.89807 202.000
70.91802 218.000
70.93797 254.000
70.95792 224.000
70.97786 227.000
70.99781 241.000
71.01776 214.000
71.03770 258.000
71.05765 210.000
71.07760 232.000
71.09754 223.000
71.11749 225.000
71.13744 234.000
71.15738 234.000
71.17733 219.000
71.19728 225.000
71.21723 246.000
71.23717 212.000
71.25712 226.000
71.27707 227.000
71.29701 229.000
71.31696 246.000
71.33691 230.000
71.35685 242.000
71.37680 250.000
71.39675 237.000
71.41670 223.000
71.43664 263.000
71.45659 259.000
71.47654 214.000
71.49648 247.000
71.51643 210.000
71.53638 248.000
71.55632 232.000
71.57627 229.000
71.59622 238.000
71.61616 243.000
71.63611 260.000
71.65606 268.000
71.67601 234.000
71.69595 241.000
71.71590 221.000
71.73585 255.000
71.75579 242.000
71.77574 203.000
71.79569 227.000
71.81563 221.000
71.83558 242.000
71.85553 222.000
71.87548 235.000
71.89542 209.000
71.91537 225.000
71.93532 233.000
71.95526 223.000
71.97521 218.000
71.99516 252.000
72.01510 213.000
72.03505 225.000
72.05500 236.000
72.07495 260.000
72.09489 215.000
72.11484 264.000
72.13479 217.000
72.15473 256.000
72.17468 248.000
72.19463 231.000
72.21457 258.000
72.23452 241.000
72.25447 261.000
72.27441 260.000
72.29436 259.000
72.31431 254.000
72.33426 261.000
72.35420 276.000
72.37415 251.000
72.39410 244.000
72.41404 290.000
72.43399 255.000
72.45394 271.000
72.47388 266.000
72.49383 254.000
72.51378 259.000
72.53373 278.000
72.55367 284.000
72.57362 286.000
72.59357 236.000
72.61351 274.000
72.63346 248.000
72.65341 270.000
72.67335 279.000
72.69330 243.000
72.71325 254.000
72.73319 251.000
72.75314 263.000
72.77309 218.000
72.79304 232.000
72.81298 210.000
72.83293 225.000
72.85288 226.000
72.87282 222.000
72.89277 238.000
72.91272 255.000
72.93266 232.000
72.95261 232.000
72.97256 227.000
72.99251 253.000
73.01245 240.000
73.03240 250.000
73.05235 211.000
73.07229 238.000
73.09224 241.000
73.11219 253.000
73.13213 250.000
73.15208 252.000
73.17203 230.000
73.19197 242.000
73.21192 223.000
73.23187 218.000
73.25182 270.000
73.27176 257.000
73.29171 259.000
73.31166 252.000
73.33160 254.000
73.35155 243.000
73.37150 249.000
73.39144 269.000
73.41139 247.000
73.43134 275.000
73.45129 273.000
73.47123 294.000
73.49118 281.000
73.51113 273.000
73.53107 280.000
73.55102 293.000
73.57097 289.000
73.59091 328.000
73.61086 293.000
73.63081 300.000
73.65076 340.000
73.67070 337.000
73.69065 316.000
73.71060 325.000
73.73054 327.000
73.75049 328.000
73.77044 316.000
73.79038 338.000
73.81033 299.000
73.83028 337.000
73.85022 332.000
73.87017 302.000
73.89012 286.000
73.91007 299.000
73.93001 254.000
73.94996 257.000
73.96991 261.000
73.98985 266.000
74.00980 275.000
74.02975 256.000
74.04969 271.000
74.06964 258.000
74.08959 256.000
74.10954 251.000
74.12948 256.000
74.14943 226.000
74.16938 240.000
74.18932 239.000
74.20927 234.000
74.22922 281.000
74.24916 245.000
74.26911 246.000
74.28906 264.000
74.30900 253.000
74.32895 237.000
74.34890 264.000
74.36885 229.000
74.38879 213.000
74.40874 245.000
74.42869 235.000
74.44863 229.000
74.46858 266.000
74.48853 249.000
74.50847 280.000
74.52842 254.000
74.54837 253.000
74.56832 234.000
74.58826 237.000
74.60821 258.000
74.62816 267.000
74.64810 262.000
74.66805 277.000
74.68800 278.000
74.70794 265.000
74.72789 277.000
74.74784 261.000
74.76778 248.000
74.78773 323.000
74.80768 277.000
74.82763 294.000
74.84757 295.000
74.86752 314.000
74.88747 306.000
74.90741 299.000
74.92736 317.000
74.94731 314.000
74.96725 346.000
74.98720 348.000
75.00715 342.000
75.02710 404.000
75.04704 374.000
75.06699 382.000
75.08694 391.000
75.10688 398.000
75.12683 401.000
75.14678 407.000
75.16672 404.000
75.18667 397.000
75.20662 421.000
75.22657 442.000
75.24651 387.000
75.26646 361.000
75.28641 419.000
75.30635 423.000
75.32630 400.000
75.34625 389.000
75.36619 412.000
75.38614 356.000
75.40609 368.000
75.42603 356.000
75.44598 357.000
75.46593 342.000
75.48588 336.000
75.50582 346.000
75.52577 317.000
75.54572 285.000
75.56566 304.000
75.58561 303.000
75.60556 255.000
75.62550 306.000
75.64545 273.000
75.66540 287.000
75.68535 311.000
75.70529 287.000
75.72524 272.000
75.74519 305.000
75.76513 289.000
75.78508 303.000
75.80503 297.000
75.82497 292.000
75.84492 252.000
75.86487 285.000
75.88481 297.000
75.90476 275.000
75.92471 254.000
75.94466 270.000
75.96460 260.000
75.98455 272.000
76.00450 214.000
76.02444 242.000
76.04439 261.000
76.06434 274.000
76.08428 264.000
76.10423 260.000
76.12418 257.000
76.14413 279.000
76.16407 269.000
76.18402 230.000
76.20397 232.000
76.22391 241.000
76.24386 261.000
76.26381 262.000
76.28375 233.000
76.30370 237.000
76.32365 257.000
76.34359 237.000
76.36354 212.000
76.38349 251.000
76.40344 230.000
76.42338 249.000
76.44333 220.000
76.46328 227.000
76.48322 226.000
76.50317 244.000
76.52312 240.000
76.54306 237.000
76.56301 242.000
76.58296 232.000
76.60291 228.000
76.62285 230.000
76.64280 249.000
76.66275 266.000
76.68269 251.000
76.70264 217.000
76.72259 242.000
76.74253 234.000
76.76248 220.000
76.78243 228.000
76.80238 227.000
76.82232 233.000
76.84227 220.000
76.86222 212.000
76.88216 213.000
76.90211 211.000
76.92206 234.000
76.94200 252.000
76.96195 232.000
76.98190 221.000
77.00184 227.000
77.02179 230.000
77.04174 246.000
77.06169 241.000
77.08163 224.000
77.10158 261.000
77.12153 242.000
77.14147 226.000
77.16142 234.000
77.18137 228.000
77.20131 228.000
77.22126 188.000
77.24121 225.000
77.26116 228.000
77.28110 229.000
77.30105 248.000
77.32100 227.000
77.34094 236.000
77.36089 252.000
77.38084 245.000
77.40078 246.000
77.42073 227.000
77.44068 211.000
77.46062 242.000
77.48057 247.000
77.50052 232.000
77.52047 249.000
77.54041 239.000
77.56036 225.000
77.58031 218.000
77.60025 254.000
77.62020 238.000
77.64015 236.000
77.66009 267.000
77.68004 240.000
77.69999 242.000
77.71994 253.000
77.73988 236.000
77.75983 223.000
77.77978 257.000
77.79972 249.000
77.81967 237.000
77.83962 255.000
77.85956 282.000
77.87951 295.000
77.89946 284.000
77.91940 280.000
77.93935 292.000
77.95930 317.000
77.97925 299.000
77.99919 319.000
78.01914 314.000
78.03909 314.000
78.05903 305.000
78.07898 340.000
78.09893 329.000
78.11887 318.000
78.13882 320.000
78.15877 312.000
78.17872 311.000
78.19866 352.000
78.21861 350.000
78.23856 371.000
78.25850 350.000
78.27845 351.000
78.29840 362.000
78.31834 344.000
78.33829 347.000
78.35824 350.000
78.37819 369.000
78.39813 348.000
78.41808 375.000
78.43803 367.000
78.45797 346.000
78.47792 384.000
78.49787 333.000
78.51781 347.000
78.53776 332.000
78.55771 331.000
78.57765 338.000
78.59760 337.000
78.61755 295.000
78.63750 326.000
78.65744 301.000
78.67739 322.000
78.69734 283.000
78.71728 306.000
78.73723 279.000
78.75718 307.000
78.77712 283.000
78.79707 279.000
78.81702 288.000
78.83697 287.000
78.85691 295.000
78.87686 280.000
78.89681 279.000
78.91675 303.000
78.93670 270.000
78.95665 248.000
78.97659 283.000
78.99654 295.000
79.01649 288.000
79.03643 317.000
79.05638 323.000
79.07633 338.000
79.09628 350.000
79.11622 357.000
79.13617 322.000
79.15612 348.000
79.17606 322.000
79.19601 319.000
79.21596 339.000
79.23590 288.000
79.25585 317.000
79.27580 336.000
79.29575 355.000
79.31569 314.000
79.33564 301.000
79.35559 328.000
79.37553 304.000
79.39548 310.000
79.41543 309.000
79.43537 315.000
79.45532 255.000
79.47527 274.000
79.49521 282.000
79.51516 268.000
79.53511 264.000
79.55506 296.000
79.57500 281.000
79.59495 266.000
79.61490 228.000
79.63484 257.000
79.65479 259.000
79.67474 229.000
79.69468 268.000
79.71463 232.000
79.73458 248.000
79.75453 215.000
79.77447 248.000
79.79442 250.000
79.81437 238.000
79.83431 233.000
79.85426 248.000
79.87421 219.000
79.89415 210.000
79.91410 245.000
79.93405 248.000
79.95399 215.000
79.97394 235.000
79.99389 223.000
80.01384 221.000
80.03378 196.000
80.05373 226.000
80.07368 249.000
80.09362 226.000
80.11357 225.000
80.13352 237.000
80.15346 246.000
80.17341 245.000
80.19336 231.000
80.21331 232.000
80.23325 235.000
80.25320 244.000
80.27315 248.000
80.29309 248.000
80.31304 214.000
80.33299 226.000
80.35293 271.000
80.37288 264.000
80.39283 244.000
80.41278 244.000
80.43272 254.000
80.45267 253.000
80.47262 251.000
80.49256 239.000
80.51251 253.000
80.53246 251.000
80.55240 268.000
80.57235 238.000
80.59230 250.000
80.61224 250.000
80.63219 257.000
80.65214 219.000
80.67209 223.000
80.69203 230.000
80.71198 236.000
80.73193 242.000
80.75187 250.000
80.77182 259.000
80.79177 247.000
80.81171 258.000
80.83166 279.000
80.85161 265.000
80.87156 240.000
80.89150 239.000
80.91145 253.000
80.93140 232.000
80.95134 238.000
80.97129 248.000
80.99124 243.000
81.01118 275.000
81.03113 239.000
81.05108 202.000
81.07102 241.000
81.09097 239.000
81.11092 233.000
81.13087 214.000
81.15081 223.000
81.17076 228.000
81.19071 247.000
81.21065 215.000
81.23060 243.000
81.25055 234.000
81.27049 238.000
81.29044 218.000
81.31039 232.000
81.33034 240.000
81.35028 238.000
81.37023 240.000
81.39018 228.000
81.41012 217.000
81.43007 236.000
81.45002 244.000
81.46996 231.000
81.48991 244.000
81.50986 219.000
81.52980 215.000
81.54975 259.000
81.56970 210.000
81.58965 246.000
81.60959 217.000
81.62954 237.000
81.64949 235.000
81.66943 253.000
81.68938 235.000
81.70933 242.000
81.72927 245.000
81.74922 222.000
81.76917 232.000
81.78912 223.000
81.80906 235.000
81.82901 233.000
81.84896 258.000
81.86890 236.000
81.88885 234.000
81.90880 227.000
81.92874 195.000
81.94869 198.000
81.96864 220.000
81.98859 236.000
82.00853 224.000
82.02848 221.000
82.04843 224.000
82.06837 244.000
82.08832 245.000
82.10827 235.000
82.12821 242.000
82.14816 252.000
82.16811 194.000
82.18805 231.000
82.20800 233.000
82.22795 233.000
82.24790 231.000
82.26784 235.000
82.28779 214.000
82.30774 240.000
82.32768 226.000
82.34763 218.000
82.36758 240.000
82.38752 251.000
82.40747 238.000
82.42742 252.000
82.44737 252.000
82.46731 242.000
82.48726 243.000
82.50721 259.000
82.52715 233.000
82.54710 236.000
82.56705 284.000
82.58699 232.000
82.60694 228.000
82.62689 248.000
82.64683 272.000
82.66678 258.000
82.68673 256.000
82.70668 261.000
82.72662 241.000
82.74657 243.000
82.76652 245.000
82.78646 222.000
82.80641 255.000
82.82636 265.000
82.84630 246.000
82.86625 250.000
82.88620 266.000
82.90615 270.000
82.92609 246.000
82.94604 254.000
82.96599 272.000
82.98593 254.000
83.00588 271.000
83.02583 225.000
83.04577 251.000
83.06572 229.000
83.08567 269.000
83.10561 237.000
83.12556 238.000
83.14551 251.000
83.16546 255.000
83.18540 229.000
83.20535 284.000
83.22530 246.000
83.24524 246.000
83.26519 260.000
83.28514 272.000
83.30508 258.000
83.32503 253.000
83.34498 221.000
83.36493 238.000
83.38487 262.000
83.40482 252.000
83.42477 242.000
83.44471 250.000
83.46466 235.000
83.48461 284.000
83.50455 249.000
83.52450 261.000
83.54445 247.000
83.56440 241.000
83.58434 267.000
83.60429 222.000
83.62424 247.000
83.64418 244.000
83.66413 249.000
83.68408 241.000
83.70402 239.000
83.72397 239.000
83.74392 276.000
83.76386 253.000
83.78381 209.000
83.80376 251.000
83.82371 254.000
83.84365 264.000
83.86360 229.000
83.88355 253.000
83.90349 254.000
83.92344 235.000
83.94339 262.000
83.96333 227.000
83.98328 291.000
84.00323 251.000
84.02318 247.000
84.04312 232.000
84.06307 228.000
84.08302 258.000
84.10296 254.000
84.12291 298.000
84.14286 239.000
84.16280 254.000
84.18275 217.000
84.20270 243.000
84.22264 245.000
84.24259 281.000
84.26254 268.000
84.28249 258.000
84.30243 248.000
84.32238 238.000
84.34233 257.000
84.36227 259.000
84.38222 257.000
84.40217 289.000
84.42211 298.000
84.44206 278.000
84.46201 294.000
84.48196 296.000
84.50190 275.000
84.52185 280.000
84.54180 301.000
84.56174 286.000
84.58169 312.000
84.60164 318.000
84.62158 316.000
84.64153 306.000
84.66148 331.000
84.68142 304.000
84.70137 330.000
84.72132 320.000
84.74127 284.000
84.76121 307.000
84.78116 281.000
84.80111 284.000
84.82105 335.000
84.84100 337.000
84.86095 294.000
84.88089 319.000
84.90084 312.000
84.92079 313.000
84.94074 317.000
84.96068 268.000
84.98063 300.000
85.00058 284.000
85.02052 294.000
85.04047 250.000
85.06042 282.000
85.08036 267.000
85.10031 240.000
85.12026 255.000
85.14021 285.000
85.16015 267.000
85.18010 235.000
85.20005 260.000
85.21999 265.000
85.23994 227.000
85.25989 224.000
85.27983 223.000
85.29978 245.000
85.31973 271.000
85.33967 242.000
85.35962 242.000
85.37957 252.000
85.39952 242.000
85.41946 200.000
85.43941 205.000
85.45936 210.000
85.47930 237.000
85.49925 240.000
85.51920 232.000
85.53914 248.000
85.55909 236.000
85.57904 228.000
85.59899 242.000
85.61893 229.000
85.63888 236.000
85.65883 233.000
85.67877 230.000
85.69872 211.000
85.71867 217.000
85.73861 253.000
85.75856 248.000
85.77851 244.000
85.79845 210.000
85.81840 242.000
85.83835 229.000
85.85830 221.000
85.87824 243.000
85.89819 245.000
85.91814 212.000
85.93808 263.000
85.95803 221.000
85.97798 224.000
85.99792 230.000
86.01787 220.000
86.03782 241.000
86.05777 243.000
86.07771 211.000
86.09766 239.000
86.11761 263.000
86.13755 228.000
86.15750 211.000
86.17745 237.000
86.19739 235.000
86.21734 254.000
86.23729 222.000
86.25723 251.000
86.27718 235.000
86.29713 219.000
86.31708 230.000
86.33702 224.000
86.35697 228.000
86.37692 249.000
86.39686 238.000
86.41681 237.000
86.43676 241.000
86.45670 214.000
86.47665 260.000
86.49660 208.000
86.51655 246.000
86.53649 238.000
86.55644 237.000
86.57639 236.000
86.59633 264.000
86.61628 217.000
86.63623 222.000
86.65617 268.000
86.67612 242.000
86.69607 248.000
86.71602 258.000
86.73596 245.000
86.75591 238.000
86.77586 235.000
86.79580 235.000
86.81575 253.000
86.83570 255.000
86.85564 205.000
86.87559 249.000
86.89554 247.000
86.91548 201.000
86.93543 228.000
86.95538 261.000
86.97533 253.000
86.99527 212.000
87.01522 237.000
87.03517 272.000
87.05511 223.000
87.07506 239.000
87.09501 211.000
87.11495 267.000
87.13490 250.000
87.15485 246.000
87.17480 245.000
87.19474 249.000
87.21469 262.000
87.23464 240.000
87.25458 261.000
87.27453 243.000
87.29448 227.000
87.31442 250.000
87.33437 240.000
87.35432 232.000
87.37426 273.000
87.39421 255.000
87.41416 259.000
87.43411 261.000
87.45405 239.000
87.47400 270.000
87.49395 240.000
87.51389 261.000
87.53384 249.000
87.55379 259.000
87.57373 248.000
87.59368 260.000
87.61363 274.000
87.63358 274.000
87.65352 276.000
87.67347 272.000
87.69342 283.000
87.71336 257.000
87.73331 261.000
87.75326 238.000
87.77320 241.000
87.79315 229.000
87.81310 243.000
87.83304 252.000
87.85299 281.000
87.87294 258.000
87.89289 236.000
87.91283 256.000
87.93278 241.000
87.95273 253.000
87.97267 250.000
87.99262 212.000
88.01257 246.000
88.03251 243.000
88.05246 234.000
88.07241 260.000
88.09236 264.000
88.11230 241.000
88.13225 233.000
88.15220 235.000
88.17214 221.000
88.19209 237.000
88.21204 249.000
88.23198 237.000
88.25193 253.000
88.27188 206.000
88.29183 230.000
88.31177 225.000
88.33172 219.000
88.35167 231.000
88.37161 226.000
88.39156 223.000
88.41151 254.000
88.43145 219.000
88.45140 246.000
88.47135 236.000
88.49129 256.000
88.51124 231.000
88.53119 237.000
88.55114 220.000
88.57108 224.000
88.59103 235.000
88.61098 242.000
88.63092 226.000
88.65087 214.000
88.67082 224.000
88.69076 210.000
88.71071 275.000
88.73066 245.000
88.75061 233.000
88.77055 245.000
88.79050 216.000
88.81045 242.000
88.83039 226.000
88.85034 212.000
88.87029 223.000
88.89023 213.000
88.91018 236.000
88.93013 234.000
88.95007 208.000
88.97002 191.000
88.98997 224.000
89.00992 222.000
89.02986 234.000
89.04981 255.000
89.06976 209.000
89.08970 208.000
89.10965 223.000
89.12960 226.000
89.14954 215.000
89.16949 237.000
89.18944 223.000
89.20939 219.000
89.22933 223.000
89.24928 227.000
89.26923 239.000
89.28917 244.000
89.30912 226.000
89.32907 253.000
89.34901 245.000
89.36896 245.000
89.38891 238.000
89.40885 256.000
89.42880 258.000
89.44875 264.000
89.46870 262.000
89.48864 217.000
89.50859 243.000
89.52854 242.000
89.54848 237.000
89.56843 233.000
89.58838 240.000
89.60832 235.000
89.62827 241.000
89.64822 227.000
89.66817 259.000
89.68811 216.000
89.70806 219.000
89.72801 243.000
89.74795 242.000
89.76790 235.000
89.78785 236.000
89.80779 238.000
89.82774 261.000
89.84769 219.000
89.86764 263.000
89.88758 234.000
89.90753 243.000
89.92748 263.000
89.94742 221.000
89.96737 251.000
89.98732 240.000
90.00726 240.000
