10.00000 82.000
10.01995 64.000
10.03989 69.000
10.05984 75.000
10.07979 77.000
10.09973 79.000
10.11968 75.000
10.13963 72.000
10.15958 79.000
10.17952 74.000
10.19947 58.000
10.21942 89.000
10.23936 74.000
10.25931 50.000
10.27926 75.000
10.29920 65.000
10.31915 63.000
10.33910 74.000
10.35905 74.000
10.37899 80.000
10.39894 73.000
10.41889 64.000
10.43883 74.000
10.45878 71.000
10.47873 77.000
10.49867 76.000
10.51862 60.000
10.53857 51.000
10.55851 74.000
10.57846 84.000
10.59841 77.000
10.61836 77.000
10.63830 81.000
10.65825 76.000
10.67820 71.000
10.69814 83.000
10.71809 72.000
10.73804 75.000
10.75798 58.000
10.77793 75.000
10.79788 78.000
10.81783 71.000
10.83777 58.000
10.85772 59.000
10.87767 80.000
10.89761 61.000
10.91756 75.000
10.93751 64.000
10.95745 77.000
10.97740 77.000
10.99735 67.000
11.01730 71.000
11.03724 72.000
11.05719 86.000
11.07714 74.000
11.09708 78.000
11.11703 80.000
11.13698 67.000
11.15692 68.000
11.17687 65.000
11.19682 79.000
11.21676 70.000
11.23671 63.000
11.25666 72.000
11.27661 67.000
11.29655 68.000
11.31650 78.000
11.33645 70.000
11.35639 64.000
11.37634 74.000
11.39629 70.000
11.41623 57.000
11.43618 76.000
11.45613 76.000
11.47608 74.000
11.49602 72.000
11.51597 75.000
11.53592 70.000
11.55586 61.000
11.57581 76.000
11.59576 72.000
11.61570 61.000
11.63565 72.000
11.65560 82.000
11.67554 69.000
11.69549 87.000
11.71544 72.000
11.73539 84.000
11.75533 76.000
11.77528 73.000
11.79523 81.000
11.81517 74.000
11.83512 65.000
11.85507 60.000
11.87501 89.000
11.89496 70.000
11.91491 75.000
11.93486 66.000
11.95480 74.000
11.97475 69.000
11.99470 76.000
12.01464 73.000
12.03459 65.000
12.05454 77.000
12.07448 70.000
12.09443 58.000
12.11438 71.000
12.13432 86.000
12.15427 81.000
12.17422 78.000
12.19417 79.000
12.21411 91.000
12.23406 76.000
12.25401 81.000
12.27395 60.000
12.29390 99.000
12.31385 83.000
12.33379 62.000
12.35374 72.000
12.37369 69.000
12.39364 79.000
12.41358 85.000
12.43353 81.000
12.45348 83.000
12.47342 86.000
12.49337 113.000
12.51332 114.000
12.53326 99.000
12.55321 86.000
12.57316 114.000
12.59311 94.000
12.61305 95.000
12.63300 103.000
12.65295 110.000
12.67289 123.000
12.69284 98.000
12.71279 108.000
12.73273 110.000
12.75268 108.000
12.77263 110.000
12.79257 97.000
12.81252 96.000
12.83247 98.000
12.85242 88.000
12.87236 106.000
12.89231 101.000
12.91226 99.000
12.93220 102.000
12.95215 93.000
12.97210 95.000
12.99204 93.000
13.01199 89.000
13.03194 92.000
13.05189 112.000
13.07183 102.000
13.09178 91.000
13.11173 87.000
13.13167 80.000
13.15162 93.000
13.17157 95.000
13.19151 87.000
13.21146 86.000
13.23141 95.000
13.25135 103.000
13.27130 87.000
13.29125 79.000
13.31120 107.000
13.33114 92.000
13.35109 100.000
13.37104 98.000
13.39098 97.000
13.41093 125.000
13.43088 93.000
13.45082 110.000
13.47077 98.000
13.49072 104.000
13.51067 102.000
13.53061 91.000
13.55056 100.000
13.57051 90.000
13.59045 80.000
13.61040 108.000
13.63035 79.000
13.65029 79.000
13.67024 78.000
13.69019 75.000
13.71013 101.000
13.73008 93.000
13.75003 78.000
13.76998 85.000
13.78992 107.000
13.80987 85.000
13.82982 76.000
13.84976 94.000
13.86971 82.000
13.88966 107.000
13.90960 116.000
13.92955 135.000
13.94950 140.000
13.96945 174.000
13.98939 202.000
14.00934 192.000
14.02929 205.000
14.04923 232.000
14.06918 178.000
14.08913 134.000
14.10907 112.000
14.12902 118.000
14.14897 94.000
14.16892 89.000
14.18886 102.000
14.20881 88.000
14.22876 102.000
14.24870 92.000
14.26865 117.000
14.28860 100.000
14.30854 97.000
14.32849 84.000
14.34844 84.000
14.36838 76.000
14.38833 87.000
14.40828 89.000
14.42823 89.000
14.44817 93.000
14.46812 84.000
14.48807 91.000
14.50801 84.000
14.52796 83.000
14.54791 91.000
14.56785 92.000
14.58780 81.000
14.60775 81.000
14.62770 97.000
14.64764 80.000
14.66759 94.000
14.68754 91.000
14.70748 109.000
14.72743 88.000
14.74738 105.000
14.76732 101.000
14.78727 98.000
14.80722 94.000
14.82716 115.000
14.84711 93.000
14.86706 84.000
14.88701 112.000
14.90695 105.000
14.92690 124.000
14.94685 104.000
14.96679 107.000
14.98674 135.000
15.00669 119.000
15.02663 114.000
15.04658 110.000
15.06653 117.000
15.08648 137.000
15.10642 132.000
15.12637 140.000
15.14632 170.000
15.16626 207.000
15.18621 214.000
15.20616 188.000
15.22610 172.000
15.24605 169.000
15.26600 150.000
15.28594 174.000
15.30589 159.000
15.32584 169.000
15.34579 183.000
15.36573 168.000
15.38568 161.000
15.40563 182.000
15.42557 175.000
15.44552 209.000
15.46547 197.000
15.48541 177.000
15.50536 225.000
15.52531 218.000
15.54526 249.000
15.56520 266.000
15.58515 320.000
15.60510 342.000
15.62504 384.000
15.64499 464.000
15.66494 579.000
15.68488 707.000
15.70483 1002.000
15.72478 1569.000
15.74472 2488.000
15.76467 4129.000
15.78462 7034.000
15.80457 10929.000
15.82451 15188.000
15.84446 16796.000
15.86441 14558.000
15.88435 10672.000
15.90430 6666.000
15.92425 4034.000
15.94419 2470.000
15.96414 1641.000
15.98409 1158.000
16.00404 867.000
16.02398 721.000
16.04393 515.000
16.06388 474.000
16.08382 426.000
16.10377 388.000
16.12372 352.000
16.14366 281.000
16.16361 312.000
16.18356 235.000
16.20351 259.000
16.22345 242.000
16.24340 205.000
16.26335 217.000
16.28329 192.000
16.30324 186.000
16.32319 183.000
16.34313 169.000
16.36308 163.000
16.38303 161.000
16.40297 149.000
16.42292 208.000
16.44287 214.000
16.46282 191.000
16.48276 208.000
16.50271 191.000
16.52266 153.000
16.54260 119.000
16.56255 125.000
16.58250 112.000
16.60244 118.000
16.62239 92.000
16.64234 89.000
16.66229 135.000
16.68223 102.000
16.70218 97.000
16.72213 92.000
16.74207 105.000
16.76202 95.000
16.78197 117.000
16.80191 95.000
16.82186 105.000
16.84181 126.000
16.86175 119.000
16.88170 135.000
16.90165 140.000
16.92160 139.000
16.94154 137.000
16.96149 122.000
16.98144 118.000
17.00138 124.000
17.02133 98.000
17.04128 88.000
17.06122 94.000
17.08117 79.000
17.10112 87.000
17.12107 80.000
17.14101 82.000
17.16096 99.000
17.18091 68.000
17.20085 92.000
17.22080 82.000
17.24075 76.000
17.26069 69.000
17.28064 95.000
17.30059 64.000
17.32053 88.000
17.34048 75.000
17.36043 83.000
17.38038 81.000
17.40032 76.000
17.42027 90.000
17.44022 74.000
17.46016 88.000
17.48011 78.000
17.50006 80.000
17.52000 75.000
17.53995 76.000
17.55990 78.000
17.57985 82.000
17.59979 83.000
17.61974 86.000
17.63969 70.000
17.65963 71.000
17.67958 88.000
17.69953 81.000
17.71947 68.000
17.73942 60.000
17.75937 94.000
17.77932 80.000
17.79926 85.000
17.81921 76.000
17.83916 66.000
17.85910 80.000
17.87905 83.000
17.89900 82.000
17.91894 74.000
17.93889 81.000
17.95884 77.000
17.97878 72.000
17.99873 80.000
18.01868 84.000
18.03863 76.000
18.05857 77.000
18.07852 81.000
18.09847 68.000
18.11841 84.000
18.13836 91.000
18.15831 80.000
18.17825 97.000
18.19820 74.000
18.21815 80.000
18.23810 77.000
18.25804 60.000
18.27799 64.000
18.29794 68.000
18.31788 89.000
18.33783 68.000
18.35778 94.000
18.37772 72.000
18.39767 88.000
18.41762 87.000
18.43756 76.000
18.45751 74.000
18.47746 88.000
18.49741 95.000
18.51735 94.000
18.53730 77.000
18.55725 78.000
18.57719 81.000
18.59714 71.000
18.61709 74.000
18.63703 94.000
18.65698 68.000
18.67693 60.000
18.69688 70.000
18.71682 73.000
18.73677 90.000
18.75672 79.000
18.77666 93.000
18.79661 69.000
18.81656 84.000
18.83650 73.000
18.85645 89.000
18.87640 74.000
18.89634 64.000
18.91629 69.000
18.93624 78.000
18.95619 82.000
18.97613 85.000
18.99608 64.000
19.01603 68.000
19.03597 96.000
19.05592 63.000
19.07587 69.000
19.09581 84.000
19.11576 70.000
19.13571 59.000
19.15566 75.000
19.17560 76.000
19.19555 81.000
19.21550 77.000
19.23544 75.000
19.25539 77.000
19.27534 82.000
19.29528 92.000
19.31523 85.000
19.33518 76.000
19.35513 78.000
19.37507 82.000
19.39502 80.000
19.41497 80.000
19.43491 90.000
19.45486 66.000
19.47481 81.000
19.49475 77.000
19.51470 54.000
19.53465 61.000
19.55459 72.000
19.57454 68.000
19.59449 79.000
19.61444 72.000
19.63438 87.000
19.65433 54.000
19.67428 65.000
19.69422 71.000
19.71417 75.000
19.73412 80.000
19.75406 65.000
19.77401 85.000
19.79396 81.000
19.81391 81.000
19.83385 68.000
19.85380 91.000
19.87375 66.000
19.89369 79.000
19.91364 90.000
19.93359 69.000
19.95353 91.000
19.97348 75.000
19.99343 90.000
20.01337 98.000
20.03332 80.000
20.05327 81.000
20.07322 85.000
20.09316 73.000
20.11311 68.000
20.13306 89.000
20.15300 68.000
20.17295 85.000
20.19290 83.000
20.21284 87.000
20.23279 69.000
20.25274 75.000
20.27269 82.000
20.29263 91.000
20.31258 78.000
20.33253 85.000
20.35247 71.000
20.37242 93.000
20.39237 86.000
20.41231 74.000
20.43226 72.000
20.45221 100.000
20.47215 79.000
20.49210 67.000
20.51205 75.000
20.53200 82.000
20.55194 78.000
20.57189 72.000
20.59184 69.000
20.61178 80.000
20.63173 75.000
20.65168 87.000
20.67162 79.000
20.69157 77.000
20.71152 76.000
20.73147 87.000
20.75141 79.000
20.77136 104.000
20.79131 80.000
20.81125 110.000
20.83120 118.000
20.85115 118.000
20.87109 96.000
20.89104 102.000
20.91099 98.000
20.93094 99.000
20.95088 98.000
20.97083 88.000
20.99078 96.000
21.01072 99.000
21.03067 100.000
21.05062 80.000
21.07056 97.000
21.09051 72.000
21.11046 77.000
21.13040 88.000
21.15035 81.000
21.17030 98.000
21.19025 71.000
21.21019 76.000
21.23014 79.000
21.25009 80.000
21.27003 88.000
21.28998 70.000
21.30993 90.000
21.32987 77.000
21.34982 73.000
21.36977 89.000
21.38972 70.000
21.40966 83.000
21.42961 86.000
21.44956 72.000
21.46950 86.000
21.48945 69.000
21.50940 86.000
21.52934 78.000
21.54929 72.000
21.56924 72.000
21.58918 85.000
21.60913 80.000
21.62908 93.000
21.64903 83.000
21.66897 89.000
21.68892 69.000
21.70887 83.000
21.72881 73.000
21.74876 75.000
21.76871 70.000
21.78865 90.000
21.80860 72.000
21.82855 82.000
21.84850 87.000
21.86844 89.000
21.88839 87.000
21.90834 80.000
21.92828 85.000
21.94823 69.000
21.96818 82.000
21.98812 80.000
22.00807 96.000
22.02802 99.000
22.04796 88.000
22.06791 83.000
22.08786 90.000
22.10781 76.000
22.12775 75.000
22.14770 67.000
22.16765 83.000
22.18759 62.000
22.20754 81.000
22.22749 95.000
22.24743 99.000
22.26738 79.000
22.28733 82.000
22.30728 78.000
22.32722 86.000
22.34717 65.000
22.36712 87.000
22.38706 90.000
22.40701 68.000
22.42696 79.000
22.44690 81.000
22.46685 88.000
22.48680 67.000
22.50675 90.000
22.52669 68.000
22.54664 74.000
22.56659 72.000
22.58653 70.000
22.60648 71.000
22.62643 93.000
22.64637 85.000
22.66632 71.000
22.68627 75.000
22.70621 78.000
22.72616 78.000
22.74611 86.000
22.76606 85.000
22.78600 86.000
22.80595 64.000
22.82590 87.000
22.84584 83.000
22.86579 104.000
22.88574 85.000
22.90568 81.000
22.92563 106.000
22.94558 100.000
22.96553 98.000
22.98547 89.000
23.00542 90.000
23.02537 92.000
23.04531 100.000
23.06526 80.000
23.08521 85.000
23.10515 81.000
23.12510 104.000
23.14505 90.000
23.16499 75.000
23.18494 72.000
23.20489 84.000
23.22484 86.000
23.24478 89.000
23.26473 72.000
23.28468 85.000
23.30462 105.000
23.32457 105.000
23.34452 103.000
23.36446 101.000
23.38441 90.000
23.40436 88.000
23.42431 111.000
23.44425 94.000
23.46420 86.000
23.48415 96.000
23.50409 100.000
23.52404 113.000
23.54399 102.000
23.56393 84.000
23.58388 77.000
23.60383 83.000
23.62377 84.000
23.64372 76.000
23.66367 110.000
23.68362 96.000
23.70356 105.000
23.72351 98.000
23.74346 77.000
23.76340 85.000
23.78335 100.000
23.80330 91.000
23.82324 87.000
23.84319 80.000
23.86314 71.000
23.88309 92.000
23.90303 101.000
23.92298 91.000
23.94293 74.000
23.96287 106.000
23.98282 77.000
24.00277 97.000
24.02271 82.000
24.04266 76.000
24.06261 79.000
24.08256 91.000
24.10250 98.000
24.12245 71.000
24.14240 94.000
24.16234 90.000
24.18229 97.000
24.20224 104.000
24.22218 77.000
24.24213 82.000
24.26208 88.000
24.28202 82.000
24.30197 67.000
24.32192 114.000
24.34187 114.000
24.36181 86.000
24.38176 97.000
24.40171 92.000
24.42165 77.000
24.44160 87.000
24.46155 83.000
24.48149 82.000
24.50144 102.000
24.52139 106.000
24.54134 109.000
24.56128 70.000
24.58123 84.000
24.60118 78.000
24.62112 77.000
24.64107 78.000
24.66102 85.000
24.68096 79.000
24.70091 63.000
24.72086 80.000
24.74080 93.000
24.76075 87.000
24.78070 84.000
24.80065 83.000
24.82059 79.000
24.84054 82.000
24.86049 102.000
24.88043 99.000
24.90038 82.000
24.92033 112.000
24.94027 101.000
24.96022 84.000
24.98017 108.000
25.00012 119.000
25.02006 107.000
25.04001 126.000
25.05996 141.000
25.07990 115.000
25.09985 117.000
25.11980 121.000
25.13974 115.000
25.15969 101.000
25.17964 100.000
25.19958 95.000
25.21953 90.000
25.23948 76.000
25.25943 95.000
25.27937 89.000
25.29932 96.000
25.31927 93.000
25.33921 78.000
25.35916 79.000
25.37911 80.000
25.39905 97.000
25.41900 94.000
25.43895 103.000
25.45890 98.000
25.47884 90.000
25.49879 110.000
25.51874 77.000
25.53868 86.000
25.55863 77.000
25.57858 81.000
25.59852 98.000
25.61847 78.000
25.63842 85.000
25.65837 79.000
25.67831 105.000
25.69826 104.000
25.71821 90.000
25.73815 84.000
25.75810 82.000
25.77805 72.000
25.79799 88.000
25.81794 86.000
25.83789 81.000
25.85783 108.000
25.87778 83.000
25.89773 93.000
25.91768 87.000
25.93762 93.000
25.95757 99.000
25.97752 93.000
25.99746 86.000
26.01741 74.000
26.03736 92.000
26.05730 101.000
26.07725 91.000
26.09720 100.000
26.11715 103.000
26.13709 89.000
26.15704 79.000
26.17699 100.000
26.19693 77.000
26.21688 80.000
26.23683 109.000
26.25677 83.000
26.27672 85.000
26.29667 88.000
26.31661 79.000
26.33656 97.000
26.35651 95.000
26.37646 86.000
26.39640 96.000
26.41635 78.000
26.43630 82.000
26.45624 82.000
26.47619 83.000
26.49614 99.000
26.51608 96.000
26.53603 86.000
26.55598 84.000
26.57593 83.000
26.59587 80.000
26.61582 102.000
26.63577 80.000
26.65571 81.000
26.67566 84.000
26.69561 79.000
26.71555 73.000
26.73550 87.000
26.75545 90.000
26.77539 99.000
26.79534 92.000
26.81529 93.000
26.83524 87.000
26.85518 104.000
26.87513 85.000
26.89508 98.000
26.91502 94.000
26.93497 103.000
26.95492 99.000
26.97486 76.000
26.99481 89.000
27.01476 98.000
27.03471 94.000
27.05465 95.000
27.07460 84.000
27.09455 86.000
27.11449 92.000
27.13444 87.000
27.15439 90.000
27.17433 80.000
27.19428 80.000
27.21423 87.000
27.23417 86.000
27.25412 75.000
27.27407 96.000
27.29402 102.000
27.31396 109.000
27.33391 99.000
27.35386 90.000
27.37380 78.000
27.39375 112.000
27.41370 107.000
27.43364 100.000
27.45359 97.000
27.47354 113.000
27.49349 80.000
27.51343 96.000
27.53338 107.000
27.55333 99.000
27.57327 88.000
27.59322 98.000
27.61317 94.000
27.63311 89.000
27.65306 94.000
27.67301 106.000
27.69296 89.000
27.71290 105.000
27.73285 102.000
27.75280 91.000
27.77274 84.000
27.79269 67.000
27.81264 87.000
27.83258 93.000
27.85253 94.000
27.87248 84.000
27.89242 107.000
27.91237 102.000
27.93232 99.000
27.95227 103.000
27.97221 89.000
27.99216 83.000
28.01211 72.000
28.03205 103.000
28.05200 93.000
28.07195 83.000
28.09189 95.000
28.11184 89.000
28.13179 91.000
28.15174 120.000
28.17168 92.000
28.19163 78.000
28.21158 83.000
28.23152 75.000
28.25147 99.000
28.27142 95.000
28.29136 93.000
28.31131 101.000
28.33126 92.000
28.35120 82.000
28.37115 83.000
28.39110 104.000
28.41105 96.000
28.43099 84.000
28.45094 83.000
28.47089 77.000
28.49083 78.000
28.51078 87.000
28.53073 94.000
28.55067 94.000
28.57062 77.000
28.59057 87.000
28.61052 86.000
28.63046 83.000
28.65041 82.000
28.67036 116.000
28.69030 88.000
28.71025 108.000
28.73020 104.000
28.75014 91.000
28.77009 110.000
28.79004 86.000
28.80998 110.000
28.82993 81.000
28.84988 94.000
28.86983 95.000
28.88977 111.000
28.90972 90.000
28.92967 117.000
28.94961 86.000
28.96956 108.000
28.98951 92.000
29.00945 77.000
29.02940 95.000
29.04935 84.000
29.06930 92.000
29.08924 91.000
29.10919 97.000
29.12914 103.000
29.14908 88.000
29.16903 103.000
29.18898 93.000
29.20892 107.000
29.22887 111.000
29.24882 98.000
29.26877 113.000
29.28871 113.000
29.30866 107.000
29.32861 108.000
29.34855 176.000
29.36850 167.000
29.38845 165.000
29.40839 214.000
29.42834 200.000
29.44829 243.000
29.46823 221.000
29.48818 210.000
29.50813 212.000
29.52808 168.000
29.54802 168.000
29.56797 159.000
29.58792 157.000
29.60786 146.000
29.62781 124.000
29.64776 127.000
29.66770 116.000
29.68765 116.000
29.70760 123.000
29.72755 132.000
29.74749 114.000
29.76744 122.000
29.78739 129.000
29.80733 97.000
29.82728 90.000
29.84723 107.000
29.86717 118.000
29.88712 116.000
29.90707 105.000
29.92701 114.000
29.94696 106.000
29.96691 109.000
29.98686 103.000
30.00680 103.000
30.02675 108.000
30.04670 106.000
30.06664 110.000
30.08659 151.000
30.10654 141.000
30.12648 135.000
30.14643 156.000
30.16638 144.000
30.18633 139.000
30.20627 160.000
30.22622 133.000
30.24617 141.000
30.26611 123.000
30.28606 118.000
30.30601 96.000
30.32595 133.000
30.34590 103.000
30.36585 120.000
30.38579 94.000
30.40574 98.000
30.42569 114.000
30.44564 106.000
30.46558 76.000
30.48553 110.000
30.50548 104.000
30.52542 98.000
30.54537 109.000
30.56532 104.000
30.58526 111.000
30.60521 100.000
30.62516 95.000
30.64511 96.000
30.66505 87.000
30.68500 111.000
30.70495 94.000
30.72489 101.000
30.74484 95.000
30.76479 110.000
30.78473 87.000
30.80468 110.000
30.82463 99.000
30.84458 110.000
30.86452 119.000
30.88447 85.000
30.90442 111.000
30.92436 106.000
30.94431 107.000
30.96426 116.000
30.98420 98.000
31.00415 102.000
31.02410 103.000
31.04404 111.000
31.06399 96.000
31.08394 109.000
31.10389 96.000
31.12383 100.000
31.14378 107.000
31.16373 109.000
31.18367 121.000
31.20362 116.000
31.22357 120.000
31.24351 87.000
31.26346 108.000
31.28341 114.000
31.30336 110.000
31.32330 91.000
31.34325 111.000
31.36320 101.000
31.38314 114.000
31.40309 88.000
31.42304 112.000
31.44298 99.000
31.46293 93.000
31.48288 110.000
31.50282 110.000
31.52277 113.000
31.54272 118.000
31.56267 106.000
31.58261 108.000
31.60256 106.000
31.62251 131.000
31.64245 132.000
31.66240 144.000
31.68235 136.000
31.70229 133.000
31.72224 152.000
31.74219 181.000
31.76214 204.000
31.78208 259.000
31.80203 294.000
31.82198 400.000
31.84192 577.000
31.86187 664.000
31.88182 954.000
31.90176 1116.000
31.92171 1142.000
31.94166 1133.000
31.96160 959.000
31.98155 925.000
32.00150 879.000
32.02145 654.000
32.04139 572.000
32.06134 422.000
32.08129 376.000
32.10123 293.000
32.12118 235.000
32.14113 255.000
32.16107 185.000
32.18102 179.000
32.20097 169.000
32.22092 176.000
32.24086 132.000
32.26081 135.000
32.28076 109.000
32.30070 132.000
32.32065 124.000
32.34060 126.000
32.36054 103.000
32.38049 127.000
32.40044 129.000
32.42039 118.000
32.44033 123.000
32.46028 120.000
32.48023 99.000
32.50017 126.000
32.52012 89.000
32.54007 100.000
32.56001 120.000
32.57996 118.000
32.59991 103.000
32.61985 112.000
32.63980 115.000
32.65975 97.000
32.67970 118.000
32.69964 109.000
32.71959 90.000
32.73954 104.000
32.75948 113.000
32.77943 107.000
32.79938 116.000
32.81932 104.000
32.83927 98.000
32.85922 95.000
32.87917 105.000
32.89911 115.000
32.91906 121.000
32.93901 112.000
32.95895 93.000
32.97890 121.000
32.99885 114.000
33.01879 111.000
33.03874 122.000
33.05869 127.000
33.07863 140.000
33.09858 120.000
33.11853 116.000
33.13848 116.000
33.15842 136.000
33.17837 112.000
33.19832 125.000
33.21826 94.000
33.23821 123.000
33.25816 112.000
33.27810 127.000
33.29805 102.000
33.31800 104.000
33.33795 114.000
33.35789 112.000
33.37784 108.000
33.39779 98.000
33.41773 97.000
33.43768 93.000
33.45763 123.000
33.47757 99.000
33.49752 106.000
33.51747 114.000
33.53741 118.000
33.55736 120.000
33.57731 108.000
33.59726 98.000
33.61720 102.000
33.63715 114.000
33.65710 105.000
33.67704 117.000
33.69699 92.000
33.71694 97.000
33.73688 112.000
33.75683 110.000
33.77678 101.000
33.79673 105.000
33.81667 110.000
33.83662 105.000
33.85657 107.000
33.87651 104.000
33.89646 112.000
33.91641 124.000
33.93635 144.000
33.95630 120.000
33.97625 135.000
33.99620 152.000
34.01614 189.000
34.03609 181.000
34.05604 199.000
34.07598 185.000
34.09593 162.000
34.11588 176.000
34.13582 146.000
34.15577 146.000
34.17572 130.000
34.19566 153.000
34.21561 178.000
34.23556 168.000
34.25551 156.000
34.27545 146.000
34.29540 170.000
34.31535 167.000
34.33529 181.000
34.35524 162.000
34.37519 161.000
34.39513 167.000
34.41508 161.000
34.43503 140.000
34.45498 148.000
34.47492 137.000
34.49487 164.000
34.51482 143.000
34.53476 162.000
34.55471 144.000
34.57466 125.000
34.59460 138.000
34.61455 155.000
34.63450 127.000
34.65444 128.000
34.67439 132.000
34.69434 132.000
34.71429 139.000
34.73423 128.000
34.75418 121.000
34.77413 146.000
34.79407 153.000
34.81402 132.000
34.83397 144.000
34.85391 151.000
34.87386 135.000
34.89381 192.000
34.91376 160.000
34.93370 151.000
34.95365 167.000
34.97360 153.000
34.99354 139.000
35.01349 141.000
35.03344 137.000
35.05338 131.000
35.07333 150.000
35.09328 133.000
35.11322 137.000
35.13317 143.000
35.15312 140.000
35.17307 145.000
35.19301 133.000
35.21296 140.000
35.23291 142.000
35.25285 144.000
35.27280 159.000
35.29275 178.000
35.31269 162.000
35.33264 155.000
35.35259 152.000
35.37254 156.000
35.39248 147.000
35.41243 138.000
35.43238 141.000
35.45232 142.000
35.47227 139.000
35.49222 147.000
35.51216 136.000
35.53211 151.000
35.55206 171.000
35.57201 176.000
35.59195 182.000
35.61190 200.000
35.63185 233.000
35.65179 259.000
35.67174 293.000
35.69169 374.000
35.71163 411.000
35.73158 411.000
35.75153 452.000
35.77147 484.000
35.79142 550.000
35.81137 525.000
35.83132 538.000
35.85126 466.000
35.87121 528.000
35.89116 438.000
35.91110 417.000
35.93105 387.000
35.95100 348.000
35.97094 328.000
35.99089 282.000
36.01084 243.000
36.03079 263.000
36.05073 238.000
36.07068 230.000
36.09063 228.000
36.11057 227.000
36.13052 240.000
36.15047 254.000
36.17041 269.000
36.19036 291.000
36.21031 274.000
36.23025 269.000
36.25020 275.000
36.27015 292.000
36.29010 286.000
36.31004 259.000
36.32999 246.000
36.34994 219.000
36.36988 208.000
36.38983 176.000
36.40978 180.000
36.42972 180.000
36.44967 152.000
36.46962 153.000
36.48957 150.000
36.50951 130.000
36.52946 146.000
36.54941 150.000
36.56935 154.000
36.58930 138.000
36.60925 151.000
36.62919 131.000
36.64914 147.000
36.66909 158.000
36.68903 164.000
36.70898 175.000
36.72893 152.000
36.74888 170.000
36.76882 166.000
36.78877 166.000
36.80872 171.000
36.82866 162.000
36.84861 153.000
36.86856 147.000
36.88850 151.000
36.90845 151.000
36.92840 147.000
36.94835 131.000
36.96829 155.000
36.98824 148.000
37.00819 149.000
37.02813 167.000
37.04808 150.000
37.06803 155.000
37.08797 181.000
37.10792 168.000
37.12787 187.000
37.14781 190.000
37.16776 225.000
37.18771 256.000
37.20766 249.000
37.22760 280.000
37.24755 302.000
37.26750 298.000
37.28744 338.000
37.30739 306.000
37.32734 368.000
37.34728 355.000
37.36723 401.000
37.38718 403.000
37.40713 465.000
37.42707 452.000
37.44702 476.000
37.46697 491.000
37.48691 458.000
37.50686 436.000
37.52681 408.000
37.54675 385.000
37.56670 291.000
37.58665 292.000
37.60660 242.000
37.62654 214.000
37.64649 215.000
37.66644 186.000
37.68638 164.000
37.70633 188.000
37.72628 159.000
37.74622 190.000
37.76617 188.000
37.78612 162.000
37.80606 182.000
37.82601 175.000
37.84596 175.000
37.86591 181.000
37.88585 188.000
37.90580 189.000
37.92575 170.000
37.94569 159.000
37.96564 172.000
37.98559 185.000
38.00553 178.000
38.02548 190.000
38.04543 202.000
38.06538 169.000
38.08532 194.000
38.10527 151.000
38.12522 147.000
38.14516 191.000
38.16511 165.000
38.18506 153.000
38.20500 143.000
38.22495 147.000
38.24490 164.000
38.26484 145.000
38.28479 152.000
38.30474 147.000
38.32469 137.000
38.34463 126.000
38.36458 130.000
38.38453 117.000
38.40447 114.000
38.42442 123.000
38.44437 129.000
38.46431 130.000
38.48426 136.000
38.50421 118.000
38.52416 125.000
38.54410 112.000
38.56405 111.000
38.58400 112.000
38.60394 120.000
38.62389 124.000
38.64384 126.000
38.66378 138.000
38.68373 131.000
38.70368 130.000
38.72362 114.000
38.74357 117.000
38.76352 126.000
38.78347 117.000
38.80341 120.000
38.82336 120.000
38.84331 134.000
38.86325 144.000
38.88320 126.000
38.90315 130.000
38.92309 132.000
38.94304 131.000
38.96299 155.000
38.98294 169.000
39.00288 167.000
39.02283 156.000
39.04278 167.000
39.06272 187.000
39.08267 167.000
39.10262 169.000
39.12256 228.000
39.14251 224.000
39.16246 323.000
39.18241 391.000
39.20235 471.000
39.22230 518.000
39.24225 610.000
39.26219 694.000
39.28214 776.000
39.30209 917.000
39.32203 897.000
39.34198 939.000
39.36193 920.000
39.38187 889.000
39.40182 847.000
39.42177 821.000
39.44172 731.000
39.46166 654.000
39.48161 590.000
39.50156 508.000
39.52150 451.000
39.54145 417.000
39.56140 315.000
39.58134 251.000
39.60129 249.000
39.62124 233.000
39.64119 200.000
39.66113 186.000
39.68108 184.000
39.70103 160.000
39.72097 163.000
39.74092 157.000
39.76087 145.000
39.78081 151.000
39.80076 134.000
39.82071 122.000
39.84065 142.000
39.86060 138.000
39.88055 148.000
39.90050 143.000
39.92044 113.000
39.94039 121.000
39.96034 151.000
39.98028 121.000
40.00023 124.000
40.02018 150.000
40.04012 126.000
40.06007 137.000
40.08002 147.000
40.09997 114.000
40.11991 114.000
40.13986 118.000
40.15981 97.000
40.17975 117.000
40.19970 118.000
40.21965 122.000
40.23959 120.000
40.25954 122.000
40.27949 113.000
40.29943 102.000
40.31938 102.000
40.33933 93.000
40.35928 119.000
40.37922 90.000
40.39917 104.000
40.41912 116.000
40.43906 103.000
40.45901 109.000
40.47896 105.000
40.49890 105.000
40.51885 107.000
40.53880 109.000
40.55875 107.000
40.57869 103.000
40.59864 101.000
40.61859 109.000
40.63853 108.000
40.65848 86.000
40.67843 88.000
40.69837 107.000
40.71832 109.000
40.73827 94.000
40.75822 83.000
40.77816 101.000
40.79811 119.000
40.81806 113.000
40.83800 104.000
40.85795 106.000
40.87790 71.000
40.89784 105.000
40.91779 90.000
40.93774 91.000
40.95768 115.000
40.97763 102.000
40.99758 99.000
41.01753 106.000
41.03747 93.000
41.05742 97.000
41.07737 113.000
41.09731 104.000
41.11726 104.000
41.13721 128.000
41.15715 119.000
41.17710 139.000
41.19705 111.000
41.21700 110.000
41.23694 113.000
41.25689 125.000
41.27684 105.000
41.29678 138.000
41.31673 147.000
41.33668 130.000
41.35662 168.000
41.37657 163.000
41.39652 173.000
41.41646 167.000
41.43641 193.000
41.45636 162.000
41.47631 168.000
41.49625 188.000
41.51620 190.000
41.53615 202.000
41.55609 185.000
41.57604 217.000
41.59599 192.000
41.61593 172.000
41.63588 203.000
41.65583 152.000
41.67578 176.000
41.69572 155.000
41.71567 157.000
41.73562 143.000
41.75556 155.000
41.77551 149.000
41.79546 124.000
41.81540 127.000
41.83535 119.000
41.85530 138.000
41.87524 116.000
41.89519 123.000
41.91514 127.000
41.93509 110.000
41.95503 127.000
41.97498 121.000
41.99493 122.000
42.01487 120.000
42.03482 133.000
42.05477 126.000
42.07471 117.000
42.09466 109.000
42.11461 107.000
42.13456 109.000
42.15450 109.000
42.17445 108.000
42.19440 122.000
42.21434 116.000
42.23429 96.000
42.25424 116.000
42.27418 120.000
42.29413 111.000
42.31408 106.000
42.33403 101.000
42.35397 121.000
42.37392 111.000
42.39387 121.000
42.41381 99.000
42.43376 125.000
42.45371 121.000
42.47365 132.000
42.49360 127.000
42.51355 151.000
42.53349 154.000
42.55344 158.000
42.57339 157.000
42.59334 147.000
42.61328 144.000
42.63323 144.000
42.65318 142.000
42.67312 149.000
42.69307 154.000
42.71302 115.000
42.73296 117.000
42.75291 124.000
42.77286 105.000
42.79281 117.000
42.81275 114.000
42.83270 105.000
42.85265 119.000
42.87259 88.000
42.89254 100.000
42.91249 121.000
42.93243 140.000
42.95238 95.000
42.97233 116.000
42.99227 116.000
43.01222 112.000
43.03217 103.000
43.05212 119.000
43.07206 122.000
43.09201 121.000
43.11196 119.000
43.13190 125.000
43.15185 113.000
43.17180 135.000
43.19174 151.000
43.21169 147.000
43.23164 146.000
43.25159 190.000
43.27153 202.000
43.29148 254.000
43.31143 306.000
43.33137 352.000
43.35132 366.000
43.37127 420.000
43.39121 422.000
43.41116 398.000
43.43111 421.000
43.45105 437.000
43.47100 355.000
43.49095 384.000
43.51090 338.000
43.53084 341.000
43.55079 300.000
43.57074 306.000
43.59068 252.000
43.61063 225.000
43.63058 219.000
43.65052 192.000
43.67047 189.000
43.69042 180.000
43.71037 182.000
43.73031 157.000
43.75026 134.000
43.77021 151.000
43.79015 132.000
43.81010 145.000
43.83005 102.000
43.84999 122.000
43.86994 108.000
43.88989 118.000
43.90984 116.000
43.92978 114.000
43.94973 84.000
43.96968 133.000
43.98962 101.000
44.00957 112.000
44.02952 103.000
44.04946 110.000
44.06941 111.000
44.08936 108.000
44.10930 81.000
44.12925 129.000
44.14920 114.000
44.16915 97.000
44.18909 108.000
44.20904 117.000
44.22899 108.000
44.24893 121.000
44.26888 113.000
44.28883 120.000
44.30877 113.000
44.32872 108.000
44.34867 126.000
44.36862 121.000
44.38856 135.000
44.40851 115.000
44.42846 117.000
44.44840 145.000
44.46835 134.000
44.48830 145.000
44.50824 147.000
44.52819 123.000
44.54814 174.000
44.56808 157.000
44.58803 156.000
44.60798 150.000
44.62793 166.000
44.64787 163.000
44.66782 193.000
44.68777 186.000
44.70771 166.000
44.72766 185.000
44.74761 206.000
44.76755 197.000
44.78750 195.000
44.80745 205.000
44.82740 211.000
44.84734 224.000
44.86729 242.000
44.88724 240.000
44.90718 288.000
44.92713 286.000
44.94708 302.000
44.96702 309.000
44.98697 326.000
45.00692 367.000
45.02686 387.000
45.04681 424.000
45.06676 392.000
45.08671 437.000
45.10665 447.000
45.12660 405.000
45.14655 388.000
45.16649 426.000
45.18644 400.000
45.20639 380.000
45.22633 364.000
45.24628 351.000
45.26623 308.000
45.28618 306.000
45.30612 261.000
45.32607 288.000
45.34602 259.000
45.36596 235.000
45.38591 208.000
45.40586 200.000
45.42580 207.000
45.44575 178.000
45.46570 161.000
45.48565 176.000
45.50559 155.000
45.52554 154.000
45.54549 156.000
45.56543 137.000
45.58538 142.000
45.60533 108.000
45.62527 121.000
45.64522 132.000
45.66517 133.000
45.68511 120.000
45.70506 133.000
45.72501 98.000
45.74496 104.000
45.76490 116.000
45.78485 120.000
45.80480 99.000
45.82474 117.000
45.84469 100.000
45.86464 124.000
45.88458 111.000
45.90453 107.000
45.92448 124.000
45.94443 112.000
45.96437 103.000
45.98432 92.000
46.00427 98.000
46.02421 115.000
46.04416 108.000
46.06411 109.000
46.08405 90.000
46.10400 87.000
46.12395 87.000
46.14389 91.000
46.16384 87.000
46.18379 99.000
46.20374 94.000
46.22368 82.000
46.24363 77.000
46.26358 108.000
46.28352 97.000
46.30347 115.000
46.32342 87.000
46.34336 94.000
46.36331 84.000
46.38326 113.000
46.40321 98.000
46.42315 103.000
46.44310 109.000
46.46305 90.000
46.48299 84.000
46.50294 120.000
46.52289 112.000
46.54283 118.000
46.56278 107.000
46.58273 104.000
46.60267 110.000
46.62262 111.000
46.64257 94.000
46.66252 113.000
46.68246 85.000
46.70241 105.000
46.72236 106.000
46.74230 113.000
46.76225 97.000
46.78220 104.000
46.80214 112.000
46.82209 78.000
46.84204 107.000
46.86199 124.000
46.88193 107.000
46.90188 91.000
46.92183 109.000
46.94177 104.000
46.96172 97.000
46.98167 108.000
47.00161 101.000
47.02156 98.000
47.04151 105.000
47.06146 90.000
47.08140 106.000
47.10135 96.000
47.12130 95.000
47.14124 102.000
47.16119 91.000
47.18114 100.000
47.20108 111.000
47.22103 108.000
47.24098 87.000
47.26092 83.000
47.28087 98.000
47.30082 94.000
47.32077 108.000
47.34071 106.000
47.36066 103.000
47.38061 88.000
47.40055 85.000
47.42050 93.000
47.44045 87.000
47.46039 96.000
47.48034 97.000
47.50029 100.000
47.52024 106.000
47.54018 75.000
47.56013 114.000
47.58008 108.000
47.60002 112.000
47.61997 94.000
47.63992 110.000
47.65986 108.000
47.67981 88.000
47.69976 111.000
47.71970 96.000
47.73965 104.000
47.75960 117.000
47.77955 110.000
47.79949 97.000
47.81944 90.000
47.83939 104.000
47.85933 98.000
47.87928 115.000
47.89923 95.000
47.91917 103.000
47.93912 106.000
47.95907 96.000
47.97902 90.000
47.99896 116.000
48.01891 96.000
48.03886 108.000
48.05880 146.000
48.07875 118.000
48.09870 137.000
48.11864 129.000
48.13859 158.000
48.15854 171.000
48.17848 137.000
48.19843 127.000
48.21838 142.000
48.23833 148.000
48.25827 129.000
48.27822 151.000
48.29817 149.000
48.31811 152.000
48.33806 165.000
48.35801 162.000
48.37795 167.000
48.39790 172.000
48.41785 212.000
48.43780 222.000
48.45774 240.000
48.47769 271.000
48.49764 329.000
48.51758 409.000
48.53753 461.000
48.55748 560.000
48.57742 665.000
48.59737 770.000
48.61732 837.000
48.63726 884.000
48.65721 896.000
48.67716 926.000
48.69711 824.000
48.71705 791.000
48.73700 826.000
48.75695 766.000
48.77689 707.000
48.79684 696.000
48.81679 548.000
48.83673 529.000
48.85668 475.000
48.87663 378.000
48.89658 357.000
48.91652 306.000
48.93647 295.000
48.95642 287.000
48.97636 237.000
48.99631 203.000
49.01626 193.000
49.03620 181.000
49.05615 173.000
49.07610 161.000
49.09605 156.000
49.11599 138.000
49.13594 157.000
49.15589 139.000
49.17583 138.000
49.19578 122.000
49.21573 131.000
49.23567 131.000
49.25562 124.000
49.27557 110.000
49.29551 113.000
49.31546 120.000
49.33541 89.000
49.35536 131.000
49.37530 112.000
49.39525 127.000
49.41520 127.000
49.43514 103.000
49.45509 112.000
49.47504 111.000
49.49498 119.000
49.51493 101.000
49.53488 121.000
49.55483 92.000
49.57477 91.000
49.59472 114.000
49.61467 98.000
49.63461 111.000
49.65456 97.000
49.67451 90.000
49.69445 100.000
49.71440 120.000
49.73435 106.000
49.75429 99.000
49.77424 97.000
49.79419 89.000
49.81414 102.000
49.83408 92.000
49.85403 95.000
49.87398 93.000
49.89392 95.000
49.91387 88.000
49.93382 86.000
49.95376 120.000
49.97371 91.000
49.99366 87.000
50.01361 110.000
50.03355 79.000
50.05350 102.000
50.07345 91.000
50.09339 102.000
50.11334 107.000
50.13329 75.000
50.15323 84.000
50.17318 84.000
50.19313 91.000
50.21307 86.000
50.23302 113.000
50.25297 101.000
50.27292 95.000
50.29286 100.000
50.31281 85.000
50.33276 88.000
50.35270 94.000
50.37265 102.000
50.39260 83.000
50.41254 96.000
50.43249 108.000
50.45244 99.000
50.47239 98.000
50.49233 82.000
50.51228 82.000
50.53223 74.000
50.55217 92.000
50.57212 89.000
50.59207 91.000
50.61201 57.000
50.63196 84.000
50.65191 89.000
50.67186 87.000
50.69180 102.000
50.71175 97.000
50.73170 106.000
50.75164 85.000
50.77159 80.000
50.79154 80.000
50.81148 84.000
50.83143 89.000
50.85138 102.000
50.87132 88.000
50.89127 106.000
50.91122 88.000
50.93117 73.000
50.95111 89.000
50.97106 81.000
50.99101 86.000
51.01095 99.000
51.03090 86.000
51.05085 76.000
51.07079 92.000
51.09074 99.000
51.11069 81.000
51.13064 80.000
51.15058 88.000
51.17053 96.000
51.19048 105.000
51.21042 91.000
51.23037 92.000
51.25032 90.000
51.27026 101.000
51.29021 86.000
51.31016 107.000
51.33010 105.000
51.35005 79.000
51.37000 83.000
51.38995 88.000
51.40989 88.000
51.42984 82.000
51.44979 102.000
51.46973 81.000
51.48968 90.000
51.50963 100.000
51.52957 81.000
51.54952 78.000
51.56947 84.000
51.58942 78.000
51.60936 102.000
51.62931 80.000
51.64926 73.000
51.66920 104.000
51.68915 94.000
51.70910 78.000
51.72904 91.000
51.74899 94.000
51.76894 91.000
51.78888 100.000
51.80883 79.000
51.82878 102.000
51.84873 91.000
51.86867 97.000
51.88862 86.000
51.90857 86.000
51.92851 98.000
51.94846 90.000
51.96841 91.000
51.98835 100.000
52.00830 98.000
52.02825 96.000
52.04820 113.000
52.06814 112.000
52.08809 121.000
52.10804 109.000
52.12798 126.000
52.14793 117.000
52.16788 126.000
52.18782 114.000
52.20777 141.000
52.22772 141.000
52.24767 125.000
52.26761 136.000
52.28756 127.000
52.30751 141.000
52.32745 135.000
52.34740 120.000
52.36735 129.000
52.38729 118.000
52.40724 133.000
52.42719 135.000
52.44713 132.000
52.46708 157.000
52.48703 141.000
52.50698 139.000
52.52692 164.000
52.54687 131.000
52.56682 149.000
52.58676 156.000
52.60671 169.000
52.62666 147.000
52.64660 145.000
52.66655 151.000
52.68650 152.000
52.70645 159.000
52.72639 158.000
52.74634 183.000
52.76629 194.000
52.78623 159.000
52.80618 159.000
52.82613 178.000
52.84607 175.000
52.86602 170.000
52.88597 157.000
52.90591 127.000
52.92586 153.000
52.94581 135.000
52.96576 167.000
52.98570 122.000
53.00565 134.000
53.02560 158.000
53.04554 121.000
53.06549 136.000
53.08544 131.000
53.10538 122.000
53.12533 116.000
53.14528 140.000
53.16523 111.000
53.18517 117.000
53.20512 119.000
53.22507 121.000
53.24501 97.000
53.26496 127.000
53.28491 111.000
53.30485 112.000
53.32480 140.000
53.34475 124.000
53.36469 99.000
53.38464 99.000
53.40459 106.000
53.42454 117.000
53.44448 109.000
53.46443 81.000
53.48438 98.000
53.50432 102.000
53.52427 107.000
53.54422 101.000
53.56416 101.000
53.58411 107.000
53.60406 97.000
53.62401 92.000
53.64395 102.000
53.66390 109.000
53.68385 87.000
53.70379 115.000
53.72374 105.000
53.74369 90.000
53.76363 82.000
53.78358 92.000
53.80353 100.000
53.82348 87.000
53.84342 87.000
53.86337 84.000
53.88332 80.000
53.90326 93.000
53.92321 101.000
53.94316 94.000
53.96310 105.000
53.98305 111.000
54.00300 93.000
54.02294 84.000
54.04289 99.000
54.06284 103.000
54.08279 94.000
54.10273 94.000
54.12268 103.000
54.14263 93.000
54.16257 103.000
54.18252 95.000
54.20247 77.000
54.22241 105.000
54.24236 83.000
54.26231 92.000
54.28226 91.000
54.30220 79.000
54.32215 97.000
54.34210 102.000
54.36204 93.000
54.38199 89.000
54.40194 90.000
54.42188 94.000
54.44183 93.000
54.46178 101.000
54.48172 97.000
54.50167 107.000
54.52162 89.000
54.54157 111.000
54.56151 105.000
54.58146 90.000
54.60141 111.000
54.62135 96.000
54.64130 101.000
54.66125 103.000
54.68119 78.000
54.70114 103.000
54.72109 103.000
54.74104 98.000
54.76098 87.000
54.78093 95.000
54.80088 109.000
54.82082 94.000
54.84077 114.000
54.86072 87.000
54.88066 91.000
54.90061 91.000
54.92056 82.000
54.94050 104.000
54.96045 90.000
54.98040 85.000
55.00035 77.000
55.02029 84.000
55.04024 85.000
55.06019 100.000
55.08013 88.000
55.10008 93.000
55.12003 85.000
55.13997 109.000
55.15992 103.000
55.17987 84.000
55.19982 90.000
55.21976 97.000
55.23971 87.000
55.25966 89.000
55.27960 86.000
55.29955 95.000
55.31950 78.000
55.33944 90.000
55.35939 90.000
55.37934 88.000
55.39929 81.000
55.41923 90.000
55.43918 79.000
55.45913 86.000
55.47907 87.000
55.49902 92.000
55.51897 86.000
55.53891 101.000
55.55886 75.000
55.57881 98.000
55.59875 95.000
55.61870 96.000
55.63865 90.000
55.65860 91.000
55.67854 85.000
55.69849 82.000
55.71844 92.000
55.73838 98.000
55.75833 90.000
55.77828 82.000
55.79822 93.000
55.81817 79.000
55.83812 99.000
55.85807 102.000
55.87801 102.000
55.89796 103.000
55.91791 85.000
55.93785 93.000
55.95780 102.000
55.97775 90.000
55.99769 90.000
56.01764 92.000
56.03759 93.000
56.05753 90.000
56.07748 84.000
56.09743 96.000
56.11738 90.000
56.13732 99.000
56.15727 88.000
56.17722 97.000
56.19716 101.000
56.21711 88.000
56.23706 112.000
56.25700 77.000
56.27695 114.000
56.29690 86.000
56.31685 90.000
56.33679 104.000
56.35674 98.000
56.37669 108.000
56.39663 108.000
56.41658 79.000
56.43653 96.000
56.45647 127.000
56.47642 86.000
56.49637 104.000
56.51631 90.000
56.53626 104.000
56.55621 108.000
56.57616 118.000
56.59610 114.000
56.61605 92.000
56.63600 88.000
56.65594 97.000
56.67589 87.000
56.69584 94.000
56.71578 99.000
56.73573 99.000
56.75568 105.000
56.77563 113.000
56.79557 100.000
56.81552 121.000
56.83547 127.000
56.85541 128.000
56.87536 125.000
56.89531 110.000
56.91525 119.000
56.93520 132.000
56.95515 127.000
56.97510 132.000
56.99504 123.000
57.01499 138.000
57.03494 150.000
57.05488 147.000
57.07483 164.000
57.09478 145.000
57.11472 150.000
57.13467 142.000
57.15462 137.000
57.17456 139.000
57.19451 153.000
57.21446 143.000
57.23441 161.000
57.25435 126.000
57.27430 147.000
57.29425 134.000
57.31419 146.000
57.33414 148.000
57.35409 132.000
57.37403 132.000
57.39398 117.000
57.41393 122.000
57.43388 143.000
57.45382 134.000
57.47377 126.000
57.49372 124.000
57.51366 120.000
57.53361 120.000
57.55356 108.000
57.57350 132.000
57.59345 125.000
57.61340 132.000
57.63334 115.000
57.65329 122.000
57.67324 113.000
57.69319 125.000
57.71313 118.000
57.73308 114.000
57.75303 123.000
57.77297 116.000
57.79292 130.000
57.81287 125.000
57.83281 101.000
57.85276 95.000
57.87271 87.000
57.89266 116.000
57.91260 102.000
57.93255 101.000
57.95250 90.000
57.97244 117.000
57.99239 113.000
58.01234 96.000
58.03228 122.000
58.05223 110.000
58.07218 96.000
58.09212 95.000
58.11207 116.000
58.13202 78.000
58.15197 98.000
58.17191 112.000
58.19186 103.000
58.21181 128.000
58.23175 116.000
58.25170 128.000
58.27165 110.000
58.29159 98.000
58.31154 121.000
58.33149 127.000
58.35144 137.000
58.37138 126.000
58.39133 114.000
58.41128 102.000
58.43122 119.000
58.45117 126.000
58.47112 102.000
58.49106 98.000
58.51101 109.000
58.53096 115.000
58.55090 107.000
58.57085 106.000
58.59080 104.000
58.61075 84.000
58.63069 104.000
58.65064 113.000
58.67059 115.000
58.69053 94.000
58.71048 90.000
58.73043 92.000
58.75037 90.000
58.77032 87.000
58.79027 86.000
58.81022 117.000
58.83016 92.000
58.85011 107.000
58.87006 80.000
58.89000 91.000
58.90995 93.000
58.92990 101.000
58.94984 98.000
58.96979 84.000
58.98974 90.000
59.00969 100.000
59.02963 100.000
59.04958 100.000
59.06953 107.000
59.08947 104.000
59.10942 99.000
59.12937 111.000
59.14931 94.000
59.16926 94.000
59.18921 88.000
59.20915 104.000
59.22910 89.000
59.24905 83.000
59.26900 89.000
59.28894 81.000
59.30889 108.000
59.32884 94.000
59.34878 85.000
59.36873 91.000
59.38868 104.000
59.40862 94.000
59.42857 95.000
59.44852 97.000
59.46847 88.000
59.48841 90.000
59.50836 104.000
59.52831 88.000
59.54825 85.000
59.56820 76.000
59.58815 76.000
59.60809 86.000
59.62804 104.000
59.64799 97.000
59.66793 108.000
59.68788 82.000
59.70783 80.000
59.72778 97.000
59.74772 91.000
59.76767 78.000
59.78762 106.000
59.80756 94.000
59.82751 84.000
59.84746 86.000
59.86740 85.000
59.88735 86.000
59.90730 84.000
59.92725 93.000
59.94719 103.000
59.96714 92.000
59.98709 88.000
60.00703 88.000
60.02698 82.000
60.04693 86.000
60.06687 108.000
60.08682 93.000
60.10677 98.000
60.12671 104.000
60.14666 93.000
60.16661 99.000
60.18656 98.000
60.20650 107.000
60.22645 99.000
60.24640 88.000
60.26634 88.000
60.28629 91.000
60.30624 82.000
60.32618 93.000
60.34613 101.000
60.36608 98.000
60.38603 87.000
60.40597 96.000
60.42592 105.000
60.44587 94.000
60.46581 95.000
60.48576 89.000
60.50571 114.000
60.52565 89.000
60.54560 89.000
60.56555 107.000
60.58550 92.000
60.60544 112.000
60.62539 95.000
60.64534 86.000
60.66528 94.000
60.68523 98.000
60.70518 102.000
60.72512 95.000
60.74507 92.000
60.76502 104.000
60.78496 84.000
60.80491 94.000
60.82486 99.000
60.84481 111.000
60.86475 97.000
60.88470 96.000
60.90465 112.000
60.92459 100.000
60.94454 95.000
60.96449 86.000
60.98443 99.000
61.00438 95.000
61.02433 79.000
61.04428 105.000
61.06422 106.000
61.08417 125.000
61.10412 111.000
61.12406 101.000
61.14401 124.000
61.16396 106.000
61.18390 128.000
61.20385 102.000
61.22380 98.000
61.24374 109.000
61.26369 99.000
61.28364 116.000
61.30359 111.000
61.32353 119.000
61.34348 130.000
61.36343 112.000
61.38337 99.000
61.40332 126.000
61.42327 121.000
61.44321 113.000
61.46316 131.000
61.48311 105.000
61.50306 135.000
61.52300 120.000
61.54295 152.000
61.56290 148.000
61.58284 156.000
61.60279 156.000
61.62274 159.000
61.64268 206.000
61.66263 195.000
61.68258 227.000
61.70252 277.000
61.72247 282.000
61.74242 297.000
61.76237 350.000
61.78231 359.000
61.80226 407.000
61.82221 421.000
61.84215 413.000
61.86210 372.000
61.88205 405.000
61.90199 396.000
61.92194 365.000
61.94189 339.000
61.96184 323.000
61.98178 319.000
62.00173 305.000
62.02168 309.000
62.04162 286.000
62.06157 261.000
62.08152 217.000
62.10146 205.000
62.12141 222.000
62.14136 207.000
62.16131 173.000
62.18125 171.000
62.20120 157.000
62.22115 156.000
62.24109 143.000
62.26104 124.000
62.28099 157.000
62.30093 132.000
62.32088 137.000
62.34083 122.000
62.36077 113.000
62.38072 120.000
62.40067 138.000
62.42062 118.000
62.44056 128.000
62.46051 116.000
62.48046 109.000
62.50040 122.000
62.52035 101.000
62.54030 131.000
62.56024 123.000
62.58019 127.000
62.60014 125.000
62.62009 149.000
62.64003 107.000
62.65998 109.000
62.67993 108.000
62.69987 99.000
62.71982 108.000
62.73977 110.000
62.75971 104.000
62.77966 99.000
62.79961 96.000
62.81955 94.000
62.83950 116.000
62.85945 128.000
62.87940 86.000
62.89934 76.000
62.91929 106.000
62.93924 102.000
62.95918 114.000
62.97913 87.000
62.99908 101.000
63.01902 91.000
63.03897 99.000
63.05892 81.000
63.07887 97.000
63.09881 93.000
63.11876 110.000
63.13871 91.000
63.15865 93.000
63.17860 109.000
63.19855 102.000
63.21849 100.000
63.23844 105.000
63.25839 96.000
63.27833 112.000
63.29828 103.000
63.31823 111.000
63.33818 102.000
63.35812 100.000
63.37807 107.000
63.39802 94.000
63.41796 112.000
63.43791 106.000
63.45786 103.000
63.47780 93.000
63.49775 114.000
63.51770 99.000
63.53765 110.000
63.55759 116.000
63.57754 87.000
63.59749 96.000
63.61743 100.000
63.63738 100.000
63.65733 115.000
63.67727 99.000
63.69722 116.000
63.71717 119.000
63.73712 108.000
63.75706 119.000
63.77701 117.000
63.79696 132.000
63.81690 137.000
63.83685 134.000
63.85680 165.000
63.87674 154.000
63.89669 175.000
63.91664 164.000
63.93658 153.000
63.95653 182.000
63.97648 204.000
63.99643 190.000
64.01637 232.000
64.03632 226.000
64.05627 237.000
64.07621 247.000
64.09616 264.000
64.11611 260.000
64.13605 273.000
64.15600 312.000
64.17595 294.000
64.19590 320.000
64.21584 346.000
64.23579 353.000
64.25574 379.000
64.27568 341.000
64.29563 313.000
64.31558 363.000
64.33552 329.000
64.35547 319.000
64.37542 354.000
64.39536 338.000
64.41531 293.000
64.43526 313.000
64.45521 329.000
64.47515 293.000
64.49510 277.000
64.51505 255.000
64.53499 267.000
64.55494 217.000
64.57489 197.000
64.59483 198.000
64.61478 197.000
64.63473 182.000
64.65468 190.000
64.67462 145.000
64.69457 137.000
64.71452 143.000
64.73446 131.000
64.75441 112.000
64.77436 117.000
64.79430 118.000
64.81425 115.000
64.83420 122.000
64.85414 108.000
64.87409 121.000
64.89404 110.000
64.91399 87.000
64.93393 83.000
64.95388 93.000
64.97383 105.000
64.99377 104.000
65.01372 118.000
65.03367 105.000
65.05361 116.000
65.07356 103.000
65.09351 98.000
65.11346 116.000
65.13340 115.000
65.15335 96.000
65.17330 91.000
65.19324 111.000
65.21319 102.000
65.23314 110.000
65.25308 91.000
65.27303 114.000
65.29298 91.000
65.31293 92.000
65.33287 107.000
65.35282 93.000
65.37277 108.000
65.39271 127.000
65.41266 108.000
65.43261 101.000
65.45255 107.000
65.47250 113.000
65.49245 108.000
65.51239 128.000
65.53234 130.000
65.55229 108.000
65.57224 110.000
65.59218 113.000
65.61213 101.000
65.63208 106.000
65.65202 102.000
65.67197 123.000
65.69192 127.000
65.71186 122.000
65.73181 143.000
65.75176 123.000
65.77171 125.000
65.79165 141.000
65.81160 131.000
65.83155 125.000
65.85149 130.000
65.87144 110.000
65.89139 112.000
65.91133 134.000
65.93128 127.000
65.95123 120.000
65.97117 128.000
65.99112 128.000
66.01107 130.000
66.03102 128.000
66.05096 129.000
66.07091 120.000
66.09086 143.000
66.11080 120.000
66.13075 126.000
66.15070 137.000
66.17064 124.000
66.19059 132.000
66.21054 144.000
66.23049 147.000
66.25043 158.000
66.27038 150.000
66.29033 167.000
66.31027 168.000
66.33022 173.000
66.35017 183.000
66.37011 200.000
66.39006 211.000
66.41001 228.000
66.42995 239.000
66.44990 208.000
66.46985 277.000
66.48980 290.000
66.50974 296.000
66.52969 324.000
66.54964 336.000
66.56958 337.000
66.58953 325.000
66.60948 367.000
66.62942 336.000
66.64937 382.000
66.66932 351.000
66.68927 369.000
66.70921 318.000
66.72916 320.000
66.74911 379.000
66.76905 319.000
66.78900 354.000
66.80895 336.000
66.82889 303.000
66.84884 285.000
66.86879 322.000
66.88874 271.000
66.90868 248.000
66.92863 234.000
66.94858 215.000
66.96852 228.000
66.98847 221.000
67.00842 209.000
67.02836 207.000
67.04831 167.000
67.06826 166.000
67.08820 172.000
67.10815 168.000
67.12810 150.000
67.14805 138.000
67.16799 139.000
67.18794 130.000
67.20789 131.000
67.22783 139.000
67.24778 131.000
67.26773 123.000
67.28767 114.000
67.30762 122.000
67.32757 107.000
67.34752 132.000
67.36746 105.000
67.38741 116.000
67.40736 113.000
67.42730 113.000
67.44725 101.000
67.46720 116.000
67.48714 100.000
67.50709 110.000
67.52704 120.000
67.54698 97.000
67.56693 104.000
67.58688 109.000
67.60683 116.000
67.62677 100.000
67.64672 98.000
67.66667 105.000
67.68661 115.000
67.70656 106.000
67.72651 96.000
67.74645 106.000
67.76640 107.000
67.78635 104.000
67.80630 96.000
67.82624 121.000
67.84619 106.000
67.86614 90.000
67.88608 86.000
67.90603 114.000
67.92598 101.000
67.94592 107.000
67.96587 105.000
67.98582 106.000
68.00576 96.000
68.02571 87.000
68.04566 89.000
68.06561 90.000
68.08555 96.000
68.10550 113.000
68.12545 109.000
68.14539 99.000
68.16534 102.000
68.18529 94.000
68.20523 91.000
68.22518 96.000
68.24513 100.000
68.26508 106.000
68.28502 106.000
68.30497 105.000
68.32492 86.000
68.34486 99.000
68.36481 88.000
68.38476 102.000
68.40470 86.000
68.42465 96.000
68.44460 98.000
68.46455 101.000
68.48449 92.000
68.50444 81.000
68.52439 86.000
68.54433 99.000
68.56428 97.000
68.58423 80.000
68.60417 98.000
68.62412 94.000
68.64407 81.000
68.66401 72.000
68.68396 98.000
68.70391 89.000
68.72386 79.000
68.74380 90.000
68.76375 101.000
68.78370 83.000
68.80364 86.000
68.82359 83.000
68.84354 100.000
68.86348 73.000
68.88343 84.000
68.90338 103.000
68.92333 92.000
68.94327 84.000
68.96322 92.000
68.98317 82.000
69.00311 94.000
69.02306 81.000
69.04301 90.000
69.06295 88.000
69.08290 83.000
69.10285 71.000
69.12279 84.000
69.14274 87.000
69.16269 85.000
69.18264 100.000
69.20258 89.000
69.22253 89.000
69.24248 86.000
69.26242 94.000
69.28237 109.000
69.30232 75.000
69.32226 84.000
69.34221 82.000
69.36216 97.000
69.38211 80.000
69.40205 82.000
69.42200 74.000
69.44195 104.000
69.46189 101.000
69.48184 96.000
69.50179 88.000
69.52173 81.000
69.54168 83.000
69.56163 95.000
69.58157 80.000
69.60152 95.000
69.62147 90.000
69.64142 83.000
69.66136 101.000
69.68131 89.000
69.70126 92.000
69.72120 89.000
69.74115 76.000
69.76110 94.000
69.78104 100.000
69.80099 85.000
69.82094 88.000
69.84089 85.000
69.86083 78.000
69.88078 92.000
69.90073 94.000
69.92067 63.000
69.94062 93.000
69.96057 83.000
69.98051 98.000
70.00046 87.000
70.02041 82.000
70.04035 73.000
70.06030 82.000
70.08025 94.000
70.10020 60.000
70.12014 77.000
70.14009 111.000
70.16004 86.000
70.17998 86.000
70.19993 89.000
70.21988 96.000
70.23982 88.000
70.25977 88.000
70.27972 88.000
70.29967 88.000
70.31961 89.000
70.33956 83.000
70.35951 88.000
70.37945 87.000
70.39940 73.000
70.41935 74.000
70.43929 78.000
70.45924 101.000
70.47919 95.000
70.49914 78.000
70.51908 95.000
70.53903 90.000
70.55898 83.000
70.57892 107.000
70.59887 99.000
70.61882 84.000
70.63876 78.000
70.65871 94.000
70.67866 72.000
70.69860 88.000
70.71855 73.000
70.73850 84.000
70.75845 98.000
70.77839 93.000
70.79834 85.000
70.81829 107.000
70.83823 98.000
70.85818 87.000
70.87813 77.000
70.89807 95.000
70.91802 95.000
70.93797 89.000
70.95792 89.000
70.97786 101.000
70.99781 86.000
71.01776 78.000
71.03770 86.000
71.05765 85.000
71.07760 80.000
71.09754 76.000
71.11749 91.000
71.13744 83.000
71.15738 87.000
71.17733 83.000
71.19728 86.000
71.21723 85.000
71.23717 75.000
71.25712 81.000
71.27707 81.000
71.29701 90.000
71.31696 91.000
71.33691 92.000
71.35685 94.000
71.37680 96.000
71.39675 86.000
71.41670 85.000
71.43664 91.000
71.45659 95.000
71.47654 99.000
71.49648 78.000
71.51643 104.000
71.53638 83.000
71.55632 99.000
71.57627 86.000
71.59622 90.000
71.61616 108.000
71.63611 93.000
71.65606 89.000
71.67601 91.000
71.69595 72.000
71.71590 89.000
71.73585 98.000
71.75579 99.000
71.77574 84.000
71.79569 100.000
71.81563 99.000
71.83558 98.000
71.85553 96.000
71.87548 96.000
71.89542 115.000
71.91537 87.000
71.93532 112.000
71.95526 95.000
71.97521 93.000
71.99516 89.000
72.01510 130.000
72.03505 100.000
72.05500 107.000
72.07495 99.000
72.09489 88.000
72.11484 81.000
72.13479 93.000
72.15473 89.000
72.17468 98.000
72.19463 90.000
72.21457 93.000
72.23452 108.000
72.25447 82.000
72.27441 94.000
72.29436 96.000
72.31431 81.000
72.33426 97.000
72.35420 92.000
72.37415 104.000
72.39410 83.000
72.41404 101.000
72.43399 105.000
72.45394 93.000
72.47388 108.000
72.49383 95.000
72.51378 97.000
72.53373 87.000
72.55367 77.000
72.57362 99.000
72.59357 84.000
72.61351 84.000
72.63346 97.000
72.65341 110.000
72.67335 118.000
72.69330 103.000
72.71325 91.000
72.73319 104.000
72.75314 110.000
72.77309 81.000
72.79304 107.000
72.81298 102.000
72.83293 111.000
72.85288 103.000
72.87282 83.000
72.89277 81.000
72.91272 102.000
72.93266 90.000
72.95261 97.000
72.97256 97.000
72.99251 95.000
73.01245 106.000
73.03240 122.000
73.05235 102.000
73.07229 90.000
73.09224 123.000
73.11219 100.000
73.13213 118.000
73.15208 107.000
73.17203 95.000
73.19197 101.000
73.21192 108.000
73.23187 111.000
73.25182 107.000
73.27176 132.000
73.29171 137.000
73.31166 133.000
73.33160 128.000
73.35155 146.000
73.37150 158.000
73.39144 137.000
73.41139 143.000
73.43134 145.000
73.45129 174.000
73.47123 171.000
73.49118 190.000
73.51113 155.000
73.53107 148.000
73.55102 147.000
73.57097 149.000
73.59091 156.000
73.61086 144.000
73.63081 130.000
73.65076 143.000
73.67070 169.000
73.69065 133.000
73.71060 156.000
73.73054 119.000
73.75049 144.000
73.77044 130.000
73.79038 131.000
73.81033 132.000
73.83028 119.000
73.85022 134.000
73.87017 123.000
73.89012 108.000
73.91007 106.000
73.93001 111.000
73.94996 110.000
73.96991 118.000
73.98985 107.000
74.00980 113.000
74.02975 80.000
74.04969 100.000
74.06964 107.000
74.08959 99.000
74.10954 78.000
74.12948 85.000
74.14943 101.000
74.16938 99.000
74.18932 88.000
74.20927 110.000
74.22922 87.000
74.24916 85.000
74.26911 101.000
74.28906 80.000
74.30900 99.000
74.32895 93.000
74.34890 86.000
74.36885 88.000
74.38879 99.000
74.40874 101.000
74.42869 87.000
74.44863 88.000
74.46858 97.000
74.48853 89.000
74.50847 79.000
74.52842 80.000
74.54837 94.000
74.56832 81.000
74.58826 83.000
74.60821 65.000
74.62816 83.000
74.64810 84.000
74.66805 81.000
74.68800 86.000
74.70794 97.000
74.72789 83.000
74.74784 84.000
74.76778 91.000
74.78773 96.000
74.80768 86.000
74.82763 98.000
74.84757 99.000
74.86752 82.000
74.88747 93.000
74.90741 80.000
74.92736 95.000
74.94731 88.000
74.96725 84.000
74.98720 86.000
75.00715 73.000
75.02710 94.000
75.04704 96.000
75.06699 86.000
75.08694 88.000
75.10688 73.000
75.12683 92.000
75.14678 100.000
75.16672 101.000
75.18667 81.000
75.20662 85.000
75.22657 90.000
75.24651 90.000
75.26646 93.000
75.28641 87.000
75.30635 93.000
75.32630 87.000
75.34625 81.000
75.36619 94.000
75.38614 103.000
75.40609 92.000
75.42603 105.000
75.44598 106.000
75.46593 76.000
75.48588 94.000
75.50582 99.000
75.52577 92.000
75.54572 118.000
75.56566 116.000
75.58561 98.000
75.60556 101.000
75.62550 118.000
75.64545 102.000
75.66540 101.000
75.68535 105.000
75.70529 94.000
75.72524 105.000
75.74519 103.000
75.76513 112.000
75.78508 125.000
75.80503 119.000
75.82497 102.000
75.84492 111.000
75.86487 126.000
75.88481 114.000
75.90476 116.000
75.92471 125.000
75.94466 106.000
75.96460 108.000
75.98455 128.000
76.00450 114.000
76.02444 110.000
76.04439 111.000
76.06434 109.000
76.08428 121.000
76.10423 111.000
76.12418 108.000
76.14413 115.000
76.16407 96.000
76.18402 117.000
76.20397 110.000
76.22391 101.000
76.24386 89.000
76.26381 102.000
76.28375 126.000
76.30370 87.000
76.32365 94.000
76.34359 103.000
76.36354 97.000
76.38349 82.000
76.40344 95.000
76.42338 92.000
76.44333 93.000
76.46328 115.000
76.48322 108.000
76.50317 87.000
76.52312 89.000
76.54306 108.000
76.56301 87.000
76.58296 109.000
76.60291 93.000
76.62285 91.000
76.64280 99.000
76.66275 104.000
76.68269 93.000
76.70264 87.000
76.72259 118.000
76.74253 103.000
76.76248 100.000
76.78243 106.000
76.80238 87.000
76.82232 103.000
76.84227 98.000
76.86222 77.000
76.88216 114.000
76.90211 101.000
76.92206 99.000
76.94200 113.000
76.96195 122.000
76.98190 100.000
77.00184 108.000
77.02179 83.000
77.04174 110.000
77.06169 87.000
77.08163 89.000
77.10158 89.000
77.12153 92.000
77.14147 88.000
77.16142 105.000
77.18137 93.000
77.20131 86.000
77.22126 80.000
77.24121 92.000
77.26116 106.000
77.28110 87.000
77.30105 111.000
77.32100 97.000
77.34094 117.000
77.36089 89.000
77.38084 95.000
77.40078 94.000
77.42073 87.000
77.44068 104.000
77.46062 101.000
77.48057 97.000
77.50052 87.000
77.52047 95.000
77.54041 116.000
77.56036 101.000
77.58031 107.000
77.60025 91.000
77.62020 128.000
77.64015 120.000
77.66009 117.000
77.68004 131.000
77.69999 147.000
77.71994 131.000
77.73988 134.000
77.75983 135.000
77.77978 164.000
77.79972 167.000
77.81967 203.000
77.83962 170.000
77.85956 183.000
77.87951 194.000
77.89946 200.000
77.91940 219.000
77.93935 221.000
77.95930 207.000
77.97925 203.000
77.99919 193.000
78.01914 221.000
78.03909 205.000
78.05903 209.000
78.07898 174.000
78.09893 177.000
78.11887 214.000
78.13882 169.000
78.15877 200.000
78.17872 161.000
78.19866 185.000
78.21861 161.000
78.23856 161.000
78.25850 166.000
78.27845 152.000
78.29840 146.000
78.31834 155.000
78.33829 160.000
78.35824 133.000
78.37819 121.000
78.39813 107.000
78.41808 123.000
78.43803 111.000
78.45797 100.000
78.47792 114.000
78.49787 117.000
78.51781 108.000
78.53776 103.000
78.55771 106.000
78.57765 79.000
78.59760 112.000
78.61755 88.000
78.63750 113.000
78.65744 92.000
78.67739 100.000
78.69734 93.000
78.71728 104.000
78.73723 98.000
78.75718 97.000
78.77712 89.000
78.79707 81.000
78.81702 111.000
78.83697 92.000
78.85691 96.000
78.87686 102.000
78.89681 78.000
78.91675 91.000
78.93670 92.000
78.95665 101.000
78.97659 92.000
78.99654 95.000
79.01649 101.000
79.03643 90.000
79.05638 84.000
79.07633 103.000
79.09628 84.000
79.11622 67.000
79.13617 93.000
79.15612 96.000
79.17606 82.000
79.19601 104.000
79.21596 104.000
79.23590 110.000
79.25585 95.000
79.27580 75.000
79.29575 102.000
79.31569 88.000
79.33564 99.000
79.35559 100.000
79.37553 104.000
79.39548 94.000
79.41543 94.000
79.43537 90.000
79.45532 86.000
79.47527 89.000
79.49521 107.000
79.51516 93.000
79.53511 85.000
79.55506 98.000
79.57500 93.000
79.59495 86.000
79.61490 89.000
79.63484 96.000
79.65479 92.000
79.67474 86.000
79.69468 90.000
79.71463 81.000
79.73458 85.000
79.75453 90.000
79.77447 108.000
79.79442 88.000
79.81437 83.000
79.83431 102.000
79.85426 92.000
79.87421 89.000
79.89415 93.000
79.91410 77.000
79.93405 106.000
79.95399 94.000
79.97394 101.000
79.99389 80.000
80.01384 76.000
80.03378 92.000
80.05373 86.000
80.07368 88.000
80.09362 76.000
80.11357 96.000
80.13352 102.000
80.15346 86.000
80.17341 104.000
80.19336 95.000
80.21331 78.000
80.23325 94.000
80.25320 90.000
80.27315 87.000
80.29309 84.000
80.31304 76.000
80.33299 77.000
80.35293 82.000
80.37288 101.000
80.39283 86.000
80.41278 95.000
80.43272 106.000
80.45267 94.000
80.47262 76.000
80.49256 95.000
80.51251 91.000
80.53246 99.000
80.55240 94.000
80.57235 93.000
80.59230 90.000
80.61224 90.000
80.63219 99.000
80.65214 89.000
80.67209 103.000
80.69203 97.000
80.71198 106.000
80.73193 94.000
80.75187 79.000
80.77182 98.000
80.79177 100.000
80.81171 98.000
80.83166 91.000
80.85161 119.000
80.87156 92.000
80.89150 77.000
80.91145 84.000
80.93140 88.000
80.95134 89.000
80.97129 98.000
80.99124 106.000
81.01118 113.000
81.03113 78.000
81.05108 99.000
81.07102 86.000
81.09097 86.000
81.11092 77.000
81.13087 96.000
81.15081 72.000
81.17076 88.000
81.19071 82.000
81.21065 91.000
81.23060 93.000
81.25055 98.000
81.27049 78.000
81.29044 87.000
81.31039 95.000
81.33034 87.000
81.35028 100.000
81.37023 73.000
81.39018 80.000
81.41012 87.000
81.43007 87.000
81.45002 77.000
81.46996 94.000
81.48991 103.000
81.50986 81.000
81.52980 104.000
81.54975 103.000
81.56970 99.000
81.58965 82.000
81.60959 99.000
81.62954 86.000
81.64949 104.000
81.66943 94.000
81.68938 88.000
81.70933 92.000
81.72927 80.000
81.74922 97.000
81.76917 98.000
81.78912 80.000
81.80906 95.000
81.82901 97.000
81.84896 104.000
81.86890 113.000
81.88885 91.000
81.90880 96.000
81.92874 94.000
81.94869 90.000
81.96864 88.000
81.98859 87.000
82.00853 98.000
82.02848 102.000
82.04843 127.000
82.06837 100.000
82.08832 89.000
82.10827 117.000
82.12821 104.000
82.14816 100.000
82.16811 107.000
82.18805 90.000
82.20800 83.000
82.22795 102.000
82.24790 90.000
82.26784 93.000
82.28779 85.000
82.30774 94.000
82.32768 100.000
82.34763 111.000
82.36758 91.000
82.38752 98.000
82.40747 105.000
82.42742 77.000
82.44737 99.000
82.46731 81.000
82.48726 92.000
82.50721 83.000
82.52715 85.000
82.54710 98.000
82.56705 83.000
82.58699 91.000
82.60694 81.000
82.62689 91.000
82.64683 90.000
82.66678 89.000
82.68673 80.000
82.70668 81.000
82.72662 93.000
82.74657 91.000
82.76652 79.000
82.78646 95.000
82.80641 84.000
82.82636 83.000
82.84630 77.000
82.86625 67.000
82.88620 98.000
82.90615 91.000
82.92609 93.000
82.94604 72.000
82.96599 86.000
82.98593 87.000
83.00588 89.000
83.02583 85.000
83.04577 83.000
83.06572 83.000
83.08567 66.000
83.10561 100.000
83.12556 81.000
83.14551 79.000
83.16546 84.000
83.18540 83.000
83.20535 88.000
83.22530 80.000
83.24524 70.000
83.26519 80.000
83.28514 87.000
83.30508 77.000
83.32503 86.000
83.34498 75.000
83.36493 94.000
83.38487 86.000
83.40482 96.000
83.42477 85.000
83.44471 84.000
83.46466 59.000
83.48461 72.000
83.50455 91.000
83.52450 91.000
83.54445 87.000
83.56440 92.000
83.58434 102.000
83.60429 97.000
83.62424 93.000
83.64418 94.000
83.66413 90.000
83.68408 107.000
83.70402 77.000
83.72397 88.000
83.74392 98.000
83.76386 105.000
83.78381 108.000
83.80376 91.000
83.82371 103.000
83.84365 104.000
83.86360 94.000
83.88355 105.000
83.90349 90.000
83.92344 108.000
83.94339 97.000
83.96333 93.000
83.98328 103.000
84.00323 87.000
84.02318 101.000
84.04312 92.000
84.06307 116.000
84.08302 110.000
84.10296 110.000
84.12291 92.000
84.14286 125.000
84.16280 135.000
84.18275 113.000
84.20270 125.000
84.22264 126.000
84.24259 123.000
84.26254 130.000
84.28249 117.000
84.30243 117.000
84.32238 131.000
84.34233 146.000
84.36227 126.000
84.38222 154.000
84.40217 123.000
84.42211 150.000
84.44206 155.000
84.46201 147.000
84.48196 141.000
84.50190 158.000
84.52185 160.000
84.54180 143.000
84.56174 140.000
84.58169 143.000
84.60164 160.000
84.62158 128.000
84.64153 155.000
84.66148 157.000
84.68142 157.000
84.70137 146.000
84.72132 125.000
84.74127 144.000
84.76121 161.000
84.78116 111.000
84.80111 141.000
84.82105 106.000
84.84100 105.000
84.86095 106.000
84.88089 136.000
84.90084 130.000
84.92079 110.000
84.94074 96.000
84.96068 107.000
84.98063 101.000
85.00058 107.000
85.02052 102.000
85.04047 106.000
85.06042 100.000
85.08036 95.000
85.10031 93.000
85.12026 97.000
85.14021 109.000
85.16015 95.000
85.18010 115.000
85.20005 100.000
85.21999 86.000
85.23994 88.000
85.25989 85.000
85.27983 93.000
85.29978 90.000
85.31973 86.000
85.33967 94.000
85.35962 88.000
85.37957 83.000
85.39952 77.000
85.41946 84.000
85.43941 94.000
85.45936 88.000
85.47930 69.000
85.49925 74.000
85.51920 80.000
85.53914 77.000
85.55909 94.000
85.57904 77.000
85.59899 81.000
85.61893 88.000
85.63888 77.000
85.65883 85.000
85.67877 80.000
85.69872 90.000
85.71867 79.000
85.73861 88.000
85.75856 88.000
85.77851 80.000
85.79845 72.000
85.81840 78.000
85.83835 94.000
85.85830 78.000
85.87824 82.000
85.89819 63.000
85.91814 96.000
85.93808 78.000
85.95803 83.000
85.97798 89.000
85.99792 80.000
86.01787 93.000
86.03782 90.000
86.05777 96.000
86.07771 87.000
86.09766 88.000
86.11761 86.000
86.13755 77.000
86.15750 97.000
86.17745 94.000
86.19739 95.000
86.21734 79.000
86.23729 94.000
86.25723 76.000
86.27718 84.000
86.29713 69.000
86.31708 96.000
86.33702 85.000
86.35697 98.000
86.37692 84.000
86.39686 81.000
86.41681 97.000
86.43676 95.000
86.45670 88.000
86.47665 100.000
86.49660 116.000
86.51655 94.000
86.53649 93.000
86.55644 85.000
86.57639 94.000
86.59633 94.000
86.61628 110.000
86.63623 98.000
86.65617 102.000
86.67612 103.000
86.69607 114.000
86.71602 97.000
86.73596 106.000
86.75591 110.000
86.77586 91.000
86.79580 102.000
86.81575 100.000
86.83570 110.000
86.85564 100.000
86.87559 117.000
86.89554 107.000
86.91548 116.000
86.93543 98.000
86.95538 88.000
86.97533 100.000
86.99527 100.000
87.01522 99.000
87.03517 91.000
87.05511 98.000
87.07506 91.000
87.09501 109.000
87.11495 108.000
87.13490 95.000
87.15485 113.000
87.17480 97.000
87.19474 100.000
87.21469 105.000
87.23464 118.000
87.25458 104.000
87.27453 99.000
87.29448 114.000
87.31442 96.000
87.33437 103.000
87.35432 109.000
87.37426 82.000
87.39421 94.000
87.41416 98.000
87.43411 99.000
87.45405 96.000
87.47400 97.000
87.49395 105.000
87.51389 79.000
87.53384 92.000
87.55379 93.000
87.57373 88.000
87.59368 91.000
87.61363 120.000
87.63358 103.000
87.65352 98.000
87.67347 96.000
87.69342 76.000
87.71336 94.000
87.73331 98.000
87.75326 93.000
87.77320 77.000
87.79315 101.000
87.81310 83.000
87.83304 111.000
87.85299 92.000
87.87294 97.000
87.89289 92.000
87.91283 105.000
87.93278 80.000
87.95273 93.000
87.97267 88.000
87.99262 114.000
88.01257 94.000
88.03251 93.000
88.05246 80.000
88.07241 78.000
88.09236 99.000
88.11230 93.000
88.13225 100.000
88.15220 77.000
88.17214 76.000
88.19209 89.000
88.21204 112.000
88.23198 90.000
88.25193 91.000
88.27188 74.000
88.29183 87.000
88.31177 78.000
88.33172 95.000
88.35167 80.000
88.37161 84.000
88.39156 91.000
88.41151 75.000
88.43145 77.000
88.45140 85.000
88.47135 69.000
88.49129 82.000
88.51124 81.000
88.53119 75.000
88.55114 99.000
88.57108 97.000
88.59103 81.000
88.61098 105.000
88.63092 89.000
88.65087 77.000
88.67082 96.000
88.69076 96.000
88.71071 69.000
88.73066 82.000
88.75061 85.000
88.77055 91.000
88.79050 80.000
88.81045 74.000
88.83039 86.000
88.85034 77.000
88.87029 86.000
88.89023 76.000
88.91018 73.000
88.93013 68.000
88.95007 59.000
88.97002 72.000
88.98997 76.000
89.00992 69.000
89.02986 81.000
89.04981 78.000
89.06976 73.000
89.08970 93.000
89.10965 100.000
89.12960 67.000
89.14954 89.000
89.16949 69.000
89.18944 60.000
89.20939 90.000
89.22933 80.000
89.24928 87.000
89.26923 106.000
89.28917 85.000
89.30912 85.000
89.32907 77.000
89.34901 81.000
89.36896 85.000
89.38891 86.000
89.40885 79.000
89.42880 87.000
89.44875 79.000
89.46870 93.000
89.48864 76.000
89.50859 72.000
89.52854 89.000
89.54848 76.000
89.56843 80.000
89.58838 79.000
89.60832 65.000
89.62827 81.000
89.64822 91.000
89.66817 75.000
89.68811 74.000
89.70806 96.000
89.72801 82.000
89.74795 96.000
89.76790 81.000
89.78785 97.000
89.80779 70.000
89.82774 67.000
89.84769 73.000
89.86764 94.000
89.88758 86.000
89.90753 69.000
89.92748 76.000
89.94742 96.000
89.96737 86.000
89.98732 67.000
90.00726 87.000
