10.00000 139.000
10.01995 122.000
10.03989 134.000
10.05984 133.000
10.07979 130.000
10.09973 127.000
10.11968 134.000
10.13963 144.000
10.15958 160.000
10.17952 113.000
10.19947 141.000
10.21942 122.000
10.23936 124.000
10.25931 117.000
10.27926 124.000
10.29920 153.000
10.31915 130.000
10.33910 122.000
10.35905 133.000
10.37899 133.000
10.39894 134.000
10.41889 126.000
10.43883 126.000
10.45878 147.000
10.47873 146.000
10.49867 153.000
10.51862 121.000
10.53857 128.000
10.55851 148.000
10.57846 132.000
10.59841 137.000
10.61836 120.000
10.63830 131.000
10.65825 118.000
10.67820 147.000
10.69814 143.000
10.71809 117.000
10.73804 117.000
10.75798 133.000
10.77793 144.000
10.79788 136.000
10.81783 119.000
10.83777 130.000
10.85772 152.000
10.87767 124.000
10.89761 139.000
10.91756 127.000
10.93751 102.000
10.95745 143.000
10.97740 139.000
10.99735 133.000
11.01730 146.000
11.03724 138.000
11.05719 128.000
11.07714 127.000
11.09708 127.000
11.11703 117.000
11.13698 125.000
11.15692 123.000
11.17687 160.000
11.19682 141.000
11.21676 126.000
11.23671 144.000
11.25666 139.000
11.27661 128.000
11.29655 123.000
11.31650 128.000
11.33645 115.000
11.35639 138.000
11.37634 115.000
11.39629 137.000
11.41623 128.000
11.43618 136.000
11.45613 145.000
11.47608 141.000
11.49602 117.000
11.51597 150.000
11.53592 140.000
11.55586 143.000
11.57581 154.000
11.59576 146.000
11.61570 131.000
11.63565 119.000
11.65560 152.000
11.67554 135.000
11.69549 140.000
11.71544 145.000
11.73539 114.000
11.75533 119.000
11.77528 144.000
11.79523 130.000
11.81517 131.000
11.83512 131.000
11.85507 136.000
11.87501 140.000
11.89496 139.000
11.91491 137.000
11.93486 129.000
11.95480 129.000
11.97475 152.000
11.99470 131.000
12.01464 139.000
12.03459 149.000
12.05454 114.000
12.07448 118.000
12.09443 139.000
12.11438 141.000
12.13432 148.000
12.15427 138.000
12.17422 118.000
12.19417 142.000
12.21411 144.000
12.23406 155.000
12.25401 154.000
12.27395 140.000
12.29390 149.000
12.31385 131.000
12.33379 128.000
12.35374 151.000
12.37369 122.000
12.39364 164.000
12.41358 133.000
12.43353 137.000
12.45348 125.000
12.47342 122.000
12.49337 138.000
12.51332 132.000
12.53326 130.000
12.55321 135.000
12.57316 113.000
12.59311 139.000
12.61305 126.000
12.63300 117.000
12.65295 144.000
12.67289 134.000
12.69284 152.000
12.71279 141.000
12.73273 127.000
12.75268 153.000
12.77263 139.000
12.79257 142.000
12.81252 125.000
12.83247 128.000
12.85242 138.000
12.87236 140.000
12.89231 123.000
12.91226 125.000
12.93220 140.000
12.95215 142.000
12.97210 124.000
12.99204 130.000
13.01199 125.000
13.03194 136.000
13.05189 141.000
13.07183 133.000
13.09178 139.000
13.11173 137.000
13.13167 131.000
13.15162 122.000
13.17157 150.000
13.19151 126.000
13.21146 133.000
13.23141 142.000
13.25135 131.000
13.27130 139.000
13.29125 140.000
13.31120 136.000
13.33114 144.000
13.35109 154.000
13.37104 126.000
13.39098 152.000
13.41093 158.000
13.43088 111.000
13.45082 116.000
13.47077 139.000
13.49072 149.000
13.51067 131.000
13.53061 133.000
13.55056 142.000
13.57051 135.000
13.59045 130.000
13.61040 137.000
13.63035 112.000
13.65029 141.000
13.67024 139.000
13.69019 138.000
13.71013 130.000
13.73008 125.000
13.75003 123.000
13.76998 133.000
13.78992 151.000
13.80987 140.000
13.82982 119.000
13.84976 147.000
13.86971 152.000
13.88966 114.000
13.90960 130.000
13.92955 173.000
13.94950 155.000
13.96945 136.000
13.98939 125.000
14.00934 131.000
14.02929 131.000
14.04923 151.000
14.06918 145.000
14.08913 146.000
14.10907 125.000
14.12902 149.000
14.14897 144.000
14.16892 144.000
14.18886 139.000
14.20881 140.000
14.22876 144.000
14.24870 126.000
14.26865 138.000
14.28860 158.000
14.30854 131.000
14.32849 143.000
14.34844 123.000
14.36838 136.000
14.38833 142.000
14.40828 148.000
14.42823 130.000
14.44817 140.000
14.46812 124.000
14.48807 151.000
14.50801 146.000
14.52796 149.000
14.54791 128.000
14.56785 127.000
14.58780 173.000
14.60775 151.000
14.62770 148.000
14.64764 140.000
14.66759 153.000
14.68754 126.000
14.70748 163.000
14.72743 153.000
14.74738 142.000
14.76732 123.000
14.78727 144.000
14.80722 138.000
14.82716 143.000
14.84711 132.000
14.86706 145.000
14.88701 157.000
14.90695 147.000
14.92690 143.000
14.94685 128.000
14.96679 151.000
14.98674 115.000
15.00669 130.000
15.02663 157.000
15.04658 159.000
15.06653 136.000
15.08648 138.000
15.10642 147.000
15.12637 141.000
15.14632 172.000
15.16626 126.000
15.18621 132.000
15.20616 125.000
15.22610 147.000
15.24605 149.000
15.26600 147.000
15.28594 146.000
15.30589 145.000
15.32584 156.000
15.34579 147.000
15.36573 147.000
15.38568 168.000
15.40563 161.000
15.42557 145.000
15.44552 183.000
15.46547 162.000
15.48541 154.000
15.50536 171.000
15.52531 166.000
15.54526 170.000
15.56520 170.000
15.58515 195.000
15.60510 202.000
15.62504 230.000
15.64499 225.000
15.66494 234.000
15.68488 291.000
15.70483 349.000
15.72478 409.000
15.74472 466.000
15.76467 569.000
15.78462 691.000
15.80457 874.000
15.82451 986.000
15.84446 970.000
15.86441 770.000
15.88435 654.000
15.90430 469.000
15.92425 392.000
15.94419 358.000
15.96414 343.000
15.98409 386.000
16.00404 445.000
16.02398 503.000
16.04393 562.000
16.06388 709.000
16.08382 848.000
16.10377 982.000
16.12372 1180.000
16.14366 1348.000
16.16361 1481.000
16.18356 1619.000
16.20351 1636.000
16.22345 1498.000
16.24340 1423.000
16.26335 1215.000
16.28329 1020.000
16.30324 884.000
16.32319 750.000
16.34313 579.000
16.36308 463.000
16.38303 394.000
16.40297 297.000
16.42292 286.000
16.44287 247.000
16.46282 212.000
16.48276 205.000
16.50271 197.000
16.52266 192.000
16.54260 170.000
16.56255 189.000
16.58250 156.000
16.60244 159.000
16.62239 166.000
16.64234 166.000
16.66229 185.000
16.68223 164.000
16.70218 193.000
16.72213 183.000
16.74207 170.000
16.76202 170.000
16.78197 154.000
16.80191 185.000
16.82186 163.000
16.84181 161.000
16.86175 173.000
16.88170 171.000
16.90165 158.000
16.92160 177.000
16.94154 159.000
16.96149 163.000
16.98144 159.000
17.00138 151.000
17.02133 136.000
17.04128 159.000
17.06122 147.000
17.08117 155.000
17.10112 147.000
17.12107 145.000
17.14101 131.000
17.16096 128.000
17.18091 141.000
17.20085 163.000
17.22080 153.000
17.24075 158.000
17.26069 163.000
17.28064 141.000
17.30059 155.000
17.32053 144.000
17.34048 151.000
17.36043 159.000
17.38038 145.000
17.40032 141.000
17.42027 147.000
17.44022 156.000
17.46016 160.000
17.48011 144.000
17.50006 139.000
17.52000 135.000
17.53995 136.000
17.55990 120.000
17.57985 146.000
17.59979 148.000
17.61974 142.000
17.63969 143.000
17.65963 145.000
17.67958 129.000
17.69953 162.000
17.71947 177.000
17.73942 132.000
17.75937 150.000
17.77932 159.000
17.79926 157.000
17.81921 151.000
17.83916 147.000
17.85910 143.000
17.87905 159.000
17.89900 137.000
17.91894 147.000
17.93889 141.000
17.95884 154.000
17.97878 148.000
17.99873 138.000
18.01868 145.000
18.03863 123.000
18.05857 137.000
18.07852 148.000
18.09847 152.000
18.11841 141.000
18.13836 159.000
18.15831 162.000
18.17825 147.000
18.19820 158.000
18.21815 140.000
18.23810 150.000
18.25804 191.000
18.27799 193.000
18.29794 205.000
18.31788 226.000
18.33783 229.000
18.35778 249.000
18.37772 254.000
18.39767 240.000
18.41762 208.000
18.43756 193.000
18.45751 184.000
18.47746 178.000
18.49741 171.000
18.51735 149.000
18.53730 140.000
18.55725 146.000
18.57719 141.000
18.59714 146.000
18.61709 142.000
18.63703 160.000
18.65698 141.000
18.67693 149.000
18.69688 145.000
18.71682 135.000
18.73677 150.000
18.75672 164.000
18.77666 164.000
18.79661 140.000
18.81656 124.000
18.83650 154.000
18.85645 156.000
18.87640 138.000
18.89634 158.000
18.91629 136.000
18.93624 149.000
18.95619 156.000
18.97613 170.000
18.99608 175.000
19.01603 142.000
19.03597 158.000
19.05592 132.000
19.07587 149.000
19.09581 132.000
19.11576 137.000
19.13571 153.000
19.15566 147.000
19.17560 144.000
19.19555 156.000
19.21550 153.000
19.23544 127.000
19.25539 141.000
19.27534 145.000
19.29528 159.000
19.31523 153.000
19.33518 137.000
19.35513 145.000
19.37507 151.000
19.39502 125.000
19.41497 134.000
19.43491 160.000
19.45486 141.000
19.47481 147.000
19.49475 143.000
19.51470 126.000
19.53465 173.000
19.55459 124.000
19.57454 154.000
19.59449 130.000
19.61444 145.000
19.63438 156.000
19.65433 151.000
19.67428 162.000
19.69422 145.000
19.71417 129.000
19.73412 145.000
19.75406 139.000
19.77401 165.000
19.79396 145.000
19.81391 156.000
19.83385 167.000
19.85380 153.000
19.87375 137.000
19.89369 150.000
19.91364 134.000
19.93359 149.000
19.95353 172.000
19.97348 150.000
19.99343 140.000
20.01337 138.000
20.03332 127.000
20.05327 156.000
20.07322 144.000
20.09316 138.000
20.11311 130.000
20.13306 149.000
20.15300 140.000
20.17295 136.000
20.19290 156.000
20.21284 142.000
20.23279 148.000
20.25274 136.000
20.27269 142.000
20.29263 160.000
20.31258 159.000
20.33253 166.000
20.35247 135.000
20.37242 158.000
20.39237 143.000
20.41231 129.000
20.43226 143.000
20.45221 128.000
20.47215 144.000
20.49210 136.000
20.51205 146.000
20.53200 149.000
20.55194 140.000
20.57189 150.000
20.59184 167.000
20.61178 162.000
20.63173 155.000
20.65168 161.000
20.67162 157.000
20.69157 160.000
20.71152 176.000
20.73147 141.000
20.75141 160.000
20.77136 166.000
20.79131 151.000
20.81125 183.000
20.83120 184.000
20.85115 161.000
20.87109 173.000
20.89104 150.000
20.91099 146.000
20.93094 178.000
20.95088 179.000
20.97083 174.000
20.99078 166.000
21.01072 167.000
21.03067 171.000
21.05062 172.000
21.07056 167.000
21.09051 138.000
21.11046 163.000
21.13040 148.000
21.15035 153.000
21.17030 174.000
21.19025 143.000
21.21019 157.000
21.23014 139.000
21.25009 149.000
21.27003 148.000
21.28998 169.000
21.30993 148.000
21.32987 163.000
21.34982 154.000
21.36977 166.000
21.38972 159.000
21.40966 151.000
21.42961 147.000
21.44956 156.000
21.46950 150.000
21.48945 156.000
21.50940 144.000
21.52934 172.000
21.54929 134.000
21.56924 140.000
21.58918 145.000
21.60913 141.000
21.62908 157.000
21.64903 172.000
21.66897 153.000
21.68892 172.000
21.70887 143.000
21.72881 172.000
21.74876 140.000
21.76871 140.000
21.78865 168.000
21.80860 147.000
21.82855 139.000
21.84850 143.000
21.86844 167.000
21.88839 135.000
21.90834 159.000
21.92828 160.000
21.94823 137.000
21.96818 145.000
21.98812 136.000
22.00807 143.000
22.02802 154.000
22.04796 162.000
22.06791 154.000
22.08786 162.000
22.10781 162.000
22.12775 158.000
22.14770 139.000
22.16765 151.000
22.18759 145.000
22.20754 146.000
22.22749 168.000
22.24743 136.000
22.26738 153.000
22.28733 147.000
22.30728 161.000
22.32722 160.000
22.34717 152.000
22.36712 165.000
22.38706 167.000
22.40701 149.000
22.42696 158.000
22.44690 140.000
22.46685 151.000
22.48680 142.000
22.50675 186.000
22.52669 166.000
22.54664 153.000
22.56659 148.000
22.58653 150.000
22.60648 160.000
22.62643 151.000
22.64637 150.000
22.66632 133.000
22.68627 139.000
22.70621 167.000
22.72616 170.000
22.74611 173.000
22.76606 132.000
22.78600 167.000
22.80595 147.000
22.82590 136.000
22.84584 152.000
22.86579 150.000
22.88574 152.000
22.90568 148.000
22.92563 165.000
22.94558 129.000
22.96553 145.000
22.98547 178.000
23.00542 139.000
23.02537 153.000
23.04531 145.000
23.06526 141.000
23.08521 145.000
23.10515 146.000
23.12510 143.000
23.14505 171.000
23.16499 152.000
23.18494 140.000
23.20489 142.000
23.22484 161.000
23.24478 157.000
23.26473 154.000
23.28468 158.000
23.30462 152.000
23.32457 167.000
23.34452 167.000
23.36446 143.000
23.38441 174.000
23.40436 165.000
23.42431 166.000
23.44425 153.000
23.46420 156.000
23.48415 124.000
23.50409 177.000
23.52404 178.000
23.54399 162.000
23.56393 146.000
23.58388 145.000
23.60383 133.000
23.62377 155.000
23.64372 151.000
23.66367 142.000
23.68362 147.000
23.70356 143.000
23.72351 125.000
23.74346 146.000
23.76340 162.000
23.78335 165.000
23.80330 146.000
23.82324 156.000
23.84319 164.000
23.86314 149.000
23.88309 172.000
23.90303 134.000
23.92298 161.000
23.94293 175.000
23.96287 143.000
23.98282 154.000
24.00277 140.000
24.02271 167.000
24.04266 156.000
24.06261 169.000
24.08256 157.000
24.10250 162.000
24.12245 178.000
24.14240 156.000
24.16234 172.000
24.18229 151.000
24.20224 162.000
24.22218 168.000
24.24213 149.000
24.26208 174.000
24.28202 150.000
24.30197 155.000
24.32192 170.000
24.34187 147.000
24.36181 175.000
24.38176 142.000
24.40171 168.000
24.42165 150.000
24.44160 149.000
24.46155 142.000
24.48149 164.000
24.50144 157.000
24.52139 143.000
24.54134 147.000
24.56128 150.000
24.58123 163.000
24.60118 171.000
24.62112 138.000
24.64107 167.000
24.66102 171.000
24.68096 156.000
24.70091 167.000
24.72086 154.000
24.74080 159.000
24.76075 146.000
24.78070 159.000
24.80065 164.000
24.82059 171.000
24.84054 186.000
24.86049 169.000
24.88043 174.000
24.90038 153.000
24.92033 168.000
24.94027 167.000
24.96022 171.000
24.98017 153.000
25.00012 165.000
25.02006 162.000
25.04001 178.000
25.05996 146.000
25.07990 176.000
25.09985 174.000
25.11980 154.000
25.13974 179.000
25.15969 182.000
25.17964 159.000
25.19958 172.000
25.21953 189.000
25.23948 156.000
25.25943 168.000
25.27937 159.000
25.29932 168.000
25.31927 180.000
25.33921 157.000
25.35916 170.000
25.37911 179.000
25.39905 165.000
25.41900 161.000
25.43895 172.000
25.45890 148.000
25.47884 159.000
25.49879 165.000
25.51874 146.000
25.53868 165.000
25.55863 153.000
25.57858 164.000
25.59852 156.000
25.61847 149.000
25.63842 154.000
25.65837 183.000
25.67831 165.000
25.69826 175.000
25.71821 167.000
25.73815 164.000
25.75810 182.000
25.77805 180.000
25.79799 150.000
25.81794 169.000
25.83789 164.000
25.85783 158.000
25.87778 177.000
25.89773 149.000
25.91768 148.000
25.93762 176.000
25.95757 177.000
25.97752 190.000
25.99746 176.000
26.01741 174.000
26.03736 153.000
26.05730 178.000
26.07725 162.000
26.09720 147.000
26.11715 174.000
26.13709 181.000
26.15704 173.000
26.17699 163.000
26.19693 157.000
26.21688 191.000
26.23683 181.000
26.25677 176.000
26.27672 159.000
26.29667 169.000
26.31661 192.000
26.33656 182.000
26.35651 167.000
26.37646 150.000
26.39640 165.000
26.41635 177.000
26.43630 179.000
26.45624 190.000
26.47619 158.000
26.49614 184.000
26.51608 183.000
26.53603 181.000
26.55598 199.000
26.57593 195.000
26.59587 189.000
26.61582 191.000
26.63577 164.000
26.65571 184.000
26.67566 175.000
26.69561 178.000
26.71555 155.000
26.73550 170.000
26.75545 160.000
26.77539 154.000
26.79534 160.000
26.81529 175.000
26.83524 180.000
26.85518 194.000
26.87513 165.000
26.89508 156.000
26.91502 163.000
26.93497 158.000
26.95492 168.000
26.97486 157.000
26.99481 166.000
27.01476 189.000
27.03471 168.000
27.05465 161.000
27.07460 202.000
27.09455 157.000
27.11449 186.000
27.13444 177.000
27.15439 184.000
27.17433 173.000
27.19428 148.000
27.21423 187.000
27.23417 165.000
27.25412 181.000
27.27407 160.000
27.29402 186.000
27.31396 190.000
27.33391 162.000
27.35386 173.000
27.37380 188.000
27.39375 191.000
27.41370 151.000
27.43364 187.000
27.45359 167.000
27.47354 177.000
27.49349 164.000
27.51343 176.000
27.53338 190.000
27.55333 191.000
27.57327 215.000
27.59322 221.000
27.61317 174.000
27.63311 178.000
27.65306 190.000
27.67301 168.000
27.69296 187.000
27.71290 206.000
27.73285 156.000
27.75280 191.000
27.77274 174.000
27.79269 185.000
27.81264 168.000
27.83258 168.000
27.85253 170.000
27.87248 181.000
27.89242 198.000
27.91237 194.000
27.93232 185.000
27.95227 171.000
27.97221 168.000
27.99216 190.000
28.01211 178.000
28.03205 181.000
28.05200 169.000
28.07195 184.000
28.09189 160.000
28.11184 178.000
28.13179 195.000
28.15174 174.000
28.17168 170.000
28.19163 172.000
28.21158 162.000
28.23152 180.000
28.25147 190.000
28.27142 189.000
28.29136 196.000
28.31131 191.000
28.33126 171.000
28.35120 194.000
28.37115 162.000
28.39110 190.000
28.41105 189.000
28.43099 196.000
28.45094 183.000
28.47089 185.000
28.49083 185.000
28.51078 178.000
28.53073 176.000
28.55067 197.000
28.57062 184.000
28.59057 154.000
28.61052 185.000
28.63046 188.000
28.65041 191.000
28.67036 180.000
28.69030 165.000
28.71025 189.000
28.73020 168.000
28.75014 194.000
28.77009 190.000
28.79004 164.000
28.80998 186.000
28.82993 170.000
28.84988 200.000
28.86983 187.000
28.88977 154.000
28.90972 178.000
28.92967 165.000
28.94961 177.000
28.96956 222.000
28.98951 160.000
29.00945 182.000
29.02940 184.000
29.04935 179.000
29.06930 194.000
29.08924 199.000
29.10919 195.000
29.12914 190.000
29.14908 195.000
29.16903 176.000
29.18898 175.000
29.20892 185.000
29.22887 207.000
29.24882 198.000
29.26877 198.000
29.28871 218.000
29.30866 185.000
29.32861 222.000
29.34855 210.000
29.36850 204.000
29.38845 190.000
29.40839 233.000
29.42834 204.000
29.44829 214.000
29.46823 200.000
29.48818 194.000
29.50813 192.000
29.52808 198.000
29.54802 221.000
29.56797 170.000
29.58792 176.000
29.60786 203.000
29.62781 192.000
29.64776 194.000
29.66770 187.000
29.68765 193.000
29.70760 209.000
29.72755 183.000
29.74749 193.000
29.76744 199.000
29.78739 204.000
29.80733 202.000
29.82728 193.000
29.84723 205.000
29.86717 190.000
29.88712 203.000
29.90707 171.000
29.92701 213.000
29.94696 191.000
29.96691 210.000
29.98686 195.000
30.00680 207.000
30.02675 196.000
30.04670 201.000
30.06664 234.000
30.08659 236.000
30.10654 251.000
30.12648 275.000
30.14643 297.000
30.16638 305.000
30.18633 353.000
30.20627 345.000
30.22622 407.000
30.24617 436.000
30.26611 443.000
30.28606 363.000
30.30601 361.000
30.32595 303.000
30.34590 325.000
30.36585 260.000
30.38579 290.000
30.40574 256.000
30.42569 230.000
30.44564 191.000
30.46558 194.000
30.48553 206.000
30.50548 222.000
30.52542 204.000
30.54537 185.000
30.56532 198.000
30.58526 185.000
30.60521 188.000
30.62516 213.000
30.64511 185.000
30.66505 198.000
30.68500 205.000
30.70495 199.000
30.72489 187.000
30.74484 175.000
30.76479 183.000
30.78473 206.000
30.80468 217.000
30.82463 156.000
30.84458 190.000
30.86452 199.000
30.88447 184.000
30.90442 148.000
30.92436 196.000
30.94431 198.000
30.96426 188.000
30.98420 198.000
31.00415 186.000
31.02410 205.000
31.04404 199.000
31.06399 167.000
31.08394 171.000
31.10389 189.000
31.12383 195.000
31.14378 183.000
31.16373 180.000
31.18367 209.000
31.20362 187.000
31.22357 242.000
31.24351 180.000
31.26346 196.000
31.28341 185.000
31.30336 198.000
31.32330 192.000
31.34325 188.000
31.36320 201.000
31.38314 191.000
31.40309 164.000
31.42304 205.000
31.44298 197.000
31.46293 193.000
31.48288 198.000
31.50282 193.000
31.52277 213.000
31.54272 185.000
31.56267 192.000
31.58261 193.000
31.60256 210.000
31.62251 201.000
31.64245 223.000
31.66240 187.000
31.68235 176.000
31.70229 189.000
31.72224 193.000
31.74219 186.000
31.76214 191.000
31.78208 210.000
31.80203 203.000
31.82198 217.000
31.84192 192.000
31.86187 180.000
31.88182 194.000
31.90176 230.000
31.92171 213.000
31.94166 257.000
31.96160 253.000
31.98155 261.000
32.00150 263.000
32.02145 283.000
32.04139 254.000
32.06134 250.000
32.08129 225.000
32.10123 238.000
32.12118 215.000
32.14113 219.000
32.16107 230.000
32.18102 191.000
32.20097 209.000
32.22092 213.000
32.24086 186.000
32.26081 198.000
32.28076 185.000
32.30070 196.000
32.32065 220.000
32.34060 213.000
32.36054 191.000
32.38049 230.000
32.40044 206.000
32.42039 217.000
32.44033 195.000
32.46028 207.000
32.48023 221.000
32.50017 198.000
32.52012 232.000
32.54007 232.000
32.56001 253.000
32.57996 242.000
32.59991 251.000
32.61985 286.000
32.63980 262.000
32.65975 269.000
32.67970 257.000
32.69964 270.000
32.71959 302.000
32.73954 308.000
32.75948 311.000
32.77943 342.000
32.79938 302.000
32.81932 354.000
32.83927 309.000
32.85922 313.000
32.87917 319.000
32.89911 306.000
32.91906 314.000
32.93901 280.000
32.95895 270.000
32.97890 308.000
32.99885 292.000
33.01879 241.000
33.03874 232.000
33.05869 255.000
33.07863 260.000
33.09858 237.000
33.11853 228.000
33.13848 209.000
33.15842 204.000
33.17837 207.000
33.19832 240.000
33.21826 194.000
33.23821 216.000
33.25816 208.000
33.27810 175.000
33.29805 191.000
33.31800 197.000
33.33795 171.000
33.35789 194.000
33.37784 190.000
33.39779 184.000
33.41773 192.000
33.43768 213.000
33.45763 200.000
33.47757 217.000
33.49752 197.000
33.51747 183.000
33.53741 207.000
33.55736 198.000
33.57731 208.000
33.59726 186.000
33.61720 175.000
33.63715 199.000
33.65710 170.000
33.67704 167.000
33.69699 204.000
33.71694 206.000
33.73688 187.000
33.75683 193.000
33.77678 207.000
33.79673 201.000
33.81667 204.000
33.83662 200.000
33.85657 212.000
33.87651 201.000
33.89646 164.000
33.91641 174.000
33.93635 184.000
33.95630 222.000
33.97625 177.000
33.99620 184.000
34.01614 185.000
34.03609 185.000
34.05604 192.000
34.07598 199.000
34.09593 194.000
34.11588 185.000
34.13582 186.000
34.15577 188.000
34.17572 223.000
34.19566 192.000
34.21561 223.000
34.23556 219.000
34.25551 211.000
34.27545 204.000
34.29540 212.000
34.31535 196.000
34.33529 206.000
34.35524 212.000
34.37519 209.000
34.39513 206.000
34.41508 186.000
34.43503 208.000
34.45498 242.000
34.47492 194.000
34.49487 170.000
34.51482 184.000
34.53476 199.000
34.55471 202.000
34.57466 193.000
34.59460 206.000
34.61455 229.000
34.63450 180.000
34.65444 205.000
34.67439 208.000
34.69434 184.000
34.71429 202.000
34.73423 216.000
34.75418 195.000
34.77413 229.000
34.79407 210.000
34.81402 204.000
34.83397 237.000
34.85391 206.000
34.87386 210.000
34.89381 191.000
34.91376 213.000
34.93370 195.000
34.95365 233.000
34.97360 195.000
34.99354 194.000
35.01349 187.000
35.03344 221.000
35.05338 195.000
35.07333 244.000
35.09328 226.000
35.11322 223.000
35.13317 206.000
35.15312 226.000
35.17307 219.000
35.19301 246.000
35.21296 252.000
35.23291 218.000
35.25285 236.000
35.27280 250.000
35.29275 239.000
35.31269 296.000
35.33264 278.000
35.35259 298.000
35.37254 315.000
35.39248 330.000
35.41243 419.000
35.43238 445.000
35.45232 451.000
35.47227 508.000
35.49222 553.000
35.51216 629.000
35.53211 757.000
35.55206 820.000
35.57201 906.000
35.59195 1070.000
35.61190 1067.000
35.63185 1121.000
35.65179 1047.000
35.67174 1019.000
35.69169 974.000
35.71163 862.000
35.73158 755.000
35.75153 668.000
35.77147 621.000
35.79142 498.000
35.81137 458.000
35.83132 398.000
35.85126 365.000
35.87121 322.000
35.89116 308.000
35.91110 264.000
35.93105 252.000
35.95100 259.000
35.97094 237.000
35.99089 240.000
36.01084 242.000
36.03079 215.000
36.05073 239.000
36.07068 249.000
36.09063 211.000
36.11057 232.000
36.13052 231.000
36.15047 212.000
36.17041 218.000
36.19036 233.000
36.21031 254.000
36.23025 207.000
36.25020 208.000
36.27015 239.000
36.29010 199.000
36.31004 213.000
36.32999 223.000
36.34994 196.000
36.36988 218.000
36.38983 232.000
36.40978 225.000
36.42972 231.000
36.44967 218.000
36.46962 232.000
36.48957 256.000
36.50951 255.000
36.52946 222.000
36.54941 275.000
36.56935 287.000
36.58930 268.000
36.60925 270.000
36.62919 315.000
36.64914 320.000
36.66909 372.000
36.68903 377.000
36.70898 396.000
36.72893 461.000
36.74888 483.000
36.76882 545.000
36.78877 586.000
36.80872 571.000
36.82866 613.000
36.84861 619.000
36.86856 615.000
36.88850 600.000
36.90845 604.000
36.92840 560.000
36.94835 591.000
36.96829 632.000
36.98824 648.000
37.00819 713.000
37.02813 812.000
37.04808 944.000
37.06803 1256.000
37.08797 1520.000
37.10792 2039.000
37.12787 2487.000
37.14781 2949.000
37.16776 3125.000
37.18771 3248.000
37.20766 3014.000
37.22760 2718.000
37.24755 2469.000
37.26750 2134.000
37.28744 1849.000
37.30739 1500.000
37.32734 1151.000
37.34728 842.000
37.36723 697.000
37.38718 553.000
37.40713 444.000
37.42707 379.000
37.44702 370.000
37.46697 283.000
37.48691 294.000
37.50686 261.000
37.52681 261.000
37.54675 239.000
37.56670 257.000
37.58665 230.000
37.60660 198.000
37.62654 215.000
37.64649 210.000
37.66644 207.000
37.68638 221.000
37.70633 206.000
37.72628 222.000
37.74622 219.000
37.76617 203.000
37.78612 210.000
37.80606 200.000
37.82601 189.000
37.84596 205.000
37.86591 196.000
37.88585 214.000
37.90580 204.000
37.92575 172.000
37.94569 210.000
37.96564 225.000
37.98559 213.000
38.00553 162.000
38.02548 197.000
38.04543 218.000
38.06538 199.000
38.08532 174.000
38.10527 181.000
38.12522 177.000
38.14516 179.000
38.16511 168.000
38.18506 163.000
38.20500 169.000
38.22495 179.000
38.24490 160.000
38.26484 195.000
38.28479 190.000
38.30474 170.000
38.32469 193.000
38.34463 171.000
38.36458 184.000
38.38453 212.000
38.40447 193.000
38.42442 195.000
38.44437 165.000
38.46431 176.000
38.48426 181.000
38.50421 168.000
38.52416 181.000
38.54410 200.000
38.56405 194.000
38.58400 178.000
38.60394 189.000
38.62389 194.000
38.64384 165.000
38.66378 204.000
38.68373 202.000
38.70368 173.000
38.72362 202.000
38.74357 177.000
38.76352 199.000
38.78347 161.000
38.80341 194.000
38.82336 196.000
38.84331 178.000
38.86325 187.000
38.88320 196.000
38.90315 193.000
38.92309 199.000
38.94304 184.000
38.96299 187.000
38.98294 196.000
39.00288 193.000
39.02283 199.000
39.04278 200.000
39.06272 208.000
39.08267 215.000
39.10262 223.000
39.12256 236.000
39.14251 239.000
39.16246 246.000
39.18241 240.000
39.20235 254.000
39.22230 258.000
39.24225 305.000
39.26219 280.000
39.28214 300.000
39.30209 291.000
39.32203 266.000
39.34198 305.000
39.36193 313.000
39.38187 296.000
39.40182 266.000
39.42177 243.000
39.44172 237.000
39.46166 265.000
39.48161 228.000
39.50156 213.000
39.52150 210.000
39.54145 220.000
39.56140 223.000
39.58134 187.000
39.60129 181.000
39.62124 178.000
39.64119 190.000
39.66113 207.000
39.68108 175.000
39.70103 187.000
39.72097 170.000
39.74092 180.000
39.76087 167.000
39.78081 167.000
39.80076 185.000
39.82071 152.000
39.84065 170.000
39.86060 201.000
39.88055 164.000
39.90050 181.000
39.92044 211.000
39.94039 208.000
39.96034 176.000
39.98028 169.000
40.00023 162.000
40.02018 212.000
40.04012 168.000
40.06007 195.000
40.08002 167.000
40.09997 162.000
40.11991 176.000
40.13986 177.000
40.15981 190.000
40.17975 184.000
40.19970 170.000
40.21965 198.000
40.23959 186.000
40.25954 187.000
40.27949 156.000
40.29943 187.000
40.31938 171.000
40.33933 188.000
40.35928 189.000
40.37922 173.000
40.39917 181.000
40.41912 181.000
40.43906 199.000
40.45901 201.000
40.47896 191.000
40.49890 189.000
40.51885 162.000
40.53880 165.000
40.55875 187.000
40.57869 171.000
40.59864 189.000
40.61859 218.000
40.63853 190.000
40.65848 155.000
40.67843 173.000
40.69837 209.000
40.71832 191.000
40.73827 189.000
40.75822 191.000
40.77816 188.000
40.79811 191.000
40.81806 206.000
40.83800 204.000
40.85795 176.000
40.87790 183.000
40.89784 185.000
40.91779 208.000
40.93774 200.000
40.95768 201.000
40.97763 211.000
40.99758 186.000
41.01753 203.000
41.03747 197.000
41.05742 244.000
41.07737 222.000
41.09731 214.000
41.11726 217.000
41.13721 224.000
41.15715 202.000
41.17710 217.000
41.19705 229.000
41.21700 210.000
41.23694 237.000
41.25689 231.000
41.27684 241.000
41.29678 245.000
41.31673 262.000
41.33668 241.000
41.35662 285.000
41.37657 255.000
41.39652 318.000
41.41646 281.000
41.43641 346.000
41.45636 373.000
41.47631 423.000
41.49625 502.000
41.51620 553.000
41.53615 690.000
41.55609 806.000
41.57604 1048.000
41.59599 1294.000
41.61593 1439.000
41.63588 1682.000
41.65583 1638.000
41.67578 1599.000
41.69572 1501.000
41.71567 1430.000
41.73562 1242.000
41.75556 1181.000
41.77551 1067.000
41.79546 877.000
41.81540 762.000
41.83535 591.000
41.85530 545.000
41.87524 457.000
41.89519 374.000
41.91514 359.000
41.93509 354.000
41.95503 308.000
41.97498 279.000
41.99493 265.000
42.01487 251.000
42.03482 256.000
42.05477 253.000
42.07471 205.000
42.09466 209.000
42.11461 225.000
42.13456 231.000
42.15450 236.000
42.17445 220.000
42.19440 216.000
42.21434 203.000
42.23429 221.000
42.25424 206.000
42.27418 224.000
42.29413 233.000
42.31408 225.000
42.33403 230.000
42.35397 205.000
42.37392 215.000
42.39387 247.000
42.41381 212.000
42.43376 243.000
42.45371 230.000
42.47365 233.000
42.49360 219.000
42.51355 251.000
42.53349 287.000
42.55344 220.000
42.57339 280.000
42.59334 278.000
42.61328 293.000
42.63323 291.000
42.65318 307.000
42.67312 268.000
42.69307 314.000
42.71302 300.000
42.73296 303.000
42.75291 308.000
42.77286 361.000
42.79281 364.000
42.81275 387.000
42.83270 367.000
42.85265 395.000
42.87259 405.000
42.89254 443.000
42.91249 487.000
42.93243 523.000
42.95238 514.000
42.97233 584.000
42.99227 683.000
43.01222 800.000
43.03217 856.000
43.05212 984.000
43.07206 1243.000
43.09201 1676.000
43.11196 2134.000
43.13190 2857.000
43.15185 3769.000
43.17180 4497.000
43.19174 4821.000
43.21169 4827.000
43.23164 4424.000
43.25159 4009.000
43.27153 3651.000
43.29148 3424.000
43.31143 3000.000
43.33137 2742.000
43.35132 2212.000
43.37127 1683.000
43.39121 1326.000
43.41116 990.000
43.43111 810.000
43.45105 655.000
43.47100 561.000
43.49095 548.000
43.51090 469.000
43.53084 379.000
43.55079 415.000
43.57074 354.000
43.59068 293.000
43.61063 305.000
43.63058 256.000
43.65052 263.000
43.67047 288.000
43.69042 231.000
43.71037 278.000
43.73031 240.000
43.75026 214.000
43.77021 208.000
43.79015 224.000
43.81010 211.000
43.83005 212.000
43.84999 238.000
43.86994 209.000
43.88989 212.000
43.90984 209.000
43.92978 204.000
43.94973 209.000
43.96968 208.000
43.98962 184.000
44.00957 210.000
44.02952 214.000
44.04946 186.000
44.06941 163.000
44.08936 188.000
44.10930 193.000
44.12925 193.000
44.14920 181.000
44.16915 214.000
44.18909 193.000
44.20904 203.000
44.22899 175.000
44.24893 172.000
44.26888 177.000
44.28883 170.000
44.30877 208.000
44.32872 174.000
44.34867 171.000
44.36862 178.000
44.38856 197.000
44.40851 167.000
44.42846 201.000
44.44840 197.000
44.46835 192.000
44.48830 167.000
44.50824 172.000
44.52819 170.000
44.54814 167.000
44.56808 185.000
44.58803 176.000
44.60798 172.000
44.62793 162.000
44.64787 174.000
44.66782 184.000
44.68777 204.000
44.70771 192.000
44.72766 179.000
44.74761 166.000
44.76755 185.000
44.78750 158.000
44.80745 178.000
44.82740 211.000
44.84734 185.000
44.86729 190.000
44.88724 188.000
44.90718 214.000
44.92713 203.000
44.94708 218.000
44.96702 215.000
44.98697 203.000
45.00692 215.000
45.02686 208.000
45.04681 244.000
45.06676 212.000
45.08671 220.000
45.10665 216.000
45.12660 222.000
45.14655 203.000
45.16649 187.000
45.18644 172.000
45.20639 198.000
45.22633 171.000
45.24628 208.000
45.26623 181.000
45.28618 172.000
45.30612 177.000
45.32607 177.000
45.34602 175.000
45.36596 176.000
45.38591 181.000
45.40586 169.000
45.42580 173.000
45.44575 172.000
45.46570 168.000
45.48565 146.000
45.50559 172.000
45.52554 161.000
45.54549 175.000
45.56543 170.000
45.58538 166.000
45.60533 163.000
45.62527 155.000
45.64522 153.000
45.66517 175.000
45.68511 171.000
45.70506 171.000
45.72501 188.000
45.74496 154.000
45.76490 140.000
45.78485 174.000
45.80480 164.000
45.82474 169.000
45.84469 174.000
45.86464 160.000
45.88458 168.000
45.90453 172.000
45.92448 160.000
45.94443 151.000
45.96437 156.000
45.98432 164.000
46.00427 186.000
46.02421 175.000
46.04416 177.000
46.06411 167.000
46.08405 143.000
46.10400 172.000
46.12395 165.000
46.14389 154.000
46.16384 146.000
46.18379 185.000
46.20374 156.000
46.22368 148.000
46.24363 174.000
46.26358 181.000
46.28352 157.000
46.30347 162.000
46.32342 155.000
46.34336 146.000
46.36331 161.000
46.38326 142.000
46.40321 178.000
46.42315 176.000
46.44310 168.000
46.46305 152.000
46.48299 152.000
46.50294 149.000
46.52289 166.000
46.54283 163.000
46.56278 153.000
46.58273 138.000
46.60267 160.000
46.62262 156.000
46.64257 170.000
46.66252 157.000
46.68246 159.000
46.70241 158.000
46.72236 141.000
46.74230 145.000
46.76225 141.000
46.78220 145.000
46.80214 167.000
46.82209 146.000
46.84204 163.000
46.86199 157.000
46.88193 146.000
46.90188 150.000
46.92183 177.000
46.94177 171.000
46.96172 158.000
46.98167 153.000
47.00161 153.000
47.02156 135.000
47.04151 156.000
47.06146 159.000
47.08140 159.000
47.10135 154.000
47.12130 161.000
47.14124 160.000
47.16119 142.000
47.18114 162.000
47.20108 137.000
47.22103 169.000
47.24098 151.000
47.26092 155.000
47.28087 167.000
47.30082 132.000
47.32077 166.000
47.34071 137.000
47.36066 165.000
47.38061 172.000
47.40055 173.000
47.42050 171.000
47.44045 141.000
47.46039 163.000
47.48034 169.000
47.50029 164.000
47.52024 151.000
47.54018 151.000
47.56013 167.000
47.58008 163.000
47.60002 179.000
47.61997 157.000
47.63992 137.000
47.65986 169.000
47.67981 154.000
47.69976 154.000
47.71970 158.000
47.73965 163.000
47.75960 170.000
47.77955 165.000
47.79949 176.000
47.81944 152.000
47.83939 165.000
47.85933 177.000
47.87928 135.000
47.89923 153.000
47.91917 153.000
47.93912 177.000
47.95907 127.000
47.97902 172.000
47.99896 148.000
48.01891 169.000
48.03886 184.000
48.05880 149.000
48.07875 171.000
48.09870 167.000
48.11864 179.000
48.13859 191.000
48.15854 158.000
48.17848 171.000
48.19843 155.000
48.21838 191.000
48.23833 166.000
48.25827 171.000
48.27822 166.000
48.29817 146.000
48.31811 157.000
48.33806 173.000
48.35801 170.000
48.37795 187.000
48.39790 171.000
48.41785 159.000
48.43780 195.000
48.45774 191.000
48.47769 191.000
48.49764 191.000
48.51758 163.000
48.53753 166.000
48.55748 186.000
48.57742 203.000
48.59737 209.000
48.61732 211.000
48.63726 243.000
48.65721 252.000
48.67716 276.000
48.69711 248.000
48.71705 256.000
48.73700 280.000
48.75695 275.000
48.77689 240.000
48.79684 249.000
48.81679 250.000
48.83673 258.000
48.85668 255.000
48.87663 215.000
48.89658 215.000
48.91652 222.000
48.93647 208.000
48.95642 181.000
48.97636 179.000
48.99631 185.000
49.01626 174.000
49.03620 183.000
49.05615 171.000
49.07610 159.000
49.09605 165.000
49.11599 182.000
49.13594 174.000
49.15589 182.000
49.17583 161.000
49.19578 186.000
49.21573 136.000
49.23567 139.000
49.25562 160.000
49.27557 162.000
49.29551 154.000
49.31546 170.000
49.33541 159.000
49.35536 155.000
49.37530 193.000
49.39525 160.000
49.41520 139.000
49.43514 154.000
49.45509 138.000
49.47504 168.000
49.49498 164.000
49.51493 176.000
49.53488 121.000
49.55483 155.000
49.57477 187.000
49.59472 190.000
49.61467 168.000
49.63461 143.000
49.65456 157.000
49.67451 148.000
49.69445 151.000
49.71440 163.000
49.73435 158.000
49.75429 174.000
49.77424 152.000
49.79419 147.000
49.81414 149.000
49.83408 154.000
49.85403 164.000
49.87398 163.000
49.89392 142.000
49.91387 159.000
49.93382 177.000
49.95376 153.000
49.97371 190.000
49.99366 149.000
50.01361 159.000
50.03355 153.000
50.05350 155.000
50.07345 169.000
50.09339 138.000
50.11334 159.000
50.13329 131.000
50.15323 143.000
50.17318 166.000
50.19313 156.000
50.21307 160.000
50.23302 169.000
50.25297 153.000
50.27292 167.000
50.29286 161.000
50.31281 158.000
50.33276 155.000
50.35270 152.000
50.37265 134.000
50.39260 162.000
50.41254 161.000
50.43249 156.000
50.45244 162.000
50.47239 163.000
50.49233 168.000
50.51228 150.000
50.53223 158.000
50.55217 143.000
50.57212 156.000
50.59207 143.000
50.61201 142.000
50.63196 175.000
50.65191 167.000
50.67186 139.000
50.69180 141.000
50.71175 155.000
50.73170 155.000
50.75164 154.000
50.77159 155.000
50.79154 143.000
50.81148 178.000
50.83143 140.000
50.85138 151.000
50.87132 185.000
50.89127 138.000
50.91122 161.000
50.93117 169.000
50.95111 153.000
50.97106 148.000
50.99101 158.000
51.01095 164.000
51.03090 150.000
51.05085 158.000
51.07079 159.000
51.09074 162.000
51.11069 160.000
51.13064 181.000
51.15058 151.000
51.17053 153.000
51.19048 143.000
51.21042 143.000
51.23037 131.000
51.25032 158.000
51.27026 156.000
51.29021 160.000
51.31016 140.000
51.33010 144.000
51.35005 147.000
51.37000 146.000
51.38995 147.000
51.40989 153.000
51.42984 166.000
51.44979 150.000
51.46973 128.000
51.48968 172.000
51.50963 150.000
51.52957 158.000
51.54952 149.000
51.56947 150.000
51.58942 157.000
51.60936 157.000
51.62931 172.000
51.64926 160.000
51.66920 144.000
51.68915 144.000
51.70910 168.000
51.72904 151.000
51.74899 140.000
51.76894 150.000
51.78888 154.000
51.80883 155.000
51.82878 167.000
51.84873 147.000
51.86867 148.000
51.88862 181.000
51.90857 169.000
51.92851 141.000
51.94846 155.000
51.96841 145.000
51.98835 141.000
52.00830 161.000
52.02825 156.000
52.04820 169.000
52.06814 160.000
52.08809 149.000
52.10804 152.000
52.12798 174.000
52.14793 163.000
52.16788 133.000
52.18782 187.000
52.20777 150.000
52.22772 176.000
52.24767 142.000
52.26761 179.000
52.28756 146.000
52.30751 142.000
52.32745 170.000
52.34740 147.000
52.36735 164.000
52.38729 142.000
52.40724 159.000
52.42719 151.000
52.44713 152.000
52.46708 162.000
52.48703 164.000
52.50698 163.000
52.52692 162.000
52.54687 154.000
52.56682 159.000
52.58676 149.000
52.60671 156.000
52.62666 190.000
52.64660 144.000
52.66655 163.000
52.68650 175.000
52.70645 164.000
52.72639 173.000
52.74634 168.000
52.76629 176.000
52.78623 198.000
52.80618 186.000
52.82613 180.000
52.84607 220.000
52.86602 211.000
52.88597 208.000
52.90591 212.000
52.92586 229.000
52.94581 242.000
52.96576 256.000
52.98570 264.000
53.00565 303.000
53.02560 303.000
53.04554 306.000
53.06549 326.000
53.08544 305.000
53.10538 310.000
53.12533 313.000
53.14528 294.000
53.16523 308.000
53.18517 287.000
53.20512 278.000
53.22507 284.000
53.24501 274.000
53.26496 239.000
53.28491 282.000
53.30485 210.000
53.32480 213.000
53.34475 204.000
53.36469 207.000
53.38464 190.000
53.40459 190.000
53.42454 202.000
53.44448 173.000
53.46443 158.000
53.48438 193.000
53.50432 175.000
53.52427 194.000
53.54422 159.000
53.56416 194.000
53.58411 194.000
53.60406 195.000
53.62401 184.000
53.64395 176.000
53.66390 208.000
53.68385 186.000
53.70379 193.000
53.72374 180.000
53.74369 198.000
53.76363 206.000
53.78358 198.000
53.80353 220.000
53.82348 206.000
53.84342 197.000
53.86337 201.000
53.88332 205.000
53.90326 196.000
53.92321 182.000
53.94316 210.000
53.96310 174.000
53.98305 218.000
54.00300 178.000
54.02294 192.000
54.04289 187.000
54.06284 154.000
54.08279 155.000
54.10273 162.000
54.12268 160.000
54.14263 154.000
54.16257 155.000
54.18252 158.000
54.20247 154.000
54.22241 163.000
54.24236 158.000
54.26231 167.000
54.28226 164.000
54.30220 178.000
54.32215 149.000
54.34210 159.000
54.36204 153.000
54.38199 169.000
54.40194 151.000
54.42188 156.000
54.44183 169.000
54.46178 160.000
54.48172 153.000
54.50167 141.000
54.52162 161.000
54.54157 146.000
54.56151 154.000
54.58146 133.000
54.60141 165.000
54.62135 154.000
54.64130 153.000
54.66125 194.000
54.68119 155.000
54.70114 168.000
54.72109 156.000
54.74104 153.000
54.76098 155.000
54.78093 130.000
54.80088 189.000
54.82082 177.000
54.84077 158.000
54.86072 177.000
54.88066 180.000
54.90061 151.000
54.92056 139.000
54.94050 181.000
54.96045 170.000
54.98040 132.000
55.00035 174.000
55.02029 168.000
55.04024 165.000
55.06019 170.000
55.08013 135.000
55.10008 158.000
55.12003 155.000
55.13997 130.000
55.15992 166.000
55.17987 154.000
55.19982 162.000
55.21976 148.000
55.23971 158.000
55.25966 155.000
55.27960 183.000
55.29955 158.000
55.31950 152.000
55.33944 150.000
55.35939 151.000
55.37934 150.000
55.39929 155.000
55.41923 157.000
55.43918 172.000
55.45913 179.000
55.47907 149.000
55.49902 152.000
55.51897 153.000
55.53891 180.000
55.55886 168.000
55.57881 141.000
55.59875 157.000
55.61870 153.000
55.63865 164.000
55.65860 166.000
55.67854 164.000
55.69849 154.000
55.71844 152.000
55.73838 157.000
55.75833 182.000
55.77828 165.000
55.79822 155.000
55.81817 140.000
55.83812 159.000
55.85807 156.000
55.87801 178.000
55.89796 175.000
55.91791 153.000
55.93785 147.000
55.95780 135.000
55.97775 145.000
55.99769 170.000
56.01764 158.000
56.03759 164.000
56.05753 141.000
56.07748 146.000
56.09743 166.000
56.11738 154.000
56.13732 139.000
56.15727 147.000
56.17722 153.000
56.19716 167.000
56.21711 161.000
56.23706 174.000
56.25700 152.000
56.27695 170.000
56.29690 170.000
56.31685 166.000
56.33679 167.000
56.35674 153.000
56.37669 171.000
56.39663 155.000
56.41658 151.000
56.43653 155.000
56.45647 164.000
56.47642 154.000
56.49637 166.000
56.51631 166.000
56.53626 171.000
56.55621 176.000
56.57616 167.000
56.59610 164.000
56.61605 178.000
56.63600 161.000
56.65594 196.000
56.67589 155.000
56.69584 163.000
56.71578 159.000
56.73573 172.000
56.75568 161.000
56.77563 154.000
56.79557 163.000
56.81552 173.000
56.83547 160.000
56.85541 173.000
56.87536 162.000
56.89531 171.000
56.91525 161.000
56.93520 176.000
56.95515 154.000
56.97510 181.000
56.99504 182.000
57.01499 183.000
57.03494 231.000
57.05488 167.000
57.07483 191.000
57.09478 222.000
57.11472 195.000
57.13467 191.000
57.15462 220.000
57.17456 238.000
57.19451 232.000
57.21446 260.000
57.23441 264.000
57.25435 302.000
57.27430 285.000
57.29425 317.000
57.31419 317.000
57.33414 348.000
57.35409 349.000
57.37403 374.000
57.39398 353.000
57.41393 325.000
57.43388 347.000
57.45382 311.000
57.47377 343.000
57.49372 336.000
57.51366 318.000
57.53361 303.000
57.55356 295.000
57.57350 320.000
57.59345 309.000
57.61340 325.000
57.63334 341.000
57.65329 311.000
57.67324 365.000
57.69319 394.000
57.71313 400.000
57.73308 406.000
57.75303 396.000
57.77297 360.000
57.79292 366.000
57.81287 378.000
57.83281 334.000
57.85276 315.000
57.87271 341.000
57.89266 321.000
57.91260 298.000
57.93255 283.000
57.95250 245.000
57.97244 287.000
57.99239 227.000
58.01234 244.000
58.03228 208.000
58.05223 206.000
58.07218 187.000
58.09212 232.000
58.11207 182.000
58.13202 185.000
58.15197 196.000
58.17191 160.000
58.19186 178.000
58.21181 178.000
58.23175 164.000
58.25170 171.000
58.27165 167.000
58.29159 176.000
58.31154 150.000
58.33149 176.000
58.35144 175.000
58.37138 175.000
58.39133 155.000
58.41128 154.000
58.43122 159.000
58.45117 146.000
58.47112 154.000
58.49106 189.000
58.51101 175.000
58.53096 159.000
58.55090 129.000
58.57085 164.000
58.59080 149.000
58.61075 164.000
58.63069 156.000
58.65064 164.000
58.67059 173.000
58.69053 163.000
58.71048 164.000
58.73043 165.000
58.75037 160.000
58.77032 164.000
58.79027 163.000
58.81022 151.000
58.83016 166.000
58.85011 169.000
58.87006 158.000
58.89000 167.000
58.90995 164.000
58.92990 171.000
58.94984 157.000
58.96979 171.000
58.98974 155.000
59.00969 162.000
59.02963 159.000
59.04958 178.000
59.06953 164.000
59.08947 150.000
59.10942 161.000
59.12937 168.000
59.14931 158.000
59.16926 135.000
59.18921 156.000
59.20915 156.000
59.22910 142.000
59.24905 157.000
59.26900 134.000
59.28894 177.000
59.30889 155.000
59.32884 156.000
59.34878 175.000
59.36873 152.000
59.38868 160.000
59.40862 147.000
59.42857 158.000
59.44852 138.000
59.46847 158.000
59.48841 145.000
59.50836 151.000
59.52831 153.000
59.54825 164.000
59.56820 144.000
59.58815 142.000
59.60809 175.000
59.62804 169.000
59.64799 152.000
59.66793 147.000
59.68788 155.000
59.70783 159.000
59.72778 170.000
59.74772 166.000
59.76767 162.000
59.78762 179.000
59.80756 160.000
59.82751 151.000
59.84746 164.000
59.86740 143.000
59.88735 170.000
59.90730 159.000
59.92725 147.000
59.94719 154.000
59.96714 150.000
59.98709 137.000
60.00703 166.000
60.02698 140.000
60.04693 153.000
60.06687 146.000
60.08682 174.000
60.10677 155.000
60.12671 166.000
60.14666 161.000
60.16661 138.000
60.18656 185.000
60.20650 166.000
60.22645 169.000
60.24640 169.000
60.26634 168.000
60.28629 154.000
60.30624 150.000
60.32618 151.000
60.34613 155.000
60.36608 170.000
60.38603 181.000
60.40597 166.000
60.42592 159.000
60.44587 149.000
60.46581 150.000
60.48576 151.000
60.50571 144.000
60.52565 168.000
60.54560 150.000
60.56555 154.000
60.58550 176.000
60.60544 143.000
60.62539 153.000
60.64534 183.000
60.66528 178.000
60.68523 173.000
60.70518 168.000
60.72512 165.000
60.74507 135.000
60.76502 174.000
60.78496 158.000
60.80491 183.000
60.82486 172.000
60.84481 180.000
60.86475 156.000
60.88470 178.000
60.90465 170.000
60.92459 151.000
60.94454 179.000
60.96449 158.000
60.98443 152.000
61.00438 169.000
61.02433 163.000
61.04428 162.000
61.06422 162.000
61.08417 169.000
61.10412 171.000
61.12406 168.000
61.14401 189.000
61.16396 158.000
61.18390 158.000
61.20385 141.000
61.22380 161.000
61.24374 155.000
61.26369 165.000
61.28364 160.000
61.30359 172.000
61.32353 138.000
61.34348 145.000
61.36343 170.000
61.38337 159.000
61.40332 168.000
61.42327 153.000
61.44321 170.000
61.46316 165.000
61.48311 163.000
61.50306 178.000
61.52300 171.000
61.54295 184.000
61.56290 172.000
61.58284 168.000
61.60279 178.000
61.62274 164.000
61.64268 164.000
61.66263 159.000
61.68258 164.000
61.70252 201.000
61.72247 183.000
61.74242 177.000
61.76237 170.000
61.78231 188.000
61.80226 205.000
61.82221 186.000
61.84215 205.000
61.86210 184.000
61.88205 218.000
61.90199 163.000
61.92194 194.000
61.94189 222.000
61.96184 236.000
61.98178 239.000
62.00173 241.000
62.02168 232.000
62.04162 242.000
62.06157 238.000
62.08152 255.000
62.10146 235.000
62.12141 217.000
62.14136 263.000
62.16131 259.000
62.18125 256.000
62.20120 264.000
62.22115 237.000
62.24109 247.000
62.26104 250.000
62.28099 266.000
62.30093 238.000
62.32088 278.000
62.34083 268.000
62.36077 281.000
62.38072 293.000
62.40067 285.000
62.42062 333.000
62.44056 313.000
62.46051 349.000
62.48046 377.000
62.50040 407.000
62.52035 438.000
62.54030 443.000
62.56024 547.000
62.58019 557.000
62.60014 709.000
62.62009 749.000
62.64003 936.000
62.65998 1063.000
62.67993 1285.000
62.69987 1583.000
62.71982 1729.000
62.73977 1833.000
62.75971 1937.000
62.77966 1930.000
62.79961 1839.000
62.81955 1855.000
62.83950 1800.000
62.85945 1777.000
62.87940 1721.000
62.89934 1739.000
62.91929 1648.000
62.93924 1513.000
62.95918 1386.000
62.97913 1356.000
62.99908 1257.000
63.01902 1101.000
63.03897 962.000
63.05892 893.000
63.07887 740.000
63.09881 716.000
63.11876 632.000
63.13871 575.000
63.15865 535.000
63.17860 489.000
63.19855 465.000
63.21849 377.000
63.23844 357.000
63.25839 359.000
63.27833 367.000
63.29828 317.000
63.31823 295.000
63.33818 269.000
63.35812 269.000
63.37807 228.000
63.39802 210.000
63.41796 252.000
63.43791 188.000
63.45786 230.000
63.47780 211.000
63.49775 222.000
63.51770 208.000
63.53765 195.000
63.55759 182.000
63.57754 211.000
63.59749 166.000
63.61743 175.000
63.63738 161.000
63.65733 204.000
63.67727 193.000
63.69722 186.000
63.71717 196.000
63.73712 199.000
63.75706 177.000
63.77701 165.000
63.79696 175.000
63.81690 156.000
63.83685 169.000
63.85680 204.000
63.87674 172.000
63.89669 186.000
63.91664 176.000
63.93658 182.000
63.95653 174.000
63.97648 214.000
63.99643 197.000
64.01637 179.000
64.03632 193.000
64.05627 193.000
64.07621 177.000
64.09616 190.000
64.11611 181.000
64.13605 193.000
64.15600 195.000
64.17595 168.000
64.19590 156.000
64.21584 188.000
64.23579 179.000
64.25574 175.000
64.27568 175.000
64.29563 202.000
64.31558 184.000
64.33552 180.000
64.35547 175.000
64.37542 179.000
64.39536 171.000
64.41531 170.000
64.43526 177.000
64.45521 192.000
64.47515 169.000
64.49510 180.000
64.51505 174.000
64.53499 207.000
64.55494 178.000
64.57489 161.000
64.59483 167.000
64.61478 162.000
64.63473 179.000
64.65468 177.000
64.67462 166.000
64.69457 175.000
64.71452 160.000
64.73446 160.000
64.75441 173.000
64.77436 166.000
64.79430 137.000
64.81425 164.000
64.83420 169.000
64.85414 159.000
64.87409 162.000
64.89404 152.000
64.91399 152.000
64.93393 177.000
64.95388 164.000
64.97383 190.000
64.99377 148.000
65.01372 158.000
65.03367 173.000
65.05361 160.000
65.07356 165.000
65.09351 162.000
65.11346 158.000
65.13340 173.000
65.15335 175.000
65.17330 154.000
65.19324 154.000
65.21319 156.000
65.23314 175.000
65.25308 183.000
65.27303 183.000
65.29298 188.000
65.31293 190.000
65.33287 214.000
65.35282 199.000
65.37277 217.000
65.39271 221.000
65.41266 222.000
65.43261 234.000
65.45255 230.000
65.47250 234.000
65.49245 245.000
65.51239 241.000
65.53234 277.000
65.55229 263.000
65.57224 237.000
65.59218 240.000
65.61213 229.000
65.63208 240.000
65.65202 250.000
65.67197 237.000
65.69192 246.000
65.71186 211.000
65.73181 204.000
65.75176 211.000
65.77171 200.000
65.79165 183.000
65.81160 212.000
65.83155 181.000
65.85149 187.000
65.87144 187.000
65.89139 204.000
65.91133 203.000
65.93128 188.000
65.95123 199.000
65.97117 185.000
65.99112 158.000
66.01107 183.000
66.03102 175.000
66.05096 145.000
66.07091 159.000
66.09086 175.000
66.11080 174.000
66.13075 157.000
66.15070 161.000
66.17064 160.000
66.19059 152.000
66.21054 163.000
66.23049 151.000
66.25043 166.000
66.27038 171.000
66.29033 155.000
66.31027 171.000
66.33022 152.000
66.35017 163.000
66.37011 205.000
66.39006 154.000
66.41001 188.000
66.42995 195.000
66.44990 165.000
66.46985 153.000
66.48980 183.000
66.50974 180.000
66.52969 169.000
66.54964 184.000
66.56958 155.000
66.58953 183.000
66.60948 160.000
66.62942 180.000
66.64937 173.000
66.66932 189.000
66.68927 179.000
66.70921 178.000
66.72916 170.000
66.74911 169.000
66.76905 160.000
66.78900 172.000
66.80895 164.000
66.82889 181.000
66.84884 178.000
66.86879 188.000
66.88874 165.000
66.90868 187.000
66.92863 151.000
66.94858 159.000
66.96852 164.000
66.98847 150.000
67.00842 173.000
67.02836 161.000
67.04831 170.000
67.06826 185.000
67.08820 164.000
67.10815 146.000
67.12810 174.000
67.14805 160.000
67.16799 174.000
67.18794 150.000
67.20789 156.000
67.22783 157.000
67.24778 160.000
67.26773 184.000
67.28767 146.000
67.30762 172.000
67.32757 147.000
67.34752 148.000
67.36746 147.000
67.38741 155.000
67.40736 173.000
67.42730 150.000
67.44725 141.000
67.46720 149.000
67.48714 145.000
67.50709 131.000
67.52704 156.000
67.54698 139.000
67.56693 131.000
67.58688 164.000
67.60683 171.000
67.62677 162.000
67.64672 158.000
67.66667 154.000
67.68661 167.000
67.70656 165.000
67.72651 189.000
67.74645 177.000
67.76640 167.000
67.78635 159.000
67.80630 183.000
67.82624 172.000
67.84619 202.000
67.86614 188.000
67.88608 171.000
67.90603 194.000
67.92598 183.000
67.94592 187.000
67.96587 212.000
67.98582 205.000
68.00576 176.000
68.02571 176.000
68.04566 208.000
68.06561 185.000
68.08555 202.000
68.10550 170.000
68.12545 195.000
68.14539 173.000
68.16534 201.000
68.18529 196.000
68.20523 198.000
68.22518 207.000
68.24513 188.000
68.26508 177.000
68.28502 186.000
68.30497 180.000
68.32492 166.000
68.34486 162.000
68.36481 161.000
68.38476 165.000
68.40470 167.000
68.42465 178.000
68.44460 179.000
68.46455 169.000
68.48449 203.000
68.50444 147.000
68.52439 176.000
68.54433 172.000
68.56428 179.000
68.58423 187.000
68.60417 166.000
68.62412 164.000
68.64407 158.000
68.66401 151.000
68.68396 152.000
68.70391 163.000
68.72386 178.000
68.74380 144.000
68.76375 177.000
68.78370 171.000
68.80364 162.000
68.82359 172.000
68.84354 164.000
68.86348 165.000
68.88343 174.000
68.90338 146.000
68.92333 179.000
68.94327 158.000
68.96322 154.000
68.98317 159.000
69.00311 193.000
69.02306 177.000
69.04301 181.000
69.06295 174.000
69.08290 168.000
69.10285 155.000
69.12279 154.000
69.14274 150.000
69.16269 184.000
69.18264 141.000
69.20258 154.000
69.22253 137.000
69.24248 166.000
69.26242 171.000
69.28237 159.000
69.30232 157.000
69.32226 167.000
69.34221 167.000
69.36216 150.000
69.38211 174.000
69.40205 152.000
69.42200 164.000
69.44195 158.000
69.46189 152.000
69.48184 142.000
69.50179 157.000
69.52173 142.000
69.54168 145.000
69.56163 169.000
69.58157 168.000
69.60152 135.000
69.62147 168.000
69.64142 156.000
69.66136 138.000
69.68131 124.000
69.70126 174.000
69.72120 157.000
69.74115 160.000
69.76110 152.000
69.78104 169.000
69.80099 165.000
69.82094 155.000
69.84089 138.000
69.86083 162.000
69.88078 127.000
69.90073 137.000
69.92067 157.000
69.94062 163.000
69.96057 153.000
69.98051 129.000
70.00046 149.000
70.02041 138.000
70.04035 144.000
70.06030 144.000
70.08025 149.000
70.10020 148.000
70.12014 154.000
70.14009 170.000
70.16004 137.000
70.17998 145.000
70.19993 152.000
70.21988 159.000
70.23982 165.000
70.25977 147.000
70.27972 173.000
70.29967 138.000
70.31961 169.000
70.33956 147.000
70.35951 149.000
70.37945 164.000
70.39940 128.000
70.41935 133.000
70.43929 141.000
70.45924 156.000
70.47919 148.000
70.49914 163.000
70.51908 146.000
70.53903 150.000
70.55898 119.000
70.57892 156.000
70.59887 162.000
70.61882 165.000
70.63876 145.000
70.65871 168.000
70.67866 162.000
70.69860 155.000
70.71855 148.000
70.73850 163.000
70.75845 147.000
70.77839 150.000
70.79834 161.000
70.81829 136.000
70.83823 153.000
70.85818 115.000
70.87813 172.000
70.89807 137.000
70.91802 145.000
70.93797 150.000
70.95792 177.000
70.97786 147.000
70.99781 143.000
71.01776 173.000
71.03770 137.000
71.05765 140.000
71.07760 139.000
71.09754 142.000
71.11749 142.000
71.13744 167.000
71.15738 169.000
71.17733 161.000
71.19728 146.000
71.21723 159.000
71.23717 147.000
71.25712 152.000
71.27707 158.000
71.29701 155.000
71.31696 167.000
71.33691 161.000
71.35685 180.000
71.37680 165.000
71.39675 135.000
71.41670 145.000
71.43664 153.000
71.45659 151.000
71.47654 172.000
71.49648 165.000
71.51643 163.000
71.53638 181.000
71.55632 170.000
71.57627 161.000
71.59622 154.000
71.61616 165.000
71.63611 150.000
71.65606 171.000
71.67601 168.000
71.69595 185.000
71.71590 157.000
71.73585 143.000
71.75579 177.000
71.77574 169.000
71.79569 171.000
71.81563 156.000
71.83558 173.000
71.85553 147.000
71.87548 158.000
71.89542 151.000
71.91537 156.000
71.93532 154.000
71.95526 156.000
71.97521 144.000
71.99516 161.000
72.01510 148.000
72.03505 162.000
72.05500 161.000
72.07495 155.000
72.09489 147.000
72.11484 156.000
72.13479 147.000
72.15473 143.000
72.17468 135.000
72.19463 159.000
72.21457 151.000
72.23452 157.000
72.25447 151.000
72.27441 138.000
72.29436 141.000
72.31431 168.000
72.33426 148.000
72.35420 133.000
72.37415 167.000
72.39410 161.000
72.41404 148.000
72.43399 159.000
72.45394 187.000
72.47388 174.000
72.49383 148.000
72.51378 172.000
72.53373 162.000
72.55367 141.000
72.57362 159.000
72.59357 143.000
72.61351 151.000
72.63346 195.000
72.65341 178.000
72.67335 170.000
72.69330 171.000
72.71325 179.000
72.73319 179.000
72.75314 178.000
72.77309 158.000
72.79304 201.000
72.81298 225.000
72.83293 236.000
72.85288 206.000
72.87282 203.000
72.89277 222.000
72.91272 242.000
72.93266 205.000
72.95261 190.000
72.97256 230.000
72.99251 226.000
73.01245 223.000
73.03240 204.000
73.05235 197.000
73.07229 209.000
73.09224 191.000
73.11219 176.000
73.13213 212.000
73.15208 195.000
73.17203 181.000
73.19197 170.000
73.21192 206.000
73.23187 182.000
73.25182 160.000
73.27176 185.000
73.29171 199.000
73.31166 160.000
73.33160 190.000
73.35155 182.000
73.37150 153.000
73.39144 165.000
73.41139 185.000
73.43134 194.000
73.45129 183.000
73.47123 219.000
73.49118 200.000
73.51113 173.000
73.53107 202.000
73.55102 172.000
73.57097 188.000
73.59091 198.000
73.61086 206.000
73.63081 179.000
73.65076 205.000
73.67070 190.000
73.69065 209.000
73.71060 186.000
73.73054 203.000
73.75049 178.000
73.77044 177.000
73.79038 185.000
73.81033 195.000
73.83028 172.000
73.85022 190.000
73.87017 166.000
73.89012 190.000
73.91007 175.000
73.93001 181.000
73.94996 181.000
73.96991 159.000
73.98985 164.000
74.00980 185.000
74.02975 174.000
74.04969 183.000
74.06964 176.000
74.08959 162.000
74.10954 166.000
74.12948 184.000
74.14943 164.000
74.16938 195.000
74.18932 183.000
74.20927 189.000
74.22922 189.000
74.24916 166.000
74.26911 156.000
74.28906 154.000
74.30900 175.000
74.32895 179.000
74.34890 202.000
74.36885 198.000
74.38879 185.000
74.40874 175.000
74.42869 206.000
74.44863 202.000
74.46858 216.000
74.48853 188.000
74.50847 232.000
74.52842 222.000
74.54837 204.000
74.56832 224.000
74.58826 187.000
74.60821 211.000
74.62816 226.000
74.64810 205.000
74.66805 214.000
74.68800 228.000
74.70794 214.000
74.72789 171.000
74.74784 208.000
74.76778 187.000
74.78773 204.000
74.80768 218.000
74.82763 222.000
74.84757 184.000
74.86752 228.000
74.88747 198.000
74.90741 215.000
74.92736 208.000
74.94731 242.000
74.96725 207.000
74.98720 211.000
75.00715 220.000
75.02710 253.000
75.04704 249.000
75.06699 274.000
75.08694 320.000
75.10688 318.000
75.12683 358.000
75.14678 433.000
75.16672 487.000
75.18667 497.000
75.20662 583.000
75.22657 707.000
75.24651 712.000
75.26646 667.000
75.28641 725.000
75.30635 675.000
75.32630 699.000
75.34625 652.000
75.36619 580.000
75.38614 586.000
75.40609 564.000
75.42603 533.000
75.44598 531.000
75.46593 509.000
75.48588 526.000
75.50582 489.000
75.52577 450.000
75.54572 408.000
75.56566 408.000
75.58561 375.000
75.60556 337.000
75.62550 305.000
75.64545 309.000
75.66540 261.000
75.68535 268.000
75.70529 226.000
75.72524 217.000
75.74519 222.000
75.76513 204.000
75.78508 189.000
75.80503 199.000
75.82497 184.000
75.84492 195.000
75.86487 182.000
75.88481 172.000
75.90476 181.000
75.92471 170.000
75.94466 185.000
75.96460 166.000
75.98455 154.000
76.00450 162.000
76.02444 160.000
76.04439 165.000
76.06434 161.000
76.08428 152.000
76.10423 145.000
76.12418 164.000
76.14413 196.000
76.16407 158.000
76.18402 166.000
76.20397 167.000
76.22391 173.000
76.24386 172.000
76.26381 137.000
76.28375 161.000
76.30370 148.000
76.32365 160.000
76.34359 155.000
76.36354 164.000
76.38349 148.000
76.40344 143.000
76.42338 151.000
76.44333 151.000
76.46328 150.000
76.48322 148.000
76.50317 157.000
76.52312 139.000
76.54306 158.000
76.56301 141.000
76.58296 190.000
76.60291 150.000
76.62285 137.000
76.64280 146.000
76.66275 178.000
76.68269 159.000
76.70264 145.000
76.72259 138.000
76.74253 157.000
76.76248 158.000
76.78243 137.000
76.80238 144.000
76.82232 153.000
76.84227 140.000
76.86222 158.000
76.88216 143.000
76.90211 158.000
76.92206 164.000
76.94200 148.000
76.96195 157.000
76.98190 150.000
77.00184 146.000
77.02179 140.000
77.04174 172.000
77.06169 146.000
77.08163 149.000
77.10158 150.000
77.12153 166.000
77.14147 145.000
77.16142 155.000
77.18137 163.000
77.20131 167.000
77.22126 155.000
77.24121 137.000
77.26116 154.000
77.28110 161.000
77.30105 136.000
77.32100 159.000
77.34094 156.000
77.36089 143.000
77.38084 120.000
77.40078 161.000
77.42073 178.000
77.44068 151.000
77.46062 152.000
77.48057 154.000
77.50052 142.000
77.52047 151.000
77.54041 169.000
77.56036 151.000
77.58031 137.000
77.60025 129.000
77.62020 171.000
77.64015 139.000
77.66009 177.000
77.68004 131.000
77.69999 159.000
77.71994 148.000
77.73988 176.000
77.75983 172.000
77.77978 153.000
77.79972 172.000
77.81967 136.000
77.83962 166.000
77.85956 145.000
77.87951 155.000
77.89946 136.000
77.91940 147.000
77.93935 143.000
77.95930 160.000
77.97925 151.000
77.99919 183.000
78.01914 207.000
78.03909 171.000
78.05903 179.000
78.07898 194.000
78.09893 178.000
78.11887 211.000
78.13882 182.000
78.15877 193.000
78.17872 182.000
78.19866 224.000
78.21861 183.000
78.23856 200.000
78.25850 211.000
78.27845 220.000
78.29840 230.000
78.31834 198.000
78.33829 235.000
78.35824 231.000
78.37819 218.000
78.39813 223.000
78.41808 211.000
78.43803 252.000
78.45797 195.000
78.47792 199.000
78.49787 217.000
78.51781 218.000
78.53776 197.000
78.55771 219.000
78.57765 231.000
78.59760 232.000
78.61755 206.000
78.63750 204.000
78.65744 216.000
78.67739 183.000
78.69734 209.000
78.71728 205.000
78.73723 191.000
78.75718 201.000
78.77712 165.000
78.79707 208.000
78.81702 201.000
78.83697 191.000
78.85691 219.000
78.87686 191.000
78.89681 195.000
78.91675 210.000
78.93670 212.000
78.95665 228.000
78.97659 207.000
78.99654 220.000
79.01649 197.000
79.03643 263.000
79.05638 279.000
79.07633 265.000
79.09628 294.000
79.11622 332.000
79.13617 380.000
79.15612 415.000
79.17606 435.000
79.19601 456.000
79.21596 462.000
79.23590 530.000
79.25585 474.000
79.27580 536.000
79.29575 543.000
79.31569 531.000
79.33564 475.000
79.35559 490.000
79.37553 468.000
79.39548 435.000
79.41543 442.000
79.43537 394.000
79.45532 428.000
79.47527 382.000
79.49521 397.000
79.51516 403.000
79.53511 342.000
79.55506 365.000
79.57500 333.000
79.59495 286.000
79.61490 289.000
79.63484 258.000
79.65479 253.000
79.67474 224.000
79.69468 228.000
79.71463 206.000
79.73458 192.000
79.75453 217.000
79.77447 174.000
79.79442 197.000
79.81437 175.000
79.83431 188.000
79.85426 194.000
79.87421 167.000
79.89415 180.000
79.91410 173.000
79.93405 154.000
79.95399 163.000
79.97394 175.000
79.99389 168.000
80.01384 145.000
80.03378 189.000
80.05373 152.000
80.07368 165.000
80.09362 171.000
80.11357 158.000
80.13352 164.000
80.15346 161.000
80.17341 137.000
80.19336 164.000
80.21331 149.000
80.23325 168.000
80.25320 159.000
80.27315 164.000
80.29309 135.000
80.31304 155.000
80.33299 182.000
80.35293 157.000
80.37288 150.000
80.39283 133.000
80.41278 144.000
80.43272 148.000
80.45267 168.000
80.47262 153.000
80.49256 138.000
80.51251 161.000
80.53246 142.000
80.55240 150.000
80.57235 161.000
80.59230 148.000
80.61224 152.000
80.63219 167.000
80.65214 146.000
80.67209 149.000
80.69203 145.000
80.71198 156.000
80.73193 148.000
80.75187 179.000
80.77182 142.000
80.79177 158.000
80.81171 151.000
80.83166 152.000
80.85161 151.000
80.87156 162.000
80.89150 162.000
80.91145 137.000
80.93140 149.000
80.95134 145.000
80.97129 139.000
80.99124 144.000
81.01118 134.000
81.03113 176.000
81.05108 159.000
81.07102 148.000
81.09097 145.000
81.11092 128.000
81.13087 149.000
81.15081 151.000
81.17076 124.000
81.19071 139.000
81.21065 157.000
81.23060 151.000
81.25055 153.000
81.27049 122.000
81.29044 134.000
81.31039 150.000
81.33034 144.000
81.35028 128.000
81.37023 138.000
81.39018 141.000
81.41012 133.000
81.43007 140.000
81.45002 149.000
81.46996 143.000
81.48991 116.000
81.50986 147.000
81.52980 147.000
81.54975 142.000
81.56970 136.000
81.58965 169.000
81.60959 140.000
81.62954 131.000
81.64949 128.000
81.66943 155.000
81.68938 152.000
81.70933 160.000
81.72927 157.000
81.74922 138.000
81.76917 150.000
81.78912 160.000
81.80906 136.000
81.82901 159.000
81.84896 154.000
81.86890 122.000
81.88885 156.000
81.90880 168.000
81.92874 156.000
81.94869 169.000
81.96864 155.000
81.98859 152.000
82.00853 152.000
82.02848 128.000
82.04843 152.000
82.06837 146.000
82.08832 138.000
82.10827 155.000
82.12821 144.000
82.14816 158.000
82.16811 146.000
82.18805 157.000
82.20800 160.000
82.22795 176.000
82.24790 155.000
82.26784 148.000
82.28779 139.000
82.30774 134.000
82.32768 145.000
82.34763 161.000
82.36758 151.000
82.38752 141.000
82.40747 167.000
82.42742 128.000
82.44737 134.000
82.46731 142.000
82.48726 151.000
82.50721 138.000
82.52715 154.000
82.54710 143.000
82.56705 139.000
82.58699 181.000
82.60694 152.000
82.62689 163.000
82.64683 130.000
82.66678 160.000
82.68673 132.000
82.70668 160.000
82.72662 147.000
82.74657 151.000
82.76652 142.000
82.78646 152.000
82.80641 147.000
82.82636 168.000
82.84630 153.000
82.86625 147.000
82.88620 135.000
82.90615 167.000
82.92609 148.000
82.94604 159.000
82.96599 143.000
82.98593 147.000
83.00588 121.000
83.02583 136.000
83.04577 163.000
83.06572 155.000
83.08567 145.000
83.10561 136.000
83.12556 153.000
83.14551 145.000
83.16546 143.000
83.18540 161.000
83.20535 150.000
83.22530 127.000
83.24524 139.000
83.26519 147.000
83.28514 130.000
83.30508 137.000
83.32503 144.000
83.34498 120.000
83.36493 159.000
83.38487 145.000
83.40482 153.000
83.42477 159.000
83.44471 143.000
83.46466 172.000
83.48461 167.000
83.50455 156.000
83.52450 146.000
83.54445 128.000
83.56440 168.000
83.58434 161.000
83.60429 143.000
83.62424 139.000
83.64418 144.000
83.66413 116.000
83.68408 150.000
83.70402 141.000
83.72397 124.000
83.74392 147.000
83.76386 140.000
83.78381 137.000
83.80376 144.000
83.82371 147.000
83.84365 154.000
83.86360 152.000
83.88355 115.000
83.90349 169.000
83.92344 147.000
83.94339 127.000
83.96333 156.000
83.98328 173.000
84.00323 152.000
84.02318 150.000
84.04312 132.000
84.06307 140.000
84.08302 147.000
84.10296 163.000
84.12291 139.000
84.14286 164.000
84.16280 136.000
84.18275 150.000
84.20270 168.000
84.22264 140.000
84.24259 134.000
84.26254 150.000
84.28249 160.000
84.30243 124.000
84.32238 145.000
84.34233 151.000
84.36227 157.000
84.38222 157.000
84.40217 162.000
84.42211 160.000
84.44206 132.000
84.46201 155.000
84.48196 155.000
84.50190 137.000
84.52185 174.000
84.54180 157.000
84.56174 178.000
84.58169 162.000
84.60164 159.000
84.62158 152.000
84.64153 165.000
84.66148 161.000
84.68142 155.000
84.70137 140.000
84.72132 158.000
84.74127 132.000
84.76121 179.000
84.78116 156.000
84.80111 156.000
84.82105 158.000
84.84100 156.000
84.86095 168.000
84.88089 154.000
84.90084 131.000
84.92079 154.000
84.94074 146.000
84.96068 164.000
84.98063 151.000
85.00058 141.000
85.02052 139.000
85.04047 163.000
85.06042 172.000
85.08036 132.000
85.10031 164.000
85.12026 167.000
85.14021 157.000
85.16015 166.000
85.18010 126.000
85.20005 153.000
85.21999 150.000
85.23994 138.000
85.25989 139.000
85.27983 140.000
85.29978 163.000
85.31973 147.000
85.33967 153.000
85.35962 140.000
85.37957 144.000
85.39952 146.000
85.41946 147.000
85.43941 142.000
85.45936 152.000
85.47930 147.000
85.49925 126.000
85.51920 137.000
85.53914 138.000
85.55909 170.000
85.57904 165.000
85.59899 145.000
85.61893 174.000
85.63888 139.000
85.65883 150.000
85.67877 162.000
85.69872 161.000
85.71867 150.000
85.73861 157.000
85.75856 145.000
85.77851 155.000
85.79845 129.000
85.81840 137.000
85.83835 126.000
85.85830 133.000
85.87824 158.000
85.89819 134.000
85.91814 144.000
85.93808 153.000
85.95803 129.000
85.97798 133.000
85.99792 143.000
86.01787 152.000
86.03782 127.000
86.05777 147.000
86.07771 141.000
86.09766 148.000
86.11761 157.000
86.13755 156.000
86.15750 136.000
86.17745 142.000
86.19739 135.000
86.21734 129.000
86.23729 145.000
86.25723 145.000
86.27718 153.000
86.29713 159.000
86.31708 155.000
86.33702 138.000
86.35697 135.000
86.37692 144.000
86.39686 137.000
86.41681 160.000
86.43676 144.000
86.45670 134.000
86.47665 161.000
86.49660 134.000
86.51655 137.000
86.53649 135.000
86.55644 160.000
86.57639 162.000
86.59633 162.000
86.61628 174.000
86.63623 148.000
86.65617 168.000
86.67612 149.000
86.69607 162.000
86.71602 163.000
86.73596 174.000
86.75591 154.000
86.77586 178.000
86.79580 171.000
86.81575 172.000
86.83570 160.000
86.85564 153.000
86.87559 130.000
86.89554 184.000
86.91548 187.000
86.93543 193.000
86.95538 169.000
86.97533 148.000
86.99527 157.000
87.01522 178.000
87.03517 149.000
87.05511 179.000
87.07506 178.000
87.09501 166.000
87.11495 157.000
87.13490 144.000
87.15485 179.000
87.17480 149.000
87.19474 163.000
87.21469 172.000
87.23464 155.000
87.25458 171.000
87.27453 173.000
87.29448 169.000
87.31442 156.000
87.33437 154.000
87.35432 162.000
87.37426 160.000
87.39421 186.000
87.41416 166.000
87.43411 166.000
87.45405 164.000
87.47400 146.000
87.49395 159.000
87.51389 164.000
87.53384 166.000
87.55379 149.000
87.57373 146.000
87.59368 170.000
87.61363 177.000
87.63358 155.000
87.65352 149.000
87.67347 155.000
87.69342 178.000
87.71336 134.000
87.73331 192.000
87.75326 145.000
87.77320 163.000
87.79315 144.000
87.81310 154.000
87.83304 126.000
87.85299 140.000
87.87294 150.000
87.89289 144.000
87.91283 147.000
87.93278 148.000
87.95273 163.000
87.97267 154.000
87.99262 157.000
88.01257 147.000
88.03251 149.000
88.05246 154.000
88.07241 129.000
88.09236 162.000
88.11230 168.000
88.13225 157.000
88.15220 159.000
88.17214 160.000
88.19209 138.000
88.21204 143.000
88.23198 155.000
88.25193 153.000
88.27188 137.000
88.29183 144.000
88.31177 144.000
88.33172 131.000
88.35167 158.000
88.37161 166.000
88.39156 140.000
88.41151 148.000
88.43145 151.000
88.45140 142.000
88.47135 180.000
88.49129 132.000
88.51124 151.000
88.53119 126.000
88.55114 139.000
88.57108 150.000
88.59103 144.000
88.61098 172.000
88.63092 132.000
88.65087 160.000
88.67082 160.000
88.69076 146.000
88.71071 141.000
88.73066 153.000
88.75061 164.000
88.77055 150.000
88.79050 149.000
88.81045 154.000
88.83039 155.000
88.85034 151.000
88.87029 146.000
88.89023 144.000
88.91018 140.000
88.93013 139.000
88.95007 126.000
88.97002 132.000
88.98997 153.000
89.00992 145.000
89.02986 150.000
89.04981 152.000
89.06976 125.000
89.08970 152.000
89.10965 143.000
89.12960 141.000
89.14954 154.000
89.16949 151.000
89.18944 162.000
89.20939 168.000
89.22933 155.000
89.24928 134.000
89.26923 164.000
89.28917 142.000
89.30912 155.000
89.32907 149.000
89.34901 133.000
89.36896 156.000
89.38891 149.000
89.40885 140.000
89.42880 151.000
89.44875 162.000
89.46870 163.000
89.48864 145.000
89.50859 135.000
89.52854 136.000
89.54848 138.000
89.56843 132.000
89.58838 148.000
89.60832 151.000
89.62827 151.000
89.64822 155.000
89.66817 156.000
89.68811 177.000
89.70806 149.000
89.72801 140.000
89.74795 155.000
89.76790 140.000
89.78785 151.000
89.80779 174.000
89.82774 143.000
89.84769 138.000
89.86764 156.000
89.88758 163.000
89.90753 161.000
89.92748 161.000
89.94742 146.000
89.96737 153.000
89.98732 142.000
90.00726 153.000
