10.00000 101.000
10.01995 78.000
10.03989 96.000
10.05984 73.000
10.07979 99.000
10.09973 85.000
10.11968 108.000
10.13963 84.000
10.15958 103.000
10.17952 75.000
10.19947 95.000
10.21942 98.000
10.23936 85.000
10.25931 84.000
10.27926 98.000
10.29920 101.000
10.31915 87.000
10.33910 95.000
10.35905 100.000
10.37899 85.000
10.39894 91.000
10.41889 95.000
10.43883 92.000
10.45878 105.000
10.47873 90.000
10.49867 112.000
10.51862 85.000
10.53857 103.000
10.55851 95.000
10.57846 97.000
10.59841 90.000
10.61836 88.000
10.63830 90.000
10.65825 84.000
10.67820 90.000
10.69814 101.000
10.71809 96.000
10.73804 92.000
10.75798 85.000
10.77793 102.000
10.79788 91.000
10.81783 97.000
10.83777 100.000
10.85772 101.000
10.87767 104.000
10.89761 111.000
10.91756 100.000
10.93751 80.000
10.95745 74.000
10.97740 104.000
10.99735 85.000
11.01730 88.000
11.03724 99.000
11.05719 111.000
11.07714 101.000
11.09708 110.000
11.11703 83.000
11.13698 92.000
11.15692 103.000
11.17687 87.000
11.19682 88.000
11.21676 89.000
11.23671 98.000
11.25666 111.000
11.27661 91.000
11.29655 96.000
11.31650 105.000
11.33645 99.000
11.35639 101.000
11.37634 88.000
11.39629 79.000
11.41623 98.000
11.43618 100.000
11.45613 83.000
11.47608 100.000
11.49602 108.000
11.51597 88.000
11.53592 82.000
11.55586 97.000
11.57581 104.000
11.59576 111.000
11.61570 87.000
11.63565 100.000
11.65560 86.000
11.67554 103.000
11.69549 106.000
11.71544 102.000
11.73539 87.000
11.75533 86.000
11.77528 98.000
11.79523 109.000
11.81517 91.000
11.83512 86.000
11.85507 94.000
11.87501 98.000
11.89496 87.000
11.91491 103.000
11.93486 90.000
11.95480 96.000
11.97475 109.000
11.99470 100.000
12.01464 82.000
12.03459 112.000
12.05454 106.000
12.07448 93.000
12.09443 94.000
12.11438 113.000
12.13432 84.000
12.15427 110.000
12.17422 93.000
12.19417 87.000
12.21411 104.000
12.23406 107.000
12.25401 93.000
12.27395 89.000
12.29390 88.000
12.31385 103.000
12.33379 103.000
12.35374 108.000
12.37369 106.000
12.39364 110.000
12.41358 89.000
12.43353 110.000
12.45348 107.000
12.47342 86.000
12.49337 102.000
12.51332 115.000
12.53326 94.000
12.55321 86.000
12.57316 111.000
12.59311 72.000
12.61305 101.000
12.63300 114.000
12.65295 125.000
12.67289 96.000
12.69284 105.000
12.71279 115.000
12.73273 88.000
12.75268 105.000
12.77263 94.000
12.79257 118.000
12.81252 109.000
12.83247 124.000
12.85242 99.000
12.87236 127.000
12.89231 116.000
12.91226 109.000
12.93220 127.000
12.95215 113.000
12.97210 119.000
12.99204 102.000
13.01199 109.000
13.03194 99.000
13.05189 113.000
13.07183 108.000
13.09178 104.000
13.11173 106.000
13.13167 116.000
13.15162 100.000
13.17157 107.000
13.19151 87.000
13.21146 102.000
13.23141 101.000
13.25135 117.000
13.27130 107.000
13.29125 96.000
13.31120 92.000
13.33114 98.000
13.35109 84.000
13.37104 99.000
13.39098 92.000
13.41093 104.000
13.43088 72.000
13.45082 116.000
13.47077 100.000
13.49072 101.000
13.51067 91.000
13.53061 96.000
13.55056 99.000
13.57051 91.000
13.59045 92.000
13.61040 116.000
13.63035 100.000
13.65029 93.000
13.67024 112.000
13.69019 106.000
13.71013 82.000
13.73008 101.000
13.75003 112.000
13.76998 98.000
13.78992 124.000
13.80987 105.000
13.82982 96.000
13.84976 99.000
13.86971 97.000
13.88966 93.000
13.90960 112.000
13.92955 110.000
13.94950 106.000
13.96945 104.000
13.98939 99.000
14.00934 112.000
14.02929 92.000
14.04923 102.000
14.06918 75.000
14.08913 105.000
14.10907 124.000
14.12902 114.000
14.14897 100.000
14.16892 116.000
14.18886 105.000
14.20881 96.000
14.22876 101.000
14.24870 119.000
14.26865 108.000
14.28860 94.000
14.30854 107.000
14.32849 106.000
14.34844 114.000
14.36838 119.000
14.38833 114.000
14.40828 98.000
14.42823 117.000
14.44817 103.000
14.46812 111.000
14.48807 92.000
14.50801 126.000
14.52796 101.000
14.54791 116.000
14.56785 106.000
14.58780 92.000
14.60775 101.000
14.62770 111.000
14.64764 98.000
14.66759 125.000
14.68754 105.000
14.70748 117.000
14.72743 94.000
14.74738 95.000
14.76732 124.000
14.78727 100.000
14.80722 100.000
14.82716 126.000
14.84711 107.000
14.86706 119.000
14.88701 104.000
14.90695 113.000
14.92690 131.000
14.94685 106.000
14.96679 129.000
14.98674 122.000
15.00669 117.000
15.02663 138.000
15.04658 127.000
15.06653 118.000
15.08648 136.000
15.10642 150.000
15.12637 134.000
15.14632 113.000
15.16626 144.000
15.18621 157.000
15.20616 163.000
15.22610 169.000
15.24605 182.000
15.26600 183.000
15.28594 166.000
15.30589 160.000
15.32584 154.000
15.34579 160.000
15.36573 161.000
15.38568 163.000
15.40563 173.000
15.42557 186.000
15.44552 187.000
15.46547 179.000
15.48541 179.000
15.50536 232.000
15.52531 196.000
15.54526 209.000
15.56520 201.000
15.58515 229.000
15.60510 267.000
15.62504 304.000
15.64499 317.000
15.66494 374.000
15.68488 473.000
15.70483 630.000
15.72478 914.000
15.74472 1131.000
15.76467 1421.000
15.78462 1753.000
15.80457 2382.000
15.82451 3397.000
15.84446 5022.000
15.86441 7136.000
15.88435 9392.000
15.90430 11275.000
15.92425 12294.000
15.94419 11053.000
15.96414 7795.000
15.98409 5132.000
16.00404 2834.000
16.02398 1403.000
16.04393 874.000
16.06388 540.000
16.08382 442.000
16.10377 359.000
16.12372 305.000
16.14366 252.000
16.16361 250.000
16.18356 218.000
16.20351 220.000
16.22345 196.000
16.24340 188.000
16.26335 187.000
16.28329 162.000
16.30324 160.000
16.32319 158.000
16.34313 172.000
16.36308 156.000
16.38303 155.000
16.40297 162.000
16.42292 155.000
16.44287 146.000
16.46282 135.000
16.48276 165.000
16.50271 118.000
16.52266 142.000
16.54260 124.000
16.56255 150.000
16.58250 124.000
16.60244 129.000
16.62239 126.000
16.64234 130.000
16.66229 146.000
16.68223 126.000
16.70218 145.000
16.72213 122.000
16.74207 111.000
16.76202 114.000
16.78197 116.000
16.80191 131.000
16.82186 116.000
16.84181 141.000
16.86175 112.000
16.88170 138.000
16.90165 172.000
16.92160 177.000
16.94154 143.000
16.96149 133.000
16.98144 139.000
17.00138 115.000
17.02133 110.000
17.04128 105.000
17.06122 106.000
17.08117 121.000
17.10112 120.000
17.12107 107.000
17.14101 129.000
17.16096 90.000
17.18091 116.000
17.20085 105.000
17.22080 98.000
17.24075 106.000
17.26069 110.000
17.28064 104.000
17.30059 101.000
17.32053 106.000
17.34048 101.000
17.36043 104.000
17.38038 99.000
17.40032 97.000
17.42027 82.000
17.44022 110.000
17.46016 103.000
17.48011 88.000
17.50006 104.000
17.52000 96.000
17.53995 108.000
17.55990 98.000
17.57985 97.000
17.59979 95.000
17.61974 91.000
17.63969 100.000
17.65963 103.000
17.67958 90.000
17.69953 95.000
17.71947 101.000
17.73942 87.000
17.75937 137.000
17.77932 107.000
17.79926 93.000
17.81921 101.000
17.83916 99.000
17.85910 111.000
17.87905 96.000
17.89900 112.000
17.91894 83.000
17.93889 99.000
17.95884 99.000
17.97878 105.000
17.99873 101.000
18.01868 93.000
18.03863 100.000
18.05857 104.000
18.07852 99.000
18.09847 120.000
18.11841 114.000
18.13836 97.000
18.15831 100.000
18.17825 121.000
18.19820 122.000
18.21815 113.000
18.23810 107.000
18.25804 96.000
18.27799 104.000
18.29794 117.000
18.31788 99.000
18.33783 100.000
18.35778 102.000
18.37772 123.000
18.39767 96.000
18.41762 127.000
18.43756 97.000
18.45751 125.000
18.47746 90.000
18.49741 121.000
18.51735 120.000
18.53730 138.000
18.55725 116.000
18.57719 115.000
18.59714 124.000
18.61709 118.000
18.63703 89.000
18.65698 105.000
18.67693 104.000
18.69688 121.000
18.71682 96.000
18.73677 110.000
18.75672 95.000
18.77666 108.000
18.79661 88.000
18.81656 120.000
18.83650 94.000
18.85645 109.000
18.87640 102.000
18.89634 105.000
18.91629 108.000
18.93624 101.000
18.95619 117.000
18.97613 98.000
18.99608 109.000
19.01603 105.000
19.03597 99.000
19.05592 118.000
19.07587 111.000
19.09581 118.000
19.11576 105.000
19.13571 108.000
19.15566 86.000
19.17560 102.000
19.19555 93.000
19.21550 107.000
19.23544 113.000
19.25539 106.000
19.27534 97.000
19.29528 110.000
19.31523 102.000
19.33518 101.000
19.35513 95.000
19.37507 95.000
19.39502 114.000
19.41497 115.000
19.43491 99.000
19.45486 87.000
19.47481 107.000
19.49475 97.000
19.51470 102.000
19.53465 91.000
19.55459 107.000
19.57454 86.000
19.59449 107.000
19.61444 86.000
19.63438 99.000
19.65433 89.000
19.67428 108.000
19.69422 89.000
19.71417 83.000
19.73412 120.000
19.75406 108.000
19.77401 112.000
19.79396 100.000
19.81391 85.000
19.83385 97.000
19.85380 97.000
19.87375 96.000
19.89369 109.000
19.91364 97.000
19.93359 116.000
19.95353 108.000
19.97348 86.000
19.99343 113.000
20.01337 104.000
20.03332 85.000
20.05327 88.000
20.07322 114.000
20.09316 114.000
20.11311 113.000
20.13306 99.000
20.15300 98.000
20.17295 100.000
20.19290 96.000
20.21284 106.000
20.23279 111.000
20.25274 93.000
20.27269 107.000
20.29263 112.000
20.31258 95.000
20.33253 115.000
20.35247 109.000
20.37242 121.000
20.39237 123.000
20.41231 108.000
20.43226 104.000
20.45221 118.000
20.47215 106.000
20.49210 107.000
20.51205 112.000
20.53200 118.000
20.55194 112.000
20.57189 119.000
20.59184 111.000
20.61178 107.000
20.63173 111.000
20.65168 106.000
20.67162 92.000
20.69157 118.000
20.71152 117.000
20.73147 104.000
20.75141 126.000
20.77136 102.000
20.79131 98.000
20.81125 108.000
20.83120 112.000
20.85115 132.000
20.87109 107.000
20.89104 116.000
20.91099 140.000
20.93094 120.000
20.95088 113.000
20.97083 114.000
20.99078 141.000
21.01072 108.000
21.03067 114.000
21.05062 112.000
21.07056 125.000
21.09051 145.000
21.11046 129.000
21.13040 115.000
21.15035 121.000
21.17030 134.000
21.19025 93.000
21.21019 117.000
21.23014 119.000
21.25009 101.000
21.27003 109.000
21.28998 98.000
21.30993 108.000
21.32987 90.000
21.34982 121.000
21.36977 121.000
21.38972 95.000
21.40966 86.000
21.42961 89.000
21.44956 94.000
21.46950 94.000
21.48945 98.000
21.50940 109.000
21.52934 126.000
21.54929 103.000
21.56924 95.000
21.58918 102.000
21.60913 100.000
21.62908 98.000
21.64903 104.000
21.66897 95.000
21.68892 96.000
21.70887 103.000
21.72881 94.000
21.74876 108.000
21.76871 96.000
21.78865 112.000
21.80860 96.000
21.82855 132.000
21.84850 111.000
21.86844 100.000
21.88839 100.000
21.90834 114.000
21.92828 129.000
21.94823 96.000
21.96818 130.000
21.98812 122.000
22.00807 122.000
22.02802 119.000
22.04796 120.000
22.06791 134.000
22.08786 115.000
22.10781 111.000
22.12775 131.000
22.14770 119.000
22.16765 105.000
22.18759 95.000
22.20754 115.000
22.22749 106.000
22.24743 113.000
22.26738 95.000
22.28733 119.000
22.30728 106.000
22.32722 118.000
22.34717 122.000
22.36712 94.000
22.38706 116.000
22.40701 135.000
22.42696 96.000
22.44690 104.000
22.46685 101.000
22.48680 124.000
22.50675 100.000
22.52669 102.000
22.54664 109.000
22.56659 113.000
22.58653 125.000
22.60648 100.000
22.62643 109.000
22.64637 95.000
22.66632 98.000
22.68627 113.000
22.70621 110.000
22.72616 102.000
22.74611 111.000
22.76606 114.000
22.78600 95.000
22.80595 125.000
22.82590 121.000
22.84584 113.000
22.86579 104.000
22.88574 122.000
22.90568 122.000
22.92563 119.000
22.94558 123.000
22.96553 127.000
22.98547 99.000
23.00542 109.000
23.02537 106.000
23.04531 115.000
23.06526 107.000
23.08521 96.000
23.10515 110.000
23.12510 103.000
23.14505 97.000
23.16499 122.000
23.18494 114.000
23.20489 104.000
23.22484 114.000
23.24478 110.000
23.26473 103.000
23.28468 113.000
23.30462 98.000
23.32457 108.000
23.34452 107.000
23.36446 123.000
23.38441 103.000
23.40436 106.000
23.42431 108.000
23.44425 102.000
23.46420 99.000
23.48415 97.000
23.50409 103.000
23.52404 95.000
23.54399 116.000
23.56393 112.000
23.58388 87.000
23.60383 94.000
23.62377 101.000
23.64372 121.000
23.66367 127.000
23.68362 129.000
23.70356 97.000
23.72351 113.000
23.74346 110.000
23.76340 115.000
23.78335 86.000
23.80330 122.000
23.82324 117.000
23.84319 106.000
23.86314 123.000
23.88309 99.000
23.90303 97.000
23.92298 139.000
23.94293 106.000
23.96287 85.000
23.98282 112.000
24.00277 101.000
24.02271 90.000
24.04266 120.000
24.06261 105.000
24.08256 97.000
24.10250 110.000
24.12245 136.000
24.14240 104.000
24.16234 100.000
24.18229 103.000
24.20224 106.000
24.22218 112.000
24.24213 100.000
24.26208 121.000
24.28202 118.000
24.30197 98.000
24.32192 99.000
24.34187 111.000
24.36181 108.000
24.38176 116.000
24.40171 96.000
24.42165 115.000
24.44160 101.000
24.46155 108.000
24.48149 113.000
24.50144 144.000
24.52139 128.000
24.54134 104.000
24.56128 113.000
24.58123 112.000
24.60118 107.000
24.62112 106.000
24.64107 125.000
24.66102 111.000
24.68096 113.000
24.70091 121.000
24.72086 108.000
24.74080 106.000
24.76075 121.000
24.78070 102.000
24.80065 116.000
24.82059 103.000
24.84054 128.000
24.86049 120.000
24.88043 128.000
24.90038 130.000
24.92033 101.000
24.94027 104.000
24.96022 87.000
24.98017 139.000
25.00012 126.000
25.02006 113.000
25.04001 132.000
25.05996 149.000
25.07990 145.000
25.09985 158.000
25.11980 130.000
25.13974 126.000
25.15969 116.000
25.17964 117.000
25.19958 111.000
25.21953 114.000
25.23948 106.000
25.25943 134.000
25.27937 116.000
25.29932 107.000
25.31927 110.000
25.33921 111.000
25.35916 120.000
25.37911 106.000
25.39905 122.000
25.41900 129.000
25.43895 103.000
25.45890 110.000
25.47884 113.000
25.49879 104.000
25.51874 119.000
25.53868 124.000
25.55863 120.000
25.57858 111.000
25.59852 93.000
25.61847 120.000
25.63842 108.000
25.65837 125.000
25.67831 119.000
25.69826 105.000
25.71821 98.000
25.73815 102.000
25.75810 105.000
25.77805 118.000
25.79799 115.000
25.81794 106.000
25.83789 106.000
25.85783 114.000
25.87778 111.000
25.89773 113.000
25.91768 125.000
25.93762 119.000
25.95757 130.000
25.97752 119.000
25.99746 135.000
26.01741 118.000
26.03736 112.000
26.05730 119.000
26.07725 114.000
26.09720 120.000
26.11715 95.000
26.13709 116.000
26.15704 115.000
26.17699 124.000
26.19693 113.000
26.21688 108.000
26.23683 133.000
26.25677 122.000
26.27672 110.000
26.29667 126.000
26.31661 115.000
26.33656 135.000
26.35651 125.000
26.37646 109.000
26.39640 121.000
26.41635 110.000
26.43630 117.000
26.45624 123.000
26.47619 111.000
26.49614 98.000
26.51608 100.000
26.53603 116.000
26.55598 125.000
26.57593 113.000
26.59587 102.000
26.61582 129.000
26.63577 111.000
26.65571 115.000
26.67566 107.000
26.69561 119.000
26.71555 118.000
26.73550 107.000
26.75545 108.000
26.77539 120.000
26.79534 118.000
26.81529 103.000
26.83524 105.000
26.85518 128.000
26.87513 107.000
26.89508 111.000
26.91502 100.000
26.93497 106.000
26.95492 119.000
26.97486 113.000
26.99481 109.000
27.01476 101.000
27.03471 113.000
27.05465 129.000
27.07460 116.000
27.09455 112.000
27.11449 131.000
27.13444 138.000
27.15439 126.000
27.17433 137.000
27.19428 138.000
27.21423 161.000
27.23417 185.000
27.25412 179.000
27.27407 157.000
27.29402 150.000
27.31396 140.000
27.33391 144.000
27.35386 137.000
27.37380 121.000
27.39375 118.000
27.41370 136.000
27.43364 112.000
27.45359 121.000
27.47354 114.000
27.49349 113.000
27.51343 137.000
27.53338 122.000
27.55333 123.000
27.57327 106.000
27.59322 130.000
27.61317 108.000
27.63311 113.000
27.65306 122.000
27.67301 128.000
27.69296 96.000
27.71290 126.000
27.73285 136.000
27.75280 142.000
27.77274 125.000
27.79269 129.000
27.81264 111.000
27.83258 116.000
27.85253 115.000
27.87248 114.000
27.89242 112.000
27.91237 117.000
27.93232 105.000
27.95227 126.000
27.97221 122.000
27.99216 116.000
28.01211 103.000
28.03205 99.000
28.05200 120.000
28.07195 124.000
28.09189 121.000
28.11184 108.000
28.13179 130.000
28.15174 114.000
28.17168 123.000
28.19163 125.000
28.21158 142.000
28.23152 137.000
28.25147 140.000
28.27142 104.000
28.29136 134.000
28.31131 124.000
28.33126 139.000
28.35120 157.000
28.37115 181.000
28.39110 190.000
28.41105 206.000
28.43099 191.000
28.45094 198.000
28.47089 174.000
28.49083 164.000
28.51078 176.000
28.53073 146.000
28.55067 168.000
28.57062 100.000
28.59057 123.000
28.61052 146.000
28.63046 127.000
28.65041 110.000
28.67036 107.000
28.69030 121.000
28.71025 124.000
28.73020 118.000
28.75014 117.000
28.77009 129.000
28.79004 114.000
28.80998 135.000
28.82993 139.000
28.84988 123.000
28.86983 110.000
28.88977 108.000
28.90972 125.000
28.92967 110.000
28.94961 102.000
28.96956 124.000
28.98951 122.000
29.00945 123.000
29.02940 113.000
29.04935 114.000
29.06930 124.000
29.08924 125.000
29.10919 138.000
29.12914 117.000
29.14908 118.000
29.16903 135.000
29.18898 110.000
29.20892 113.000
29.22887 127.000
29.24882 123.000
29.26877 130.000
29.28871 128.000
29.30866 134.000
29.32861 148.000
29.34855 129.000
29.36850 189.000
29.38845 191.000
29.40839 196.000
29.42834 274.000
29.44829 239.000
29.46823 220.000
29.48818 227.000
29.50813 205.000
29.52808 187.000
29.54802 190.000
29.56797 187.000
29.58792 153.000
29.60786 154.000
29.62781 137.000
29.64776 144.000
29.66770 142.000
29.68765 136.000
29.70760 130.000
29.72755 118.000
29.74749 108.000
29.76744 108.000
29.78739 133.000
29.80733 111.000
29.82728 115.000
29.84723 111.000
29.86717 144.000
29.88712 96.000
29.90707 143.000
29.92701 122.000
29.94696 129.000
29.96691 130.000
29.98686 124.000
30.00680 119.000
30.02675 119.000
30.04670 123.000
30.06664 136.000
30.08659 130.000
30.10654 131.000
30.12648 150.000
30.14643 159.000
30.16638 144.000
30.18633 156.000
30.20627 161.000
30.22622 157.000
30.24617 134.000
30.26611 154.000
30.28606 152.000
30.30601 153.000
30.32595 130.000
30.34590 136.000
30.36585 126.000
30.38579 125.000
30.40574 158.000
30.42569 131.000
30.44564 137.000
30.46558 148.000
30.48553 181.000
30.50548 161.000
30.52542 170.000
30.54537 153.000
30.56532 153.000
30.58526 155.000
30.60521 149.000
30.62516 141.000
30.64511 136.000
30.66505 141.000
30.68500 129.000
30.70495 139.000
30.72489 116.000
30.74484 146.000
30.76479 110.000
30.78473 132.000
30.80468 138.000
30.82463 127.000
30.84458 114.000
30.86452 124.000
30.88447 132.000
30.90442 151.000
30.92436 119.000
30.94431 111.000
30.96426 124.000
30.98420 130.000
31.00415 121.000
31.02410 112.000
31.04404 119.000
31.06399 130.000
31.08394 139.000
31.10389 121.000
31.12383 122.000
31.14378 125.000
31.16373 127.000
31.18367 133.000
31.20362 130.000
31.22357 131.000
31.24351 113.000
31.26346 143.000
31.28341 100.000
31.30336 121.000
31.32330 125.000
31.34325 138.000
31.36320 112.000
31.38314 140.000
31.40309 133.000
31.42304 124.000
31.44298 116.000
31.46293 123.000
31.48288 135.000
31.50282 146.000
31.52277 146.000
31.54272 130.000
31.56267 127.000
31.58261 134.000
31.60256 143.000
31.62251 148.000
31.64245 148.000
31.66240 172.000
31.68235 173.000
31.70229 181.000
31.72224 194.000
31.74219 206.000
31.76214 210.000
31.78208 200.000
31.80203 200.000
31.82198 187.000
31.84192 191.000
31.86187 218.000
31.88182 230.000
31.90176 251.000
31.92171 315.000
31.94166 369.000
31.96160 454.000
31.98155 493.000
32.00150 618.000
32.02145 725.000
32.04139 785.000
32.06134 915.000
32.08129 987.000
32.10123 1119.000
32.12118 973.000
32.14113 767.000
32.16107 669.000
32.18102 597.000
32.20097 537.000
32.22092 397.000
32.24086 316.000
32.26081 287.000
32.28076 210.000
32.30070 206.000
32.32065 177.000
32.34060 187.000
32.36054 174.000
32.38049 150.000
32.40044 135.000
32.42039 140.000
32.44033 150.000
32.46028 139.000
32.48023 137.000
32.50017 132.000
32.52012 135.000
32.54007 146.000
32.56001 143.000
32.57996 151.000
32.59991 143.000
32.61985 144.000
32.63980 137.000
32.65975 121.000
32.67970 102.000
32.69964 122.000
32.71959 121.000
32.73954 124.000
32.75948 105.000
32.77943 133.000
32.79938 140.000
32.81932 122.000
32.83927 128.000
32.85922 136.000
32.87917 130.000
32.89911 137.000
32.91906 120.000
32.93901 131.000
32.95895 147.000
32.97890 118.000
32.99885 139.000
33.01879 117.000
33.03874 111.000
33.05869 134.000
33.07863 126.000
33.09858 126.000
33.11853 121.000
33.13848 113.000
33.15842 127.000
33.17837 121.000
33.19832 118.000
33.21826 129.000
33.23821 120.000
33.25816 111.000
33.27810 109.000
33.29805 133.000
33.31800 140.000
33.33795 129.000
33.35789 109.000
33.37784 133.000
33.39779 131.000
33.41773 110.000
33.43768 119.000
33.45763 130.000
33.47757 124.000
33.49752 124.000
33.51747 102.000
33.53741 105.000
33.55736 109.000
33.57731 106.000
33.59726 96.000
33.61720 118.000
33.63715 126.000
33.65710 125.000
33.67704 127.000
33.69699 112.000
33.71694 126.000
33.73688 110.000
33.75683 111.000
33.77678 144.000
33.79673 98.000
33.81667 114.000
33.83662 119.000
33.85657 144.000
33.87651 121.000
33.89646 132.000
33.91641 122.000
33.93635 130.000
33.95630 119.000
33.97625 132.000
33.99620 118.000
34.01614 130.000
34.03609 141.000
34.05604 116.000
34.07598 126.000
34.09593 132.000
34.11588 122.000
34.13582 132.000
34.15577 127.000
34.17572 133.000
34.19566 163.000
34.21561 149.000
34.23556 154.000
34.25551 147.000
34.27545 159.000
34.29540 169.000
34.31535 154.000
34.33529 148.000
34.35524 157.000
34.37519 153.000
34.39513 177.000
34.41508 154.000
34.43503 150.000
34.45498 151.000
34.47492 156.000
34.49487 153.000
34.51482 148.000
34.53476 164.000
34.55471 153.000
34.57466 174.000
34.59460 156.000
34.61455 155.000
34.63450 157.000
34.65444 147.000
34.67439 166.000
34.69434 136.000
34.71429 142.000
34.73423 145.000
34.75418 155.000
34.77413 156.000
34.79407 124.000
34.81402 166.000
34.83397 131.000
34.85391 183.000
34.87386 170.000
34.89381 172.000
34.91376 156.000
34.93370 180.000
34.95365 199.000
34.97360 179.000
34.99354 155.000
35.01349 163.000
35.03344 153.000
35.05338 161.000
35.07333 130.000
35.09328 148.000
35.11322 157.000
35.13317 162.000
35.15312 150.000
35.17307 162.000
35.19301 146.000
35.21296 149.000
35.23291 162.000
35.25285 159.000
35.27280 146.000
35.29275 149.000
35.31269 165.000
35.33264 133.000
35.35259 159.000
35.37254 151.000
35.39248 147.000
35.41243 174.000
35.43238 143.000
35.45232 179.000
35.47227 204.000
35.49222 202.000
35.51216 215.000
35.53211 231.000
35.55206 244.000
35.57201 274.000
35.59195 315.000
35.61190 325.000
35.63185 284.000
35.65179 266.000
35.67174 288.000
35.69169 253.000
35.71163 286.000
35.73158 263.000
35.75153 280.000
35.77147 292.000
35.79142 300.000
35.81137 386.000
35.83132 495.000
35.85126 658.000
35.87121 893.000
35.89116 965.000
35.91110 969.000
35.93105 1032.000
35.95100 1162.000
35.97094 1106.000
35.99089 1144.000
36.01084 1072.000
36.03079 986.000
36.05073 949.000
36.07068 775.000
36.09063 654.000
36.11057 594.000
36.13052 463.000
36.15047 419.000
36.17041 301.000
36.19036 280.000
36.21031 229.000
36.23025 209.000
36.25020 197.000
36.27015 171.000
36.29010 154.000
36.31004 187.000
36.32999 161.000
36.34994 151.000
36.36988 148.000
36.38983 160.000
36.40978 157.000
36.42972 155.000
36.44967 168.000
36.46962 175.000
36.48957 185.000
36.50951 197.000
36.52946 220.000
36.54941 222.000
36.56935 222.000
36.58930 226.000
36.60925 197.000
36.62919 191.000
36.64914 178.000
36.66909 204.000
36.68903 184.000
36.70898 161.000
36.72893 182.000
36.74888 151.000
36.76882 185.000
36.78877 237.000
36.80872 257.000
36.82866 242.000
36.84861 233.000
36.86856 265.000
36.88850 254.000
36.90845 193.000
36.92840 242.000
36.94835 235.000
36.96829 237.000
36.98824 201.000
37.00819 209.000
37.02813 188.000
37.04808 177.000
37.06803 187.000
37.08797 177.000
37.10792 146.000
37.12787 159.000
37.14781 185.000
37.16776 151.000
37.18771 157.000
37.20766 161.000
37.22760 138.000
37.24755 164.000
37.26750 172.000
37.28744 194.000
37.30739 187.000
37.32734 168.000
37.34728 154.000
37.36723 152.000
37.38718 141.000
37.40713 152.000
37.42707 133.000
37.44702 146.000
37.46697 155.000
37.48691 134.000
37.50686 145.000
37.52681 124.000
37.54675 139.000
37.56670 133.000
37.58665 169.000
37.60660 123.000
37.62654 140.000
37.64649 138.000
37.66644 146.000
37.68638 149.000
37.70633 148.000
37.72628 166.000
37.74622 146.000
37.76617 147.000
37.78612 153.000
37.80606 134.000
37.82601 138.000
37.84596 154.000
37.86591 149.000
37.88585 155.000
37.90580 159.000
37.92575 175.000
37.94569 158.000
37.96564 145.000
37.98559 142.000
38.00553 157.000
38.02548 135.000
38.04543 161.000
38.06538 154.000
38.08532 156.000
38.10527 166.000
38.12522 148.000
38.14516 143.000
38.16511 168.000
38.18506 147.000
38.20500 159.000
38.22495 139.000
38.24490 129.000
38.26484 143.000
38.28479 154.000
38.30474 156.000
38.32469 135.000
38.34463 161.000
38.36458 150.000
38.38453 149.000
38.40447 132.000
38.42442 146.000
38.44437 146.000
38.46431 149.000
38.48426 142.000
38.50421 140.000
38.52416 139.000
38.54410 123.000
38.56405 152.000
38.58400 147.000
38.60394 150.000
38.62389 147.000
38.64384 176.000
38.66378 188.000
38.68373 172.000
38.70368 192.000
38.72362 223.000
38.74357 265.000
38.76352 262.000
38.78347 278.000
38.80341 244.000
38.82336 230.000
38.84331 251.000
38.86325 220.000
38.88320 224.000
38.90315 229.000
38.92309 193.000
38.94304 185.000
38.96299 199.000
38.98294 164.000
39.00288 203.000
39.02283 203.000
39.04278 198.000
39.06272 188.000
39.08267 226.000
39.10262 198.000
39.12256 201.000
39.14251 200.000
39.16246 217.000
39.18241 206.000
39.20235 223.000
39.22230 228.000
39.24225 262.000
39.26219 250.000
39.28214 287.000
39.30209 279.000
39.32203 325.000
39.34198 380.000
39.36193 522.000
39.38187 592.000
39.40182 828.000
39.42177 1212.000
39.44172 1544.000
39.46166 1837.000
39.48161 2010.000
39.50156 1962.000
39.52150 2127.000
39.54145 2226.000
39.56140 2233.000
39.58134 2019.000
39.60129 1786.000
39.62124 1578.000
39.64119 1423.000
39.66113 1200.000
39.68108 910.000
39.70103 771.000
39.72097 583.000
39.74092 452.000
39.76087 419.000
39.78081 322.000
39.80076 270.000
39.82071 265.000
39.84065 235.000
39.86060 220.000
39.88055 209.000
39.90050 218.000
39.92044 182.000
39.94039 224.000
39.96034 203.000
39.98028 171.000
40.00023 158.000
40.02018 175.000
40.04012 187.000
40.06007 169.000
40.08002 168.000
40.09997 151.000
40.11991 148.000
40.13986 142.000
40.15981 137.000
40.17975 150.000
40.19970 139.000
40.21965 155.000
40.23959 146.000
40.25954 140.000
40.27949 138.000
40.29943 132.000
40.31938 146.000
40.33933 113.000
40.35928 136.000
40.37922 138.000
40.39917 120.000
40.41912 128.000
40.43906 126.000
40.45901 141.000
40.47896 118.000
40.49890 118.000
40.51885 123.000
40.53880 153.000
40.55875 129.000
40.57869 127.000
40.59864 111.000
40.61859 129.000
40.63853 129.000
40.65848 115.000
40.67843 122.000
40.69837 134.000
40.71832 125.000
40.73827 134.000
40.75822 111.000
40.77816 127.000
40.79811 123.000
40.81806 109.000
40.83800 136.000
40.85795 121.000
40.87790 119.000
40.89784 118.000
40.91779 138.000
40.93774 128.000
40.95768 139.000
40.97763 134.000
40.99758 125.000
41.01753 125.000
41.03747 137.000
41.05742 131.000
41.07737 123.000
41.09731 120.000
41.11726 114.000
41.13721 133.000
41.15715 138.000
41.17710 159.000
41.19705 147.000
41.21700 144.000
41.23694 139.000
41.25689 128.000
41.27684 145.000
41.29678 139.000
41.31673 125.000
41.33668 137.000
41.35662 137.000
41.37657 127.000
41.39652 128.000
41.41646 132.000
41.43641 153.000
41.45636 139.000
41.47631 129.000
41.49625 121.000
41.51620 125.000
41.53615 132.000
41.55609 123.000
41.57604 144.000
41.59599 137.000
41.61593 133.000
41.63588 149.000
41.65583 146.000
41.67578 141.000
41.69572 136.000
41.71567 151.000
41.73562 117.000
41.75556 139.000
41.77551 144.000
41.79546 136.000
41.81540 118.000
41.83535 132.000
41.85530 136.000
41.87524 134.000
41.89519 131.000
41.91514 108.000
41.93509 128.000
41.95503 123.000
41.97498 102.000
41.99493 124.000
42.01487 120.000
42.03482 133.000
42.05477 122.000
42.07471 131.000
42.09466 110.000
42.11461 120.000
42.13456 126.000
42.15450 125.000
42.17445 105.000
42.19440 123.000
42.21434 109.000
42.23429 122.000
42.25424 115.000
42.27418 111.000
42.29413 128.000
42.31408 123.000
42.33403 119.000
42.35397 149.000
42.37392 123.000
42.39387 128.000
42.41381 123.000
42.43376 150.000
42.45371 133.000
42.47365 144.000
42.49360 143.000
42.51355 145.000
42.53349 140.000
42.55344 168.000
42.57339 162.000
42.59334 169.000
42.61328 135.000
42.63323 168.000
42.65318 159.000
42.67312 161.000
42.69307 152.000
42.71302 135.000
42.73296 135.000
42.75291 129.000
42.77286 140.000
42.79281 147.000
42.81275 149.000
42.83270 138.000
42.85265 153.000
42.87259 139.000
42.89254 145.000
42.91249 144.000
42.93243 153.000
42.95238 163.000
42.97233 138.000
42.99227 158.000
43.01222 141.000
43.03217 153.000
43.05212 161.000
43.07206 147.000
43.09201 135.000
43.11196 127.000
43.13190 132.000
43.15185 114.000
43.17180 151.000
43.19174 154.000
43.21169 149.000
43.23164 150.000
43.25159 145.000
43.27153 136.000
43.29148 173.000
43.31143 152.000
43.33137 170.000
43.35132 184.000
43.37127 181.000
43.39121 182.000
43.41116 212.000
43.43111 221.000
43.45105 235.000
43.47100 283.000
43.49095 359.000
43.51090 474.000
43.53084 529.000
43.55079 680.000
43.57074 845.000
43.59068 912.000
43.61063 910.000
43.63058 929.000
43.65052 903.000
43.67047 873.000
43.69042 849.000
43.71037 770.000
43.73031 710.000
43.75026 661.000
43.77021 529.000
43.79015 484.000
43.81010 383.000
43.83005 296.000
43.84999 315.000
43.86994 230.000
43.88989 204.000
43.90984 202.000
43.92978 183.000
43.94973 190.000
43.96968 156.000
43.98962 159.000
44.00957 182.000
44.02952 158.000
44.04946 154.000
44.06941 128.000
44.08936 138.000
44.10930 132.000
44.12925 140.000
44.14920 122.000
44.16915 135.000
44.18909 116.000
44.20904 110.000
44.22899 133.000
44.24893 141.000
44.26888 153.000
44.28883 138.000
44.30877 120.000
44.32872 128.000
44.34867 145.000
44.36862 159.000
44.38856 143.000
44.40851 108.000
44.42846 131.000
44.44840 107.000
44.46835 124.000
44.48830 115.000
44.50824 126.000
44.52819 132.000
44.54814 133.000
44.56808 129.000
44.58803 124.000
44.60798 126.000
44.62793 120.000
44.64787 128.000
44.66782 112.000
44.68777 125.000
44.70771 110.000
44.72766 112.000
44.74761 119.000
44.76755 159.000
44.78750 140.000
44.80745 125.000
44.82740 157.000
44.84734 141.000
44.86729 139.000
44.88724 138.000
44.90718 147.000
44.92713 156.000
44.94708 129.000
44.96702 142.000
44.98697 132.000
45.00692 144.000
45.02686 121.000
45.04681 123.000
45.06676 110.000
45.08671 125.000
45.10665 138.000
45.12660 137.000
45.14655 116.000
45.16649 128.000
45.18644 135.000
45.20639 127.000
45.22633 116.000
45.24628 121.000
45.26623 148.000
45.28618 139.000
45.30612 126.000
45.32607 126.000
45.34602 120.000
45.36596 131.000
45.38591 113.000
45.40586 122.000
45.42580 127.000
45.44575 125.000
45.46570 142.000
45.48565 109.000
45.50559 111.000
45.52554 114.000
45.54549 122.000
45.56543 114.000
45.58538 114.000
45.60533 123.000
45.62527 118.000
45.64522 121.000
45.66517 112.000
45.68511 125.000
45.70506 160.000
45.72501 116.000
45.74496 134.000
45.76490 116.000
45.78485 177.000
45.80480 127.000
45.82474 120.000
45.84469 145.000
45.86464 133.000
45.88458 129.000
45.90453 115.000
45.92448 139.000
45.94443 151.000
45.96437 107.000
45.98432 122.000
46.00427 130.000
46.02421 145.000
46.04416 140.000
46.06411 108.000
46.08405 101.000
46.10400 105.000
46.12395 121.000
46.14389 98.000
46.16384 124.000
46.18379 102.000
46.20374 111.000
46.22368 121.000
46.24363 109.000
46.26358 146.000
46.28352 111.000
46.30347 121.000
46.32342 125.000
46.34336 135.000
46.36331 125.000
46.38326 136.000
46.40321 123.000
46.42315 126.000
46.44310 123.000
46.46305 116.000
46.48299 127.000
46.50294 131.000
46.52289 138.000
46.54283 141.000
46.56278 121.000
46.58273 136.000
46.60267 147.000
46.62262 146.000
46.64257 126.000
46.66252 116.000
46.68246 120.000
46.70241 137.000
46.72236 131.000
46.74230 124.000
46.76225 147.000
46.78220 139.000
46.80214 129.000
46.82209 125.000
46.84204 123.000
46.86199 129.000
46.88193 141.000
46.90188 119.000
46.92183 126.000
46.94177 115.000
46.96172 135.000
46.98167 118.000
47.00161 116.000
47.02156 119.000
47.04151 117.000
47.06146 129.000
47.08140 98.000
47.10135 145.000
47.12130 124.000
47.14124 104.000
47.16119 123.000
47.18114 95.000
47.20108 104.000
47.22103 123.000
47.24098 124.000
47.26092 142.000
47.28087 122.000
47.30082 127.000
47.32077 113.000
47.34071 104.000
47.36066 112.000
47.38061 122.000
47.40055 123.000
47.42050 128.000
47.44045 140.000
47.46039 115.000
47.48034 125.000
47.50029 110.000
47.52024 124.000
47.54018 107.000
47.56013 132.000
47.58008 109.000
47.60002 119.000
47.61997 107.000
47.63992 105.000
47.65986 126.000
47.67981 124.000
47.69976 128.000
47.71970 145.000
47.73965 125.000
47.75960 120.000
47.77955 138.000
47.79949 111.000
47.81944 145.000
47.83939 130.000
47.85933 112.000
47.87928 140.000
47.89923 137.000
47.91917 139.000
47.93912 138.000
47.95907 142.000
47.97902 100.000
47.99896 142.000
48.01891 157.000
48.03886 164.000
48.05880 141.000
48.07875 155.000
48.09870 153.000
48.11864 167.000
48.13859 158.000
48.15854 174.000
48.17848 197.000
48.19843 159.000
48.21838 176.000
48.23833 195.000
48.25827 163.000
48.27822 155.000
48.29817 168.000
48.31811 177.000
48.33806 159.000
48.35801 148.000
48.37795 174.000
48.39790 188.000
48.41785 186.000
48.43780 166.000
48.45774 180.000
48.47769 176.000
48.49764 204.000
48.51758 170.000
48.53753 220.000
48.55748 205.000
48.57742 229.000
48.59737 244.000
48.61732 250.000
48.63726 279.000
48.65721 329.000
48.67716 355.000
48.69711 361.000
48.71705 429.000
48.73700 499.000
48.75695 620.000
48.77689 806.000
48.79684 930.000
48.81679 1211.000
48.83673 1609.000
48.85668 1911.000
48.87663 2095.000
48.89658 2011.000
48.91652 1883.000
48.93647 1761.000
48.95642 1653.000
48.97636 1588.000
48.99631 1528.000
49.01626 1365.000
49.03620 1329.000
49.05615 1109.000
49.07610 868.000
49.09605 750.000
49.11599 629.000
49.13594 493.000
49.15589 478.000
49.17583 369.000
49.19578 379.000
49.21573 312.000
49.23567 286.000
49.25562 257.000
49.27557 230.000
49.29551 234.000
49.31546 192.000
49.33541 217.000
49.35536 192.000
49.37530 170.000
49.39525 188.000
49.41520 203.000
49.43514 174.000
49.45509 159.000
49.47504 157.000
49.49498 160.000
49.51493 166.000
49.53488 175.000
49.55483 151.000
49.57477 139.000
49.59472 170.000
49.61467 146.000
49.63461 153.000
49.65456 166.000
49.67451 136.000
49.69445 132.000
49.71440 152.000
49.73435 129.000
49.75429 144.000
49.77424 121.000
49.79419 152.000
49.81414 138.000
49.83408 119.000
49.85403 144.000
49.87398 121.000
49.89392 118.000
49.91387 141.000
49.93382 126.000
49.95376 143.000
49.97371 128.000
49.99366 135.000
50.01361 117.000
50.03355 120.000
50.05350 135.000
50.07345 126.000
50.09339 149.000
50.11334 121.000
50.13329 118.000
50.15323 118.000
50.17318 113.000
50.19313 122.000
50.21307 119.000
50.23302 133.000
50.25297 123.000
50.27292 131.000
50.29286 116.000
50.31281 106.000
50.33276 120.000
50.35270 116.000
50.37265 113.000
50.39260 96.000
50.41254 136.000
50.43249 128.000
50.45244 110.000
50.47239 112.000
50.49233 114.000
50.51228 126.000
50.53223 139.000
50.55217 113.000
50.57212 122.000
50.59207 114.000
50.61201 117.000
50.63196 101.000
50.65191 111.000
50.67186 127.000
50.69180 131.000
50.71175 103.000
50.73170 120.000
50.75164 113.000
50.77159 128.000
50.79154 132.000
50.81148 124.000
50.83143 133.000
50.85138 133.000
50.87132 124.000
50.89127 135.000
50.91122 122.000
50.93117 122.000
50.95111 138.000
50.97106 119.000
50.99101 109.000
51.01095 122.000
51.03090 103.000
51.05085 97.000
51.07079 114.000
51.09074 110.000
51.11069 129.000
51.13064 116.000
51.15058 102.000
51.17053 103.000
51.19048 114.000
51.21042 100.000
51.23037 109.000
51.25032 119.000
51.27026 121.000
51.29021 125.000
51.31016 108.000
51.33010 104.000
51.35005 111.000
51.37000 126.000
51.38995 126.000
51.40989 116.000
51.42984 112.000
51.44979 110.000
51.46973 101.000
51.48968 112.000
51.50963 116.000
51.52957 125.000
51.54952 146.000
51.56947 131.000
51.58942 131.000
51.60936 112.000
51.62931 128.000
51.64926 102.000
51.66920 126.000
51.68915 118.000
51.70910 144.000
51.72904 120.000
51.74899 97.000
51.76894 136.000
51.78888 125.000
51.80883 95.000
51.82878 106.000
51.84873 122.000
51.86867 134.000
51.88862 105.000
51.90857 103.000
51.92851 124.000
51.94846 119.000
51.96841 151.000
51.98835 134.000
52.00830 112.000
52.02825 131.000
52.04820 126.000
52.06814 141.000
52.08809 135.000
52.10804 125.000
52.12798 128.000
52.14793 127.000
52.16788 137.000
52.18782 128.000
52.20777 168.000
52.22772 145.000
52.24767 149.000
52.26761 131.000
52.28756 136.000
52.30751 137.000
52.32745 119.000
52.34740 151.000
52.36735 121.000
52.38729 127.000
52.40724 120.000
52.42719 140.000
52.44713 126.000
52.46708 126.000
52.48703 133.000
52.50698 138.000
52.52692 131.000
52.54687 117.000
52.56682 114.000
52.58676 103.000
52.60671 115.000
52.62666 101.000
52.64660 112.000
52.66655 136.000
52.68650 121.000
52.70645 130.000
52.72639 118.000
52.74634 112.000
52.76629 106.000
52.78623 108.000
52.80618 105.000
52.82613 131.000
52.84607 124.000
52.86602 127.000
52.88597 132.000
52.90591 121.000
52.92586 99.000
52.94581 111.000
52.96576 86.000
52.98570 112.000
53.00565 124.000
53.02560 125.000
53.04554 119.000
53.06549 108.000
53.08544 129.000
53.10538 107.000
53.12533 114.000
53.14528 128.000
53.16523 104.000
53.18517 132.000
53.20512 108.000
53.22507 113.000
53.24501 123.000
53.26496 111.000
53.28491 131.000
53.30485 113.000
53.32480 125.000
53.34475 145.000
53.36469 127.000
53.38464 120.000
53.40459 131.000
53.42454 135.000
53.44448 122.000
53.46443 117.000
53.48438 131.000
53.50432 138.000
53.52427 136.000
53.54422 135.000
53.56416 119.000
53.58411 123.000
53.60406 148.000
53.62401 139.000
53.64395 128.000
53.66390 118.000
53.68385 120.000
53.70379 102.000
53.72374 141.000
53.74369 126.000
53.76363 99.000
53.78358 106.000
53.80353 121.000
53.82348 126.000
53.84342 116.000
53.86337 131.000
53.88332 117.000
53.90326 127.000
53.92321 125.000
53.94316 107.000
53.96310 122.000
53.98305 120.000
54.00300 107.000
54.02294 111.000
54.04289 126.000
54.06284 125.000
54.08279 117.000
54.10273 123.000
54.12268 132.000
54.14263 123.000
54.16257 96.000
54.18252 137.000
54.20247 119.000
54.22241 125.000
54.24236 128.000
54.26231 122.000
54.28226 113.000
54.30220 124.000
54.32215 125.000
54.34210 123.000
54.36204 112.000
54.38199 104.000
54.40194 127.000
54.42188 120.000
54.44183 99.000
54.46178 110.000
54.48172 115.000
54.50167 121.000
54.52162 116.000
54.54157 113.000
54.56151 115.000
54.58146 101.000
54.60141 107.000
54.62135 112.000
54.64130 114.000
54.66125 117.000
54.68119 121.000
54.70114 112.000
54.72109 108.000
54.74104 118.000
54.76098 110.000
54.78093 126.000
54.80088 119.000
54.82082 124.000
54.84077 100.000
54.86072 109.000
54.88066 129.000
54.90061 125.000
54.92056 115.000
54.94050 134.000
54.96045 122.000
54.98040 132.000
55.00035 130.000
55.02029 118.000
55.04024 102.000
55.06019 116.000
55.08013 107.000
55.10008 133.000
55.12003 134.000
55.13997 121.000
55.15992 112.000
55.17987 127.000
55.19982 121.000
55.21976 119.000
55.23971 142.000
55.25966 137.000
55.27960 122.000
55.29955 124.000
55.31950 129.000
55.33944 131.000
55.35939 128.000
55.37934 129.000
55.39929 118.000
55.41923 133.000
55.43918 107.000
55.45913 128.000
55.47907 123.000
55.49902 125.000
55.51897 118.000
55.53891 116.000
55.55886 112.000
55.57881 110.000
55.59875 132.000
55.61870 111.000
55.63865 130.000
55.65860 125.000
55.67854 105.000
55.69849 117.000
55.71844 111.000
55.73838 113.000
55.75833 111.000
55.77828 125.000
55.79822 111.000
55.81817 115.000
55.83812 118.000
55.85807 120.000
55.87801 129.000
55.89796 138.000
55.91791 123.000
55.93785 111.000
55.95780 129.000
55.97775 123.000
55.99769 106.000
56.01764 101.000
56.03759 129.000
56.05753 135.000
56.07748 120.000
56.09743 119.000
56.11738 114.000
56.13732 105.000
56.15727 127.000
56.17722 99.000
56.19716 127.000
56.21711 126.000
56.23706 127.000
56.25700 119.000
56.27695 121.000
56.29690 121.000
56.31685 124.000
56.33679 130.000
56.35674 115.000
56.37669 110.000
56.39663 106.000
56.41658 112.000
56.43653 107.000
56.45647 117.000
56.47642 145.000
56.49637 114.000
56.51631 114.000
56.53626 115.000
56.55621 129.000
56.57616 137.000
56.59610 130.000
56.61605 133.000
56.63600 116.000
56.65594 131.000
56.67589 112.000
56.69584 124.000
56.71578 125.000
56.73573 118.000
56.75568 125.000
56.77563 109.000
56.79557 124.000
56.81552 134.000
56.83547 123.000
56.85541 142.000
56.87536 152.000
56.89531 130.000
56.91525 146.000
56.93520 126.000
56.95515 133.000
56.97510 115.000
56.99504 116.000
57.01499 127.000
57.03494 98.000
57.05488 134.000
57.07483 106.000
57.09478 129.000
57.11472 111.000
57.13467 108.000
57.15462 128.000
57.17456 116.000
57.19451 117.000
57.21446 134.000
57.23441 114.000
57.25435 127.000
57.27430 126.000
57.29425 105.000
57.31419 146.000
57.33414 126.000
57.35409 129.000
57.37403 138.000
57.39398 135.000
57.41393 123.000
57.43388 108.000
57.45382 133.000
57.47377 132.000
57.49372 120.000
57.51366 117.000
57.53361 127.000
57.55356 142.000
57.57350 106.000
57.59345 129.000
57.61340 127.000
57.63334 139.000
57.65329 139.000
57.67324 120.000
57.69319 131.000
57.71313 152.000
57.73308 146.000
57.75303 121.000
57.77297 129.000
57.79292 117.000
57.81287 138.000
57.83281 105.000
57.85276 127.000
57.87271 128.000
57.89266 105.000
57.91260 124.000
57.93255 115.000
57.95250 121.000
57.97244 115.000
57.99239 123.000
58.01234 111.000
58.03228 117.000
58.05223 110.000
58.07218 120.000
58.09212 104.000
58.11207 123.000
58.13202 128.000
58.15197 107.000
58.17191 127.000
58.19186 102.000
58.21181 137.000
58.23175 127.000
58.25170 137.000
58.27165 133.000
58.29159 147.000
58.31154 133.000
58.33149 126.000
58.35144 141.000
58.37138 140.000
58.39133 128.000
58.41128 162.000
58.43122 112.000
58.45117 119.000
58.47112 138.000
58.49106 108.000
58.51101 136.000
58.53096 125.000
58.55090 125.000
58.57085 115.000
58.59080 133.000
58.61075 107.000
58.63069 126.000
58.65064 121.000
58.67059 106.000
58.69053 133.000
58.71048 119.000
58.73043 124.000
58.75037 123.000
58.77032 113.000
58.79027 125.000
58.81022 109.000
58.83016 112.000
58.85011 131.000
58.87006 114.000
58.89000 119.000
58.90995 116.000
58.92990 126.000
58.94984 114.000
58.96979 116.000
58.98974 116.000
59.00969 136.000
59.02963 125.000
59.04958 117.000
59.06953 121.000
59.08947 104.000
59.10942 114.000
59.12937 107.000
59.14931 112.000
59.16926 128.000
59.18921 121.000
59.20915 122.000
59.22910 119.000
59.24905 136.000
59.26900 128.000
59.28894 135.000
59.30889 111.000
59.32884 140.000
59.34878 113.000
59.36873 127.000
59.38868 104.000
59.40862 147.000
59.42857 133.000
59.44852 121.000
59.46847 125.000
59.48841 99.000
59.50836 124.000
59.52831 101.000
59.54825 138.000
59.56820 126.000
59.58815 125.000
59.60809 121.000
59.62804 105.000
59.64799 130.000
59.66793 111.000
59.68788 130.000
59.70783 118.000
59.72778 135.000
59.74772 119.000
59.76767 115.000
59.78762 135.000
59.80756 110.000
59.82751 121.000
59.84746 119.000
59.86740 101.000
59.88735 115.000
59.90730 110.000
59.92725 106.000
59.94719 122.000
59.96714 110.000
59.98709 137.000
60.00703 117.000
60.02698 88.000
60.04693 111.000
60.06687 119.000
60.08682 126.000
60.10677 110.000
60.12671 116.000
60.14666 110.000
60.16661 142.000
60.18656 99.000
60.20650 116.000
60.22645 106.000
60.24640 129.000
60.26634 108.000
60.28629 132.000
60.30624 133.000
60.32618 109.000
60.34613 110.000
60.36608 118.000
60.38603 107.000
60.40597 128.000
60.42592 112.000
60.44587 127.000
60.46581 124.000
60.48576 133.000
60.50571 100.000
60.52565 110.000
60.54560 110.000
60.56555 118.000
60.58550 137.000
60.60544 114.000
60.62539 145.000
60.64534 131.000
60.66528 138.000
60.68523 107.000
60.70518 114.000
60.72512 125.000
60.74507 146.000
60.76502 113.000
60.78496 117.000
60.80491 130.000
60.82486 115.000
60.84481 127.000
60.86475 129.000
60.88470 132.000
60.90465 126.000
60.92459 104.000
60.94454 124.000
60.96449 135.000
60.98443 121.000
61.00438 107.000
61.02433 120.000
61.04428 124.000
61.06422 137.000
61.08417 131.000
61.10412 123.000
61.12406 126.000
61.14401 124.000
61.16396 131.000
61.18390 120.000
61.20385 144.000
61.22380 122.000
61.24374 114.000
61.26369 134.000
61.28364 122.000
61.30359 130.000
61.32353 125.000
61.34348 132.000
61.36343 143.000
61.38337 147.000
61.40332 118.000
61.42327 150.000
61.44321 145.000
61.46316 148.000
61.48311 164.000
61.50306 134.000
61.52300 120.000
61.54295 150.000
61.56290 153.000
61.58284 156.000
61.60279 180.000
61.62274 187.000
61.64268 135.000
61.66263 178.000
61.68258 177.000
61.70252 171.000
61.72247 176.000
61.74242 195.000
61.76237 196.000
61.78231 215.000
61.80226 248.000
61.82221 216.000
61.84215 200.000
61.86210 221.000
61.88205 249.000
61.90199 254.000
61.92194 286.000
61.94189 308.000
61.96184 341.000
61.98178 390.000
62.00173 410.000
62.02168 423.000
62.04162 586.000
62.06157 597.000
62.08152 695.000
62.10146 767.000
62.12141 753.000
62.14136 788.000
62.16131 734.000
62.18125 658.000
62.20120 662.000
62.22115 579.000
62.24109 626.000
62.26104 577.000
62.28099 562.000
62.30093 538.000
62.32088 515.000
62.34083 475.000
62.36077 439.000
62.38072 414.000
62.40067 348.000
62.42062 329.000
62.44056 260.000
62.46051 273.000
62.48046 238.000
62.50040 227.000
62.52035 229.000
62.54030 209.000
62.56024 169.000
62.58019 191.000
62.60014 183.000
62.62009 160.000
62.64003 172.000
62.65998 161.000
62.67993 164.000
62.69987 140.000
62.71982 167.000
62.73977 151.000
62.75971 147.000
62.77966 135.000
62.79961 136.000
62.81955 140.000
62.83950 154.000
62.85945 158.000
62.87940 145.000
62.89934 141.000
62.91929 150.000
62.93924 149.000
62.95918 127.000
62.97913 151.000
62.99908 118.000
63.01902 124.000
63.03897 147.000
63.05892 126.000
63.07887 145.000
63.09881 131.000
63.11876 138.000
63.13871 155.000
63.15865 149.000
63.17860 142.000
63.19855 151.000
63.21849 162.000
63.23844 128.000
63.25839 136.000
63.27833 132.000
63.29828 149.000
63.31823 150.000
63.33818 147.000
63.35812 160.000
63.37807 130.000
63.39802 132.000
63.41796 125.000
63.43791 134.000
63.45786 151.000
63.47780 156.000
63.49775 159.000
63.51770 134.000
63.53765 136.000
63.55759 154.000
63.57754 148.000
63.59749 148.000
63.61743 146.000
63.63738 140.000
63.65733 146.000
63.67727 136.000
63.69722 119.000
63.71717 116.000
63.73712 146.000
63.75706 122.000
63.77701 116.000
63.79696 132.000
63.81690 165.000
63.83685 137.000
63.85680 110.000
63.87674 130.000
63.89669 131.000
63.91664 116.000
63.93658 127.000
63.95653 142.000
63.97648 129.000
63.99643 128.000
64.01637 138.000
64.03632 131.000
64.05627 139.000
64.07621 114.000
64.09616 131.000
64.11611 147.000
64.13605 129.000
64.15600 161.000
64.17595 142.000
64.19590 134.000
64.21584 127.000
64.23579 174.000
64.25574 181.000
64.27568 162.000
64.29563 211.000
64.31558 209.000
64.33552 230.000
64.35547 301.000
64.37542 361.000
64.39536 395.000
64.41531 395.000
64.43526 426.000
64.45521 423.000
64.47515 409.000
64.49510 429.000
64.51505 444.000
64.53499 406.000
64.55494 475.000
64.57489 526.000
64.59483 525.000
64.61478 534.000
64.63473 518.000
64.65468 481.000
64.67462 454.000
64.69457 511.000
64.71452 469.000
64.73446 464.000
64.75441 403.000
64.77436 403.000
64.79430 351.000
64.81425 356.000
64.83420 326.000
64.85414 340.000
64.87409 281.000
64.89404 290.000
64.91399 267.000
64.93393 286.000
64.95388 252.000
64.97383 225.000
64.99377 245.000
65.01372 219.000
65.03367 216.000
65.05361 217.000
65.07356 190.000
65.09351 169.000
65.11346 179.000
65.13340 187.000
65.15335 135.000
65.17330 168.000
65.19324 160.000
65.21319 145.000
65.23314 139.000
65.25308 149.000
65.27303 130.000
65.29298 163.000
65.31293 154.000
65.33287 161.000
65.35282 144.000
65.37277 155.000
65.39271 136.000
65.41266 153.000
65.43261 125.000
65.45255 147.000
65.47250 121.000
65.49245 135.000
65.51239 124.000
65.53234 131.000
65.55229 160.000
65.57224 144.000
65.59218 141.000
65.61213 142.000
65.63208 146.000
65.65202 156.000
65.67197 135.000
65.69192 140.000
65.71186 159.000
65.73181 120.000
65.75176 156.000
65.77171 141.000
65.79165 165.000
65.81160 160.000
65.83155 159.000
65.85149 152.000
65.87144 151.000
65.89139 160.000
65.91133 145.000
65.93128 156.000
65.95123 150.000
65.97117 142.000
65.99112 131.000
66.01107 164.000
66.03102 128.000
66.05096 130.000
66.07091 140.000
66.09086 134.000
66.11080 153.000
66.13075 151.000
66.15070 125.000
66.17064 125.000
66.19059 141.000
66.21054 147.000
66.23049 144.000
66.25043 142.000
66.27038 150.000
66.29033 146.000
66.31027 151.000
66.33022 161.000
66.35017 150.000
66.37011 161.000
66.39006 137.000
66.41001 149.000
66.42995 152.000
66.44990 128.000
66.46985 130.000
66.48980 139.000
66.50974 146.000
66.52969 159.000
66.54964 153.000
66.56958 151.000
66.58953 153.000
66.60948 141.000
66.62942 190.000
66.64937 189.000
66.66932 188.000
66.68927 183.000
66.70921 207.000
66.72916 245.000
66.74911 269.000
66.76905 258.000
66.78900 324.000
66.80895 326.000
66.82889 387.000
66.84884 333.000
66.86879 385.000
66.88874 366.000
66.90868 368.000
66.92863 416.000
66.94858 460.000
66.96852 478.000
66.98847 477.000
67.00842 447.000
67.02836 476.000
67.04831 470.000
67.06826 477.000
67.08820 438.000
67.10815 423.000
67.12810 396.000
67.14805 373.000
67.16799 381.000
67.18794 314.000
67.20789 330.000
67.22783 336.000
67.24778 279.000
67.26773 276.000
67.28767 258.000
67.30762 221.000
67.32757 208.000
67.34752 220.000
67.36746 195.000
67.38741 189.000
67.40736 162.000
67.42730 149.000
67.44725 151.000
67.46720 151.000
67.48714 151.000
67.50709 149.000
67.52704 165.000
67.54698 128.000
67.56693 125.000
67.58688 134.000
67.60683 112.000
67.62677 130.000
67.64672 120.000
67.66667 134.000
67.68661 139.000
67.70656 130.000
67.72651 132.000
67.74645 130.000
67.76640 126.000
67.78635 117.000
67.80630 115.000
67.82624 104.000
67.84619 143.000
67.86614 126.000
67.88608 108.000
67.90603 129.000
67.92598 144.000
67.94592 139.000
67.96587 138.000
67.98582 118.000
68.00576 127.000
68.02571 151.000
68.04566 112.000
68.06561 137.000
68.08555 131.000
68.10550 159.000
68.12545 139.000
68.14539 114.000
68.16534 134.000
68.18529 152.000
68.20523 123.000
68.22518 137.000
68.24513 127.000
68.26508 117.000
68.28502 123.000
68.30497 130.000
68.32492 137.000
68.34486 121.000
68.36481 120.000
68.38476 111.000
68.40470 117.000
68.42465 121.000
68.44460 114.000
68.46455 130.000
68.48449 127.000
68.50444 88.000
68.52439 123.000
68.54433 117.000
68.56428 121.000
68.58423 108.000
68.60417 122.000
68.62412 127.000
68.64407 131.000
68.66401 105.000
68.68396 102.000
68.70391 117.000
68.72386 97.000
68.74380 112.000
68.76375 119.000
68.78370 124.000
68.80364 103.000
68.82359 114.000
68.84354 113.000
68.86348 131.000
68.88343 111.000
68.90338 111.000
68.92333 121.000
68.94327 107.000
68.96322 105.000
68.98317 119.000
69.00311 115.000
69.02306 93.000
69.04301 117.000
69.06295 130.000
69.08290 99.000
69.10285 121.000
69.12279 112.000
69.14274 133.000
69.16269 106.000
69.18264 127.000
69.20258 100.000
69.22253 102.000
69.24248 133.000
69.26242 133.000
69.28237 102.000
69.30232 136.000
69.32226 118.000
69.34221 109.000
69.36216 104.000
69.38211 114.000
69.40205 110.000
69.42200 102.000
69.44195 103.000
69.46189 147.000
69.48184 118.000
69.50179 106.000
69.52173 123.000
69.54168 117.000
69.56163 122.000
69.58157 148.000
69.60152 115.000
69.62147 141.000
69.64142 114.000
69.66136 111.000
69.68131 125.000
69.70126 103.000
69.72120 137.000
69.74115 123.000
69.76110 104.000
69.78104 126.000
69.80099 118.000
69.82094 122.000
69.84089 111.000
69.86083 123.000
69.88078 128.000
69.90073 125.000
69.92067 137.000
69.94062 134.000
69.96057 129.000
69.98051 112.000
70.00046 130.000
70.02041 115.000
70.04035 111.000
70.06030 129.000
70.08025 118.000
70.10020 99.000
70.12014 120.000
70.14009 117.000
70.16004 140.000
70.17998 111.000
70.19993 138.000
70.21988 113.000
70.23982 109.000
70.25977 122.000
70.27972 114.000
70.29967 138.000
70.31961 134.000
70.33956 110.000
70.35951 128.000
70.37945 110.000
70.39940 134.000
70.41935 112.000
70.43929 111.000
70.45924 107.000
70.47919 120.000
70.49914 121.000
70.51908 114.000
70.53903 131.000
70.55898 101.000
70.57892 116.000
70.59887 132.000
70.61882 126.000
70.63876 92.000
70.65871 100.000
70.67866 122.000
70.69860 130.000
70.71855 120.000
70.73850 109.000
70.75845 92.000
70.77839 126.000
70.79834 119.000
70.81829 107.000
70.83823 135.000
70.85818 117.000
70.87813 99.000
70.89807 103.000
70.91802 112.000
70.93797 101.000
70.95792 120.000
70.97786 113.000
70.99781 100.000
71.01776 126.000
71.03770 97.000
71.05765 119.000
71.07760 133.000
71.09754 115.000
71.11749 116.000
71.13744 100.000
71.15738 112.000
71.17733 114.000
71.19728 125.000
71.21723 118.000
71.23717 136.000
71.25712 115.000
71.27707 126.000
71.29701 129.000
71.31696 119.000
71.33691 109.000
71.35685 108.000
71.37680 126.000
71.39675 120.000
71.41670 115.000
71.43664 106.000
71.45659 108.000
71.47654 113.000
71.49648 123.000
71.51643 112.000
71.53638 107.000
71.55632 120.000
71.57627 136.000
71.59622 126.000
71.61616 104.000
71.63611 122.000
71.65606 107.000
71.67601 104.000
71.69595 128.000
71.71590 121.000
71.73585 130.000
71.75579 115.000
71.77574 130.000
71.79569 108.000
71.81563 135.000
71.83558 118.000
71.85553 118.000
71.87548 116.000
71.89542 124.000
71.91537 148.000
71.93532 128.000
71.95526 107.000
71.97521 117.000
71.99516 114.000
72.01510 112.000
72.03505 110.000
72.05500 123.000
72.07495 122.000
72.09489 122.000
72.11484 92.000
72.13479 106.000
72.15473 124.000
72.17468 105.000
72.19463 106.000
72.21457 102.000
72.23452 134.000
72.25447 117.000
72.27441 117.000
72.29436 113.000
72.31431 102.000
72.33426 125.000
72.35420 117.000
72.37415 121.000
72.39410 130.000
72.41404 123.000
72.43399 100.000
72.45394 114.000
72.47388 119.000
72.49383 133.000
72.51378 109.000
72.53373 120.000
72.55367 111.000
72.57362 111.000
72.59357 120.000
72.61351 119.000
72.63346 109.000
72.65341 118.000
72.67335 133.000
72.69330 139.000
72.71325 108.000
72.73319 117.000
72.75314 107.000
72.77309 102.000
72.79304 122.000
72.81298 96.000
72.83293 134.000
72.85288 130.000
72.87282 107.000
72.89277 94.000
72.91272 128.000
72.93266 129.000
72.95261 110.000
72.97256 111.000
72.99251 111.000
73.01245 123.000
73.03240 123.000
73.05235 121.000
73.07229 120.000
73.09224 115.000
73.11219 115.000
73.13213 123.000
73.15208 121.000
73.17203 117.000
73.19197 113.000
73.21192 138.000
73.23187 129.000
73.25182 109.000
73.27176 117.000
73.29171 116.000
73.31166 108.000
73.33160 118.000
73.35155 107.000
73.37150 113.000
73.39144 136.000
73.41139 120.000
73.43134 128.000
73.45129 113.000
73.47123 126.000
73.49118 123.000
73.51113 126.000
73.53107 131.000
73.55102 105.000
73.57097 130.000
73.59091 150.000
73.61086 148.000
73.63081 129.000
73.65076 156.000
73.67070 151.000
73.69065 143.000
73.71060 203.000
73.73054 194.000
73.75049 204.000
73.77044 220.000
73.79038 214.000
73.81033 195.000
73.83028 200.000
73.85022 218.000
73.87017 217.000
73.89012 226.000
73.91007 211.000
73.93001 247.000
73.94996 246.000
73.96991 233.000
73.98985 260.000
74.00980 259.000
74.02975 243.000
74.04969 237.000
74.06964 199.000
74.08959 187.000
74.10954 188.000
74.12948 216.000
74.14943 178.000
74.16938 151.000
74.18932 178.000
74.20927 164.000
74.22922 151.000
74.24916 135.000
74.26911 158.000
74.28906 144.000
74.30900 153.000
74.32895 143.000
74.34890 129.000
74.36885 130.000
74.38879 109.000
74.40874 113.000
74.42869 125.000
74.44863 113.000
74.46858 122.000
74.48853 110.000
74.50847 136.000
74.52842 117.000
74.54837 131.000
74.56832 130.000
74.58826 116.000
74.60821 127.000
74.62816 111.000
74.64810 109.000
74.66805 111.000
74.68800 111.000
74.70794 121.000
74.72789 127.000
74.74784 120.000
74.76778 114.000
74.78773 129.000
74.80768 135.000
74.82763 111.000
74.84757 109.000
74.86752 130.000
74.88747 124.000
74.90741 109.000
74.92736 125.000
74.94731 123.000
74.96725 116.000
74.98720 113.000
75.00715 122.000
75.02710 117.000
75.04704 119.000
75.06699 133.000
75.08694 124.000
75.10688 124.000
75.12683 128.000
75.14678 118.000
75.16672 119.000
75.18667 114.000
75.20662 127.000
75.22657 107.000
75.24651 133.000
75.26646 121.000
75.28641 114.000
75.30635 131.000
75.32630 115.000
75.34625 100.000
75.36619 115.000
75.38614 116.000
75.40609 107.000
75.42603 96.000
75.44598 118.000
75.46593 113.000
75.48588 125.000
75.50582 134.000
75.52577 122.000
75.54572 137.000
75.56566 132.000
75.58561 116.000
75.60556 107.000
75.62550 106.000
75.64545 127.000
75.66540 151.000
75.68535 107.000
75.70529 105.000
75.72524 114.000
75.74519 126.000
75.76513 119.000
75.78508 108.000
75.80503 125.000
75.82497 117.000
75.84492 126.000
75.86487 133.000
75.88481 134.000
75.90476 153.000
75.92471 155.000
75.94466 143.000
75.96460 159.000
75.98455 161.000
76.00450 129.000
76.02444 130.000
76.04439 143.000
76.06434 150.000
76.08428 161.000
76.10423 143.000
76.12418 170.000
76.14413 155.000
76.16407 154.000
76.18402 155.000
76.20397 172.000
76.22391 166.000
76.24386 148.000
76.26381 158.000
76.28375 148.000
76.30370 144.000
76.32365 168.000
76.34359 161.000
76.36354 167.000
76.38349 166.000
76.40344 146.000
76.42338 174.000
76.44333 143.000
76.46328 143.000
76.48322 152.000
76.50317 157.000
76.52312 136.000
76.54306 111.000
76.56301 138.000
76.58296 120.000
76.60291 133.000
76.62285 131.000
76.64280 146.000
76.66275 142.000
76.68269 126.000
76.70264 129.000
76.72259 144.000
76.74253 118.000
76.76248 122.000
76.78243 115.000
76.80238 120.000
76.82232 108.000
76.84227 135.000
76.86222 113.000
76.88216 135.000
76.90211 111.000
76.92206 112.000
76.94200 113.000
76.96195 133.000
76.98190 122.000
77.00184 119.000
77.02179 121.000
77.04174 108.000
77.06169 128.000
77.08163 113.000
77.10158 125.000
77.12153 93.000
77.14147 118.000
77.16142 131.000
77.18137 124.000
77.20131 98.000
77.22126 114.000
77.24121 117.000
77.26116 126.000
77.28110 123.000
77.30105 118.000
77.32100 119.000
77.34094 110.000
77.36089 127.000
77.38084 102.000
77.40078 98.000
77.42073 125.000
77.44068 120.000
77.46062 120.000
77.48057 100.000
77.50052 118.000
77.52047 116.000
77.54041 121.000
77.56036 115.000
77.58031 125.000
77.60025 114.000
77.62020 113.000
77.64015 143.000
77.66009 138.000
77.68004 135.000
77.69999 125.000
77.71994 114.000
77.73988 141.000
77.75983 129.000
77.77978 122.000
77.79972 111.000
77.81967 116.000
77.83962 118.000
77.85956 133.000
77.87951 121.000
77.89946 138.000
77.91940 121.000
77.93935 131.000
77.95930 145.000
77.97925 169.000
77.99919 154.000
78.01914 176.000
78.03909 161.000
78.05903 165.000
78.07898 194.000
78.09893 185.000
78.11887 187.000
78.13882 232.000
78.15877 230.000
78.17872 257.000
78.19866 262.000
78.21861 290.000
78.23856 288.000
78.25850 295.000
78.27845 311.000
78.29840 309.000
78.31834 320.000
78.33829 335.000
78.35824 332.000
78.37819 348.000
78.39813 399.000
78.41808 368.000
78.43803 387.000
78.45797 331.000
78.47792 329.000
78.49787 315.000
78.51781 293.000
78.53776 330.000
78.55771 307.000
78.57765 273.000
78.59760 290.000
78.61755 308.000
78.63750 260.000
78.65744 284.000
78.67739 242.000
78.69734 207.000
78.71728 216.000
78.73723 228.000
78.75718 211.000
78.77712 219.000
78.79707 173.000
78.81702 165.000
78.83697 181.000
78.85691 169.000
78.87686 147.000
78.89681 153.000
78.91675 142.000
78.93670 160.000
78.95665 152.000
78.97659 151.000
78.99654 138.000
79.01649 123.000
79.03643 143.000
79.05638 131.000
79.07633 118.000
79.09628 115.000
79.11622 127.000
79.13617 128.000
79.15612 124.000
79.17606 125.000
79.19601 145.000
79.21596 122.000
79.23590 122.000
79.25585 138.000
79.27580 116.000
79.29575 125.000
79.31569 111.000
79.33564 117.000
79.35559 115.000
79.37553 125.000
79.39548 137.000
79.41543 112.000
79.43537 112.000
79.45532 114.000
79.47527 114.000
79.49521 96.000
79.51516 120.000
79.53511 110.000
79.55506 129.000
79.57500 102.000
79.59495 141.000
79.61490 96.000
79.63484 105.000
79.65479 121.000
79.67474 127.000
79.69468 123.000
79.71463 133.000
79.73458 140.000
79.75453 132.000
79.77447 126.000
79.79442 100.000
79.81437 105.000
79.83431 116.000
79.85426 104.000
79.87421 108.000
79.89415 115.000
79.91410 111.000
79.93405 106.000
79.95399 97.000
79.97394 111.000
79.99389 118.000
80.01384 114.000
80.03378 100.000
80.05373 117.000
80.07368 109.000
80.09362 107.000
80.11357 100.000
80.13352 120.000
80.15346 123.000
80.17341 114.000
80.19336 116.000
80.21331 112.000
80.23325 120.000
80.25320 132.000
80.27315 122.000
80.29309 120.000
80.31304 122.000
80.33299 133.000
80.35293 115.000
80.37288 122.000
80.39283 124.000
80.41278 110.000
80.43272 112.000
80.45267 131.000
80.47262 101.000
80.49256 104.000
80.51251 139.000
80.53246 124.000
80.55240 108.000
80.57235 151.000
80.59230 104.000
80.61224 114.000
80.63219 125.000
80.65214 120.000
80.67209 123.000
80.69203 135.000
80.71198 132.000
80.73193 107.000
80.75187 134.000
80.77182 123.000
80.79177 106.000
80.81171 122.000
80.83166 114.000
80.85161 112.000
80.87156 115.000
80.89150 121.000
80.91145 118.000
80.93140 130.000
80.95134 124.000
80.97129 129.000
80.99124 131.000
81.01118 129.000
81.03113 129.000
81.05108 169.000
81.07102 161.000
81.09097 146.000
81.11092 128.000
81.13087 142.000
81.15081 125.000
81.17076 129.000
81.19071 153.000
81.21065 118.000
81.23060 151.000
81.25055 134.000
81.27049 148.000
81.29044 142.000
81.31039 127.000
81.33034 150.000
81.35028 143.000
81.37023 147.000
81.39018 121.000
81.41012 137.000
81.43007 118.000
81.45002 125.000
81.46996 115.000
81.48991 109.000
81.50986 141.000
81.52980 115.000
81.54975 134.000
81.56970 123.000
81.58965 110.000
81.60959 119.000
81.62954 111.000
81.64949 121.000
81.66943 125.000
81.68938 120.000
81.70933 104.000
81.72927 128.000
81.74922 98.000
81.76917 126.000
81.78912 137.000
81.80906 114.000
81.82901 122.000
81.84896 97.000
81.86890 113.000
81.88885 126.000
81.90880 110.000
81.92874 113.000
81.94869 116.000
81.96864 125.000
81.98859 118.000
82.00853 91.000
82.02848 98.000
82.04843 99.000
82.06837 121.000
82.08832 114.000
82.10827 123.000
82.12821 99.000
82.14816 123.000
82.16811 137.000
82.18805 120.000
82.20800 98.000
82.22795 117.000
82.24790 118.000
82.26784 124.000
82.28779 132.000
82.30774 122.000
82.32768 104.000
82.34763 106.000
82.36758 106.000
82.38752 107.000
82.40747 106.000
82.42742 112.000
82.44737 114.000
82.46731 110.000
82.48726 117.000
82.50721 132.000
82.52715 117.000
82.54710 109.000
82.56705 138.000
82.58699 116.000
82.60694 111.000
82.62689 109.000
82.64683 114.000
82.66678 123.000
82.68673 99.000
82.70668 125.000
82.72662 91.000
82.74657 103.000
82.76652 117.000
82.78646 119.000
82.80641 127.000
82.82636 125.000
82.84630 120.000
82.86625 115.000
82.88620 111.000
82.90615 108.000
82.92609 91.000
82.94604 106.000
82.96599 86.000
82.98593 120.000
83.00588 117.000
83.02583 108.000
83.04577 115.000
83.06572 104.000
83.08567 118.000
83.10561 105.000
83.12556 119.000
83.14551 110.000
83.16546 105.000
83.18540 108.000
83.20535 113.000
83.22530 89.000
83.24524 127.000
83.26519 122.000
83.28514 124.000
83.30508 131.000
83.32503 98.000
83.34498 120.000
83.36493 110.000
83.38487 90.000
83.40482 107.000
83.42477 122.000
83.44471 104.000
83.46466 115.000
83.48461 120.000
83.50455 99.000
83.52450 112.000
83.54445 121.000
83.56440 148.000
83.58434 111.000
83.60429 114.000
83.62424 112.000
83.64418 102.000
83.66413 100.000
83.68408 118.000
83.70402 130.000
83.72397 112.000
83.74392 114.000
83.76386 122.000
83.78381 122.000
83.80376 109.000
83.82371 98.000
83.84365 114.000
83.86360 125.000
83.88355 95.000
83.90349 128.000
83.92344 129.000
83.94339 114.000
83.96333 124.000
83.98328 98.000
84.00323 99.000
84.02318 137.000
84.04312 121.000
84.06307 111.000
84.08302 106.000
84.10296 119.000
84.12291 114.000
84.14286 138.000
84.16280 117.000
84.18275 112.000
84.20270 110.000
84.22264 119.000
84.24259 108.000
84.26254 118.000
84.28249 110.000
84.30243 112.000
84.32238 127.000
84.34233 104.000
84.36227 122.000
84.38222 115.000
84.40217 127.000
84.42211 135.000
84.44206 125.000
84.46201 122.000
84.48196 116.000
84.50190 129.000
84.52185 130.000
84.54180 119.000
84.56174 134.000
84.58169 132.000
84.60164 131.000
84.62158 140.000
84.64153 137.000
84.66148 174.000
84.68142 159.000
84.70137 151.000
84.72132 173.000
84.74127 167.000
84.76121 195.000
84.78116 193.000
84.80111 199.000
84.82105 211.000
84.84100 209.000
84.86095 197.000
84.88089 216.000
84.90084 227.000
84.92079 219.000
84.94074 217.000
84.96068 228.000
84.98063 212.000
85.00058 254.000
85.02052 255.000
85.04047 231.000
85.06042 257.000
85.08036 257.000
85.10031 226.000
85.12026 223.000
85.14021 222.000
85.16015 206.000
85.18010 207.000
85.20005 213.000
85.21999 193.000
85.23994 215.000
85.25989 180.000
85.27983 178.000
85.29978 188.000
85.31973 185.000
85.33967 166.000
85.35962 168.000
85.37957 161.000
85.39952 155.000
85.41946 157.000
85.43941 153.000
85.45936 133.000
85.47930 139.000
85.49925 162.000
85.51920 140.000
85.53914 138.000
85.55909 118.000
85.57904 130.000
85.59899 99.000
85.61893 123.000
85.63888 109.000
85.65883 106.000
85.67877 122.000
85.69872 103.000
85.71867 122.000
85.73861 120.000
85.75856 105.000
85.77851 92.000
85.79845 120.000
85.81840 122.000
85.83835 114.000
85.85830 103.000
85.87824 108.000
85.89819 114.000
85.91814 114.000
85.93808 122.000
85.95803 118.000
85.97798 120.000
85.99792 113.000
86.01787 119.000
86.03782 106.000
86.05777 140.000
86.07771 114.000
86.09766 134.000
86.11761 119.000
86.13755 105.000
86.15750 120.000
86.17745 120.000
86.19739 108.000
86.21734 100.000
86.23729 106.000
86.25723 121.000
86.27718 109.000
86.29713 113.000
86.31708 115.000
86.33702 119.000
86.35697 107.000
86.37692 111.000
86.39686 122.000
86.41681 122.000
86.43676 111.000
86.45670 114.000
86.47665 118.000
86.49660 117.000
86.51655 99.000
86.53649 98.000
86.55644 107.000
86.57639 116.000
86.59633 126.000
86.61628 116.000
86.63623 125.000
86.65617 103.000
86.67612 109.000
86.69607 102.000
86.71602 116.000
86.73596 119.000
86.75591 114.000
86.77586 121.000
86.79580 115.000
86.81575 116.000
86.83570 123.000
86.85564 135.000
86.87559 127.000
86.89554 130.000
86.91548 103.000
86.93543 119.000
86.95538 140.000
86.97533 141.000
86.99527 115.000
87.01522 116.000
87.03517 140.000
87.05511 121.000
87.07506 139.000
87.09501 137.000
87.11495 128.000
87.13490 124.000
87.15485 121.000
87.17480 138.000
87.19474 155.000
87.21469 149.000
87.23464 144.000
87.25458 165.000
87.27453 146.000
87.29448 166.000
87.31442 145.000
87.33437 152.000
87.35432 144.000
87.37426 135.000
87.39421 131.000
87.41416 143.000
87.43411 113.000
87.45405 130.000
87.47400 143.000
87.49395 145.000
87.51389 140.000
87.53384 166.000
87.55379 141.000
87.57373 139.000
87.59368 139.000
87.61363 117.000
87.63358 138.000
87.65352 148.000
87.67347 139.000
87.69342 137.000
87.71336 147.000
87.73331 141.000
87.75326 126.000
87.77320 130.000
87.79315 139.000
87.81310 137.000
87.83304 127.000
87.85299 137.000
87.87294 125.000
87.89289 113.000
87.91283 150.000
87.93278 124.000
87.95273 113.000
87.97267 133.000
87.99262 119.000
88.01257 124.000
88.03251 135.000
88.05246 106.000
88.07241 125.000
88.09236 136.000
88.11230 114.000
88.13225 119.000
88.15220 125.000
88.17214 97.000
88.19209 98.000
88.21204 130.000
88.23198 112.000
88.25193 108.000
88.27188 101.000
88.29183 134.000
88.31177 116.000
88.33172 107.000
88.35167 114.000
88.37161 126.000
88.39156 110.000
88.41151 119.000
88.43145 112.000
88.45140 90.000
88.47135 105.000
88.49129 134.000
88.51124 112.000
88.53119 127.000
88.55114 132.000
88.57108 111.000
88.59103 99.000
88.61098 125.000
88.63092 116.000
88.65087 114.000
88.67082 114.000
88.69076 117.000
88.71071 112.000
88.73066 116.000
88.75061 106.000
88.77055 107.000
88.79050 122.000
88.81045 113.000
88.83039 109.000
88.85034 106.000
88.87029 120.000
88.89023 109.000
88.91018 89.000
88.93013 101.000
88.95007 100.000
88.97002 117.000
88.98997 111.000
89.00992 119.000
89.02986 90.000
89.04981 96.000
89.06976 103.000
89.08970 111.000
89.10965 118.000
89.12960 109.000
89.14954 97.000
89.16949 118.000
89.18944 120.000
89.20939 131.000
89.22933 119.000
89.24928 115.000
89.26923 96.000
89.28917 104.000
89.30912 122.000
89.32907 101.000
89.34901 103.000
89.36896 107.000
89.38891 114.000
89.40885 103.000
89.42880 126.000
89.44875 109.000
89.46870 115.000
89.48864 120.000
89.50859 100.000
89.52854 110.000
89.54848 131.000
89.56843 115.000
89.58838 115.000
89.60832 120.000
89.62827 117.000
89.64822 119.000
89.66817 132.000
89.68811 105.000
89.70806 118.000
89.72801 99.000
89.74795 116.000
89.76790 145.000
89.78785 103.000
89.80779 139.000
89.82774 110.000
89.84769 110.000
89.86764 105.000
89.88758 107.000
89.90753 107.000
89.92748 99.000
89.94742 115.000
89.96737 110.000
89.98732 120.000
90.00726 110.000
