10.00000 432.000
10.01995 439.000
10.03989 478.000
10.05984 449.000
10.07979 428.000
10.09973 500.000
10.11968 421.000
10.13963 409.000
10.15958 457.000
10.17952 443.000
10.19947 495.000
10.21942 441.000
10.23936 448.000
10.25931 421.000
10.27926 414.000
10.29920 412.000
10.31915 466.000
10.33910 454.000
10.35905 460.000
10.37899 451.000
10.39894 422.000
10.41889 434.000
10.43883 448.000
10.45878 448.000
10.47873 431.000
10.49867 467.000
10.51862 462.000
10.53857 444.000
10.55851 468.000
10.57846 461.000
10.59841 421.000
10.61836 470.000
10.63830 460.000
10.65825 402.000
10.67820 459.000
10.69814 435.000
10.71809 462.000
10.73804 438.000
10.75798 445.000
10.77793 453.000
10.79788 402.000
10.81783 444.000
10.83777 454.000
10.85772 451.000
10.87767 456.000
10.89761 442.000
10.91756 434.000
10.93751 485.000
10.95745 468.000
10.97740 457.000
10.99735 475.000
11.01730 455.000
11.03724 445.000
11.05719 406.000
11.07714 462.000
11.09708 384.000
11.11703 417.000
11.13698 474.000
11.15692 473.000
11.17687 434.000
11.19682 459.000
11.21676 450.000
11.23671 425.000
11.25666 447.000
11.27661 486.000
11.29655 438.000
11.31650 473.000
11.33645 484.000
11.35639 470.000
11.37634 452.000
11.39629 443.000
11.41623 452.000
11.43618 458.000
11.45613 471.000
11.47608 445.000
11.49602 445.000
11.51597 439.000
11.53592 489.000
11.55586 479.000
11.57581 478.000
11.59576 464.000
11.61570 494.000
11.63565 435.000
11.65560 438.000
11.67554 463.000
11.69549 493.000
11.71544 421.000
11.73539 491.000
11.75533 470.000
11.77528 475.000
11.79523 480.000
11.81517 450.000
11.83512 476.000
11.85507 440.000
11.87501 474.000
11.89496 447.000
11.91491 461.000
11.93486 449.000
11.95480 451.000
11.97475 455.000
11.99470 444.000
12.01464 449.000
12.03459 480.000
12.05454 464.000
12.07448 474.000
12.09443 460.000
12.11438 454.000
12.13432 458.000
12.15427 436.000
12.17422 458.000
12.19417 483.000
12.21411 439.000
12.23406 511.000
12.25401 466.000
12.27395 445.000
12.29390 452.000
12.31385 475.000
12.33379 481.000
12.35374 483.000
12.37369 480.000
12.39364 492.000
12.41358 462.000
12.43353 463.000
12.45348 466.000
12.47342 465.000
12.49337 462.000
12.51332 449.000
12.53326 462.000
12.55321 478.000
12.57316 458.000
12.59311 507.000
12.61305 440.000
12.63300 481.000
12.65295 459.000
12.67289 482.000
12.69284 490.000
12.71279 436.000
12.73273 434.000
12.75268 437.000
12.77263 454.000
12.79257 461.000
12.81252 486.000
12.83247 423.000
12.85242 451.000
12.87236 487.000
12.89231 404.000
12.91226 469.000
12.93220 447.000
12.95215 453.000
12.97210 435.000
12.99204 470.000
13.01199 458.000
13.03194 459.000
13.05189 435.000
13.07183 443.000
13.09178 484.000
13.11173 437.000
13.13167 461.000
13.15162 458.000
13.17157 457.000
13.19151 482.000
13.21146 449.000
13.23141 490.000
13.25135 493.000
13.27130 449.000
13.29125 437.000
13.31120 509.000
13.33114 479.000
13.35109 473.000
13.37104 452.000
13.39098 442.000
13.41093 413.000
13.43088 480.000
13.45082 449.000
13.47077 440.000
13.49072 468.000
13.51067 471.000
13.53061 456.000
13.55056 426.000
13.57051 451.000
13.59045 443.000
13.61040 439.000
13.63035 450.000
13.65029 443.000
13.67024 465.000
13.69019 458.000
13.71013 460.000
13.73008 453.000
13.75003 441.000
13.76998 452.000
13.78992 454.000
13.80987 450.000
13.82982 488.000
13.84976 443.000
13.86971 485.000
13.88966 454.000
13.90960 437.000
13.92955 478.000
13.94950 472.000
13.96945 490.000
13.98939 468.000
14.00934 474.000
14.02929 459.000
14.04923 451.000
14.06918 469.000
14.08913 460.000
14.10907 449.000
14.12902 438.000
14.14897 459.000
14.16892 463.000
14.18886 446.000
14.20881 489.000
14.22876 476.000
14.24870 450.000
14.26865 469.000
14.28860 456.000
14.30854 418.000
14.32849 454.000
14.34844 479.000
14.36838 478.000
14.38833 462.000
14.40828 434.000
14.42823 505.000
14.44817 490.000
14.46812 425.000
14.48807 456.000
14.50801 491.000
14.52796 470.000
14.54791 526.000
14.56785 485.000
14.58780 468.000
14.60775 441.000
14.62770 484.000
14.64764 447.000
14.66759 476.000
14.68754 456.000
14.70748 468.000
14.72743 493.000
14.74738 417.000
14.76732 492.000
14.78727 479.000
14.80722 468.000
14.82716 454.000
14.84711 466.000
14.86706 452.000
14.88701 451.000
14.90695 461.000
14.92690 464.000
14.94685 475.000
14.96679 455.000
14.98674 454.000
15.00669 471.000
15.02663 505.000
15.04658 490.000
15.06653 450.000
15.08648 469.000
15.10642 496.000
15.12637 491.000
15.14632 472.000
15.16626 469.000
15.18621 483.000
15.20616 519.000
15.22610 521.000
15.24605 480.000
15.26600 458.000
15.28594 472.000
15.30589 484.000
15.32584 520.000
15.34579 469.000
15.36573 486.000
15.38568 465.000
15.40563 490.000
15.42557 470.000
15.44552 482.000
15.46547 464.000
15.48541 475.000
15.50536 506.000
15.52531 529.000
15.54526 523.000
15.56520 518.000
15.58515 522.000
15.60510 519.000
15.62504 534.000
15.64499 541.000
15.66494 539.000
15.68488 612.000
15.70483 704.000
15.72478 679.000
15.74472 810.000
15.76467 947.000
15.78462 1239.000
15.80457 1700.000
15.82451 2481.000
15.84446 3637.000
15.86441 5333.000
15.88435 6456.000
15.90430 6161.000
15.92425 4913.000
15.94419 3684.000
15.96414 2215.000
15.98409 1550.000
16.00404 953.000
16.02398 702.000
16.04393 642.000
16.06388 594.000
16.08382 599.000
16.10377 607.000
16.12372 597.000
16.14366 580.000
16.16361 597.000
16.18356 607.000
16.20351 547.000
16.22345 661.000
16.24340 591.000
16.26335 609.000
16.28329 600.000
16.30324 611.000
16.32319 565.000
16.34313 574.000
16.36308 544.000
16.38303 523.000
16.40297 528.000
16.42292 495.000
16.44287 474.000
16.46282 487.000
16.48276 496.000
16.50271 505.000
16.52266 481.000
16.54260 469.000
16.56255 483.000
16.58250 477.000
16.60244 503.000
16.62239 469.000
16.64234 480.000
16.66229 478.000
16.68223 486.000
16.70218 512.000
16.72213 505.000
16.74207 468.000
16.76202 515.000
16.78197 503.000
16.80191 601.000
16.82186 595.000
16.84181 674.000
16.86175 628.000
16.88170 548.000
16.90165 530.000
16.92160 548.000
16.94154 494.000
16.96149 487.000
16.98144 496.000
17.00138 463.000
17.02133 501.000
17.04128 451.000
17.06122 445.000
17.08117 539.000
17.10112 474.000
17.12107 452.000
17.14101 493.000
17.16096 486.000
17.18091 496.000
17.20085 497.000
17.22080 453.000
17.24075 448.000
17.26069 453.000
17.28064 478.000
17.30059 447.000
17.32053 479.000
17.34048 449.000
17.36043 449.000
17.38038 490.000
17.40032 483.000
17.42027 473.000
17.44022 476.000
17.46016 453.000
17.48011 460.000
17.50006 448.000
17.52000 462.000
17.53995 469.000
17.55990 474.000
17.57985 506.000
17.59979 446.000
17.61974 446.000
17.63969 482.000
17.65963 476.000
17.67958 459.000
17.69953 476.000
17.71947 479.000
17.73942 490.000
17.75937 497.000
17.77932 474.000
17.79926 478.000
17.81921 464.000
17.83916 448.000
17.85910 482.000
17.87905 470.000
17.89900 455.000
17.91894 455.000
17.93889 481.000
17.95884 442.000
17.97878 428.000
17.99873 451.000
18.01868 461.000
18.03863 519.000
18.05857 475.000
18.07852 462.000
18.09847 467.000
18.11841 460.000
18.13836 473.000
18.15831 485.000
18.17825 475.000
18.19820 449.000
18.21815 464.000
18.23810 464.000
18.25804 470.000
18.27799 437.000
18.29794 486.000
18.31788 459.000
18.33783 502.000
18.35778 472.000
18.37772 451.000
18.39767 467.000
18.41762 430.000
18.43756 499.000
18.45751 513.000
18.47746 410.000
18.49741 439.000
18.51735 458.000
18.53730 461.000
18.55725 446.000
18.57719 469.000
18.59714 452.000
18.61709 462.000
18.63703 457.000
18.65698 486.000
18.67693 433.000
18.69688 443.000
18.71682 458.000
18.73677 459.000
18.75672 468.000
18.77666 458.000
18.79661 460.000
18.81656 435.000
18.83650 452.000
18.85645 495.000
18.87640 470.000
18.89634 438.000
18.91629 419.000
18.93624 426.000
18.95619 482.000
18.97613 458.000
18.99608 463.000
19.01603 471.000
19.03597 466.000
19.05592 448.000
19.07587 495.000
19.09581 431.000
19.11576 454.000
19.13571 455.000
19.15566 454.000
19.17560 475.000
19.19555 460.000
19.21550 466.000
19.23544 458.000
19.25539 415.000
19.27534 474.000
19.29528 487.000
19.31523 448.000
19.33518 432.000
19.35513 467.000
19.37507 470.000
19.39502 455.000
19.41497 463.000
19.43491 502.000
19.45486 428.000
19.47481 476.000
19.49475 459.000
19.51470 460.000
19.53465 484.000
19.55459 462.000
19.57454 480.000
19.59449 478.000
19.61444 456.000
19.63438 454.000
19.65433 443.000
19.67428 462.000
19.69422 472.000
19.71417 446.000
19.73412 486.000
19.75406 465.000
19.77401 461.000
19.79396 446.000
19.81391 474.000
19.83385 491.000
19.85380 485.000
19.87375 481.000
19.89369 454.000
19.91364 458.000
19.93359 453.000
19.95353 475.000
19.97348 492.000
19.99343 466.000
20.01337 466.000
20.03332 486.000
20.05327 480.000
20.07322 463.000
20.09316 473.000
20.11311 517.000
20.13306 470.000
20.15300 467.000
20.17295 433.000
20.19290 440.000
20.21284 456.000
20.23279 477.000
20.25274 500.000
20.27269 463.000
20.29263 474.000
20.31258 472.000
20.33253 430.000
20.35247 467.000
20.37242 481.000
20.39237 443.000
20.41231 457.000
20.43226 536.000
20.45221 496.000
20.47215 528.000
20.49210 441.000
20.51205 478.000
20.53200 463.000
20.55194 503.000
20.57189 483.000
20.59184 451.000
20.61178 485.000
20.63173 517.000
20.65168 495.000
20.67162 475.000
20.69157 463.000
20.71152 502.000
20.73147 472.000
20.75141 520.000
20.77136 461.000
20.79131 552.000
20.81125 485.000
20.83120 532.000
20.85115 503.000
20.87109 521.000
20.89104 512.000
20.91099 549.000
20.93094 531.000
20.95088 565.000
20.97083 586.000
20.99078 555.000
21.01072 577.000
21.03067 610.000
21.05062 580.000
21.07056 573.000
21.09051 557.000
21.11046 518.000
21.13040 531.000
21.15035 501.000
21.17030 495.000
21.19025 516.000
21.21019 499.000
21.23014 484.000
21.25009 467.000
21.27003 486.000
21.28998 500.000
21.30993 447.000
21.32987 463.000
21.34982 485.000
21.36977 460.000
21.38972 476.000
21.40966 478.000
21.42961 503.000
21.44956 535.000
21.46950 476.000
21.48945 471.000
21.50940 466.000
21.52934 464.000
21.54929 454.000
21.56924 473.000
21.58918 459.000
21.60913 495.000
21.62908 475.000
21.64903 486.000
21.66897 471.000
21.68892 480.000
21.70887 462.000
21.72881 450.000
21.74876 467.000
21.76871 469.000
21.78865 473.000
21.80860 431.000
21.82855 475.000
21.84850 473.000
21.86844 496.000
21.88839 440.000
21.90834 489.000
21.92828 471.000
21.94823 474.000
21.96818 471.000
21.98812 488.000
22.00807 488.000
22.02802 528.000
22.04796 495.000
22.06791 511.000
22.08786 482.000
22.10781 494.000
22.12775 496.000
22.14770 497.000
22.16765 472.000
22.18759 466.000
22.20754 515.000
22.22749 449.000
22.24743 504.000
22.26738 482.000
22.28733 449.000
22.30728 475.000
22.32722 488.000
22.34717 450.000
22.36712 492.000
22.38706 469.000
22.40701 495.000
22.42696 482.000
22.44690 496.000
22.46685 496.000
22.48680 503.000
22.50675 516.000
22.52669 502.000
22.54664 471.000
22.56659 472.000
22.58653 492.000
22.60648 480.000
22.62643 447.000
22.64637 483.000
22.66632 461.000
22.68627 524.000
22.70621 463.000
22.72616 502.000
22.74611 484.000
22.76606 496.000
22.78600 488.000
22.80595 483.000
22.82590 497.000
22.84584 478.000
22.86579 508.000
22.88574 454.000
22.90568 500.000
22.92563 470.000
22.94558 478.000
22.96553 488.000
22.98547 504.000
23.00542 512.000
23.02537 454.000
23.04531 484.000
23.06526 513.000
23.08521 452.000
23.10515 514.000
23.12510 474.000
23.14505 522.000
23.16499 487.000
23.18494 486.000
23.20489 511.000
23.22484 466.000
23.24478 486.000
23.26473 512.000
23.28468 445.000
23.30462 468.000
23.32457 477.000
23.34452 462.000
23.36446 469.000
23.38441 472.000
23.40436 450.000
23.42431 492.000
23.44425 459.000
23.46420 460.000
23.48415 474.000
23.50409 515.000
23.52404 496.000
23.54399 483.000
23.56393 501.000
23.58388 477.000
23.60383 508.000
23.62377 470.000
23.64372 476.000
23.66367 508.000
23.68362 462.000
23.70356 482.000
23.72351 477.000
23.74346 457.000
23.76340 477.000
23.78335 474.000
23.80330 478.000
23.82324 505.000
23.84319 488.000
23.86314 447.000
23.88309 507.000
23.90303 485.000
23.92298 468.000
23.94293 513.000
23.96287 504.000
23.98282 492.000
24.00277 456.000
24.02271 493.000
24.04266 476.000
24.06261 480.000
24.08256 486.000
24.10250 457.000
24.12245 490.000
24.14240 462.000
24.16234 481.000
24.18229 477.000
24.20224 459.000
24.22218 511.000
24.24213 492.000
24.26208 482.000
24.28202 460.000
24.30197 481.000
24.32192 446.000
24.34187 449.000
24.36181 457.000
24.38176 490.000
24.40171 521.000
24.42165 485.000
24.44160 468.000
24.46155 440.000
24.48149 503.000
24.50144 478.000
24.52139 512.000
24.54134 513.000
24.56128 508.000
24.58123 475.000
24.60118 466.000
24.62112 511.000
24.64107 490.000
24.66102 532.000
24.68096 474.000
24.70091 496.000
24.72086 470.000
24.74080 491.000
24.76075 469.000
24.78070 472.000
24.80065 517.000
24.82059 502.000
24.84054 489.000
24.86049 503.000
24.88043 488.000
24.90038 506.000
24.92033 567.000
24.94027 534.000
24.96022 553.000
24.98017 606.000
25.00012 611.000
25.02006 625.000
25.04001 582.000
25.05996 538.000
25.07990 507.000
25.09985 526.000
25.11980 508.000
25.13974 462.000
25.15969 448.000
25.17964 477.000
25.19958 465.000
25.21953 465.000
25.23948 488.000
25.25943 512.000
25.27937 452.000
25.29932 477.000
25.31927 476.000
25.33921 491.000
25.35916 529.000
25.37911 501.000
25.39905 486.000
25.41900 462.000
25.43895 476.000
25.45890 511.000
25.47884 496.000
25.49879 467.000
25.51874 510.000
25.53868 497.000
25.55863 469.000
25.57858 480.000
25.59852 455.000
25.61847 466.000
25.63842 454.000
25.65837 501.000
25.67831 480.000
25.69826 445.000
25.71821 484.000
25.73815 485.000
25.75810 530.000
25.77805 452.000
25.79799 452.000
25.81794 470.000
25.83789 490.000
25.85783 484.000
25.87778 475.000
25.89773 454.000
25.91768 480.000
25.93762 440.000
25.95757 508.000
25.97752 484.000
25.99746 492.000
26.01741 499.000
26.03736 480.000
26.05730 476.000
26.07725 457.000
26.09720 510.000
26.11715 518.000
26.13709 513.000
26.15704 491.000
26.17699 446.000
26.19693 482.000
26.21688 438.000
26.23683 473.000
26.25677 460.000
26.27672 501.000
26.29667 488.000
26.31661 481.000
26.33656 491.000
26.35651 465.000
26.37646 482.000
26.39640 460.000
26.41635 466.000
26.43630 436.000
26.45624 518.000
26.47619 478.000
26.49614 475.000
26.51608 467.000
26.53603 498.000
26.55598 478.000
26.57593 506.000
26.59587 468.000
26.61582 474.000
26.63577 495.000
26.65571 472.000
26.67566 460.000
26.69561 466.000
26.71555 492.000
26.73550 483.000
26.75545 457.000
26.77539 483.000
26.79534 511.000
26.81529 462.000
26.83524 467.000
26.85518 493.000
26.87513 487.000
26.89508 511.000
26.91502 515.000
26.93497 503.000
26.95492 511.000
26.97486 499.000
26.99481 501.000
27.01476 483.000
27.03471 520.000
27.05465 482.000
27.07460 503.000
27.09455 469.000
27.11449 509.000
27.13444 489.000
27.15439 479.000
27.17433 527.000
27.19428 505.000
27.21423 520.000
27.23417 520.000
27.25412 588.000
27.27407 549.000
27.29402 517.000
27.31396 441.000
27.33391 469.000
27.35386 519.000
27.37380 463.000
27.39375 461.000
27.41370 497.000
27.43364 523.000
27.45359 505.000
27.47354 509.000
27.49349 492.000
27.51343 487.000
27.53338 509.000
27.55333 503.000
27.57327 452.000
27.59322 488.000
27.61317 540.000
27.63311 528.000
27.65306 522.000
27.67301 500.000
27.69296 501.000
27.71290 478.000
27.73285 499.000
27.75280 491.000
27.77274 539.000
27.79269 500.000
27.81264 461.000
27.83258 495.000
27.85253 487.000
27.87248 490.000
27.89242 474.000
27.91237 462.000
27.93232 491.000
27.95227 514.000
27.97221 508.000
27.99216 506.000
28.01211 482.000
28.03205 476.000
28.05200 518.000
28.07195 516.000
28.09189 502.000
28.11184 532.000
28.13179 493.000
28.15174 511.000
28.17168 506.000
28.19163 498.000
28.21158 501.000
28.23152 529.000
28.25147 497.000
28.27142 488.000
28.29136 519.000
28.31131 552.000
28.33126 565.000
28.35120 520.000
28.37115 566.000
28.39110 523.000
28.41105 534.000
28.43099 495.000
28.45094 536.000
28.47089 554.000
28.49083 513.000
28.51078 514.000
28.53073 452.000
28.55067 507.000
28.57062 499.000
28.59057 543.000
28.61052 522.000
28.63046 459.000
28.65041 516.000
28.67036 497.000
28.69030 528.000
28.71025 550.000
28.73020 492.000
28.75014 518.000
28.77009 503.000
28.79004 553.000
28.80998 513.000
28.82993 521.000
28.84988 474.000
28.86983 492.000
28.88977 492.000
28.90972 486.000
28.92967 519.000
28.94961 491.000
28.96956 506.000
28.98951 477.000
29.00945 538.000
29.02940 510.000
29.04935 492.000
29.06930 502.000
29.08924 499.000
29.10919 526.000
29.12914 504.000
29.14908 560.000
29.16903 531.000
29.18898 558.000
29.20892 553.000
29.22887 546.000
29.24882 589.000
29.26877 618.000
29.28871 663.000
29.30866 754.000
29.32861 786.000
29.34855 853.000
29.36850 875.000
29.38845 860.000
29.40839 841.000
29.42834 772.000
29.44829 782.000
29.46823 787.000
29.48818 654.000
29.50813 617.000
29.52808 620.000
29.54802 551.000
29.56797 582.000
29.58792 531.000
29.60786 558.000
29.62781 557.000
29.64776 551.000
29.66770 619.000
29.68765 507.000
29.70760 549.000
29.72755 516.000
29.74749 526.000
29.76744 584.000
29.78739 504.000
29.80733 537.000
29.82728 545.000
29.84723 516.000
29.86717 561.000
29.88712 480.000
29.90707 533.000
29.92701 494.000
29.94696 519.000
29.96691 515.000
29.98686 552.000
30.00680 504.000
30.02675 505.000
30.04670 540.000
30.06664 477.000
30.08659 505.000
30.10654 506.000
30.12648 515.000
30.14643 528.000
30.16638 501.000
30.18633 525.000
30.20627 497.000
30.22622 494.000
30.24617 513.000
30.26611 469.000
30.28606 493.000
30.30601 540.000
30.32595 494.000
30.34590 513.000
30.36585 520.000
30.38579 548.000
30.40574 476.000
30.42569 498.000
30.44564 507.000
30.46558 476.000
30.48553 517.000
30.50548 481.000
30.52542 532.000
30.54537 519.000
30.56532 505.000
30.58526 459.000
30.60521 495.000
30.62516 542.000
30.64511 494.000
30.66505 515.000
30.68500 504.000
30.70495 474.000
30.72489 483.000
30.74484 534.000
30.76479 460.000
30.78473 502.000
30.80468 538.000
30.82463 490.000
30.84458 506.000
30.86452 512.000
30.88447 487.000
30.90442 550.000
30.92436 526.000
30.94431 499.000
30.96426 493.000
30.98420 504.000
31.00415 488.000
31.02410 490.000
31.04404 519.000
31.06399 539.000
31.08394 506.000
31.10389 522.000
31.12383 514.000
31.14378 491.000
31.16373 514.000
31.18367 498.000
31.20362 485.000
31.22357 499.000
31.24351 550.000
31.26346 524.000
31.28341 564.000
31.30336 499.000
31.32330 479.000
31.34325 507.000
31.36320 465.000
31.38314 499.000
31.40309 482.000
31.42304 513.000
31.44298 557.000
31.46293 500.000
31.48288 532.000
31.50282 489.000
31.52277 497.000
31.54272 523.000
31.56267 538.000
31.58261 504.000
31.60256 555.000
31.62251 518.000
31.64245 515.000
31.66240 501.000
31.68235 536.000
31.70229 520.000
31.72224 526.000
31.74219 520.000
31.76214 493.000
31.78208 555.000
31.80203 514.000
31.82198 557.000
31.84192 541.000
31.86187 530.000
31.88182 523.000
31.90176 538.000
31.92171 546.000
31.94166 534.000
31.96160 584.000
31.98155 586.000
32.00150 712.000
32.02145 721.000
32.04139 906.000
32.06134 981.000
32.08129 976.000
32.10123 969.000
32.12118 883.000
32.14113 929.000
32.16107 842.000
32.18102 817.000
32.20097 713.000
32.22092 636.000
32.24086 657.000
32.26081 607.000
32.28076 564.000
32.30070 573.000
32.32065 581.000
32.34060 621.000
32.36054 598.000
32.38049 635.000
32.40044 636.000
32.42039 742.000
32.44033 889.000
32.46028 979.000
32.48023 982.000
32.50017 1036.000
32.52012 990.000
32.54007 1025.000
32.56001 918.000
32.57996 773.000
32.59991 748.000
32.61985 638.000
32.63980 659.000
32.65975 614.000
32.67970 549.000
32.69964 568.000
32.71959 514.000
32.73954 529.000
32.75948 550.000
32.77943 557.000
32.79938 517.000
32.81932 541.000
32.83927 530.000
32.85922 540.000
32.87917 521.000
32.89911 576.000
32.91906 501.000
32.93901 527.000
32.95895 508.000
32.97890 512.000
32.99885 481.000
33.01879 541.000
33.03874 533.000
33.05869 519.000
33.07863 472.000
33.09858 491.000
33.11853 522.000
33.13848 507.000
33.15842 508.000
33.17837 526.000
33.19832 538.000
33.21826 509.000
33.23821 538.000
33.25816 514.000
33.27810 493.000
33.29805 492.000
33.31800 516.000
33.33795 474.000
33.35789 520.000
33.37784 514.000
33.39779 498.000
33.41773 510.000
33.43768 516.000
33.45763 507.000
33.47757 508.000
33.49752 526.000
33.51747 511.000
33.53741 507.000
33.55736 500.000
33.57731 539.000
33.59726 471.000
33.61720 507.000
33.63715 506.000
33.65710 510.000
33.67704 507.000
33.69699 504.000
33.71694 559.000
33.73688 496.000
33.75683 493.000
33.77678 553.000
33.79673 514.000
33.81667 516.000
33.83662 550.000
33.85657 563.000
33.87651 518.000
33.89646 506.000
33.91641 519.000
33.93635 504.000
33.95630 549.000
33.97625 500.000
33.99620 538.000
34.01614 570.000
34.03609 499.000
34.05604 575.000
34.07598 526.000
34.09593 509.000
34.11588 555.000
34.13582 579.000
34.15577 560.000
34.17572 530.000
34.19566 541.000
34.21561 505.000
34.23556 544.000
34.25551 523.000
34.27545 548.000
34.29540 566.000
34.31535 578.000
34.33529 562.000
34.35524 568.000
34.37519 626.000
34.39513 578.000
34.41508 522.000
34.43503 575.000
34.45498 569.000
34.47492 661.000
34.49487 607.000
34.51482 589.000
34.53476 634.000
34.55471 666.000
34.57466 610.000
34.59460 602.000
34.61455 618.000
34.63450 625.000
34.65444 691.000
34.67439 627.000
34.69434 683.000
34.71429 674.000
34.73423 673.000
34.75418 712.000
34.77413 768.000
34.79407 753.000
34.81402 785.000
34.83397 794.000
34.85391 796.000
34.87386 784.000
34.89381 751.000
34.91376 725.000
34.93370 712.000
34.95365 709.000
34.97360 717.000
34.99354 641.000
35.01349 679.000
35.03344 645.000
35.05338 656.000
35.07333 681.000
35.09328 630.000
35.11322 657.000
35.13317 668.000
35.15312 693.000
35.17307 700.000
35.19301 679.000
35.21296 698.000
35.23291 750.000
35.25285 780.000
35.27280 871.000
35.29275 980.000
35.31269 1025.000
35.33264 1280.000
35.35259 1498.000
35.37254 1851.000
35.39248 2396.000
35.41243 3190.000
35.43238 3432.000
35.45232 3437.000
35.47227 3806.000
35.49222 4601.000
35.51216 5618.000
35.53211 5988.000
35.55206 5631.000
35.57201 5164.000
35.59195 4569.000
35.61190 4430.000
35.63185 3905.000
35.65179 3288.000
35.67174 2579.000
35.69169 2047.000
35.71163 1660.000
35.73158 1461.000
35.75153 1244.000
35.77147 1179.000
35.79142 1050.000
35.81137 1086.000
35.83132 1051.000
35.85126 1059.000
35.87121 1149.000
35.89116 1161.000
35.91110 1189.000
35.93105 963.000
35.95100 849.000
35.97094 839.000
35.99089 811.000
36.01084 727.000
36.03079 727.000
36.05073 688.000
36.07068 619.000
36.09063 592.000
36.11057 596.000
36.13052 588.000
36.15047 574.000
36.17041 611.000
36.19036 623.000
36.21031 609.000
36.23025 596.000
36.25020 671.000
36.27015 640.000
36.29010 605.000
36.31004 624.000
36.32999 621.000
36.34994 608.000
36.36988 634.000
36.38983 596.000
36.40978 622.000
36.42972 599.000
36.44967 590.000
36.46962 607.000
36.48957 555.000
36.50951 626.000
36.52946 581.000
36.54941 563.000
36.56935 588.000
36.58930 597.000
36.60925 588.000
36.62919 573.000
36.64914 551.000
36.66909 622.000
36.68903 616.000
36.70898 615.000
36.72893 623.000
36.74888 633.000
36.76882 605.000
36.78877 698.000
36.80872 693.000
36.82866 651.000
36.84861 641.000
36.86856 706.000
36.88850 727.000
36.90845 713.000
36.92840 719.000
36.94835 752.000
36.96829 771.000
36.98824 824.000
37.00819 848.000
37.02813 1000.000
37.04808 1043.000
37.06803 1157.000
37.08797 1225.000
37.10792 1213.000
37.12787 1249.000
37.14781 1259.000
37.16776 1179.000
37.18771 1187.000
37.20766 1117.000
37.22760 1017.000
37.24755 913.000
37.26750 833.000
37.28744 805.000
37.30739 735.000
37.32734 722.000
37.34728 720.000
37.36723 669.000
37.38718 653.000
37.40713 701.000
37.42707 646.000
37.44702 678.000
37.46697 636.000
37.48691 673.000
37.50686 633.000
37.52681 623.000
37.54675 618.000
37.56670 640.000
37.58665 592.000
37.60660 640.000
37.62654 607.000
37.64649 566.000
37.66644 578.000
37.68638 578.000
37.70633 567.000
37.72628 558.000
37.74622 568.000
37.76617 602.000
37.78612 599.000
37.80606 574.000
37.82601 567.000
37.84596 586.000
37.86591 545.000
37.88585 543.000
37.90580 589.000
37.92575 592.000
37.94569 558.000
37.96564 592.000
37.98559 604.000
38.00553 584.000
38.02548 617.000
38.04543 617.000
38.06538 616.000
38.08532 598.000
38.10527 641.000
38.12522 611.000
38.14516 633.000
38.16511 675.000
38.18506 563.000
38.20500 686.000
38.22495 615.000
38.24490 727.000
38.26484 711.000
38.28479 682.000
38.30474 732.000
38.32469 791.000
38.34463 744.000
38.36458 825.000
38.38453 814.000
38.40447 849.000
38.42442 945.000
38.44437 983.000
38.46431 1103.000
38.48426 1239.000
38.50421 1340.000
38.52416 1644.000
38.54410 1940.000
38.56405 2407.000
38.58400 3096.000
38.60394 3755.000
38.62389 4590.000
38.64384 5132.000
38.66378 5144.000
38.68373 5094.000
38.70368 4849.000
38.72362 4864.000
38.74357 4425.000
38.76352 3985.000
38.78347 3442.000
38.80341 2984.000
38.82336 2620.000
38.84331 2380.000
38.86325 2026.000
38.88320 1895.000
38.90315 1749.000
38.92309 1665.000
38.94304 1705.000
38.96299 1670.000
38.98294 1657.000
39.00288 1637.000
39.02283 1617.000
39.04278 1671.000
39.06272 1450.000
39.08267 1293.000
39.10262 1193.000
39.12256 1089.000
39.14251 999.000
39.16246 939.000
39.18241 838.000
39.20235 759.000
39.22230 716.000
39.24225 774.000
39.26219 713.000
39.28214 845.000
39.30209 844.000
39.32203 921.000
39.34198 974.000
39.36193 1171.000
39.38187 1255.000
39.40182 1369.000
39.42177 1386.000
39.44172 1355.000
39.46166 1402.000
39.48161 1511.000
39.50156 1307.000
39.52150 1259.000
39.54145 1145.000
39.56140 1030.000
39.58134 955.000
39.60129 891.000
39.62124 803.000
39.64119 732.000
39.66113 679.000
39.68108 673.000
39.70103 637.000
39.72097 609.000
39.74092 557.000
39.76087 595.000
39.78081 595.000
39.80076 563.000
39.82071 563.000
39.84065 566.000
39.86060 557.000
39.88055 537.000
39.90050 525.000
39.92044 579.000
39.94039 527.000
39.96034 575.000
39.98028 539.000
40.00023 537.000
40.02018 536.000
40.04012 543.000
40.06007 528.000
40.08002 512.000
40.09997 532.000
40.11991 518.000
40.13986 499.000
40.15981 589.000
40.17975 537.000
40.19970 539.000
40.21965 524.000
40.23959 554.000
40.25954 470.000
40.27949 483.000
40.29943 530.000
40.31938 540.000
40.33933 557.000
40.35928 526.000
40.37922 510.000
40.39917 549.000
40.41912 562.000
40.43906 514.000
40.45901 524.000
40.47896 538.000
40.49890 525.000
40.51885 510.000
40.53880 508.000
40.55875 507.000
40.57869 534.000
40.59864 504.000
40.61859 515.000
40.63853 524.000
40.65848 513.000
40.67843 513.000
40.69837 551.000
40.71832 523.000
40.73827 531.000
40.75822 527.000
40.77816 514.000
40.79811 492.000
40.81806 495.000
40.83800 493.000
40.85795 482.000
40.87790 502.000
40.89784 519.000
40.91779 495.000
40.93774 542.000
40.95768 536.000
40.97763 485.000
40.99758 557.000
41.01753 523.000
41.03747 542.000
41.05742 520.000
41.07737 533.000
41.09731 558.000
41.11726 561.000
41.13721 499.000
41.15715 522.000
41.17710 526.000
41.19705 516.000
41.21700 576.000
41.23694 536.000
41.25689 540.000
41.27684 544.000
41.29678 510.000
41.31673 555.000
41.33668 492.000
41.35662 488.000
41.37657 516.000
41.39652 565.000
41.41646 505.000
41.43641 534.000
41.45636 533.000
41.47631 552.000
41.49625 555.000
41.51620 549.000
41.53615 560.000
41.55609 523.000
41.57604 524.000
41.59599 511.000
41.61593 562.000
41.63588 553.000
41.65583 541.000
41.67578 569.000
41.69572 540.000
41.71567 555.000
41.73562 575.000
41.75556 571.000
41.77551 532.000
41.79546 515.000
41.81540 561.000
41.83535 560.000
41.85530 521.000
41.87524 601.000
41.89519 552.000
41.91514 593.000
41.93509 610.000
41.95503 584.000
41.97498 651.000
41.99493 668.000
42.01487 587.000
42.03482 567.000
42.05477 593.000
42.07471 573.000
42.09466 605.000
42.11461 577.000
42.13456 577.000
42.15450 555.000
42.17445 566.000
42.19440 578.000
42.21434 563.000
42.23429 563.000
42.25424 511.000
42.27418 593.000
42.29413 573.000
42.31408 565.000
42.33403 533.000
42.35397 527.000
42.37392 548.000
42.39387 505.000
42.41381 553.000
42.43376 574.000
42.45371 585.000
42.47365 538.000
42.49360 554.000
42.51355 600.000
42.53349 566.000
42.55344 590.000
42.57339 576.000
42.59334 533.000
42.61328 607.000
42.63323 558.000
42.65318 579.000
42.67312 634.000
42.69307 580.000
42.71302 599.000
42.73296 610.000
42.75291 608.000
42.77286 609.000
42.79281 613.000
42.81275 636.000
42.83270 663.000
42.85265 738.000
42.87259 706.000
42.89254 683.000
42.91249 736.000
42.93243 753.000
42.95238 818.000
42.97233 806.000
42.99227 861.000
43.01222 909.000
43.03217 923.000
43.05212 985.000
43.07206 956.000
43.09201 1007.000
43.11196 1001.000
43.13190 1056.000
43.15185 1065.000
43.17180 1051.000
43.19174 1046.000
43.21169 1022.000
43.23164 1007.000
43.25159 986.000
43.27153 1011.000
43.29148 912.000
43.31143 857.000
43.33137 785.000
43.35132 806.000
43.37127 831.000
43.39121 809.000
43.41116 779.000
43.43111 788.000
43.45105 814.000
43.47100 805.000
43.49095 883.000
43.51090 888.000
43.53084 878.000
43.55079 902.000
43.57074 860.000
43.59068 911.000
43.61063 890.000
43.63058 858.000
43.65052 858.000
43.67047 789.000
43.69042 794.000
43.71037 731.000
43.73031 679.000
43.75026 624.000
43.77021 608.000
43.79015 596.000
43.81010 592.000
43.83005 586.000
43.84999 559.000
43.86994 558.000
43.88989 604.000
43.90984 584.000
43.92978 568.000
43.94973 569.000
43.96968 537.000
43.98962 538.000
44.00957 540.000
44.02952 557.000
44.04946 519.000
44.06941 520.000
44.08936 514.000
44.10930 537.000
44.12925 493.000
44.14920 527.000
44.16915 576.000
44.18909 519.000
44.20904 535.000
44.22899 513.000
44.24893 545.000
44.26888 498.000
44.28883 551.000
44.30877 536.000
44.32872 571.000
44.34867 521.000
44.36862 502.000
44.38856 536.000
44.40851 504.000
44.42846 512.000
44.44840 556.000
44.46835 499.000
44.48830 510.000
44.50824 560.000
44.52819 529.000
44.54814 554.000
44.56808 587.000
44.58803 508.000
44.60798 483.000
44.62793 519.000
44.64787 516.000
44.66782 505.000
44.68777 545.000
44.70771 537.000
44.72766 531.000
44.74761 552.000
44.76755 550.000
44.78750 549.000
44.80745 549.000
44.82740 504.000
44.84734 561.000
44.86729 564.000
44.88724 536.000
44.90718 560.000
44.92713 532.000
44.94708 525.000
44.96702 547.000
44.98697 549.000
45.00692 537.000
45.02686 580.000
45.04681 557.000
45.06676 552.000
45.08671 576.000
45.10665 546.000
45.12660 557.000
45.14655 606.000
45.16649 577.000
45.18644 586.000
45.20639 568.000
45.22633 610.000
45.24628 656.000
45.26623 624.000
45.28618 608.000
45.30612 633.000
45.32607 574.000
45.34602 578.000
45.36596 585.000
45.38591 557.000
45.40586 568.000
45.42580 582.000
45.44575 578.000
45.46570 546.000
45.48565 547.000
45.50559 554.000
45.52554 598.000
45.54549 534.000
45.56543 568.000
45.58538 537.000
45.60533 602.000
45.62527 544.000
45.64522 562.000
45.66517 563.000
45.68511 489.000
45.70506 534.000
45.72501 536.000
45.74496 534.000
45.76490 542.000
45.78485 492.000
45.80480 520.000
45.82474 521.000
45.84469 476.000
45.86464 498.000
45.88458 524.000
45.90453 505.000
45.92448 513.000
45.94443 564.000
45.96437 488.000
45.98432 527.000
46.00427 517.000
46.02421 533.000
46.04416 536.000
46.06411 515.000
46.08405 539.000
46.10400 544.000
46.12395 494.000
46.14389 551.000
46.16384 555.000
46.18379 538.000
46.20374 595.000
46.22368 575.000
46.24363 643.000
46.26358 639.000
46.28352 550.000
46.30347 623.000
46.32342 595.000
46.34336 552.000
46.36331 575.000
46.38326 622.000
46.40321 569.000
46.42315 553.000
46.44310 564.000
46.46305 557.000
46.48299 519.000
46.50294 499.000
46.52289 546.000
46.54283 541.000
46.56278 536.000
46.58273 503.000
46.60267 531.000
46.62262 516.000
46.64257 509.000
46.66252 549.000
46.68246 500.000
46.70241 512.000
46.72236 557.000
46.74230 513.000
46.76225 485.000
46.78220 522.000
46.80214 496.000
46.82209 527.000
46.84204 523.000
46.86199 520.000
46.88193 520.000
46.90188 516.000
46.92183 553.000
46.94177 517.000
46.96172 536.000
46.98167 526.000
47.00161 526.000
47.02156 508.000
47.04151 555.000
47.06146 499.000
47.08140 540.000
47.10135 521.000
47.12130 494.000
47.14124 519.000
47.16119 504.000
47.18114 512.000
47.20108 535.000
47.22103 478.000
47.24098 556.000
47.26092 513.000
47.28087 496.000
47.30082 514.000
47.32077 500.000
47.34071 503.000
47.36066 520.000
47.38061 524.000
47.40055 538.000
47.42050 529.000
47.44045 558.000
47.46039 527.000
47.48034 476.000
47.50029 506.000
47.52024 480.000
47.54018 493.000
47.56013 544.000
47.58008 501.000
47.60002 506.000
47.61997 497.000
47.63992 560.000
47.65986 544.000
47.67981 507.000
47.69976 483.000
47.71970 545.000
47.73965 571.000
47.75960 549.000
47.77955 577.000
47.79949 553.000
47.81944 514.000
47.83939 521.000
47.85933 532.000
47.87928 536.000
47.89923 550.000
47.91917 558.000
47.93912 533.000
47.95907 549.000
47.97902 533.000
47.99896 559.000
48.01891 600.000
48.03886 619.000
48.05880 572.000
48.07875 586.000
48.09870 626.000
48.11864 612.000
48.13859 577.000
48.15854 593.000
48.17848 588.000
48.19843 591.000
48.21838 530.000
48.23833 601.000
48.25827 609.000
48.27822 577.000
48.29817 556.000
48.31811 587.000
48.33806 569.000
48.35801 579.000
48.37795 601.000
48.39790 538.000
48.41785 617.000
48.43780 597.000
48.45774 630.000
48.47769 578.000
48.49764 609.000
48.51758 620.000
48.53753 649.000
48.55748 624.000
48.57742 676.000
48.59737 711.000
48.61732 715.000
48.63726 820.000
48.65721 846.000
48.67716 958.000
48.69711 993.000
48.71705 1192.000
48.73700 1298.000
48.75695 1519.000
48.77689 1670.000
48.79684 1845.000
48.81679 2039.000
48.83673 2193.000
48.85668 2379.000
48.87663 2398.000
48.89658 2389.000
48.91652 2329.000
48.93647 2227.000
48.95642 2186.000
48.97636 1956.000
48.99631 1802.000
49.01626 1570.000
49.03620 1445.000
49.05615 1407.000
49.07610 1190.000
49.09605 1044.000
49.11599 903.000
49.13594 829.000
49.15589 780.000
49.17583 699.000
49.19578 734.000
49.21573 625.000
49.23567 610.000
49.25562 597.000
49.27557 600.000
49.29551 572.000
49.31546 580.000
49.33541 562.000
49.35536 558.000
49.37530 568.000
49.39525 548.000
49.41520 570.000
49.43514 567.000
49.45509 609.000
49.47504 584.000
49.49498 578.000
49.51493 518.000
49.53488 619.000
49.55483 547.000
49.57477 564.000
49.59472 529.000
49.61467 548.000
49.63461 530.000
49.65456 534.000
49.67451 590.000
49.69445 503.000
49.71440 537.000
49.73435 575.000
49.75429 509.000
49.77424 531.000
49.79419 533.000
49.81414 519.000
49.83408 521.000
49.85403 527.000
49.87398 572.000
49.89392 519.000
49.91387 501.000
49.93382 493.000
49.95376 501.000
49.97371 523.000
49.99366 543.000
50.01361 534.000
50.03355 512.000
50.05350 529.000
50.07345 532.000
50.09339 482.000
50.11334 522.000
50.13329 510.000
50.15323 521.000
50.17318 522.000
50.19313 478.000
50.21307 514.000
50.23302 511.000
50.25297 516.000
50.27292 511.000
50.29286 513.000
50.31281 503.000
50.33276 525.000
50.35270 535.000
50.37265 494.000
50.39260 476.000
50.41254 547.000
50.43249 528.000
50.45244 536.000
50.47239 514.000
50.49233 495.000
50.51228 561.000
50.53223 516.000
50.55217 522.000
50.57212 510.000
50.59207 552.000
50.61201 518.000
50.63196 534.000
50.65191 469.000
50.67186 526.000
50.69180 490.000
50.71175 509.000
50.73170 547.000
50.75164 555.000
50.77159 539.000
50.79154 542.000
50.81148 494.000
50.83143 516.000
50.85138 533.000
50.87132 510.000
50.89127 526.000
50.91122 519.000
50.93117 499.000
50.95111 509.000
50.97106 506.000
50.99101 545.000
51.01095 537.000
51.03090 507.000
51.05085 527.000
51.07079 514.000
51.09074 514.000
51.11069 530.000
51.13064 549.000
51.15058 565.000
51.17053 518.000
51.19048 571.000
51.21042 550.000
51.23037 577.000
51.25032 580.000
51.27026 601.000
51.29021 572.000
51.31016 601.000
51.33010 594.000
51.35005 548.000
51.37000 534.000
51.38995 582.000
51.40989 574.000
51.42984 561.000
51.44979 612.000
51.46973 530.000
51.48968 557.000
51.50963 559.000
51.52957 506.000
51.54952 541.000
51.56947 555.000
51.58942 531.000
51.60936 482.000
51.62931 532.000
51.64926 525.000
51.66920 494.000
51.68915 548.000
51.70910 482.000
51.72904 478.000
51.74899 539.000
51.76894 513.000
51.78888 568.000
51.80883 556.000
51.82878 497.000
51.84873 540.000
51.86867 509.000
51.88862 516.000
51.90857 509.000
51.92851 542.000
51.94846 557.000
51.96841 546.000
51.98835 593.000
52.00830 563.000
52.02825 554.000
52.04820 580.000
52.06814 637.000
52.08809 591.000
52.10804 609.000
52.12798 579.000
52.14793 655.000
52.16788 555.000
52.18782 606.000
52.20777 571.000
52.22772 568.000
52.24767 575.000
52.26761 563.000
52.28756 583.000
52.30751 568.000
52.32745 535.000
52.34740 514.000
52.36735 570.000
52.38729 524.000
52.40724 534.000
52.42719 545.000
52.44713 541.000
52.46708 511.000
52.48703 528.000
52.50698 505.000
52.52692 494.000
52.54687 468.000
52.56682 477.000
52.58676 523.000
52.60671 550.000
52.62666 531.000
52.64660 550.000
52.66655 539.000
52.68650 530.000
52.70645 534.000
52.72639 549.000
52.74634 508.000
52.76629 544.000
52.78623 526.000
52.80618 574.000
52.82613 517.000
52.84607 531.000
52.86602 584.000
52.88597 562.000
52.90591 560.000
52.92586 561.000
52.94581 534.000
52.96576 577.000
52.98570 582.000
53.00565 564.000
53.02560 565.000
53.04554 562.000
53.06549 600.000
53.08544 571.000
53.10538 581.000
53.12533 629.000
53.14528 686.000
53.16523 586.000
53.18517 666.000
53.20512 738.000
53.22507 677.000
53.24501 738.000
53.26496 733.000
53.28491 741.000
53.30485 735.000
53.32480 733.000
53.34475 780.000
53.36469 792.000
53.38464 751.000
53.40459 832.000
53.42454 735.000
53.44448 815.000
53.46443 781.000
53.48438 721.000
53.50432 698.000
53.52427 728.000
53.54422 699.000
53.56416 694.000
53.58411 610.000
53.60406 645.000
53.62401 669.000
53.64395 593.000
53.66390 647.000
53.68385 599.000
53.70379 583.000
53.72374 613.000
53.74369 569.000
53.76363 548.000
53.78358 533.000
53.80353 556.000
53.82348 564.000
53.84342 535.000
53.86337 543.000
53.88332 545.000
53.90326 548.000
53.92321 564.000
53.94316 500.000
53.96310 564.000
53.98305 512.000
54.00300 532.000
54.02294 520.000
54.04289 533.000
54.06284 503.000
54.08279 521.000
54.10273 548.000
54.12268 507.000
54.14263 533.000
54.16257 502.000
54.18252 541.000
54.20247 523.000
54.22241 502.000
54.24236 550.000
54.26231 519.000
54.28226 516.000
54.30220 502.000
54.32215 549.000
54.34210 504.000
54.36204 507.000
54.38199 537.000
54.40194 493.000
54.42188 487.000
54.44183 503.000
54.46178 526.000
54.48172 525.000
54.50167 521.000
54.52162 480.000
54.54157 483.000
54.56151 515.000
54.58146 533.000
54.60141 578.000
54.62135 565.000
54.64130 524.000
54.66125 509.000
54.68119 501.000
54.70114 518.000
54.72109 496.000
54.74104 509.000
54.76098 540.000
54.78093 528.000
54.80088 522.000
54.82082 499.000
54.84077 546.000
54.86072 517.000
54.88066 539.000
54.90061 458.000
54.92056 505.000
54.94050 536.000
54.96045 515.000
54.98040 528.000
55.00035 510.000
55.02029 503.000
55.04024 538.000
55.06019 526.000
55.08013 513.000
55.10008 518.000
55.12003 505.000
55.13997 503.000
55.15992 507.000
55.17987 481.000
55.19982 522.000
55.21976 537.000
55.23971 507.000
55.25966 457.000
55.27960 500.000
55.29955 543.000
55.31950 510.000
55.33944 539.000
55.35939 472.000
55.37934 549.000
55.39929 526.000
55.41923 507.000
55.43918 545.000
55.45913 547.000
55.47907 537.000
55.49902 444.000
55.51897 480.000
55.53891 531.000
55.55886 504.000
55.57881 517.000
55.59875 533.000
55.61870 522.000
55.63865 510.000
55.65860 524.000
55.67854 524.000
55.69849 484.000
55.71844 554.000
55.73838 497.000
55.75833 501.000
55.77828 542.000
55.79822 514.000
55.81817 484.000
55.83812 524.000
55.85807 499.000
55.87801 489.000
55.89796 552.000
55.91791 521.000
55.93785 526.000
55.95780 532.000
55.97775 501.000
55.99769 513.000
56.01764 508.000
56.03759 514.000
56.05753 490.000
56.07748 535.000
56.09743 520.000
56.11738 511.000
56.13732 502.000
56.15727 526.000
56.17722 513.000
56.19716 470.000
56.21711 514.000
56.23706 527.000
56.25700 504.000
56.27695 517.000
56.29690 476.000
56.31685 560.000
56.33679 515.000
56.35674 497.000
56.37669 540.000
56.39663 576.000
56.41658 606.000
56.43653 533.000
56.45647 527.000
56.47642 553.000
56.49637 512.000
56.51631 525.000
56.53626 560.000
56.55621 529.000
56.57616 566.000
56.59610 541.000
56.61605 509.000
56.63600 529.000
56.65594 522.000
56.67589 594.000
56.69584 526.000
56.71578 507.000
56.73573 566.000
56.75568 564.000
56.77563 515.000
56.79557 561.000
56.81552 522.000
56.83547 543.000
56.85541 572.000
56.87536 549.000
56.89531 516.000
56.91525 520.000
56.93520 588.000
56.95515 555.000
56.97510 515.000
56.99504 512.000
57.01499 516.000
57.03494 473.000
57.05488 559.000
57.07483 574.000
57.09478 485.000
57.11472 551.000
57.13467 522.000
57.15462 518.000
57.17456 505.000
57.19451 505.000
57.21446 564.000
57.23441 554.000
57.25435 548.000
57.27430 528.000
57.29425 470.000
57.31419 564.000
57.33414 566.000
57.35409 512.000
57.37403 538.000
57.39398 511.000
57.41393 567.000
57.43388 549.000
57.45382 566.000
57.47377 554.000
57.49372 537.000
57.51366 540.000
57.53361 559.000
57.55356 526.000
57.57350 572.000
57.59345 534.000
57.61340 534.000
57.63334 552.000
57.65329 526.000
57.67324 577.000
57.69319 551.000
57.71313 517.000
57.73308 580.000
57.75303 555.000
57.77297 571.000
57.79292 548.000
57.81287 565.000
57.83281 568.000
57.85276 565.000
57.87271 581.000
57.89266 564.000
57.91260 586.000
57.93255 575.000
57.95250 592.000
57.97244 586.000
57.99239 609.000
58.01234 611.000
58.03228 679.000
58.05223 637.000
58.07218 718.000
58.09212 719.000
58.11207 806.000
58.13202 842.000
58.15197 983.000
58.17191 1042.000
58.19186 1076.000
58.21181 1073.000
58.23175 1095.000
58.25170 1227.000
58.27165 1013.000
58.29159 972.000
58.31154 958.000
58.33149 965.000
58.35144 921.000
58.37138 912.000
58.39133 906.000
58.41128 818.000
58.43122 798.000
58.45117 704.000
58.47112 719.000
58.49106 612.000
58.51101 639.000
58.53096 574.000
58.55090 605.000
58.57085 561.000
58.59080 555.000
58.61075 592.000
58.63069 555.000
58.65064 560.000
58.67059 500.000
58.69053 577.000
58.71048 559.000
58.73043 556.000
58.75037 562.000
58.77032 572.000
58.79027 513.000
58.81022 563.000
58.83016 530.000
58.85011 506.000
58.87006 553.000
58.89000 516.000
58.90995 559.000
58.92990 520.000
58.94984 506.000
58.96979 489.000
58.98974 517.000
59.00969 520.000
59.02963 508.000
59.04958 502.000
59.06953 537.000
59.08947 534.000
59.10942 529.000
59.12937 556.000
59.14931 519.000
59.16926 497.000
59.18921 516.000
59.20915 519.000
59.22910 550.000
59.24905 527.000
59.26900 517.000
59.28894 570.000
59.30889 573.000
59.32884 524.000
59.34878 501.000
59.36873 530.000
59.38868 538.000
59.40862 514.000
59.42857 543.000
59.44852 597.000
59.46847 514.000
59.48841 498.000
59.50836 547.000
59.52831 527.000
59.54825 477.000
59.56820 495.000
59.58815 518.000
59.60809 537.000
59.62804 539.000
59.64799 499.000
59.66793 553.000
59.68788 531.000
59.70783 504.000
59.72778 519.000
59.74772 539.000
59.76767 489.000
59.78762 533.000
59.80756 546.000
59.82751 552.000
59.84746 555.000
59.86740 550.000
59.88735 539.000
59.90730 476.000
59.92725 536.000
59.94719 557.000
59.96714 508.000
59.98709 537.000
60.00703 532.000
60.02698 506.000
60.04693 551.000
60.06687 513.000
60.08682 533.000
60.10677 545.000
60.12671 531.000
60.14666 534.000
60.16661 525.000
60.18656 536.000
60.20650 539.000
60.22645 543.000
60.24640 493.000
60.26634 540.000
60.28629 566.000
60.30624 549.000
60.32618 529.000
60.34613 563.000
60.36608 526.000
60.38603 512.000
60.40597 498.000
60.42592 581.000
60.44587 505.000
60.46581 521.000
60.48576 545.000
60.50571 562.000
60.52565 525.000
60.54560 538.000
60.56555 551.000
60.58550 516.000
60.60544 514.000
60.62539 547.000
60.64534 547.000
60.66528 557.000
60.68523 519.000
60.70518 512.000
60.72512 533.000
60.74507 527.000
60.76502 509.000
60.78496 524.000
60.80491 535.000
60.82486 514.000
60.84481 544.000
60.86475 582.000
60.88470 549.000
60.90465 507.000
60.92459 551.000
60.94454 575.000
60.96449 518.000
60.98443 561.000
61.00438 565.000
61.02433 512.000
61.04428 548.000
61.06422 546.000
61.08417 574.000
61.10412 518.000
61.12406 540.000
61.14401 549.000
61.16396 561.000
61.18390 565.000
61.20385 576.000
61.22380 579.000
61.24374 619.000
61.26369 571.000
61.28364 596.000
61.30359 594.000
61.32353 631.000
61.34348 672.000
61.36343 648.000
61.38337 683.000
61.40332 733.000
61.42327 801.000
61.44321 828.000
61.46316 913.000
61.48311 1040.000
61.50306 1194.000
61.52300 1304.000
61.54295 1382.000
61.56290 1372.000
61.58284 1334.000
61.60279 1272.000
61.62274 1157.000
61.64268 1141.000
61.66263 1078.000
61.68258 1123.000
61.70252 1114.000
61.72247 1159.000
61.74242 1044.000
61.76237 1022.000
61.78231 915.000
61.80226 807.000
61.82221 762.000
61.84215 726.000
61.86210 737.000
61.88205 700.000
61.90199 733.000
61.92194 699.000
61.94189 647.000
61.96184 684.000
61.98178 665.000
62.00173 697.000
62.02168 692.000
62.04162 714.000
62.06157 722.000
62.08152 763.000
62.10146 785.000
62.12141 838.000
62.14136 817.000
62.16131 762.000
62.18125 832.000
62.20120 791.000
62.22115 853.000
62.24109 808.000
62.26104 832.000
62.28099 821.000
62.30093 846.000
62.32088 807.000
62.34083 872.000
62.36077 843.000
62.38072 787.000
62.40067 811.000
62.42062 805.000
62.44056 768.000
62.46051 844.000
62.48046 793.000
62.50040 776.000
62.52035 785.000
62.54030 794.000
62.56024 846.000
62.58019 806.000
62.60014 758.000
62.62009 833.000
62.64003 816.000
62.65998 787.000
62.67993 839.000
62.69987 785.000
62.71982 805.000
62.73977 764.000
62.75971 740.000
62.77966 696.000
62.79961 752.000
62.81955 702.000
62.83950 716.000
62.85945 649.000
62.87940 659.000
62.89934 631.000
62.91929 637.000
62.93924 637.000
62.95918 621.000
62.97913 572.000
62.99908 555.000
63.01902 626.000
63.03897 599.000
63.05892 597.000
63.07887 582.000
63.09881 531.000
63.11876 552.000
63.13871 569.000
63.15865 562.000
63.17860 569.000
63.19855 550.000
63.21849 559.000
63.23844 499.000
63.25839 544.000
63.27833 561.000
63.29828 520.000
63.31823 542.000
63.33818 596.000
63.35812 558.000
63.37807 555.000
63.39802 555.000
63.41796 553.000
63.43791 537.000
63.45786 570.000
63.47780 576.000
63.49775 572.000
63.51770 530.000
63.53765 547.000
63.55759 517.000
63.57754 530.000
63.59749 564.000
63.61743 556.000
63.63738 549.000
63.65733 517.000
63.67727 554.000
63.69722 606.000
63.71717 548.000
63.73712 527.000
63.75706 590.000
63.77701 551.000
63.79696 500.000
63.81690 562.000
63.83685 506.000
63.85680 578.000
63.87674 561.000
63.89669 548.000
63.91664 576.000
63.93658 519.000
63.95653 555.000
63.97648 574.000
63.99643 590.000
64.01637 554.000
64.03632 591.000
64.05627 567.000
64.07621 592.000
64.09616 577.000
64.11611 536.000
64.13605 596.000
64.15600 621.000
64.17595 553.000
64.19590 625.000
64.21584 627.000
64.23579 576.000
64.25574 598.000
64.27568 635.000
64.29563 701.000
64.31558 725.000
64.33552 763.000
64.35547 822.000
64.37542 836.000
64.39536 846.000
64.41531 810.000
64.43526 809.000
64.45521 754.000
64.47515 744.000
64.49510 784.000
64.51505 791.000
64.53499 783.000
64.55494 824.000
64.57489 760.000
64.59483 755.000
64.61478 673.000
64.63473 661.000
64.65468 669.000
64.67462 627.000
64.69457 690.000
64.71452 624.000
64.73446 632.000
64.75441 624.000
64.77436 547.000
64.79430 625.000
64.81425 590.000
64.83420 573.000
64.85414 556.000
64.87409 592.000
64.89404 608.000
64.91399 541.000
64.93393 571.000
64.95388 541.000
64.97383 533.000
64.99377 561.000
65.01372 571.000
65.03367 603.000
65.05361 563.000
65.07356 529.000
65.09351 577.000
65.11346 556.000
65.13340 574.000
65.15335 585.000
65.17330 650.000
65.19324 555.000
65.21319 595.000
65.23314 613.000
65.25308 589.000
65.27303 614.000
65.29298 642.000
65.31293 615.000
65.33287 684.000
65.35282 638.000
65.37277 631.000
65.39271 656.000
65.41266 654.000
65.43261 692.000
65.45255 733.000
65.47250 721.000
65.49245 694.000
65.51239 792.000
65.53234 817.000
65.55229 877.000
65.57224 929.000
65.59218 866.000
65.61213 947.000
65.63208 894.000
65.65202 968.000
65.67197 909.000
65.69192 984.000
65.71186 934.000
65.73181 930.000
65.75176 976.000
65.77171 996.000
65.79165 942.000
65.81160 914.000
65.83155 875.000
65.85149 918.000
65.87144 889.000
65.89139 830.000
65.91133 797.000
65.93128 768.000
65.95123 780.000
65.97117 780.000
65.99112 781.000
66.01107 773.000
66.03102 803.000
66.05096 772.000
66.07091 695.000
66.09086 726.000
66.11080 722.000
66.13075 769.000
66.15070 745.000
66.17064 790.000
66.19059 891.000
66.21054 853.000
66.23049 935.000
66.25043 1013.000
66.27038 980.000
66.29033 1068.000
66.31027 1071.000
66.33022 1055.000
66.35017 1051.000
66.37011 1132.000
66.39006 1104.000
66.41001 1058.000
66.42995 1052.000
66.44990 960.000
66.46985 948.000
66.48980 896.000
66.50974 895.000
66.52969 914.000
66.54964 855.000
66.56958 877.000
66.58953 871.000
66.60948 805.000
66.62942 756.000
66.64937 753.000
66.66932 675.000
66.68927 756.000
66.70921 676.000
66.72916 736.000
66.74911 761.000
66.76905 719.000
66.78900 749.000
66.80895 816.000
66.82889 692.000
66.84884 769.000
66.86879 699.000
66.88874 778.000
66.90868 697.000
66.92863 698.000
66.94858 709.000
66.96852 717.000
66.98847 668.000
67.00842 770.000
67.02836 706.000
67.04831 684.000
67.06826 697.000
67.08820 684.000
67.10815 663.000
67.12810 633.000
67.14805 645.000
67.16799 596.000
67.18794 614.000
67.20789 678.000
67.22783 580.000
67.24778 602.000
67.26773 655.000
67.28767 614.000
67.30762 621.000
67.32757 587.000
67.34752 586.000
67.36746 608.000
67.38741 588.000
67.40736 556.000
67.42730 621.000
67.44725 591.000
67.46720 586.000
67.48714 563.000
67.50709 605.000
67.52704 656.000
67.54698 655.000
67.56693 618.000
67.58688 641.000
67.60683 674.000
67.62677 685.000
67.64672 671.000
67.66667 668.000
67.68661 765.000
67.70656 838.000
67.72651 812.000
67.74645 871.000
67.76640 855.000
67.78635 929.000
67.80630 939.000
67.82624 952.000
67.84619 906.000
67.86614 922.000
67.88608 1014.000
67.90603 1048.000
67.92598 1146.000
67.94592 1170.000
67.96587 1202.000
67.98582 1114.000
68.00576 1056.000
68.02571 1094.000
68.04566 1109.000
68.06561 1076.000
68.08555 1022.000
68.10550 1073.000
68.12545 1050.000
68.14539 1034.000
68.16534 958.000
68.18529 952.000
68.20523 867.000
68.22518 888.000
68.24513 806.000
68.26508 843.000
68.28502 749.000
68.30497 740.000
68.32492 691.000
68.34486 691.000
68.36481 657.000
68.38476 689.000
68.40470 632.000
68.42465 564.000
68.44460 602.000
68.46455 587.000
68.48449 574.000
68.50444 568.000
68.52439 569.000
68.54433 600.000
68.56428 516.000
68.58423 571.000
68.60417 512.000
68.62412 548.000
68.64407 579.000
68.66401 538.000
68.68396 544.000
68.70391 549.000
68.72386 515.000
68.74380 557.000
68.76375 566.000
68.78370 533.000
68.80364 553.000
68.82359 564.000
68.84354 519.000
68.86348 540.000
68.88343 574.000
68.90338 564.000
68.92333 570.000
68.94327 556.000
68.96322 559.000
68.98317 538.000
69.00311 538.000
69.02306 546.000
69.04301 509.000
69.06295 529.000
69.08290 558.000
69.10285 498.000
69.12279 543.000
69.14274 571.000
69.16269 550.000
69.18264 536.000
69.20258 521.000
69.22253 549.000
69.24248 497.000
69.26242 493.000
69.28237 540.000
69.30232 548.000
69.32226 549.000
69.34221 534.000
69.36216 517.000
69.38211 526.000
69.40205 509.000
69.42200 522.000
69.44195 527.000
69.46189 476.000
69.48184 516.000
69.50179 533.000
69.52173 500.000
69.54168 548.000
69.56163 529.000
69.58157 549.000
69.60152 536.000
69.62147 550.000
69.64142 533.000
69.66136 489.000
69.68131 548.000
69.70126 543.000
69.72120 554.000
69.74115 503.000
69.76110 525.000
69.78104 515.000
69.80099 538.000
69.82094 505.000
69.84089 543.000
69.86083 526.000
69.88078 521.000
69.90073 547.000
69.92067 525.000
69.94062 515.000
69.96057 507.000
69.98051 573.000
70.00046 549.000
70.02041 551.000
70.04035 541.000
70.06030 500.000
70.08025 536.000
70.10020 527.000
70.12014 532.000
70.14009 528.000
70.16004 540.000
70.17998 537.000
70.19993 538.000
70.21988 553.000
70.23982 528.000
70.25977 524.000
70.27972 496.000
70.29967 539.000
70.31961 532.000
70.33956 526.000
70.35951 507.000
70.37945 529.000
70.39940 527.000
70.41935 509.000
70.43929 547.000
70.45924 504.000
70.47919 532.000
70.49914 518.000
70.51908 470.000
70.53903 545.000
70.55898 507.000
70.57892 512.000
70.59887 532.000
70.61882 542.000
70.63876 528.000
70.65871 519.000
70.67866 518.000
70.69860 494.000
70.71855 515.000
70.73850 497.000
70.75845 513.000
70.77839 564.000
70.79834 576.000
70.81829 523.000
70.83823 505.000
70.85818 533.000
70.87813 513.000
70.89807 508.000
70.91802 536.000
70.93797 544.000
70.95792 491.000
70.97786 537.000
70.99781 563.000
71.01776 545.000
71.03770 511.000
71.05765 528.000
71.07760 524.000
71.09754 548.000
71.11749 549.000
71.13744 545.000
71.15738 511.000
71.17733 494.000
71.19728 528.000
71.21723 547.000
71.23717 536.000
71.25712 526.000
71.27707 573.000
71.29701 495.000
71.31696 520.000
71.33691 533.000
71.35685 539.000
71.37680 495.000
71.39675 542.000
71.41670 551.000
71.43664 502.000
71.45659 517.000
71.47654 515.000
71.49648 532.000
71.51643 489.000
71.53638 532.000
71.55632 556.000
71.57627 511.000
71.59622 551.000
71.61616 562.000
71.63611 555.000
71.65606 495.000
71.67601 563.000
71.69595 561.000
71.71590 507.000
71.73585 517.000
71.75579 568.000
71.77574 516.000
71.79569 532.000
71.81563 516.000
71.83558 583.000
71.85553 500.000
71.87548 557.000
71.89542 490.000
71.91537 547.000
71.93532 618.000
71.95526 554.000
71.97521 573.000
71.99516 526.000
72.01510 507.000
72.03505 544.000
72.05500 541.000
72.07495 542.000
72.09489 513.000
72.11484 595.000
72.13479 548.000
72.15473 580.000
72.17468 584.000
72.19463 593.000
72.21457 576.000
72.23452 609.000
72.25447 655.000
72.27441 720.000
72.29436 678.000
72.31431 718.000
72.33426 733.000
72.35420 734.000
72.37415 799.000
72.39410 834.000
72.41404 796.000
72.43399 760.000
72.45394 770.000
72.47388 712.000
72.49383 663.000
72.51378 679.000
72.53373 690.000
72.55367 672.000
72.57362 684.000
72.59357 652.000
72.61351 641.000
72.63346 685.000
72.65341 597.000
72.67335 624.000
72.69330 590.000
72.71325 583.000
72.73319 590.000
72.75314 578.000
72.77309 562.000
72.79304 542.000
72.81298 553.000
72.83293 581.000
72.85288 527.000
72.87282 549.000
72.89277 549.000
72.91272 564.000
72.93266 527.000
72.95261 576.000
72.97256 521.000
72.99251 539.000
73.01245 496.000
73.03240 567.000
73.05235 574.000
73.07229 543.000
73.09224 521.000
73.11219 523.000
73.13213 524.000
73.15208 491.000
73.17203 500.000
73.19197 511.000
73.21192 545.000
73.23187 545.000
73.25182 529.000
73.27176 546.000
73.29171 558.000
73.31166 509.000
73.33160 555.000
73.35155 511.000
73.37150 563.000
73.39144 521.000
73.41139 549.000
73.43134 544.000
73.45129 558.000
73.47123 574.000
73.49118 585.000
73.51113 543.000
73.53107 550.000
73.55102 520.000
73.57097 510.000
73.59091 566.000
73.61086 605.000
73.63081 576.000
73.65076 565.000
73.67070 572.000
73.69065 636.000
73.71060 608.000
73.73054 614.000
73.75049 618.000
73.77044 632.000
73.79038 597.000
73.81033 644.000
73.83028 595.000
73.85022 608.000
73.87017 632.000
73.89012 597.000
73.91007 606.000
73.93001 545.000
73.94996 622.000
73.96991 581.000
73.98985 595.000
74.00980 577.000
74.02975 586.000
74.04969 551.000
74.06964 567.000
74.08959 552.000
74.10954 572.000
74.12948 546.000
74.14943 560.000
74.16938 556.000
74.18932 518.000
74.20927 545.000
74.22922 548.000
74.24916 551.000
74.26911 523.000
74.28906 566.000
74.30900 516.000
74.32895 541.000
74.34890 538.000
74.36885 555.000
74.38879 545.000
74.40874 542.000
74.42869 504.000
74.44863 538.000
74.46858 564.000
74.48853 577.000
74.50847 548.000
74.52842 582.000
74.54837 565.000
74.56832 555.000
74.58826 521.000
74.60821 547.000
74.62816 581.000
74.64810 593.000
74.66805 530.000
74.68800 527.000
74.70794 599.000
74.72789 573.000
74.74784 608.000
74.76778 641.000
74.78773 625.000
74.80768 634.000
74.82763 674.000
74.84757 670.000
74.86752 689.000
74.88747 728.000
74.90741 792.000
74.92736 833.000
74.94731 822.000
74.96725 807.000
74.98720 860.000
75.00715 831.000
75.02710 756.000
75.04704 796.000
75.06699 762.000
75.08694 767.000
75.10688 795.000
75.12683 846.000
75.14678 944.000
75.16672 935.000
75.18667 867.000
75.20662 862.000
75.22657 843.000
75.24651 866.000
75.26646 888.000
75.28641 807.000
75.30635 788.000
75.32630 779.000
75.34625 733.000
75.36619 712.000
75.38614 708.000
75.40609 705.000
75.42603 694.000
75.44598 689.000
75.46593 723.000
75.48588 722.000
75.50582 655.000
75.52577 673.000
75.54572 679.000
75.56566 667.000
75.58561 658.000
75.60556 572.000
75.62550 563.000
75.64545 569.000
75.66540 573.000
75.68535 586.000
75.70529 604.000
75.72524 591.000
75.74519 620.000
75.76513 533.000
75.78508 600.000
75.80503 528.000
75.82497 564.000
75.84492 563.000
75.86487 542.000
75.88481 526.000
75.90476 520.000
75.92471 589.000
75.94466 549.000
75.96460 538.000
75.98455 554.000
76.00450 557.000
76.02444 552.000
76.04439 590.000
76.06434 541.000
76.08428 564.000
76.10423 556.000
76.12418 583.000
76.14413 542.000
76.16407 583.000
76.18402 535.000
76.20397 551.000
76.22391 584.000
76.24386 601.000
76.26381 551.000
76.28375 544.000
76.30370 542.000
76.32365 570.000
76.34359 531.000
76.36354 529.000
76.38349 533.000
76.40344 540.000
76.42338 522.000
76.44333 482.000
76.46328 550.000
76.48322 516.000
76.50317 527.000
76.52312 515.000
76.54306 492.000
76.56301 503.000
76.58296 559.000
76.60291 522.000
76.62285 519.000
76.64280 509.000
76.66275 529.000
76.68269 508.000
76.70264 562.000
76.72259 537.000
76.74253 502.000
76.76248 525.000
76.78243 499.000
76.80238 482.000
76.82232 514.000
76.84227 541.000
76.86222 503.000
76.88216 522.000
76.90211 547.000
76.92206 552.000
76.94200 500.000
76.96195 551.000
76.98190 513.000
77.00184 544.000
77.02179 530.000
77.04174 471.000
77.06169 526.000
77.08163 527.000
77.10158 565.000
77.12153 478.000
77.14147 529.000
77.16142 538.000
77.18137 529.000
77.20131 523.000
77.22126 596.000
77.24121 499.000
77.26116 514.000
77.28110 489.000
77.30105 579.000
77.32100 500.000
77.34094 499.000
77.36089 512.000
77.38084 507.000
77.40078 505.000
77.42073 579.000
77.44068 528.000
77.46062 525.000
77.48057 531.000
77.50052 563.000
77.52047 544.000
77.54041 528.000
77.56036 516.000
77.58031 542.000
77.60025 473.000
77.62020 534.000
77.64015 497.000
77.66009 503.000
77.68004 550.000
77.69999 495.000
77.71994 549.000
77.73988 508.000
77.75983 519.000
77.77978 537.000
77.79972 547.000
77.81967 533.000
77.83962 538.000
77.85956 553.000
77.87951 570.000
77.89946 575.000
77.91940 532.000
77.93935 539.000
77.95930 571.000
77.97925 532.000
77.99919 548.000
78.01914 542.000
78.03909 511.000
78.05903 535.000
78.07898 637.000
78.09893 555.000
78.11887 629.000
78.13882 564.000
78.15877 616.000
78.17872 606.000
78.19866 571.000
78.21861 573.000
78.23856 589.000
78.25850 568.000
78.27845 643.000
78.29840 637.000
78.31834 608.000
78.33829 619.000
78.35824 601.000
78.37819 615.000
78.39813 654.000
78.41808 619.000
78.43803 650.000
78.45797 621.000
78.47792 626.000
78.49787 619.000
78.51781 607.000
78.53776 608.000
78.55771 600.000
78.57765 599.000
78.59760 549.000
78.61755 631.000
78.63750 596.000
78.65744 645.000
78.67739 593.000
78.69734 553.000
78.71728 573.000
78.73723 597.000
78.75718 594.000
78.77712 584.000
78.79707 576.000
78.81702 561.000
78.83697 638.000
78.85691 617.000
78.87686 603.000
78.89681 614.000
78.91675 608.000
78.93670 585.000
78.95665 625.000
78.97659 599.000
78.99654 594.000
79.01649 567.000
79.03643 612.000
79.05638 650.000
79.07633 628.000
79.09628 638.000
79.11622 568.000
79.13617 597.000
79.15612 615.000
79.17606 572.000
79.19601 559.000
79.21596 566.000
79.23590 558.000
79.25585 543.000
79.27580 627.000
79.29575 573.000
79.31569 584.000
79.33564 583.000
79.35559 556.000
79.37553 560.000
79.39548 567.000
79.41543 556.000
79.43537 500.000
79.45532 527.000
79.47527 561.000
79.49521 530.000
79.51516 565.000
79.53511 557.000
79.55506 540.000
79.57500 552.000
79.59495 525.000
79.61490 553.000
79.63484 546.000
79.65479 516.000
79.67474 545.000
79.69468 580.000
79.71463 554.000
79.73458 530.000
79.75453 516.000
79.77447 496.000
79.79442 554.000
79.81437 579.000
79.83431 540.000
79.85426 562.000
79.87421 547.000
79.89415 563.000
79.91410 508.000
79.93405 501.000
79.95399 540.000
79.97394 537.000
79.99389 544.000
80.01384 554.000
80.03378 551.000
80.05373 522.000
80.07368 541.000
80.09362 529.000
80.11357 514.000
80.13352 563.000
80.15346 532.000
80.17341 576.000
80.19336 594.000
80.21331 566.000
80.23325 610.000
80.25320 596.000
80.27315 583.000
80.29309 621.000
80.31304 632.000
80.33299 605.000
80.35293 597.000
80.37288 618.000
80.39283 594.000
80.41278 599.000
80.43272 584.000
80.45267 606.000
80.47262 533.000
80.49256 556.000
80.51251 560.000
80.53246 587.000
80.55240 547.000
80.57235 571.000
80.59230 577.000
80.61224 536.000
80.63219 550.000
80.65214 560.000
80.67209 534.000
80.69203 539.000
80.71198 524.000
80.73193 543.000
80.75187 550.000
80.77182 572.000
80.79177 532.000
80.81171 526.000
80.83166 536.000
80.85161 528.000
80.87156 543.000
80.89150 553.000
80.91145 514.000
80.93140 512.000
80.95134 536.000
80.97129 546.000
80.99124 563.000
81.01118 545.000
81.03113 497.000
81.05108 512.000
81.07102 551.000
81.09097 536.000
81.11092 522.000
81.13087 539.000
81.15081 551.000
81.17076 508.000
81.19071 546.000
81.21065 569.000
81.23060 536.000
81.25055 519.000
81.27049 532.000
81.29044 531.000
81.31039 488.000
81.33034 539.000
81.35028 542.000
81.37023 589.000
81.39018 591.000
81.41012 544.000
81.43007 552.000
81.45002 488.000
81.46996 513.000
81.48991 534.000
81.50986 527.000
81.52980 536.000
81.54975 537.000
81.56970 535.000
81.58965 534.000
81.60959 517.000
81.62954 554.000
81.64949 512.000
81.66943 491.000
81.68938 516.000
81.70933 533.000
81.72927 516.000
81.74922 504.000
81.76917 554.000
81.78912 520.000
81.80906 513.000
81.82901 519.000
81.84896 508.000
81.86890 520.000
81.88885 550.000
81.90880 512.000
81.92874 537.000
81.94869 585.000
81.96864 566.000
81.98859 511.000
82.00853 549.000
82.02848 520.000
82.04843 571.000
82.06837 503.000
82.08832 548.000
82.10827 489.000
82.12821 495.000
82.14816 508.000
82.16811 562.000
82.18805 551.000
82.20800 567.000
82.22795 504.000
82.24790 508.000
82.26784 550.000
82.28779 602.000
82.30774 579.000
82.32768 548.000
82.34763 555.000
82.36758 602.000
82.38752 597.000
82.40747 665.000
82.42742 664.000
82.44737 614.000
82.46731 685.000
82.48726 654.000
82.50721 701.000
82.52715 638.000
82.54710 620.000
82.56705 654.000
82.58699 672.000
82.60694 659.000
82.62689 630.000
82.64683 629.000
82.66678 701.000
82.68673 674.000
82.70668 714.000
82.72662 658.000
82.74657 645.000
82.76652 667.000
82.78646 647.000
82.80641 731.000
82.82636 727.000
82.84630 717.000
82.86625 707.000
82.88620 715.000
82.90615 654.000
82.92609 664.000
82.94604 712.000
82.96599 705.000
82.98593 656.000
83.00588 674.000
83.02583 598.000
83.04577 638.000
83.06572 631.000
83.08567 619.000
83.10561 599.000
83.12556 629.000
83.14551 593.000
83.16546 594.000
83.18540 598.000
83.20535 558.000
83.22530 581.000
83.24524 622.000
83.26519 585.000
83.28514 583.000
83.30508 584.000
83.32503 581.000
83.34498 552.000
83.36493 588.000
83.38487 604.000
83.40482 575.000
83.42477 572.000
83.44471 547.000
83.46466 633.000
83.48461 628.000
83.50455 593.000
83.52450 563.000
83.54445 605.000
83.56440 574.000
83.58434 620.000
83.60429 600.000
83.62424 575.000
83.64418 618.000
83.66413 623.000
83.68408 646.000
83.70402 612.000
83.72397 585.000
83.74392 627.000
83.76386 595.000
83.78381 617.000
83.80376 605.000
83.82371 592.000
83.84365 595.000
83.86360 591.000
83.88355 609.000
83.90349 574.000
83.92344 616.000
83.94339 655.000
83.96333 608.000
83.98328 609.000
84.00323 540.000
84.02318 570.000
84.04312 575.000
84.06307 578.000
84.08302 576.000
84.10296 549.000
84.12291 568.000
84.14286 586.000
84.16280 585.000
84.18275 586.000
84.20270 519.000
84.22264 616.000
84.24259 520.000
84.26254 576.000
84.28249 565.000
84.30243 556.000
84.32238 556.000
84.34233 551.000
84.36227 560.000
84.38222 557.000
84.40217 591.000
84.42211 578.000
84.44206 569.000
84.46201 546.000
84.48196 536.000
84.50190 536.000
84.52185 499.000
84.54180 564.000
84.56174 528.000
84.58169 527.000
84.60164 543.000
84.62158 555.000
84.64153 543.000
84.66148 546.000
84.68142 561.000
84.70137 580.000
84.72132 554.000
84.74127 593.000
84.76121 571.000
84.78116 567.000
84.80111 572.000
84.82105 598.000
84.84100 549.000
84.86095 545.000
84.88089 576.000
84.90084 597.000
84.92079 623.000
84.94074 560.000
84.96068 590.000
84.98063 618.000
85.00058 575.000
85.02052 565.000
85.04047 548.000
85.06042 572.000
85.08036 562.000
85.10031 584.000
85.12026 525.000
85.14021 568.000
85.16015 555.000
85.18010 532.000
85.20005 564.000
85.21999 579.000
85.23994 571.000
85.25989 612.000
85.27983 584.000
85.29978 554.000
85.31973 528.000
85.33967 549.000
85.35962 543.000
85.37957 525.000
85.39952 542.000
85.41946 499.000
85.43941 503.000
85.45936 556.000
85.47930 517.000
85.49925 520.000
85.51920 542.000
85.53914 551.000
85.55909 487.000
85.57904 506.000
85.59899 516.000
85.61893 492.000
85.63888 520.000
85.65883 542.000
85.67877 551.000
85.69872 517.000
85.71867 540.000
85.73861 525.000
85.75856 537.000
85.77851 530.000
85.79845 551.000
85.81840 543.000
85.83835 553.000
85.85830 559.000
85.87824 512.000
85.89819 504.000
85.91814 522.000
85.93808 529.000
85.95803 508.000
85.97798 496.000
85.99792 542.000
86.01787 504.000
86.03782 535.000
86.05777 537.000
86.07771 523.000
86.09766 529.000
86.11761 502.000
86.13755 497.000
86.15750 540.000
86.17745 543.000
86.19739 536.000
86.21734 482.000
86.23729 517.000
86.25723 545.000
86.27718 518.000
86.29713 536.000
86.31708 547.000
86.33702 542.000
86.35697 516.000
86.37692 544.000
86.39686 516.000
86.41681 532.000
86.43676 511.000
86.45670 566.000
86.47665 537.000
86.49660 567.000
86.51655 573.000
86.53649 513.000
86.55644 572.000
86.57639 520.000
86.59633 506.000
86.61628 546.000
86.63623 574.000
86.65617 554.000
86.67612 561.000
86.69607 565.000
86.71602 534.000
86.73596 560.000
86.75591 579.000
86.77586 568.000
86.79580 535.000
86.81575 525.000
86.83570 573.000
86.85564 576.000
86.87559 566.000
86.89554 562.000
86.91548 553.000
86.93543 543.000
86.95538 535.000
86.97533 551.000
86.99527 610.000
87.01522 573.000
87.03517 565.000
87.05511 544.000
87.07506 596.000
87.09501 604.000
87.11495 557.000
87.13490 573.000
87.15485 557.000
87.17480 565.000
87.19474 597.000
87.21469 534.000
87.23464 565.000
87.25458 536.000
87.27453 581.000
87.29448 544.000
87.31442 570.000
87.33437 583.000
87.35432 559.000
87.37426 586.000
87.39421 567.000
87.41416 544.000
87.43411 589.000
87.45405 569.000
87.47400 572.000
87.49395 536.000
87.51389 539.000
87.53384 544.000
87.55379 531.000
87.57373 535.000
87.59368 543.000
87.61363 536.000
87.63358 514.000
87.65352 555.000
87.67347 559.000
87.69342 527.000
87.71336 523.000
87.73331 528.000
87.75326 555.000
87.77320 531.000
87.79315 578.000
87.81310 567.000
87.83304 498.000
87.85299 503.000
87.87294 558.000
87.89289 506.000
87.91283 524.000
87.93278 519.000
87.95273 510.000
87.97267 526.000
87.99262 538.000
88.01257 516.000
88.03251 531.000
88.05246 510.000
88.07241 557.000
88.09236 551.000
88.11230 601.000
88.13225 566.000
88.15220 555.000
88.17214 541.000
88.19209 515.000
88.21204 580.000
88.23198 559.000
88.25193 559.000
88.27188 553.000
88.29183 538.000
88.31177 555.000
88.33172 540.000
88.35167 557.000
88.37161 525.000
88.39156 504.000
88.41151 569.000
88.43145 534.000
88.45140 532.000
88.47135 554.000
88.49129 488.000
88.51124 526.000
88.53119 566.000
88.55114 551.000
88.57108 530.000
88.59103 545.000
88.61098 538.000
88.63092 499.000
88.65087 543.000
88.67082 532.000
88.69076 511.000
88.71071 523.000
88.73066 531.000
88.75061 542.000
88.77055 538.000
88.79050 517.000
88.81045 574.000
88.83039 537.000
88.85034 561.000
88.87029 551.000
88.89023 544.000
88.91018 548.000
88.93013 512.000
88.95007 542.000
88.97002 550.000
88.98997 506.000
89.00992 531.000
89.02986 591.000
89.04981 508.000
89.06976 522.000
89.08970 554.000
89.10965 530.000
89.12960 551.000
89.14954 525.000
89.16949 587.000
89.18944 563.000
89.20939 569.000
89.22933 596.000
89.24928 606.000
89.26923 565.000
89.28917 571.000
89.30912 584.000
89.32907 596.000
89.34901 609.000
89.36896 608.000
89.38891 605.000
89.40885 585.000
89.42880 602.000
89.44875 609.000
89.46870 592.000
89.48864 624.000
89.50859 570.000
89.52854 640.000
89.54848 591.000
89.56843 668.000
89.58838 635.000
89.60832 572.000
89.62827 622.000
89.64822 649.000
89.66817 653.000
89.68811 587.000
89.70806 625.000
89.72801 681.000
89.74795 648.000
89.76790 652.000
89.78785 585.000
89.80779 602.000
89.82774 637.000
89.84769 650.000
89.86764 660.000
89.88758 641.000
89.90753 626.000
89.92748 623.000
89.94742 637.000
89.96737 600.000
89.98732 573.000
90.00726 603.000
