10.00000 38.000
10.01995 51.000
10.03989 34.000
10.05984 45.000
10.07979 61.000
10.09973 49.000
10.11968 58.000
10.13963 44.000
10.15958 46.000
10.17952 45.000
10.19947 49.000
10.21942 50.000
10.23936 48.000
10.25931 54.000
10.27926 48.000
10.29920 52.000
10.31915 50.000
10.33910 41.000
10.35905 50.000
10.37899 45.000
10.39894 40.000
10.41889 48.000
10.43883 50.000
10.45878 57.000
10.47873 47.000
10.49867 56.000
10.51862 50.000
10.53857 50.000
10.55851 43.000
10.57846 60.000
10.59841 57.000
10.61836 60.000
10.63830 53.000
10.65825 61.000
10.67820 65.000
10.69814 54.000
10.71809 50.000
10.73804 33.000
10.75798 53.000
10.77793 42.000
10.79788 47.000
10.81783 57.000
10.83777 56.000
10.85772 48.000
10.87767 43.000
10.89761 55.000
10.91756 44.000
10.93751 50.000
10.95745 45.000
10.97740 54.000
10.99735 47.000
11.01730 52.000
11.03724 54.000
11.05719 44.000
11.07714 50.000
11.09708 48.000
11.11703 52.000
11.13698 53.000
11.15692 47.000
11.17687 56.000
11.19682 39.000
11.21676 46.000
11.23671 51.000
11.25666 50.000
11.27661 42.000
11.29655 48.000
11.31650 53.000
11.33645 52.000
11.35639 50.000
11.37634 54.000
11.39629 53.000
11.41623 57.000
11.43618 42.000
11.45613 62.000
11.47608 49.000
11.49602 45.000
11.51597 52.000
11.53592 59.000
11.55586 59.000
11.57581 61.000
11.59576 34.000
11.61570 41.000
11.63565 45.000
11.65560 51.000
11.67554 63.000
11.69549 66.000
11.71544 44.000
11.73539 48.000
11.75533 46.000
11.77528 45.000
11.79523 45.000
11.81517 53.000
11.83512 38.000
11.85507 54.000
11.87501 54.000
11.89496 46.000
11.91491 48.000
11.93486 44.000
11.95480 66.000
11.97475 54.000
11.99470 53.000
12.01464 52.000
12.03459 64.000
12.05454 56.000
12.07448 48.000
12.09443 50.000
12.11438 50.000
12.13432 53.000
12.15427 58.000
12.17422 53.000
12.19417 40.000
12.21411 51.000
12.23406 45.000
12.25401 40.000
12.27395 65.000
12.29390 54.000
12.31385 66.000
12.33379 58.000
12.35374 48.000
12.37369 44.000
12.39364 49.000
12.41358 61.000
12.43353 60.000
12.45348 51.000
12.47342 64.000
12.49337 59.000
12.51332 54.000
12.53326 71.000
12.55321 57.000
12.57316 65.000
12.59311 55.000
12.61305 64.000
12.63300 68.000
12.65295 60.000
12.67289 53.000
12.69284 59.000
12.71279 52.000
12.73273 59.000
12.75268 53.000
12.77263 54.000
12.79257 57.000
12.81252 52.000
12.83247 72.000
12.85242 57.000
12.87236 57.000
12.89231 54.000
12.91226 55.000
12.93220 67.000
12.95215 55.000
12.97210 52.000
12.99204 69.000
13.01199 69.000
13.03194 55.000
13.05189 72.000
13.07183 60.000
13.09178 56.000
13.11173 61.000
13.13167 66.000
13.15162 58.000
13.17157 77.000
13.19151 60.000
13.21146 56.000
13.23141 58.000
13.25135 53.000
13.27130 59.000
13.29125 55.000
13.31120 60.000
13.33114 64.000
13.35109 55.000
13.37104 45.000
13.39098 56.000
13.41093 56.000
13.43088 66.000
13.45082 54.000
13.47077 60.000
13.49072 54.000
13.51067 54.000
13.53061 52.000
13.55056 73.000
13.57051 65.000
13.59045 74.000
13.61040 72.000
13.63035 60.000
13.65029 62.000
13.67024 63.000
13.69019 65.000
13.71013 79.000
13.73008 67.000
13.75003 71.000
13.76998 74.000
13.78992 63.000
13.80987 61.000
13.82982 76.000
13.84976 72.000
13.86971 58.000
13.88966 57.000
13.90960 75.000
13.92955 67.000
13.94950 72.000
13.96945 69.000
13.98939 71.000
14.00934 56.000
14.02929 70.000
14.04923 74.000
14.06918 66.000
14.08913 74.000
14.10907 73.000
14.12902 97.000
14.14897 76.000
14.16892 74.000
14.18886 86.000
14.20881 65.000
14.22876 67.000
14.24870 72.000
14.26865 74.000
14.28860 79.000
14.30854 67.000
14.32849 77.000
14.34844 92.000
14.36838 58.000
14.38833 82.000
14.40828 84.000
14.42823 81.000
14.44817 72.000
14.46812 79.000
14.48807 75.000
14.50801 75.000
14.52796 80.000
14.54791 68.000
14.56785 75.000
14.58780 81.000
14.60775 92.000
14.62770 75.000
14.64764 69.000
14.66759 98.000
14.68754 83.000
14.70748 87.000
14.72743 84.000
14.74738 90.000
14.76732 72.000
14.78727 88.000
14.80722 76.000
14.82716 103.000
14.84711 85.000
14.86706 102.000
14.88701 137.000
14.90695 105.000
14.92690 119.000
14.94685 114.000
14.96679 106.000
14.98674 132.000
15.00669 135.000
15.02663 134.000
15.04658 139.000
15.06653 156.000
15.08648 125.000
15.10642 132.000
15.12637 136.000
15.14632 159.000
15.16626 159.000
15.18621 150.000
15.20616 161.000
15.22610 157.000
15.24605 153.000
15.26600 161.000
15.28594 179.000
15.30589 205.000
15.32584 196.000
15.34579 200.000
15.36573 258.000
15.38568 288.000
15.40563 343.000
15.42557 327.000
15.44552 439.000
15.46547 549.000
15.48541 736.000
15.50536 1110.000
15.52531 1533.000
15.54526 2343.000
15.56520 3181.000
15.58515 4223.000
15.60510 5396.000
15.62504 6358.000
15.64499 7295.000
15.66494 7663.000
15.68488 7827.000
15.70483 7027.000
15.72478 5925.000
15.74472 4551.000
15.76467 3049.000
15.78462 1818.000
15.80457 1126.000
15.82451 677.000
15.84446 450.000
15.86441 357.000
15.88435 278.000
15.90430 197.000
15.92425 200.000
15.94419 173.000
15.96414 193.000
15.98409 161.000
16.00404 133.000
16.02398 154.000
16.04393 124.000
16.06388 124.000
16.08382 107.000
16.10377 103.000
16.12372 106.000
16.14366 103.000
16.16361 94.000
16.18356 85.000
16.20351 97.000
16.22345 78.000
16.24340 76.000
16.26335 75.000
16.28329 79.000
16.30324 62.000
16.32319 74.000
16.34313 84.000
16.36308 90.000
16.38303 63.000
16.40297 70.000
16.42292 67.000
16.44287 62.000
16.46282 58.000
16.48276 52.000
16.50271 65.000
16.52266 60.000
16.54260 49.000
16.56255 65.000
16.58250 54.000
16.60244 51.000
16.62239 66.000
16.64234 67.000
16.66229 58.000
16.68223 63.000
16.70218 48.000
16.72213 57.000
16.74207 48.000
16.76202 52.000
16.78197 68.000
16.80191 53.000
16.82186 50.000
16.84181 53.000
16.86175 36.000
16.88170 60.000
16.90165 46.000
16.92160 50.000
16.94154 55.000
16.96149 57.000
16.98144 41.000
17.00138 55.000
17.02133 54.000
17.04128 60.000
17.06122 42.000
17.08117 63.000
17.10112 56.000
17.12107 45.000
17.14101 42.000
17.16096 55.000
17.18091 57.000
17.20085 56.000
17.22080 60.000
17.24075 41.000
17.26069 42.000
17.28064 70.000
17.30059 46.000
17.32053 53.000
17.34048 62.000
17.36043 44.000
17.38038 44.000
17.40032 51.000
17.42027 53.000
17.44022 46.000
17.46016 36.000
17.48011 53.000
17.50006 40.000
17.52000 51.000
17.53995 42.000
17.55990 44.000
17.57985 63.000
17.59979 51.000
17.61974 41.000
17.63969 46.000
17.65963 51.000
17.67958 55.000
17.69953 42.000
17.71947 54.000
17.73942 53.000
17.75937 60.000
17.77932 51.000
17.79926 37.000
17.81921 44.000
17.83916 53.000
17.85910 39.000
17.87905 50.000
17.89900 32.000
17.91894 39.000
17.93889 65.000
17.95884 42.000
17.97878 37.000
17.99873 57.000
18.01868 67.000
18.03863 51.000
18.05857 61.000
18.07852 51.000
18.09847 55.000
18.11841 55.000
18.13836 61.000
18.15831 73.000
18.17825 81.000
18.19820 63.000
18.21815 64.000
18.23810 75.000
18.25804 77.000
18.27799 92.000
18.29794 88.000
18.31788 60.000
18.33783 66.000
18.35778 70.000
18.37772 51.000
18.39767 74.000
18.41762 64.000
18.43756 66.000
18.45751 42.000
18.47746 45.000
18.49741 45.000
18.51735 40.000
18.53730 42.000
18.55725 40.000
18.57719 56.000
18.59714 39.000
18.61709 45.000
18.63703 45.000
18.65698 36.000
18.67693 45.000
18.69688 47.000
18.71682 60.000
18.73677 55.000
18.75672 38.000
18.77666 39.000
18.79661 41.000
18.81656 50.000
18.83650 43.000
18.85645 42.000
18.87640 39.000
18.89634 54.000
18.91629 48.000
18.93624 58.000
18.95619 51.000
18.97613 45.000
18.99608 45.000
19.01603 39.000
19.03597 43.000
19.05592 64.000
19.07587 50.000
19.09581 47.000
19.11576 40.000
19.13571 45.000
19.15566 60.000
19.17560 43.000
19.19555 41.000
19.21550 58.000
19.23544 46.000
19.25539 61.000
19.27534 42.000
19.29528 46.000
19.31523 42.000
19.33518 36.000
19.35513 44.000
19.37507 42.000
19.39502 42.000
19.41497 59.000
19.43491 49.000
19.45486 53.000
19.47481 39.000
19.49475 41.000
19.51470 52.000
19.53465 46.000
19.55459 41.000
19.57454 59.000
19.59449 52.000
19.61444 40.000
19.63438 51.000
19.65433 47.000
19.67428 44.000
19.69422 53.000
19.71417 42.000
19.73412 47.000
19.75406 40.000
19.77401 37.000
19.79396 42.000
19.81391 46.000
19.83385 46.000
19.85380 39.000
19.87375 29.000
19.89369 45.000
19.91364 56.000
19.93359 34.000
19.95353 45.000
19.97348 39.000
19.99343 48.000
20.01337 44.000
20.03332 51.000
20.05327 51.000
20.07322 47.000
20.09316 44.000
20.11311 38.000
20.13306 48.000
20.15300 51.000
20.17295 46.000
20.19290 44.000
20.21284 56.000
20.23279 32.000
20.25274 38.000
20.27269 41.000
20.29263 46.000
20.31258 35.000
20.33253 44.000
20.35247 42.000
20.37242 44.000
20.39237 48.000
20.41231 34.000
20.43226 45.000
20.45221 47.000
20.47215 33.000
20.49210 43.000
20.51205 54.000
20.53200 47.000
20.55194 54.000
20.57189 36.000
20.59184 46.000
20.61178 50.000
20.63173 41.000
20.65168 44.000
20.67162 45.000
20.69157 63.000
20.71152 60.000
20.73147 44.000
20.75141 45.000
20.77136 50.000
20.79131 44.000
20.81125 54.000
20.83120 48.000
20.85115 49.000
20.87109 55.000
20.89104 53.000
20.91099 55.000
20.93094 42.000
20.95088 39.000
20.97083 54.000
20.99078 45.000
21.01072 56.000
21.03067 50.000
21.05062 43.000
21.07056 64.000
21.09051 48.000
21.11046 54.000
21.13040 44.000
21.15035 53.000
21.17030 49.000
21.19025 53.000
21.21019 54.000
21.23014 43.000
21.25009 46.000
21.27003 44.000
21.28998 55.000
21.30993 44.000
21.32987 40.000
21.34982 49.000
21.36977 44.000
21.38972 47.000
21.40966 53.000
21.42961 36.000
21.44956 57.000
21.46950 52.000
21.48945 45.000
21.50940 41.000
21.52934 54.000
21.54929 47.000
21.56924 51.000
21.58918 52.000
21.60913 49.000
21.62908 48.000
21.64903 57.000
21.66897 61.000
21.68892 30.000
21.70887 48.000
21.72881 31.000
21.74876 35.000
21.76871 50.000
21.78865 46.000
21.80860 56.000
21.82855 48.000
21.84850 45.000
21.86844 57.000
21.88839 38.000
21.90834 44.000
21.92828 49.000
21.94823 44.000
21.96818 44.000
21.98812 43.000
22.00807 39.000
22.02802 39.000
22.04796 41.000
22.06791 48.000
22.08786 53.000
22.10781 56.000
22.12775 43.000
22.14770 57.000
22.16765 40.000
22.18759 43.000
22.20754 37.000
22.22749 56.000
22.24743 48.000
22.26738 48.000
22.28733 55.000
22.30728 45.000
22.32722 47.000
22.34717 47.000
22.36712 51.000
22.38706 49.000
22.40701 40.000
22.42696 42.000
22.44690 43.000
22.46685 50.000
22.48680 38.000
22.50675 45.000
22.52669 54.000
22.54664 51.000
22.56659 41.000
22.58653 64.000
22.60648 44.000
22.62643 48.000
22.64637 49.000
22.66632 42.000
22.68627 38.000
22.70621 50.000
22.72616 41.000
22.74611 58.000
22.76606 51.000
22.78600 50.000
22.80595 62.000
22.82590 47.000
22.84584 47.000
22.86579 42.000
22.88574 44.000
22.90568 35.000
22.92563 48.000
22.94558 34.000
22.96553 44.000
22.98547 51.000
23.00542 53.000
23.02537 42.000
23.04531 64.000
23.06526 55.000
23.08521 56.000
23.10515 56.000
23.12510 52.000
23.14505 51.000
23.16499 50.000
23.18494 54.000
23.20489 42.000
23.22484 53.000
23.24478 53.000
23.26473 44.000
23.28468 54.000
23.30462 52.000
23.32457 49.000
23.34452 49.000
23.36446 47.000
23.38441 57.000
23.40436 54.000
23.42431 50.000
23.44425 48.000
23.46420 50.000
23.48415 44.000
23.50409 40.000
23.52404 49.000
23.54399 48.000
23.56393 61.000
23.58388 62.000
23.60383 49.000
23.62377 52.000
23.64372 50.000
23.66367 52.000
23.68362 65.000
23.70356 46.000
23.72351 58.000
23.74346 35.000
23.76340 55.000
23.78335 63.000
23.80330 50.000
23.82324 54.000
23.84319 47.000
23.86314 44.000
23.88309 59.000
23.90303 43.000
23.92298 38.000
23.94293 37.000
23.96287 49.000
23.98282 52.000
24.00277 64.000
24.02271 64.000
24.04266 53.000
24.06261 45.000
24.08256 45.000
24.10250 47.000
24.12245 53.000
24.14240 60.000
24.16234 62.000
24.18229 50.000
24.20224 44.000
24.22218 47.000
24.24213 50.000
24.26208 55.000
24.28202 47.000
24.30197 49.000
24.32192 44.000
24.34187 51.000
24.36181 45.000
24.38176 60.000
24.40171 55.000
24.42165 60.000
24.44160 57.000
24.46155 47.000
24.48149 46.000
24.50144 43.000
24.52139 49.000
24.54134 55.000
24.56128 47.000
24.58123 49.000
24.60118 48.000
24.62112 46.000
24.64107 46.000
24.66102 48.000
24.68096 58.000
24.70091 38.000
24.72086 62.000
24.74080 48.000
24.76075 50.000
24.78070 57.000
24.80065 62.000
24.82059 66.000
24.84054 60.000
24.86049 42.000
24.88043 50.000
24.90038 52.000
24.92033 56.000
24.94027 56.000
24.96022 51.000
24.98017 50.000
25.00012 61.000
25.02006 48.000
25.04001 46.000
25.05996 59.000
25.07990 48.000
25.09985 58.000
25.11980 65.000
25.13974 49.000
25.15969 59.000
25.17964 47.000
25.19958 66.000
25.21953 57.000
25.23948 50.000
25.25943 47.000
25.27937 48.000
25.29932 71.000
25.31927 56.000
25.33921 55.000
25.35916 58.000
25.37911 56.000
25.39905 49.000
25.41900 66.000
25.43895 47.000
25.45890 59.000
25.47884 53.000
25.49879 64.000
25.51874 61.000
25.53868 47.000
25.55863 53.000
25.57858 56.000
25.59852 44.000
25.61847 50.000
25.63842 52.000
25.65837 51.000
25.67831 54.000
25.69826 43.000
25.71821 54.000
25.73815 53.000
25.75810 49.000
25.77805 51.000
25.79799 57.000
25.81794 41.000
25.83789 46.000
25.85783 52.000
25.87778 33.000
25.89773 45.000
25.91768 60.000
25.93762 39.000
25.95757 51.000
25.97752 53.000
25.99746 48.000
26.01741 62.000
26.03736 51.000
26.05730 62.000
26.07725 52.000
26.09720 53.000
26.11715 48.000
26.13709 53.000
26.15704 41.000
26.17699 52.000
26.19693 56.000
26.21688 48.000
26.23683 58.000
26.25677 51.000
26.27672 40.000
26.29667 60.000
26.31661 61.000
26.33656 60.000
26.35651 43.000
26.37646 41.000
26.39640 64.000
26.41635 44.000
26.43630 55.000
26.45624 61.000
26.47619 56.000
26.49614 56.000
26.51608 45.000
26.53603 61.000
26.55598 49.000
26.57593 56.000
26.59587 55.000
26.61582 56.000
26.63577 49.000
26.65571 48.000
26.67566 67.000
26.69561 44.000
26.71555 54.000
26.73550 59.000
26.75545 56.000
26.77539 41.000
26.79534 41.000
26.81529 62.000
26.83524 49.000
26.85518 50.000
26.87513 72.000
26.89508 48.000
26.91502 55.000
26.93497 50.000
26.95492 58.000
26.97486 54.000
26.99481 51.000
27.01476 48.000
27.03471 46.000
27.05465 54.000
27.07460 52.000
27.09455 52.000
27.11449 41.000
27.13444 52.000
27.15439 41.000
27.17433 44.000
27.19428 63.000
27.21423 54.000
27.23417 47.000
27.25412 56.000
27.27407 47.000
27.29402 49.000
27.31396 55.000
27.33391 58.000
27.35386 62.000
27.37380 53.000
27.39375 51.000
27.41370 59.000
27.43364 45.000
27.45359 63.000
27.47354 39.000
27.49349 57.000
27.51343 54.000
27.53338 55.000
27.55333 54.000
27.57327 45.000
27.59322 44.000
27.61317 51.000
27.63311 50.000
27.65306 55.000
27.67301 49.000
27.69296 67.000
27.71290 51.000
27.73285 43.000
27.75280 46.000
27.77274 57.000
27.79269 37.000
27.81264 51.000
27.83258 52.000
27.85253 50.000
27.87248 46.000
27.89242 48.000
27.91237 59.000
27.93232 52.000
27.95227 49.000
27.97221 52.000
27.99216 52.000
28.01211 54.000
28.03205 44.000
28.05200 53.000
28.07195 42.000
28.09189 57.000
28.11184 48.000
28.13179 58.000
28.15174 51.000
28.17168 62.000
28.19163 55.000
28.21158 56.000
28.23152 53.000
28.25147 47.000
28.27142 57.000
28.29136 55.000
28.31131 50.000
28.33126 45.000
28.35120 57.000
28.37115 47.000
28.39110 43.000
28.41105 54.000
28.43099 50.000
28.45094 47.000
28.47089 43.000
28.49083 66.000
28.51078 64.000
28.53073 55.000
28.55067 47.000
28.57062 70.000
28.59057 43.000
28.61052 53.000
28.63046 46.000
28.65041 62.000
28.67036 48.000
28.69030 45.000
28.71025 60.000
28.73020 47.000
28.75014 59.000
28.77009 50.000
28.79004 57.000
28.80998 48.000
28.82993 46.000
28.84988 41.000
28.86983 58.000
28.88977 66.000
28.90972 58.000
28.92967 62.000
28.94961 66.000
28.96956 49.000
28.98951 46.000
29.00945 49.000
29.02940 54.000
29.04935 59.000
29.06930 58.000
29.08924 61.000
29.10919 54.000
29.12914 46.000
29.14908 60.000
29.16903 66.000
29.18898 64.000
29.20892 55.000
29.22887 52.000
29.24882 49.000
29.26877 72.000
29.28871 59.000
29.30866 60.000
29.32861 71.000
29.34855 53.000
29.36850 64.000
29.38845 82.000
29.40839 59.000
29.42834 55.000
29.44829 69.000
29.46823 48.000
29.48818 54.000
29.50813 49.000
29.52808 52.000
29.54802 68.000
29.56797 56.000
29.58792 53.000
29.60786 52.000
29.62781 61.000
29.64776 61.000
29.66770 53.000
29.68765 55.000
29.70760 63.000
29.72755 59.000
29.74749 42.000
29.76744 47.000
29.78739 63.000
29.80733 65.000
29.82728 65.000
29.84723 57.000
29.86717 61.000
29.88712 55.000
29.90707 69.000
29.92701 71.000
29.94696 81.000
29.96691 74.000
29.98686 103.000
30.00680 108.000
30.02675 103.000
30.04670 113.000
30.06664 110.000
30.08659 127.000
30.10654 132.000
30.12648 127.000
30.14643 133.000
30.16638 124.000
30.18633 128.000
30.20627 99.000
30.22622 111.000
30.24617 101.000
30.26611 79.000
30.28606 96.000
30.30601 72.000
30.32595 74.000
30.34590 59.000
30.36585 63.000
30.38579 70.000
30.40574 66.000
30.42569 59.000
30.44564 64.000
30.46558 60.000
30.48553 48.000
30.50548 61.000
30.52542 46.000
30.54537 68.000
30.56532 57.000
30.58526 50.000
30.60521 69.000
30.62516 45.000
30.64511 61.000
30.66505 62.000
30.68500 47.000
30.70495 48.000
30.72489 53.000
30.74484 50.000
30.76479 51.000
30.78473 50.000
30.80468 58.000
30.82463 58.000
30.84458 50.000
30.86452 41.000
30.88447 52.000
30.90442 62.000
30.92436 49.000
30.94431 49.000
30.96426 44.000
30.98420 65.000
31.00415 64.000
31.02410 54.000
31.04404 47.000
31.06399 57.000
31.08394 51.000
31.10389 54.000
31.12383 57.000
31.14378 63.000
31.16373 49.000
31.18367 51.000
31.20362 55.000
31.22357 61.000
31.24351 59.000
31.26346 61.000
31.28341 64.000
31.30336 70.000
31.32330 73.000
31.34325 80.000
31.36320 73.000
31.38314 77.000
31.40309 77.000
31.42304 71.000
31.44298 92.000
31.46293 97.000
31.48288 99.000
31.50282 107.000
31.52277 137.000
31.54272 202.000
31.56267 246.000
31.58261 281.000
31.60256 332.000
31.62251 438.000
31.64245 502.000
31.66240 588.000
31.68235 619.000
31.70229 624.000
31.72224 647.000
31.74219 639.000
31.76214 588.000
31.78208 484.000
31.80203 442.000
31.82198 359.000
31.84192 274.000
31.86187 244.000
31.88182 194.000
31.90176 142.000
31.92171 108.000
31.94166 125.000
31.96160 98.000
31.98155 75.000
32.00150 69.000
32.02145 70.000
32.04139 55.000
32.06134 65.000
32.08129 59.000
32.10123 53.000
32.12118 60.000
32.14113 63.000
32.16107 54.000
32.18102 45.000
32.20097 50.000
32.22092 67.000
32.24086 59.000
32.26081 60.000
32.28076 40.000
32.30070 53.000
32.32065 68.000
32.34060 60.000
32.36054 47.000
32.38049 47.000
32.40044 58.000
32.42039 34.000
32.44033 38.000
32.46028 60.000
32.48023 46.000
32.50017 53.000
32.52012 62.000
32.54007 62.000
32.56001 53.000
32.57996 59.000
32.59991 53.000
32.61985 55.000
32.63980 53.000
32.65975 57.000
32.67970 52.000
32.69964 52.000
32.71959 58.000
32.73954 38.000
32.75948 69.000
32.77943 52.000
32.79938 48.000
32.81932 53.000
32.83927 60.000
32.85922 58.000
32.87917 56.000
32.89911 62.000
32.91906 56.000
32.93901 62.000
32.95895 65.000
32.97890 65.000
32.99885 62.000
33.01879 58.000
33.03874 56.000
33.05869 50.000
33.07863 75.000
33.09858 60.000
33.11853 69.000
33.13848 47.000
33.15842 50.000
33.17837 50.000
33.19832 51.000
33.21826 60.000
33.23821 38.000
33.25816 45.000
33.27810 60.000
33.29805 55.000
33.31800 57.000
33.33795 54.000
33.35789 49.000
33.37784 55.000
33.39779 51.000
33.41773 62.000
33.43768 64.000
33.45763 71.000
33.47757 67.000
33.49752 56.000
33.51747 63.000
33.53741 54.000
33.55736 49.000
33.57731 40.000
33.59726 54.000
33.61720 55.000
33.63715 61.000
33.65710 50.000
33.67704 63.000
33.69699 46.000
33.71694 54.000
33.73688 61.000
33.75683 50.000
33.77678 43.000
33.79673 62.000
33.81667 52.000
33.83662 50.000
33.85657 51.000
33.87651 46.000
33.89646 60.000
33.91641 55.000
33.93635 61.000
33.95630 52.000
33.97625 67.000
33.99620 59.000
34.01614 65.000
34.03609 72.000
34.05604 53.000
34.07598 60.000
34.09593 62.000
34.11588 81.000
34.13582 80.000
34.15577 61.000
34.17572 49.000
34.19566 65.000
34.21561 56.000
34.23556 58.000
34.25551 69.000
34.27545 70.000
34.29540 67.000
34.31535 55.000
34.33529 71.000
34.35524 62.000
34.37519 68.000
34.39513 63.000
34.41508 69.000
34.43503 70.000
34.45498 80.000
34.47492 77.000
34.49487 69.000
34.51482 67.000
34.53476 60.000
34.55471 66.000
34.57466 67.000
34.59460 60.000
34.61455 69.000
34.63450 59.000
34.65444 58.000
34.67439 55.000
34.69434 54.000
34.71429 60.000
34.73423 50.000
34.75418 61.000
34.77413 59.000
34.79407 55.000
34.81402 71.000
34.83397 54.000
34.85391 73.000
34.87386 49.000
34.89381 54.000
34.91376 58.000
34.93370 55.000
34.95365 65.000
34.97360 60.000
34.99354 60.000
35.01349 74.000
35.03344 67.000
35.05338 76.000
35.07333 68.000
35.09328 71.000
35.11322 74.000
35.13317 89.000
35.15312 100.000
35.17307 90.000
35.19301 100.000
35.21296 99.000
35.23291 99.000
35.25285 109.000
35.27280 111.000
35.29275 112.000
35.31269 137.000
35.33264 109.000
35.35259 122.000
35.37254 141.000
35.39248 134.000
35.41243 176.000
35.43238 182.000
35.45232 180.000
35.47227 216.000
35.49222 199.000
35.51216 222.000
35.53211 273.000
35.55206 233.000
35.57201 272.000
35.59195 250.000
35.61190 290.000
35.63185 288.000
35.65179 330.000
35.67174 323.000
35.69169 393.000
35.71163 461.000
35.73158 619.000
35.75153 737.000
35.77147 852.000
35.79142 943.000
35.81137 1065.000
35.83132 1089.000
35.85126 995.000
35.87121 897.000
35.89116 808.000
35.91110 693.000
35.93105 584.000
35.95100 493.000
35.97094 393.000
35.99089 233.000
36.01084 215.000
36.03079 160.000
36.05073 167.000
36.07068 124.000
36.09063 86.000
36.11057 75.000
36.13052 82.000
36.15047 70.000
36.17041 54.000
36.19036 92.000
36.21031 83.000
36.23025 58.000
36.25020 70.000
36.27015 66.000
36.29010 67.000
36.31004 66.000
36.32999 58.000
36.34994 66.000
36.36988 55.000
36.38983 66.000
36.40978 62.000
36.42972 54.000
36.44967 61.000
36.46962 71.000
36.48957 56.000
36.50951 75.000
36.52946 57.000
36.54941 83.000
36.56935 77.000
36.58930 88.000
36.60925 117.000
36.62919 96.000
36.64914 104.000
36.66909 113.000
36.68903 142.000
36.70898 163.000
36.72893 161.000
36.74888 172.000
36.76882 141.000
36.78877 156.000
36.80872 148.000
36.82866 125.000
36.84861 110.000
36.86856 107.000
36.88850 93.000
36.90845 98.000
36.92840 81.000
36.94835 76.000
36.96829 75.000
36.98824 74.000
37.00819 79.000
37.02813 64.000
37.04808 68.000
37.06803 84.000
37.08797 69.000
37.10792 80.000
37.12787 66.000
37.14781 59.000
37.16776 94.000
37.18771 79.000
37.20766 68.000
37.22760 80.000
37.24755 74.000
37.26750 61.000
37.28744 67.000
37.30739 73.000
37.32734 66.000
37.34728 45.000
37.36723 66.000
37.38718 70.000
37.40713 50.000
37.42707 76.000
37.44702 72.000
37.46697 79.000
37.48691 71.000
37.50686 65.000
37.52681 73.000
37.54675 73.000
37.56670 61.000
37.58665 65.000
37.60660 81.000
37.62654 60.000
37.64649 61.000
37.66644 57.000
37.68638 62.000
37.70633 59.000
37.72628 82.000
37.74622 59.000
37.76617 64.000
37.78612 84.000
37.80606 81.000
37.82601 62.000
37.84596 79.000
37.86591 79.000
37.88585 84.000
37.90580 81.000
37.92575 85.000
37.94569 91.000
37.96564 93.000
37.98559 97.000
38.00553 71.000
38.02548 73.000
38.04543 69.000
38.06538 71.000
38.08532 69.000
38.10527 63.000
38.12522 68.000
38.14516 70.000
38.16511 72.000
38.18506 65.000
38.20500 63.000
38.22495 78.000
38.24490 76.000
38.26484 75.000
38.28479 72.000
38.30474 66.000
38.32469 63.000
38.34463 69.000
38.36458 50.000
38.38453 76.000
38.40447 79.000
38.42442 92.000
38.44437 85.000
38.46431 79.000
38.48426 72.000
38.50421 97.000
38.52416 68.000
38.54410 64.000
38.56405 67.000
38.58400 76.000
38.60394 73.000
38.62389 80.000
38.64384 97.000
38.66378 81.000
38.68373 72.000
38.70368 78.000
38.72362 101.000
38.74357 83.000
38.76352 89.000
38.78347 90.000
38.80341 116.000
38.82336 127.000
38.84331 105.000
38.86325 102.000
38.88320 154.000
38.90315 120.000
38.92309 129.000
38.94304 125.000
38.96299 147.000
38.98294 175.000
39.00288 166.000
39.02283 166.000
39.04278 186.000
39.06272 186.000
39.08267 236.000
39.10262 261.000
39.12256 293.000
39.14251 366.000
39.16246 422.000
39.18241 506.000
39.20235 712.000
39.22230 845.000
39.24225 1065.000
39.26219 1271.000
39.28214 1549.000
39.30209 1710.000
39.32203 1729.000
39.34198 1731.000
39.36193 1766.000
39.38187 1497.000
39.40182 1353.000
39.42177 1204.000
39.44172 1123.000
39.46166 883.000
39.48161 668.000
39.50156 584.000
39.52150 450.000
39.54145 346.000
39.56140 268.000
39.58134 243.000
39.60129 217.000
39.62124 194.000
39.64119 184.000
39.66113 170.000
39.68108 150.000
39.70103 150.000
39.72097 127.000
39.74092 120.000
39.76087 108.000
39.78081 114.000
39.80076 107.000
39.82071 113.000
39.84065 96.000
39.86060 101.000
39.88055 95.000
39.90050 102.000
39.92044 111.000
39.94039 98.000
39.96034 73.000
39.98028 99.000
40.00023 95.000
40.02018 89.000
40.04012 66.000
40.06007 80.000
40.08002 69.000
40.09997 79.000
40.11991 72.000
40.13986 78.000
40.15981 69.000
40.17975 62.000
40.19970 61.000
40.21965 50.000
40.23959 55.000
40.25954 64.000
40.27949 53.000
40.29943 56.000
40.31938 62.000
40.33933 56.000
40.35928 68.000
40.37922 60.000
40.39917 54.000
40.41912 52.000
40.43906 55.000
40.45901 59.000
40.47896 53.000
40.49890 40.000
40.51885 46.000
40.53880 56.000
40.55875 61.000
40.57869 51.000
40.59864 53.000
40.61859 65.000
40.63853 70.000
40.65848 63.000
40.67843 67.000
40.69837 43.000
40.71832 50.000
40.73827 52.000
40.75822 56.000
40.77816 51.000
40.79811 40.000
40.81806 54.000
40.83800 52.000
40.85795 56.000
40.87790 41.000
40.89784 55.000
40.91779 64.000
40.93774 47.000
40.95768 62.000
40.97763 41.000
40.99758 66.000
41.01753 63.000
41.03747 55.000
41.05742 60.000
41.07737 64.000
41.09731 71.000
41.11726 64.000
41.13721 65.000
41.15715 60.000
41.17710 52.000
41.19705 75.000
41.21700 52.000
41.23694 68.000
41.25689 70.000
41.27684 58.000
41.29678 57.000
41.31673 44.000
41.33668 53.000
41.35662 71.000
41.37657 61.000
41.39652 58.000
41.41646 64.000
41.43641 57.000
41.45636 74.000
41.47631 65.000
41.49625 66.000
41.51620 64.000
41.53615 65.000
41.55609 57.000
41.57604 55.000
41.59599 57.000
41.61593 59.000
41.63588 49.000
41.65583 52.000
41.67578 52.000
41.69572 45.000
41.71567 40.000
41.73562 61.000
41.75556 41.000
41.77551 57.000
41.79546 37.000
41.81540 54.000
41.83535 48.000
41.85530 57.000
41.87524 39.000
41.89519 51.000
41.91514 66.000
41.93509 55.000
41.95503 51.000
41.97498 59.000
41.99493 55.000
42.01487 62.000
42.03482 59.000
42.05477 55.000
42.07471 53.000
42.09466 43.000
42.11461 51.000
42.13456 54.000
42.15450 36.000
42.17445 43.000
42.19440 46.000
42.21434 48.000
42.23429 58.000
42.25424 57.000
42.27418 65.000
42.29413 49.000
42.31408 46.000
42.33403 44.000
42.35397 49.000
42.37392 51.000
42.39387 64.000
42.41381 54.000
42.43376 47.000
42.45371 43.000
42.47365 49.000
42.49360 49.000
42.51355 51.000
42.53349 53.000
42.55344 42.000
42.57339 53.000
42.59334 47.000
42.61328 56.000
42.63323 54.000
42.65318 60.000
42.67312 57.000
42.69307 65.000
42.71302 57.000
42.73296 56.000
42.75291 68.000
42.77286 50.000
42.79281 51.000
42.81275 66.000
42.83270 65.000
42.85265 72.000
42.87259 83.000
42.89254 66.000
42.91249 74.000
42.93243 71.000
42.95238 62.000
42.97233 85.000
42.99227 82.000
43.01222 74.000
43.03217 91.000
43.05212 105.000
43.07206 82.000
43.09201 109.000
43.11196 119.000
43.13190 147.000
43.15185 154.000
43.17180 167.000
43.19174 197.000
43.21169 205.000
43.23164 261.000
43.25159 295.000
43.27153 393.000
43.29148 476.000
43.31143 536.000
43.33137 573.000
43.35132 649.000
43.37127 677.000
43.39121 721.000
43.41116 707.000
43.43111 677.000
43.45105 541.000
43.47100 518.000
43.49095 472.000
43.51090 439.000
43.53084 381.000
43.55079 324.000
43.57074 252.000
43.59068 208.000
43.61063 176.000
43.63058 163.000
43.65052 131.000
43.67047 125.000
43.69042 126.000
43.71037 101.000
43.73031 104.000
43.75026 90.000
43.77021 79.000
43.79015 80.000
43.81010 82.000
43.83005 74.000
43.84999 77.000
43.86994 79.000
43.88989 66.000
43.90984 61.000
43.92978 65.000
43.94973 64.000
43.96968 73.000
43.98962 45.000
44.00957 59.000
44.02952 57.000
44.04946 66.000
44.06941 81.000
44.08936 69.000
44.10930 53.000
44.12925 58.000
44.14920 54.000
44.16915 51.000
44.18909 53.000
44.20904 50.000
44.22899 52.000
44.24893 47.000
44.26888 47.000
44.28883 50.000
44.30877 64.000
44.32872 60.000
44.34867 43.000
44.36862 57.000
44.38856 49.000
44.40851 71.000
44.42846 54.000
44.44840 63.000
44.46835 66.000
44.48830 51.000
44.50824 58.000
44.52819 49.000
44.54814 50.000
44.56808 63.000
44.58803 65.000
44.60798 53.000
44.62793 53.000
44.64787 34.000
44.66782 50.000
44.68777 50.000
44.70771 48.000
44.72766 65.000
44.74761 59.000
44.76755 50.000
44.78750 54.000
44.80745 58.000
44.82740 46.000
44.84734 54.000
44.86729 61.000
44.88724 58.000
44.90718 53.000
44.92713 58.000
44.94708 55.000
44.96702 46.000
44.98697 47.000
45.00692 49.000
45.02686 49.000
45.04681 63.000
45.06676 53.000
45.08671 43.000
45.10665 49.000
45.12660 46.000
45.14655 43.000
45.16649 61.000
45.18644 47.000
45.20639 54.000
45.22633 47.000
45.24628 55.000
45.26623 58.000
45.28618 49.000
45.30612 53.000
45.32607 39.000
45.34602 53.000
45.36596 61.000
45.38591 49.000
45.40586 57.000
45.42580 55.000
45.44575 47.000
45.46570 53.000
45.48565 56.000
45.50559 49.000
45.52554 77.000
45.54549 66.000
45.56543 56.000
45.58538 54.000
45.60533 52.000
45.62527 55.000
45.64522 57.000
45.66517 39.000
45.68511 57.000
45.70506 51.000
45.72501 61.000
45.74496 52.000
45.76490 67.000
45.78485 47.000
45.80480 51.000
45.82474 47.000
45.84469 43.000
45.86464 59.000
45.88458 55.000
45.90453 50.000
45.92448 53.000
45.94443 53.000
45.96437 69.000
45.98432 56.000
46.00427 43.000
46.02421 43.000
46.04416 56.000
46.06411 48.000
46.08405 53.000
46.10400 47.000
46.12395 44.000
46.14389 60.000
46.16384 50.000
46.18379 46.000
46.20374 61.000
46.22368 57.000
46.24363 62.000
46.26358 52.000
46.28352 56.000
46.30347 63.000
46.32342 49.000
46.34336 73.000
46.36331 46.000
46.38326 65.000
46.40321 63.000
46.42315 79.000
46.44310 64.000
46.46305 74.000
46.48299 51.000
46.50294 67.000
46.52289 72.000
46.54283 70.000
46.56278 74.000
46.58273 66.000
46.60267 60.000
46.62262 60.000
46.64257 68.000
46.66252 51.000
46.68246 57.000
46.70241 56.000
46.72236 59.000
46.74230 59.000
46.76225 62.000
46.78220 48.000
46.80214 61.000
46.82209 57.000
46.84204 58.000
46.86199 70.000
46.88193 47.000
46.90188 50.000
46.92183 53.000
46.94177 70.000
46.96172 53.000
46.98167 60.000
47.00161 61.000
47.02156 59.000
47.04151 45.000
47.06146 56.000
47.08140 67.000
47.10135 56.000
47.12130 57.000
47.14124 45.000
47.16119 61.000
47.18114 62.000
47.20108 54.000
47.22103 58.000
47.24098 81.000
47.26092 61.000
47.28087 61.000
47.30082 70.000
47.32077 59.000
47.34071 50.000
47.36066 50.000
47.38061 76.000
47.40055 57.000
47.42050 60.000
47.44045 66.000
47.46039 57.000
47.48034 63.000
47.50029 60.000
47.52024 58.000
47.54018 72.000
47.56013 68.000
47.58008 64.000
47.60002 69.000
47.61997 70.000
47.63992 77.000
47.65986 67.000
47.67981 68.000
47.69976 58.000
47.71970 75.000
47.73965 75.000
47.75960 91.000
47.77955 76.000
47.79949 83.000
47.81944 68.000
47.83939 83.000
47.85933 83.000
47.87928 84.000
47.89923 63.000
47.91917 62.000
47.93912 88.000
47.95907 100.000
47.97902 104.000
47.99896 99.000
48.01891 84.000
48.03886 101.000
48.05880 113.000
48.07875 125.000
48.09870 125.000
48.11864 123.000
48.13859 127.000
48.15854 143.000
48.17848 112.000
48.19843 138.000
48.21838 144.000
48.23833 141.000
48.25827 171.000
48.27822 187.000
48.29817 225.000
48.31811 223.000
48.33806 264.000
48.35801 297.000
48.37795 334.000
48.39790 336.000
48.41785 410.000
48.43780 505.000
48.45774 563.000
48.47769 720.000
48.49764 879.000
48.51758 994.000
48.53753 1112.000
48.55748 1272.000
48.57742 1300.000
48.59737 1363.000
48.61732 1420.000
48.63726 1312.000
48.65721 1259.000
48.67716 1178.000
48.69711 1007.000
48.71705 992.000
48.73700 867.000
48.75695 713.000
48.77689 626.000
48.79684 582.000
48.81679 471.000
48.83673 338.000
48.85668 335.000
48.87663 271.000
48.89658 232.000
48.91652 205.000
48.93647 208.000
48.95642 168.000
48.97636 140.000
48.99631 139.000
49.01626 141.000
49.03620 133.000
49.05615 124.000
49.07610 130.000
49.09605 109.000
49.11599 134.000
49.13594 87.000
49.15589 94.000
49.17583 101.000
49.19578 76.000
49.21573 104.000
49.23567 93.000
49.25562 90.000
49.27557 96.000
49.29551 82.000
49.31546 84.000
49.33541 93.000
49.35536 64.000
49.37530 76.000
49.39525 72.000
49.41520 72.000
49.43514 73.000
49.45509 63.000
49.47504 73.000
49.49498 80.000
49.51493 70.000
49.53488 80.000
49.55483 69.000
49.57477 78.000
49.59472 74.000
49.61467 64.000
49.63461 62.000
49.65456 62.000
49.67451 73.000
49.69445 64.000
49.71440 69.000
49.73435 60.000
49.75429 59.000
49.77424 55.000
49.79419 59.000
49.81414 50.000
49.83408 45.000
49.85403 65.000
49.87398 63.000
49.89392 65.000
49.91387 44.000
49.93382 70.000
49.95376 55.000
49.97371 58.000
49.99366 62.000
50.01361 63.000
50.03355 61.000
50.05350 56.000
50.07345 47.000
50.09339 51.000
50.11334 51.000
50.13329 62.000
50.15323 55.000
50.17318 65.000
50.19313 56.000
50.21307 60.000
50.23302 69.000
50.25297 59.000
50.27292 75.000
50.29286 63.000
50.31281 58.000
50.33276 47.000
50.35270 52.000
50.37265 51.000
50.39260 53.000
50.41254 56.000
50.43249 36.000
50.45244 61.000
50.47239 46.000
50.49233 42.000
50.51228 43.000
50.53223 39.000
50.55217 51.000
50.57212 38.000
50.59207 37.000
50.61201 46.000
50.63196 34.000
50.65191 55.000
50.67186 63.000
50.69180 48.000
50.71175 55.000
50.73170 44.000
50.75164 39.000
50.77159 41.000
50.79154 50.000
50.81148 54.000
50.83143 43.000
50.85138 51.000
50.87132 44.000
50.89127 51.000
50.91122 55.000
50.93117 42.000
50.95111 55.000
50.97106 51.000
50.99101 40.000
51.01095 54.000
51.03090 44.000
51.05085 45.000
51.07079 53.000
51.09074 49.000
51.11069 49.000
51.13064 42.000
51.15058 39.000
51.17053 34.000
51.19048 45.000
51.21042 41.000
51.23037 40.000
51.25032 54.000
51.27026 49.000
51.29021 61.000
51.31016 51.000
51.33010 57.000
51.35005 43.000
51.37000 49.000
51.38995 53.000
51.40989 36.000
51.42984 50.000
51.44979 46.000
51.46973 38.000
51.48968 59.000
51.50963 53.000
51.52957 42.000
51.54952 33.000
51.56947 49.000
51.58942 43.000
51.60936 57.000
51.62931 47.000
51.64926 44.000
51.66920 35.000
51.68915 45.000
51.70910 43.000
51.72904 47.000
51.74899 49.000
51.76894 45.000
51.78888 57.000
51.80883 45.000
51.82878 46.000
51.84873 43.000
51.86867 45.000
51.88862 30.000
51.90857 35.000
51.92851 48.000
51.94846 46.000
51.96841 50.000
51.98835 51.000
52.00830 51.000
52.02825 51.000
52.04820 35.000
52.06814 56.000
52.08809 46.000
52.10804 52.000
52.12798 51.000
52.14793 51.000
52.16788 43.000
52.18782 50.000
52.20777 44.000
52.22772 42.000
52.24767 40.000
52.26761 53.000
52.28756 53.000
52.30751 38.000
52.32745 40.000
52.34740 43.000
52.36735 49.000
52.38729 37.000
52.40724 44.000
52.42719 41.000
52.44713 34.000
52.46708 48.000
52.48703 37.000
52.50698 40.000
52.52692 71.000
52.54687 51.000
52.56682 40.000
52.58676 46.000
52.60671 43.000
52.62666 49.000
52.64660 46.000
52.66655 47.000
52.68650 47.000
52.70645 57.000
52.72639 55.000
52.74634 46.000
52.76629 46.000
52.78623 42.000
52.80618 33.000
52.82613 35.000
52.84607 43.000
52.86602 42.000
52.88597 52.000
52.90591 46.000
52.92586 32.000
52.94581 39.000
52.96576 42.000
52.98570 32.000
53.00565 44.000
53.02560 52.000
53.04554 36.000
53.06549 48.000
53.08544 55.000
53.10538 52.000
53.12533 42.000
53.14528 42.000
53.16523 53.000
53.18517 35.000
53.20512 56.000
53.22507 44.000
53.24501 44.000
53.26496 49.000
53.28491 47.000
53.30485 50.000
53.32480 46.000
53.34475 56.000
53.36469 59.000
53.38464 47.000
53.40459 45.000
53.42454 59.000
53.44448 57.000
53.46443 46.000
53.48438 60.000
53.50432 40.000
53.52427 54.000
53.54422 53.000
53.56416 36.000
53.58411 61.000
53.60406 57.000
53.62401 62.000
53.64395 61.000
53.66390 47.000
53.68385 58.000
53.70379 50.000
53.72374 60.000
53.74369 59.000
53.76363 45.000
53.78358 56.000
53.80353 56.000
53.82348 47.000
53.84342 63.000
53.86337 36.000
53.88332 50.000
53.90326 63.000
53.92321 34.000
53.94316 37.000
53.96310 48.000
53.98305 48.000
54.00300 36.000
54.02294 49.000
54.04289 40.000
54.06284 54.000
54.08279 43.000
54.10273 56.000
54.12268 39.000
54.14263 40.000
54.16257 43.000
54.18252 40.000
54.20247 49.000
54.22241 53.000
54.24236 50.000
54.26231 52.000
54.28226 49.000
54.30220 50.000
54.32215 45.000
54.34210 41.000
54.36204 61.000
54.38199 49.000
54.40194 56.000
54.42188 35.000
54.44183 40.000
54.46178 40.000
54.48172 35.000
54.50167 52.000
54.52162 39.000
54.54157 44.000
54.56151 54.000
54.58146 52.000
54.60141 50.000
54.62135 34.000
54.64130 30.000
54.66125 46.000
54.68119 36.000
54.70114 63.000
54.72109 36.000
54.74104 53.000
54.76098 35.000
54.78093 51.000
54.80088 35.000
54.82082 38.000
54.84077 37.000
54.86072 47.000
54.88066 36.000
54.90061 45.000
54.92056 45.000
54.94050 53.000
54.96045 59.000
54.98040 52.000
55.00035 40.000
55.02029 50.000
55.04024 37.000
55.06019 41.000
55.08013 46.000
55.10008 51.000
55.12003 55.000
55.13997 41.000
55.15992 40.000
55.17987 36.000
55.19982 46.000
55.21976 43.000
55.23971 45.000
55.25966 36.000
55.27960 30.000
55.29955 47.000
55.31950 58.000
55.33944 48.000
55.35939 36.000
55.37934 40.000
55.39929 37.000
55.41923 48.000
55.43918 39.000
55.45913 50.000
55.47907 54.000
55.49902 37.000
55.51897 42.000
55.53891 41.000
55.55886 49.000
55.57881 52.000
55.59875 47.000
55.61870 52.000
55.63865 43.000
55.65860 49.000
55.67854 55.000
55.69849 55.000
55.71844 54.000
55.73838 37.000
55.75833 55.000
55.77828 46.000
55.79822 48.000
55.81817 41.000
55.83812 47.000
55.85807 36.000
55.87801 32.000
55.89796 49.000
55.91791 52.000
55.93785 48.000
55.95780 47.000
55.97775 27.000
55.99769 50.000
56.01764 41.000
56.03759 34.000
56.05753 41.000
56.07748 56.000
56.09743 43.000
56.11738 49.000
56.13732 51.000
56.15727 47.000
56.17722 37.000
56.19716 55.000
56.21711 47.000
56.23706 37.000
56.25700 51.000
56.27695 38.000
56.29690 38.000
56.31685 48.000
56.33679 52.000
56.35674 42.000
56.37669 41.000
56.39663 26.000
56.41658 40.000
56.43653 49.000
56.45647 40.000
56.47642 45.000
56.49637 48.000
56.51631 48.000
56.53626 50.000
56.55621 41.000
56.57616 53.000
56.59610 49.000
56.61605 52.000
56.63600 54.000
56.65594 52.000
56.67589 42.000
56.69584 55.000
56.71578 48.000
56.73573 42.000
56.75568 35.000
56.77563 52.000
56.79557 59.000
56.81552 52.000
56.83547 69.000
56.85541 53.000
56.87536 49.000
56.89531 56.000
56.91525 71.000
56.93520 66.000
56.95515 76.000
56.97510 70.000
56.99504 71.000
57.01499 70.000
57.03494 66.000
57.05488 72.000
57.07483 63.000
57.09478 64.000
57.11472 76.000
57.13467 82.000
57.15462 71.000
57.17456 77.000
57.19451 79.000
57.21446 74.000
57.23441 71.000
57.25435 76.000
57.27430 55.000
57.29425 67.000
57.31419 73.000
57.33414 70.000
57.35409 66.000
57.37403 62.000
57.39398 56.000
57.41393 61.000
57.43388 53.000
57.45382 53.000
57.47377 43.000
57.49372 56.000
57.51366 57.000
57.53361 55.000
57.55356 36.000
57.57350 50.000
57.59345 42.000
57.61340 44.000
57.63334 40.000
57.65329 74.000
57.67324 53.000
57.69319 44.000
57.71313 46.000
57.73308 38.000
57.75303 36.000
57.77297 58.000
57.79292 59.000
57.81287 50.000
57.83281 49.000
57.85276 59.000
57.87271 51.000
57.89266 52.000
57.91260 41.000
57.93255 37.000
57.95250 45.000
57.97244 48.000
57.99239 44.000
58.01234 42.000
58.03228 35.000
58.05223 51.000
58.07218 52.000
58.09212 41.000
58.11207 49.000
58.13202 44.000
58.15197 44.000
58.17191 45.000
58.19186 39.000
58.21181 38.000
58.23175 41.000
58.25170 48.000
58.27165 42.000
58.29159 37.000
58.31154 48.000
58.33149 35.000
58.35144 67.000
58.37138 44.000
58.39133 48.000
58.41128 45.000
58.43122 42.000
58.45117 38.000
58.47112 54.000
58.49106 51.000
58.51101 51.000
58.53096 36.000
58.55090 48.000
58.57085 57.000
58.59080 61.000
58.61075 42.000
58.63069 52.000
58.65064 52.000
58.67059 46.000
58.69053 43.000
58.71048 50.000
58.73043 53.000
58.75037 56.000
58.77032 46.000
58.79027 56.000
58.81022 52.000
58.83016 39.000
58.85011 49.000
58.87006 46.000
58.89000 48.000
58.90995 43.000
58.92990 47.000
58.94984 54.000
58.96979 43.000
58.98974 41.000
59.00969 53.000
59.02963 40.000
59.04958 61.000
59.06953 41.000
59.08947 52.000
59.10942 66.000
59.12937 31.000
59.14931 55.000
59.16926 49.000
59.18921 40.000
59.20915 57.000
59.22910 50.000
59.24905 60.000
59.26900 49.000
59.28894 47.000
59.30889 55.000
59.32884 53.000
59.34878 47.000
59.36873 51.000
59.38868 48.000
59.40862 42.000
59.42857 45.000
59.44852 52.000
59.46847 41.000
59.48841 41.000
59.50836 40.000
59.52831 43.000
59.54825 47.000
59.56820 47.000
59.58815 52.000
59.60809 34.000
59.62804 42.000
59.64799 44.000
59.66793 51.000
59.68788 40.000
59.70783 63.000
59.72778 49.000
59.74772 54.000
59.76767 59.000
59.78762 41.000
59.80756 48.000
59.82751 46.000
59.84746 50.000
59.86740 40.000
59.88735 49.000
59.90730 49.000
59.92725 41.000
59.94719 41.000
59.96714 43.000
59.98709 63.000
60.00703 66.000
60.02698 48.000
60.04693 44.000
60.06687 48.000
60.08682 60.000
60.10677 46.000
60.12671 47.000
60.14666 58.000
60.16661 32.000
60.18656 57.000
60.20650 51.000
60.22645 59.000
60.24640 51.000
60.26634 45.000
60.28629 54.000
60.30624 32.000
60.32618 51.000
60.34613 57.000
60.36608 41.000
60.38603 67.000
60.40597 63.000
60.42592 53.000
60.44587 61.000
60.46581 63.000
60.48576 44.000
60.50571 50.000
60.52565 60.000
60.54560 66.000
60.56555 49.000
60.58550 59.000
60.60544 61.000
60.62539 68.000
60.64534 46.000
60.66528 61.000
60.68523 69.000
60.70518 59.000
60.72512 55.000
60.74507 46.000
60.76502 43.000
60.78496 54.000
60.80491 60.000
60.82486 59.000
60.84481 51.000
60.86475 53.000
60.88470 45.000
60.90465 56.000
60.92459 70.000
60.94454 63.000
60.96449 64.000
60.98443 63.000
61.00438 78.000
61.02433 59.000
61.04428 79.000
61.06422 71.000
61.08417 79.000
61.10412 54.000
61.12406 76.000
61.14401 72.000
61.16396 71.000
61.18390 65.000
61.20385 86.000
61.22380 89.000
61.24374 82.000
61.26369 97.000
61.28364 114.000
61.30359 104.000
61.32353 86.000
61.34348 112.000
61.36343 115.000
61.38337 131.000
61.40332 158.000
61.42327 165.000
61.44321 160.000
61.46316 209.000
61.48311 202.000
61.50306 265.000
61.52300 248.000
61.54295 317.000
61.56290 321.000
61.58284 353.000
61.60279 421.000
61.62274 443.000
61.64268 459.000
61.66263 507.000
61.68258 522.000
61.70252 510.000
61.72247 493.000
61.74242 488.000
61.76237 483.000
61.78231 467.000
61.80226 421.000
61.82221 408.000
61.84215 378.000
61.86210 360.000
61.88205 324.000
61.90199 299.000
61.92194 295.000
61.94189 234.000
61.96184 240.000
61.98178 193.000
62.00173 167.000
62.02168 170.000
62.04162 132.000
62.06157 139.000
62.08152 114.000
62.10146 123.000
62.12141 119.000
62.14136 89.000
62.16131 106.000
62.18125 97.000
62.20120 106.000
62.22115 97.000
62.24109 96.000
62.26104 79.000
62.28099 85.000
62.30093 77.000
62.32088 85.000
62.34083 79.000
62.36077 80.000
62.38072 77.000
62.40067 75.000
62.42062 64.000
62.44056 90.000
62.46051 82.000
62.48046 75.000
62.50040 64.000
62.52035 75.000
62.54030 83.000
62.56024 99.000
62.58019 108.000
62.60014 75.000
62.62009 99.000
62.64003 87.000
62.65998 105.000
62.67993 96.000
62.69987 100.000
62.71982 97.000
62.73977 111.000
62.75971 105.000
62.77966 106.000
62.79961 109.000
62.81955 123.000
62.83950 98.000
62.85945 101.000
62.87940 117.000
62.89934 110.000
62.91929 90.000
62.93924 110.000
62.95918 91.000
62.97913 85.000
62.99908 52.000
63.01902 57.000
63.03897 67.000
63.05892 71.000
63.07887 75.000
63.09881 61.000
63.11876 78.000
63.13871 78.000
63.15865 69.000
63.17860 69.000
63.19855 65.000
63.21849 46.000
63.23844 53.000
63.25839 54.000
63.27833 42.000
63.29828 69.000
63.31823 49.000
63.33818 44.000
63.35812 58.000
63.37807 64.000
63.39802 56.000
63.41796 62.000
63.43791 52.000
63.45786 49.000
63.47780 47.000
63.49775 41.000
63.51770 60.000
63.53765 71.000
63.55759 58.000
63.57754 67.000
63.59749 47.000
63.61743 44.000
63.63738 47.000
63.65733 52.000
63.67727 41.000
63.69722 51.000
63.71717 50.000
63.73712 57.000
63.75706 61.000
63.77701 62.000
63.79696 56.000
63.81690 64.000
63.83685 48.000
63.85680 66.000
63.87674 66.000
63.89669 59.000
63.91664 59.000
63.93658 64.000
63.95653 66.000
63.97648 62.000
63.99643 69.000
64.01637 80.000
64.03632 76.000
64.05627 81.000
64.07621 96.000
64.09616 85.000
64.11611 107.000
64.13605 108.000
64.15600 122.000
64.17595 146.000
64.19590 160.000
64.21584 198.000
64.23579 223.000
64.25574 237.000
64.27568 300.000
64.29563 327.000
64.31558 377.000
64.33552 434.000
64.35547 442.000
64.37542 475.000
64.39536 528.000
64.41531 496.000
64.43526 523.000
64.45521 477.000
64.47515 506.000
64.49510 476.000
64.51505 441.000
64.53499 430.000
64.55494 340.000
64.57489 341.000
64.59483 295.000
64.61478 299.000
64.63473 267.000
64.65468 263.000
64.67462 177.000
64.69457 170.000
64.71452 146.000
64.73446 134.000
64.75441 114.000
64.77436 115.000
64.79430 97.000
64.81425 99.000
64.83420 93.000
64.85414 72.000
64.87409 60.000
64.89404 61.000
64.91399 63.000
64.93393 60.000
64.95388 69.000
64.97383 61.000
64.99377 41.000
65.01372 50.000
65.03367 53.000
65.05361 53.000
65.07356 45.000
65.09351 43.000
65.11346 60.000
65.13340 48.000
65.15335 39.000
65.17330 52.000
65.19324 67.000
65.21319 56.000
65.23314 59.000
65.25308 48.000
65.27303 56.000
65.29298 68.000
65.31293 54.000
65.33287 46.000
65.35282 55.000
65.37277 51.000
65.39271 56.000
65.41266 62.000
65.43261 57.000
65.45255 62.000
65.47250 61.000
65.49245 53.000
65.51239 58.000
65.53234 60.000
65.55229 60.000
65.57224 48.000
65.59218 38.000
65.61213 48.000
65.63208 72.000
65.65202 47.000
65.67197 53.000
65.69192 48.000
65.71186 47.000
65.73181 63.000
65.75176 68.000
65.77171 56.000
65.79165 50.000
65.81160 47.000
65.83155 61.000
65.85149 51.000
65.87144 60.000
65.89139 52.000
65.91133 70.000
65.93128 48.000
65.95123 62.000
65.97117 68.000
65.99112 70.000
66.01107 65.000
66.03102 62.000
66.05096 62.000
66.07091 76.000
66.09086 88.000
66.11080 87.000
66.13075 70.000
66.15070 112.000
66.17064 103.000
66.19059 80.000
66.21054 111.000
66.23049 95.000
66.25043 114.000
66.27038 100.000
66.29033 107.000
66.31027 107.000
66.33022 117.000
66.35017 102.000
66.37011 114.000
66.39006 121.000
66.41001 122.000
66.42995 136.000
66.44990 137.000
66.46985 138.000
66.48980 128.000
66.50974 139.000
66.52969 113.000
66.54964 173.000
66.56958 164.000
66.58953 201.000
66.60948 209.000
66.62942 228.000
66.64937 278.000
66.66932 306.000
66.68927 312.000
66.70921 346.000
66.72916 354.000
66.74911 405.000
66.76905 381.000
66.78900 370.000
66.80895 361.000
66.82889 308.000
66.84884 305.000
66.86879 328.000
66.88874 297.000
66.90868 266.000
66.92863 253.000
66.94858 267.000
66.96852 236.000
66.98847 233.000
67.00842 202.000
67.02836 170.000
67.04831 154.000
67.06826 132.000
67.08820 127.000
67.10815 104.000
67.12810 64.000
67.14805 80.000
67.16799 72.000
67.18794 57.000
67.20789 73.000
67.22783 65.000
67.24778 65.000
67.26773 52.000
67.28767 40.000
67.30762 51.000
67.32757 47.000
67.34752 49.000
67.36746 49.000
67.38741 45.000
67.40736 45.000
67.42730 49.000
67.44725 55.000
67.46720 44.000
67.48714 45.000
67.50709 44.000
67.52704 61.000
67.54698 58.000
67.56693 47.000
67.58688 51.000
67.60683 42.000
67.62677 56.000
67.64672 58.000
67.66667 52.000
67.68661 40.000
67.70656 51.000
67.72651 55.000
67.74645 49.000
67.76640 44.000
67.78635 50.000
67.80630 47.000
67.82624 55.000
67.84619 32.000
67.86614 53.000
67.88608 49.000
67.90603 46.000
67.92598 35.000
67.94592 49.000
67.96587 39.000
67.98582 43.000
68.00576 51.000
68.02571 62.000
68.04566 40.000
68.06561 38.000
68.08555 54.000
68.10550 50.000
68.12545 46.000
68.14539 45.000
68.16534 45.000
68.18529 37.000
68.20523 39.000
68.22518 35.000
68.24513 48.000
68.26508 48.000
68.28502 45.000
68.30497 36.000
68.32492 40.000
68.34486 39.000
68.36481 41.000
68.38476 34.000
68.40470 45.000
68.42465 48.000
68.44460 49.000
68.46455 43.000
68.48449 39.000
68.50444 45.000
68.52439 42.000
68.54433 52.000
68.56428 36.000
68.58423 40.000
68.60417 51.000
68.62412 42.000
68.64407 32.000
68.66401 36.000
68.68396 43.000
68.70391 38.000
68.72386 40.000
68.74380 27.000
68.76375 43.000
68.78370 48.000
68.80364 43.000
68.82359 46.000
68.84354 43.000
68.86348 37.000
68.88343 47.000
68.90338 51.000
68.92333 47.000
68.94327 39.000
68.96322 49.000
68.98317 40.000
69.00311 41.000
69.02306 42.000
69.04301 44.000
69.06295 51.000
69.08290 29.000
69.10285 41.000
69.12279 42.000
69.14274 49.000
69.16269 44.000
69.18264 41.000
69.20258 33.000
69.22253 46.000
69.24248 56.000
69.26242 40.000
69.28237 50.000
69.30232 49.000
69.32226 48.000
69.34221 48.000
69.36216 44.000
69.38211 51.000
69.40205 48.000
69.42200 47.000
69.44195 48.000
69.46189 55.000
69.48184 36.000
69.50179 62.000
69.52173 51.000
69.54168 40.000
69.56163 41.000
69.58157 35.000
69.60152 41.000
69.62147 42.000
69.64142 55.000
69.66136 58.000
69.68131 45.000
69.70126 48.000
69.72120 47.000
69.74115 33.000
69.76110 42.000
69.78104 59.000
69.80099 35.000
69.82094 42.000
69.84089 31.000
69.86083 44.000
69.88078 43.000
69.90073 36.000
69.92067 48.000
69.94062 44.000
69.96057 37.000
69.98051 36.000
70.00046 31.000
70.02041 38.000
70.04035 28.000
70.06030 42.000
70.08025 41.000
70.10020 46.000
70.12014 45.000
70.14009 50.000
70.16004 47.000
70.17998 32.000
70.19993 38.000
70.21988 54.000
70.23982 36.000
70.25977 45.000
70.27972 40.000
70.29967 48.000
70.31961 36.000
70.33956 39.000
70.35951 43.000
70.37945 50.000
70.39940 42.000
70.41935 35.000
70.43929 45.000
70.45924 29.000
70.47919 44.000
70.49914 38.000
70.51908 43.000
70.53903 51.000
70.55898 36.000
70.57892 43.000
70.59887 42.000
70.61882 39.000
70.63876 33.000
70.65871 45.000
70.67866 45.000
70.69860 42.000
70.71855 32.000
70.73850 39.000
70.75845 49.000
70.77839 51.000
70.79834 44.000
70.81829 38.000
70.83823 46.000
70.85818 32.000
70.87813 45.000
70.89807 50.000
70.91802 42.000
70.93797 35.000
70.95792 36.000
70.97786 33.000
70.99781 38.000
71.01776 46.000
71.03770 43.000
71.05765 35.000
71.07760 37.000
71.09754 43.000
71.11749 40.000
71.13744 36.000
71.15738 42.000
71.17733 51.000
71.19728 40.000
71.21723 38.000
71.23717 45.000
71.25712 45.000
71.27707 30.000
71.29701 39.000
71.31696 47.000
71.33691 48.000
71.35685 41.000
71.37680 40.000
71.39675 43.000
71.41670 42.000
71.43664 39.000
71.45659 48.000
71.47654 35.000
71.49648 37.000
71.51643 46.000
71.53638 43.000
71.55632 53.000
71.57627 41.000
71.59622 48.000
71.61616 44.000
71.63611 38.000
71.65606 52.000
71.67601 45.000
71.69595 38.000
71.71590 49.000
71.73585 42.000
71.75579 53.000
71.77574 37.000
71.79569 37.000
71.81563 32.000
71.83558 60.000
71.85553 34.000
71.87548 56.000
71.89542 30.000
71.91537 36.000
71.93532 42.000
71.95526 38.000
71.97521 25.000
71.99516 41.000
72.01510 40.000
72.03505 37.000
72.05500 40.000
72.07495 46.000
72.09489 44.000
72.11484 35.000
72.13479 34.000
72.15473 43.000
72.17468 34.000
72.19463 51.000
72.21457 44.000
72.23452 43.000
72.25447 44.000
72.27441 38.000
72.29436 53.000
72.31431 36.000
72.33426 40.000
72.35420 41.000
72.37415 38.000
72.39410 41.000
72.41404 45.000
72.43399 53.000
72.45394 45.000
72.47388 36.000
72.49383 39.000
72.51378 41.000
72.53373 45.000
72.55367 30.000
72.57362 42.000
72.59357 37.000
72.61351 44.000
72.63346 38.000
72.65341 42.000
72.67335 33.000
72.69330 48.000
72.71325 42.000
72.73319 31.000
72.75314 44.000
72.77309 31.000
72.79304 37.000
72.81298 40.000
72.83293 37.000
72.85288 41.000
72.87282 42.000
72.89277 47.000
72.91272 47.000
72.93266 46.000
72.95261 47.000
72.97256 45.000
72.99251 38.000
73.01245 32.000
73.03240 33.000
73.05235 36.000
73.07229 37.000
73.09224 47.000
73.11219 53.000
73.13213 51.000
73.15208 46.000
73.17203 51.000
73.19197 47.000
73.21192 52.000
73.23187 47.000
73.25182 54.000
73.27176 65.000
73.29171 57.000
73.31166 63.000
73.33160 58.000
73.35155 68.000
73.37150 84.000
73.39144 69.000
73.41139 73.000
73.43134 80.000
73.45129 95.000
73.47123 116.000
73.49118 126.000
73.51113 139.000
73.53107 153.000
73.55102 176.000
73.57097 165.000
73.59091 191.000
73.61086 187.000
73.63081 193.000
73.65076 162.000
73.67070 175.000
73.69065 166.000
73.71060 171.000
73.73054 135.000
73.75049 123.000
73.77044 124.000
73.79038 138.000
73.81033 126.000
73.83028 125.000
73.85022 108.000
73.87017 82.000
73.89012 100.000
73.91007 90.000
73.93001 80.000
73.94996 68.000
73.96991 68.000
73.98985 58.000
74.00980 63.000
74.02975 71.000
74.04969 63.000
74.06964 61.000
74.08959 45.000
74.10954 74.000
74.12948 57.000
74.14943 50.000
74.16938 46.000
74.18932 53.000
74.20927 49.000
74.22922 53.000
74.24916 51.000
74.26911 45.000
74.28906 69.000
74.30900 57.000
74.32895 50.000
74.34890 44.000
74.36885 60.000
74.38879 51.000
74.40874 56.000
74.42869 43.000
74.44863 53.000
74.46858 58.000
74.48853 59.000
74.50847 46.000
74.52842 49.000
74.54837 43.000
74.56832 48.000
74.58826 46.000
74.60821 46.000
74.62816 56.000
74.64810 44.000
74.66805 44.000
74.68800 34.000
74.70794 61.000
74.72789 50.000
74.74784 46.000
74.76778 34.000
74.78773 40.000
74.80768 49.000
74.82763 35.000
74.84757 52.000
74.86752 45.000
74.88747 47.000
74.90741 45.000
74.92736 63.000
74.94731 38.000
74.96725 34.000
74.98720 49.000
75.00715 39.000
75.02710 39.000
75.04704 47.000
75.06699 41.000
75.08694 50.000
75.10688 47.000
75.12683 42.000
75.14678 50.000
75.16672 49.000
75.18667 45.000
75.20662 39.000
75.22657 46.000
75.24651 52.000
75.26646 45.000
75.28641 39.000
75.30635 43.000
75.32630 38.000
75.34625 57.000
75.36619 35.000
75.38614 46.000
75.40609 48.000
75.42603 51.000
75.44598 55.000
75.46593 36.000
75.48588 35.000
75.50582 37.000
75.52577 36.000
75.54572 52.000
75.56566 48.000
75.58561 46.000
75.60556 42.000
75.62550 51.000
75.64545 39.000
75.66540 48.000
75.68535 69.000
75.70529 44.000
75.72524 61.000
75.74519 66.000
75.76513 72.000
75.78508 64.000
75.80503 60.000
75.82497 71.000
75.84492 74.000
75.86487 74.000
75.88481 103.000
75.90476 77.000
75.92471 94.000
75.94466 71.000
75.96460 91.000
75.98455 83.000
76.00450 82.000
76.02444 105.000
76.04439 79.000
76.06434 95.000
76.08428 83.000
76.10423 91.000
76.12418 90.000
76.14413 74.000
76.16407 83.000
76.18402 70.000
76.20397 62.000
76.22391 69.000
76.24386 77.000
76.26381 60.000
76.28375 87.000
76.30370 58.000
76.32365 59.000
76.34359 54.000
76.36354 52.000
76.38349 45.000
76.40344 46.000
76.42338 55.000
76.44333 52.000
76.46328 45.000
76.48322 44.000
76.50317 42.000
76.52312 36.000
76.54306 44.000
76.56301 45.000
76.58296 57.000
76.60291 63.000
76.62285 48.000
76.64280 42.000
76.66275 53.000
76.68269 44.000
76.70264 51.000
76.72259 51.000
76.74253 54.000
76.76248 49.000
76.78243 49.000
76.80238 42.000
76.82232 51.000
76.84227 56.000
76.86222 46.000
76.88216 45.000
76.90211 40.000
76.92206 49.000
76.94200 35.000
76.96195 54.000
76.98190 42.000
77.00184 46.000
77.02179 39.000
77.04174 41.000
77.06169 52.000
77.08163 52.000
77.10158 56.000
77.12153 52.000
77.14147 49.000
77.16142 55.000
77.18137 51.000
77.20131 36.000
77.22126 71.000
77.24121 58.000
77.26116 65.000
77.28110 65.000
77.30105 64.000
77.32100 55.000
77.34094 64.000
77.36089 58.000
77.38084 62.000
77.40078 83.000
77.42073 77.000
77.44068 64.000
77.46062 85.000
77.48057 100.000
77.50052 81.000
77.52047 92.000
77.54041 124.000
77.56036 105.000
77.58031 108.000
77.60025 125.000
77.62020 125.000
77.64015 132.000
77.66009 133.000
77.68004 150.000
77.69999 170.000
77.71994 173.000
77.73988 160.000
77.75983 154.000
77.77978 146.000
77.79972 206.000
77.81967 169.000
77.83962 149.000
77.85956 179.000
77.87951 144.000
77.89946 174.000
77.91940 168.000
77.93935 162.000
77.95930 161.000
77.97925 143.000
77.99919 166.000
78.01914 174.000
78.03909 170.000
78.05903 211.000
78.07898 187.000
78.09893 166.000
78.11887 149.000
78.13882 180.000
78.15877 224.000
78.17872 157.000
78.19866 166.000
78.21861 182.000
78.23856 151.000
78.25850 132.000
78.27845 145.000
78.29840 150.000
78.31834 131.000
78.33829 131.000
78.35824 121.000
78.37819 140.000
78.39813 126.000
78.41808 113.000
78.43803 105.000
78.45797 98.000
78.47792 85.000
78.49787 76.000
78.51781 99.000
78.53776 74.000
78.55771 66.000
78.57765 77.000
78.59760 68.000
78.61755 60.000
78.63750 50.000
78.65744 64.000
78.67739 65.000
78.69734 52.000
78.71728 68.000
78.73723 54.000
78.75718 56.000
78.77712 41.000
78.79707 48.000
78.81702 46.000
78.83697 56.000
78.85691 54.000
78.87686 49.000
78.89681 46.000
78.91675 49.000
78.93670 41.000
78.95665 37.000
78.97659 51.000
78.99654 44.000
79.01649 54.000
79.03643 50.000
79.05638 47.000
79.07633 35.000
79.09628 51.000
79.11622 46.000
79.13617 56.000
79.15612 53.000
79.17606 43.000
79.19601 41.000
79.21596 49.000
79.23590 40.000
79.25585 45.000
79.27580 37.000
79.29575 39.000
79.31569 44.000
79.33564 53.000
79.35559 33.000
79.37553 42.000
79.39548 39.000
79.41543 52.000
79.43537 53.000
79.45532 47.000
79.47527 47.000
79.49521 35.000
79.51516 40.000
79.53511 46.000
79.55506 40.000
79.57500 36.000
79.59495 46.000
79.61490 43.000
79.63484 47.000
79.65479 41.000
79.67474 40.000
79.69468 43.000
79.71463 54.000
79.73458 40.000
79.75453 44.000
79.77447 35.000
79.79442 41.000
79.81437 40.000
79.83431 36.000
79.85426 40.000
79.87421 36.000
79.89415 37.000
79.91410 41.000
79.93405 41.000
79.95399 36.000
79.97394 41.000
79.99389 47.000
80.01384 35.000
80.03378 39.000
80.05373 50.000
80.07368 43.000
80.09362 41.000
80.11357 43.000
80.13352 37.000
80.15346 45.000
80.17341 39.000
80.19336 43.000
80.21331 49.000
80.23325 35.000
80.25320 51.000
80.27315 35.000
80.29309 37.000
80.31304 41.000
80.33299 52.000
80.35293 41.000
80.37288 39.000
80.39283 37.000
80.41278 41.000
80.43272 34.000
80.45267 56.000
80.47262 38.000
80.49256 42.000
80.51251 50.000
80.53246 50.000
80.55240 33.000
80.57235 29.000
80.59230 48.000
80.61224 52.000
80.63219 48.000
80.65214 37.000
80.67209 55.000
80.69203 48.000
80.71198 51.000
80.73193 57.000
80.75187 55.000
80.77182 57.000
80.79177 56.000
80.81171 64.000
80.83166 66.000
80.85161 50.000
80.87156 74.000
80.89150 59.000
80.91145 63.000
80.93140 65.000
80.95134 59.000
80.97129 55.000
80.99124 70.000
81.01118 66.000
81.03113 60.000
81.05108 66.000
81.07102 52.000
81.09097 51.000
81.11092 57.000
81.13087 42.000
81.15081 31.000
81.17076 48.000
81.19071 48.000
81.21065 44.000
81.23060 44.000
81.25055 47.000
81.27049 40.000
81.29044 36.000
81.31039 44.000
81.33034 51.000
81.35028 51.000
81.37023 39.000
81.39018 43.000
81.41012 32.000
81.43007 44.000
81.45002 48.000
81.46996 44.000
81.48991 54.000
81.50986 42.000
81.52980 42.000
81.54975 43.000
81.56970 47.000
81.58965 46.000
81.60959 46.000
81.62954 26.000
81.64949 39.000
81.66943 37.000
81.68938 43.000
81.70933 40.000
81.72927 38.000
81.74922 43.000
81.76917 41.000
81.78912 47.000
81.80906 34.000
81.82901 51.000
81.84896 55.000
81.86890 36.000
81.88885 40.000
81.90880 36.000
81.92874 46.000
81.94869 29.000
81.96864 29.000
81.98859 39.000
82.00853 36.000
82.02848 28.000
82.04843 30.000
82.06837 32.000
82.08832 41.000
82.10827 38.000
82.12821 24.000
82.14816 38.000
82.16811 33.000
82.18805 38.000
82.20800 41.000
82.22795 39.000
82.24790 42.000
82.26784 32.000
82.28779 37.000
82.30774 43.000
82.32768 39.000
82.34763 47.000
82.36758 48.000
82.38752 46.000
82.40747 50.000
82.42742 46.000
82.44737 34.000
82.46731 36.000
82.48726 44.000
82.50721 42.000
82.52715 46.000
82.54710 44.000
82.56705 37.000
82.58699 42.000
82.60694 41.000
82.62689 41.000
82.64683 42.000
82.66678 53.000
82.68673 49.000
82.70668 39.000
82.72662 37.000
82.74657 40.000
82.76652 37.000
82.78646 35.000
82.80641 44.000
82.82636 38.000
82.84630 34.000
82.86625 39.000
82.88620 42.000
82.90615 44.000
82.92609 37.000
82.94604 41.000
82.96599 34.000
82.98593 36.000
83.00588 40.000
83.02583 36.000
83.04577 37.000
83.06572 39.000
83.08567 34.000
83.10561 34.000
83.12556 38.000
83.14551 31.000
83.16546 31.000
83.18540 50.000
83.20535 42.000
83.22530 39.000
83.24524 41.000
83.26519 48.000
83.28514 37.000
83.30508 46.000
83.32503 41.000
83.34498 27.000
83.36493 35.000
83.38487 41.000
83.40482 35.000
83.42477 42.000
83.44471 43.000
83.46466 40.000
83.48461 47.000
83.50455 42.000
83.52450 42.000
83.54445 37.000
83.56440 43.000
83.58434 65.000
83.60429 44.000
83.62424 43.000
83.64418 36.000
83.66413 50.000
83.68408 42.000
83.70402 40.000
83.72397 41.000
83.74392 55.000
83.76386 48.000
83.78381 50.000
83.80376 43.000
83.82371 33.000
83.84365 42.000
83.86360 42.000
83.88355 34.000
83.90349 43.000
83.92344 38.000
83.94339 56.000
83.96333 53.000
83.98328 48.000
84.00323 54.000
84.02318 36.000
84.04312 45.000
84.06307 58.000
84.08302 31.000
84.10296 64.000
84.12291 44.000
84.14286 50.000
84.16280 61.000
84.18275 59.000
84.20270 54.000
84.22264 65.000
84.24259 55.000
84.26254 57.000
84.28249 57.000
84.30243 64.000
84.32238 75.000
84.34233 81.000
84.36227 73.000
84.38222 88.000
84.40217 84.000
84.42211 89.000
84.44206 99.000
84.46201 107.000
84.48196 153.000
84.50190 110.000
84.52185 142.000
84.54180 142.000
84.56174 150.000
84.58169 158.000
84.60164 163.000
84.62158 165.000
84.64153 147.000
84.66148 180.000
84.68142 157.000
84.70137 149.000
84.72132 147.000
84.74127 160.000
84.76121 137.000
84.78116 169.000
84.80111 127.000
84.82105 148.000
84.84100 137.000
84.86095 124.000
84.88089 118.000
84.90084 131.000
84.92079 110.000
84.94074 131.000
84.96068 103.000
84.98063 105.000
85.00058 119.000
85.02052 93.000
85.04047 90.000
85.06042 74.000
85.08036 79.000
85.10031 73.000
85.12026 82.000
85.14021 61.000
85.16015 60.000
85.18010 56.000
85.20005 62.000
85.21999 58.000
85.23994 59.000
85.25989 68.000
85.27983 53.000
85.29978 51.000
85.31973 52.000
85.33967 62.000
85.35962 55.000
85.37957 45.000
85.39952 41.000
85.41946 58.000
85.43941 48.000
85.45936 43.000
85.47930 58.000
85.49925 46.000
85.51920 39.000
85.53914 58.000
85.55909 64.000
85.57904 48.000
85.59899 49.000
85.61893 47.000
85.63888 51.000
85.65883 35.000
85.67877 52.000
85.69872 43.000
85.71867 54.000
85.73861 43.000
85.75856 51.000
85.77851 47.000
85.79845 52.000
85.81840 47.000
85.83835 38.000
85.85830 60.000
85.87824 39.000
85.89819 47.000
85.91814 48.000
85.93808 54.000
85.95803 40.000
85.97798 60.000
85.99792 51.000
86.01787 58.000
86.03782 57.000
86.05777 52.000
86.07771 49.000
86.09766 49.000
86.11761 50.000
86.13755 59.000
86.15750 52.000
86.17745 52.000
86.19739 58.000
86.21734 42.000
86.23729 48.000
86.25723 61.000
86.27718 50.000
86.29713 49.000
86.31708 54.000
86.33702 56.000
86.35697 55.000
86.37692 59.000
86.39686 57.000
86.41681 57.000
86.43676 51.000
86.45670 43.000
86.47665 38.000
86.49660 56.000
86.51655 49.000
86.53649 52.000
86.55644 57.000
86.57639 50.000
86.59633 48.000
86.61628 51.000
86.63623 71.000
86.65617 54.000
86.67612 53.000
86.69607 37.000
86.71602 45.000
86.73596 55.000
86.75591 61.000
86.77586 48.000
86.79580 63.000
86.81575 53.000
86.83570 57.000
86.85564 57.000
86.87559 51.000
86.89554 64.000
86.91548 63.000
86.93543 58.000
86.95538 43.000
86.97533 56.000
86.99527 51.000
87.01522 47.000
87.03517 50.000
87.05511 56.000
87.07506 63.000
87.09501 41.000
87.11495 62.000
87.13490 54.000
87.15485 60.000
87.17480 56.000
87.19474 47.000
87.21469 59.000
87.23464 43.000
87.25458 56.000
87.27453 46.000
87.29448 61.000
87.31442 54.000
87.33437 49.000
87.35432 58.000
87.37426 44.000
87.39421 45.000
87.41416 43.000
87.43411 43.000
87.45405 48.000
87.47400 50.000
87.49395 57.000
87.51389 38.000
87.53384 42.000
87.55379 49.000
87.57373 38.000
87.59368 41.000
87.61363 49.000
87.63358 53.000
87.65352 34.000
87.67347 49.000
87.69342 38.000
87.71336 47.000
87.73331 38.000
87.75326 38.000
87.77320 37.000
87.79315 41.000
87.81310 40.000
87.83304 36.000
87.85299 53.000
87.87294 47.000
87.89289 42.000
87.91283 42.000
87.93278 40.000
87.95273 46.000
87.97267 39.000
87.99262 33.000
88.01257 41.000
88.03251 40.000
88.05246 52.000
88.07241 39.000
88.09236 35.000
88.11230 54.000
88.13225 32.000
88.15220 32.000
88.17214 33.000
88.19209 47.000
88.21204 39.000
88.23198 34.000
88.25193 43.000
88.27188 27.000
88.29183 23.000
88.31177 39.000
88.33172 36.000
88.35167 34.000
88.37161 34.000
88.39156 34.000
88.41151 37.000
88.43145 37.000
88.45140 36.000
88.47135 33.000
88.49129 35.000
88.51124 42.000
88.53119 34.000
88.55114 38.000
88.57108 41.000
88.59103 34.000
88.61098 42.000
88.63092 34.000
88.65087 45.000
88.67082 37.000
88.69076 27.000
88.71071 43.000
88.73066 52.000
88.75061 36.000
88.77055 32.000
88.79050 35.000
88.81045 37.000
88.83039 32.000
88.85034 34.000
88.87029 42.000
88.89023 36.000
88.91018 48.000
88.93013 48.000
88.95007 34.000
88.97002 43.000
88.98997 30.000
89.00992 38.000
89.02986 39.000
89.04981 42.000
89.06976 41.000
89.08970 48.000
89.10965 56.000
89.12960 29.000
89.14954 28.000
89.16949 52.000
89.18944 42.000
89.20939 46.000
89.22933 46.000
89.24928 34.000
89.26923 36.000
89.28917 41.000
89.30912 36.000
89.32907 42.000
89.34901 40.000
89.36896 32.000
89.38891 46.000
89.40885 38.000
89.42880 33.000
89.44875 34.000
89.46870 46.000
89.48864 44.000
89.50859 31.000
89.52854 33.000
89.54848 38.000
89.56843 37.000
89.58838 41.000
89.60832 37.000
89.62827 44.000
89.64822 41.000
89.66817 35.000
89.68811 44.000
89.70806 43.000
89.72801 40.000
89.74795 41.000
89.76790 51.000
89.78785 43.000
89.80779 36.000
89.82774 47.000
89.84769 38.000
89.86764 46.000
89.88758 50.000
89.90753 62.000
89.92748 53.000
89.94742 49.000
89.96737 51.000
89.98732 54.000
90.00726 38.000
