10.00000 165.000
10.01995 131.000
10.03989 150.000
10.05984 147.000
10.07979 160.000
10.09973 163.000
10.11968 166.000
10.13963 156.000
10.15958 158.000
10.17952 141.000
10.19947 157.000
10.21942 161.000
10.23936 151.000
10.25931 129.000
10.27926 137.000
10.29920 153.000
10.31915 163.000
10.33910 162.000
10.35905 159.000
10.37899 153.000
10.39894 154.000
10.41889 149.000
10.43883 160.000
10.45878 173.000
10.47873 153.000
10.49867 161.000
10.51862 162.000
10.53857 136.000
10.55851 158.000
10.57846 143.000
10.59841 148.000
10.61836 149.000
10.63830 151.000
10.65825 150.000
10.67820 144.000
10.69814 163.000
10.71809 155.000
10.73804 148.000
10.75798 143.000
10.77793 183.000
10.79788 148.000
10.81783 160.000
10.83777 155.000
10.85772 162.000
10.87767 156.000
10.89761 143.000
10.91756 152.000
10.93751 160.000
10.95745 158.000
10.97740 141.000
10.99735 160.000
11.01730 159.000
11.03724 177.000
11.05719 125.000
11.07714 157.000
11.09708 151.000
11.11703 171.000
11.13698 166.000
11.15692 159.000
11.17687 155.000
11.19682 177.000
11.21676 160.000
11.23671 170.000
11.25666 144.000
11.27661 152.000
11.29655 166.000
11.31650 157.000
11.33645 149.000
11.35639 144.000
11.37634 160.000
11.39629 147.000
11.41623 164.000
11.43618 166.000
11.45613 171.000
11.47608 151.000
11.49602 162.000
11.51597 164.000
11.53592 144.000
11.55586 163.000
11.57581 170.000
11.59576 149.000
11.61570 161.000
11.63565 154.000
11.65560 150.000
11.67554 160.000
11.69549 153.000
11.71544 159.000
11.73539 149.000
11.75533 161.000
11.77528 184.000
11.79523 146.000
11.81517 148.000
11.83512 144.000
11.85507 152.000
11.87501 156.000
11.89496 174.000
11.91491 149.000
11.93486 160.000
11.95480 144.000
11.97475 153.000
11.99470 161.000
12.01464 166.000
12.03459 189.000
12.05454 149.000
12.07448 167.000
12.09443 152.000
12.11438 157.000
12.13432 153.000
12.15427 180.000
12.17422 141.000
12.19417 172.000
12.21411 146.000
12.23406 179.000
12.25401 159.000
12.27395 164.000
12.29390 157.000
12.31385 159.000
12.33379 138.000
12.35374 132.000
12.37369 170.000
12.39364 159.000
12.41358 161.000
12.43353 143.000
12.45348 177.000
12.47342 159.000
12.49337 147.000
12.51332 150.000
12.53326 127.000
12.55321 144.000
12.57316 133.000
12.59311 166.000
12.61305 175.000
12.63300 157.000
12.65295 120.000
12.67289 157.000
12.69284 169.000
12.71279 152.000
12.73273 146.000
12.75268 167.000
12.77263 176.000
12.79257 153.000
12.81252 162.000
12.83247 164.000
12.85242 165.000
12.87236 165.000
12.89231 146.000
12.91226 164.000
12.93220 133.000
12.95215 154.000
12.97210 167.000
12.99204 183.000
13.01199 157.000
13.03194 165.000
13.05189 151.000
13.07183 139.000
13.09178 166.000
13.11173 141.000
13.13167 161.000
13.15162 151.000
13.17157 132.000
13.19151 131.000
13.21146 173.000
13.23141 172.000
13.25135 170.000
13.27130 162.000
13.29125 161.000
13.31120 186.000
13.33114 160.000
13.35109 153.000
13.37104 155.000
13.39098 138.000
13.41093 130.000
13.43088 140.000
13.45082 153.000
13.47077 146.000
13.49072 152.000
13.51067 155.000
13.53061 166.000
13.55056 159.000
13.57051 176.000
13.59045 150.000
13.61040 156.000
13.63035 139.000
13.65029 177.000
13.67024 164.000
13.69019 151.000
13.71013 156.000
13.73008 169.000
13.75003 149.000
13.76998 145.000
13.78992 160.000
13.80987 149.000
13.82982 154.000
13.84976 153.000
13.86971 146.000
13.88966 160.000
13.90960 154.000
13.92955 164.000
13.94950 164.000
13.96945 145.000
13.98939 150.000
14.00934 139.000
14.02929 148.000
14.04923 153.000
14.06918 156.000
14.08913 156.000
14.10907 163.000
14.12902 160.000
14.14897 156.000
14.16892 139.000
14.18886 156.000
14.20881 164.000
14.22876 153.000
14.24870 142.000
14.26865 176.000
14.28860 162.000
14.30854 180.000
14.32849 162.000
14.34844 140.000
14.36838 160.000
14.38833 142.000
14.40828 173.000
14.42823 151.000
14.44817 149.000
14.46812 141.000
14.48807 168.000
14.50801 161.000
14.52796 179.000
14.54791 182.000
14.56785 140.000
14.58780 159.000
14.60775 169.000
14.62770 167.000
14.64764 145.000
14.66759 166.000
14.68754 175.000
14.70748 163.000
14.72743 158.000
14.74738 147.000
14.76732 165.000
14.78727 155.000
14.80722 140.000
14.82716 154.000
14.84711 140.000
14.86706 160.000
14.88701 179.000
14.90695 189.000
14.92690 145.000
14.94685 172.000
14.96679 132.000
14.98674 153.000
15.00669 146.000
15.02663 167.000
15.04658 128.000
15.06653 173.000
15.08648 153.000
15.10642 159.000
15.12637 173.000
15.14632 172.000
15.16626 143.000
15.18621 165.000
15.20616 186.000
15.22610 144.000
15.24605 188.000
15.26600 170.000
15.28594 159.000
15.30589 161.000
15.32584 170.000
15.34579 164.000
15.36573 151.000
15.38568 177.000
15.40563 172.000
15.42557 170.000
15.44552 160.000
15.46547 179.000
15.48541 180.000
15.50536 165.000
15.52531 168.000
15.54526 185.000
15.56520 159.000
15.58515 197.000
15.60510 165.000
15.62504 197.000
15.64499 191.000
15.66494 201.000
15.68488 193.000
15.70483 237.000
15.72478 222.000
15.74472 233.000
15.76467 286.000
15.78462 308.000
15.80457 351.000
15.82451 493.000
15.84446 586.000
15.86441 757.000
15.88435 795.000
15.90430 758.000
15.92425 645.000
15.94419 535.000
15.96414 411.000
15.98409 377.000
16.00404 312.000
16.02398 300.000
16.04393 344.000
16.06388 338.000
16.08382 377.000
16.10377 405.000
16.12372 503.000
16.14366 583.000
16.16361 678.000
16.18356 837.000
16.20351 1098.000
16.22345 1247.000
16.24340 1580.000
16.26335 1906.000
16.28329 2247.000
16.30324 2526.000
16.32319 2815.000
16.34313 2795.000
16.36308 2530.000
16.38303 2244.000
16.40297 1780.000
16.42292 1463.000
16.44287 1146.000
16.46282 822.000
16.48276 647.000
16.50271 475.000
16.52266 369.000
16.54260 340.000
16.56255 285.000
16.58250 237.000
16.60244 251.000
16.62239 223.000
16.64234 224.000
16.66229 212.000
16.68223 234.000
16.70218 226.000
16.72213 227.000
16.74207 208.000
16.76202 224.000
16.78197 224.000
16.80191 256.000
16.82186 209.000
16.84181 230.000
16.86175 222.000
16.88170 236.000
16.90165 249.000
16.92160 193.000
16.94154 214.000
16.96149 211.000
16.98144 202.000
17.00138 166.000
17.02133 160.000
17.04128 164.000
17.06122 185.000
17.08117 168.000
17.10112 180.000
17.12107 165.000
17.14101 159.000
17.16096 167.000
17.18091 190.000
17.20085 156.000
17.22080 173.000
17.24075 158.000
17.26069 171.000
17.28064 158.000
17.30059 132.000
17.32053 181.000
17.34048 159.000
17.36043 164.000
17.38038 165.000
17.40032 156.000
17.42027 157.000
17.44022 178.000
17.46016 184.000
17.48011 169.000
17.50006 172.000
17.52000 148.000
17.53995 165.000
17.55990 150.000
17.57985 163.000
17.59979 148.000
17.61974 164.000
17.63969 152.000
17.65963 159.000
17.67958 153.000
17.69953 196.000
17.71947 146.000
17.73942 168.000
17.75937 169.000
17.77932 182.000
17.79926 159.000
17.81921 158.000
17.83916 170.000
17.85910 178.000
17.87905 174.000
17.89900 165.000
17.91894 164.000
17.93889 163.000
17.95884 153.000
17.97878 162.000
17.99873 154.000
18.01868 142.000
18.03863 169.000
18.05857 164.000
18.07852 160.000
18.09847 136.000
18.11841 154.000
18.13836 163.000
18.15831 148.000
18.17825 168.000
18.19820 193.000
18.21815 154.000
18.23810 187.000
18.25804 178.000
18.27799 170.000
18.29794 177.000
18.31788 145.000
18.33783 181.000
18.35778 159.000
18.37772 182.000
18.39767 221.000
18.41762 183.000
18.43756 223.000
18.45751 198.000
18.47746 184.000
18.49741 187.000
18.51735 189.000
18.53730 176.000
18.55725 164.000
18.57719 173.000
18.59714 169.000
18.61709 144.000
18.63703 177.000
18.65698 159.000
18.67693 158.000
18.69688 159.000
18.71682 176.000
18.73677 189.000
18.75672 148.000
18.77666 155.000
18.79661 159.000
18.81656 164.000
18.83650 166.000
18.85645 159.000
18.87640 155.000
18.89634 175.000
18.91629 147.000
18.93624 151.000
18.95619 173.000
18.97613 161.000
18.99608 169.000
19.01603 177.000
19.03597 129.000
19.05592 160.000
19.07587 173.000
19.09581 157.000
19.11576 164.000
19.13571 177.000
19.15566 165.000
19.17560 147.000
19.19555 146.000
19.21550 153.000
19.23544 178.000
19.25539 154.000
19.27534 158.000
19.29528 159.000
19.31523 151.000
19.33518 149.000
19.35513 145.000
19.37507 142.000
19.39502 157.000
19.41497 161.000
19.43491 159.000
19.45486 157.000
19.47481 153.000
19.49475 168.000
19.51470 140.000
19.53465 142.000
19.55459 154.000
19.57454 144.000
19.59449 161.000
19.61444 159.000
19.63438 137.000
19.65433 150.000
19.67428 151.000
19.69422 166.000
19.71417 166.000
19.73412 175.000
19.75406 156.000
19.77401 147.000
19.79396 161.000
19.81391 164.000
19.83385 141.000
19.85380 160.000
19.87375 167.000
19.89369 184.000
19.91364 171.000
19.93359 167.000
19.95353 165.000
19.97348 165.000
19.99343 150.000
20.01337 160.000
20.03332 165.000
20.05327 149.000
20.07322 153.000
20.09316 171.000
20.11311 158.000
20.13306 155.000
20.15300 159.000
20.17295 148.000
20.19290 135.000
20.21284 181.000
20.23279 167.000
20.25274 170.000
20.27269 147.000
20.29263 168.000
20.31258 162.000
20.33253 172.000
20.35247 156.000
20.37242 131.000
20.39237 189.000
20.41231 153.000
20.43226 140.000
20.45221 183.000
20.47215 155.000
20.49210 162.000
20.51205 153.000
20.53200 153.000
20.55194 166.000
20.57189 149.000
20.59184 203.000
20.61178 171.000
20.63173 169.000
20.65168 170.000
20.67162 160.000
20.69157 170.000
20.71152 175.000
20.73147 153.000
20.75141 199.000
20.77136 174.000
20.79131 209.000
20.81125 208.000
20.83120 223.000
20.85115 187.000
20.87109 218.000
20.89104 213.000
20.91099 193.000
20.93094 204.000
20.95088 211.000
20.97083 205.000
20.99078 219.000
21.01072 266.000
21.03067 214.000
21.05062 211.000
21.07056 197.000
21.09051 215.000
21.11046 203.000
21.13040 178.000
21.15035 179.000
21.17030 167.000
21.19025 167.000
21.21019 171.000
21.23014 184.000
21.25009 149.000
21.27003 158.000
21.28998 178.000
21.30993 138.000
21.32987 141.000
21.34982 159.000
21.36977 157.000
21.38972 169.000
21.40966 154.000
21.42961 156.000
21.44956 171.000
21.46950 140.000
21.48945 159.000
21.50940 145.000
21.52934 164.000
21.54929 144.000
21.56924 149.000
21.58918 148.000
21.60913 144.000
21.62908 157.000
21.64903 171.000
21.66897 145.000
21.68892 177.000
21.70887 163.000
21.72881 149.000
21.74876 166.000
21.76871 126.000
21.78865 142.000
21.80860 175.000
21.82855 155.000
21.84850 156.000
21.86844 138.000
21.88839 143.000
21.90834 144.000
21.92828 148.000
21.94823 150.000
21.96818 170.000
21.98812 159.000
22.00807 162.000
22.02802 153.000
22.04796 179.000
22.06791 148.000
22.08786 141.000
22.10781 160.000
22.12775 153.000
22.14770 153.000
22.16765 143.000
22.18759 148.000
22.20754 152.000
22.22749 157.000
22.24743 149.000
22.26738 130.000
22.28733 152.000
22.30728 169.000
22.32722 163.000
22.34717 146.000
22.36712 158.000
22.38706 156.000
22.40701 149.000
22.42696 148.000
22.44690 163.000
22.46685 160.000
22.48680 150.000
22.50675 176.000
22.52669 142.000
22.54664 153.000
22.56659 169.000
22.58653 161.000
22.60648 173.000
22.62643 180.000
22.64637 155.000
22.66632 162.000
22.68627 176.000
22.70621 175.000
22.72616 149.000
22.74611 176.000
22.76606 158.000
22.78600 164.000
22.80595 160.000
22.82590 156.000
22.84584 153.000
22.86579 155.000
22.88574 146.000
22.90568 147.000
22.92563 165.000
22.94558 155.000
22.96553 141.000
22.98547 150.000
23.00542 127.000
23.02537 158.000
23.04531 140.000
23.06526 178.000
23.08521 172.000
23.10515 184.000
23.12510 144.000
23.14505 155.000
23.16499 166.000
23.18494 171.000
23.20489 144.000
23.22484 140.000
23.24478 156.000
23.26473 157.000
23.28468 178.000
23.30462 167.000
23.32457 151.000
23.34452 194.000
23.36446 153.000
23.38441 141.000
23.40436 157.000
23.42431 157.000
23.44425 174.000
23.46420 150.000
23.48415 161.000
23.50409 150.000
23.52404 164.000
23.54399 152.000
23.56393 163.000
23.58388 190.000
23.60383 134.000
23.62377 148.000
23.64372 165.000
23.66367 156.000
23.68362 166.000
23.70356 166.000
23.72351 158.000
23.74346 170.000
23.76340 162.000
23.78335 158.000
23.80330 190.000
23.82324 159.000
23.84319 147.000
23.86314 148.000
23.88309 157.000
23.90303 135.000
23.92298 180.000
23.94293 155.000
23.96287 175.000
23.98282 174.000
24.00277 162.000
24.02271 163.000
24.04266 145.000
24.06261 170.000
24.08256 161.000
24.10250 161.000
24.12245 159.000
24.14240 168.000
24.16234 157.000
24.18229 159.000
24.20224 168.000
24.22218 168.000
24.24213 163.000
24.26208 161.000
24.28202 144.000
24.30197 181.000
24.32192 151.000
24.34187 154.000
24.36181 188.000
24.38176 155.000
24.40171 178.000
24.42165 180.000
24.44160 149.000
24.46155 150.000
24.48149 145.000
24.50144 191.000
24.52139 172.000
24.54134 131.000
24.56128 147.000
24.58123 163.000
24.60118 153.000
24.62112 154.000
24.64107 167.000
24.66102 170.000
24.68096 151.000
24.70091 154.000
24.72086 171.000
24.74080 148.000
24.76075 174.000
24.78070 165.000
24.80065 132.000
24.82059 200.000
24.84054 151.000
24.86049 130.000
24.88043 180.000
24.90038 163.000
24.92033 174.000
24.94027 184.000
24.96022 188.000
24.98017 183.000
25.00012 189.000
25.02006 169.000
25.04001 154.000
25.05996 164.000
25.07990 163.000
25.09985 161.000
25.11980 178.000
25.13974 153.000
25.15969 161.000
25.17964 167.000
25.19958 156.000
25.21953 155.000
25.23948 163.000
25.25943 168.000
25.27937 180.000
25.29932 185.000
25.31927 160.000
25.33921 183.000
25.35916 185.000
25.37911 188.000
25.39905 152.000
25.41900 161.000
25.43895 176.000
25.45890 180.000
25.47884 149.000
25.49879 186.000
25.51874 155.000
25.53868 162.000
25.55863 158.000
25.57858 152.000
25.59852 162.000
25.61847 160.000
25.63842 159.000
25.65837 159.000
25.67831 172.000
25.69826 157.000
25.71821 183.000
25.73815 168.000
25.75810 165.000
25.77805 177.000
25.79799 181.000
25.81794 171.000
25.83789 153.000
25.85783 162.000
25.87778 162.000
25.89773 160.000
25.91768 154.000
25.93762 164.000
25.95757 180.000
25.97752 145.000
25.99746 170.000
26.01741 182.000
26.03736 163.000
26.05730 182.000
26.07725 148.000
26.09720 170.000
26.11715 158.000
26.13709 170.000
26.15704 161.000
26.17699 179.000
26.19693 168.000
26.21688 200.000
26.23683 149.000
26.25677 173.000
26.27672 164.000
26.29667 172.000
26.31661 173.000
26.33656 198.000
26.35651 172.000
26.37646 175.000
26.39640 140.000
26.41635 154.000
26.43630 162.000
26.45624 190.000
26.47619 189.000
26.49614 171.000
26.51608 169.000
26.53603 168.000
26.55598 158.000
26.57593 164.000
26.59587 163.000
26.61582 142.000
26.63577 151.000
26.65571 146.000
26.67566 130.000
26.69561 169.000
26.71555 177.000
26.73550 161.000
26.75545 161.000
26.77539 159.000
26.79534 135.000
26.81529 153.000
26.83524 180.000
26.85518 179.000
26.87513 176.000
26.89508 185.000
26.91502 150.000
26.93497 171.000
26.95492 165.000
26.97486 161.000
26.99481 177.000
27.01476 181.000
27.03471 182.000
27.05465 173.000
27.07460 183.000
27.09455 172.000
27.11449 167.000
27.13444 164.000
27.15439 179.000
27.17433 164.000
27.19428 168.000
27.21423 148.000
27.23417 182.000
27.25412 163.000
27.27407 170.000
27.29402 160.000
27.31396 176.000
27.33391 169.000
27.35386 172.000
27.37380 173.000
27.39375 158.000
27.41370 183.000
27.43364 151.000
27.45359 152.000
27.47354 151.000
27.49349 174.000
27.51343 165.000
27.53338 193.000
27.55333 185.000
27.57327 175.000
27.59322 162.000
27.61317 198.000
27.63311 192.000
27.65306 155.000
27.67301 154.000
27.69296 178.000
27.71290 164.000
27.73285 158.000
27.75280 157.000
27.77274 171.000
27.79269 173.000
27.81264 143.000
27.83258 157.000
27.85253 173.000
27.87248 177.000
27.89242 178.000
27.91237 179.000
27.93232 197.000
27.95227 163.000
27.97221 163.000
27.99216 184.000
28.01211 170.000
28.03205 177.000
28.05200 155.000
28.07195 181.000
28.09189 172.000
28.11184 164.000
28.13179 146.000
28.15174 149.000
28.17168 162.000
28.19163 174.000
28.21158 192.000
28.23152 158.000
28.25147 159.000
28.27142 196.000
28.29136 153.000
28.31131 160.000
28.33126 182.000
28.35120 183.000
28.37115 183.000
28.39110 165.000
28.41105 177.000
28.43099 178.000
28.45094 166.000
28.47089 164.000
28.49083 181.000
28.51078 171.000
28.53073 159.000
28.55067 173.000
28.57062 168.000
28.59057 172.000
28.61052 174.000
28.63046 170.000
28.65041 176.000
28.67036 172.000
28.69030 156.000
28.71025 172.000
28.73020 183.000
28.75014 162.000
28.77009 164.000
28.79004 178.000
28.80998 151.000
28.82993 193.000
28.84988 192.000
28.86983 170.000
28.88977 202.000
28.90972 163.000
28.92967 173.000
28.94961 170.000
28.96956 170.000
28.98951 186.000
29.00945 152.000
29.02940 162.000
29.04935 151.000
29.06930 192.000
29.08924 180.000
29.10919 167.000
29.12914 201.000
29.14908 177.000
29.16903 182.000
29.18898 185.000
29.20892 196.000
29.22887 180.000
29.24882 210.000
29.26877 254.000
29.28871 211.000
29.30866 236.000
29.32861 239.000
29.34855 265.000
29.36850 271.000
29.38845 295.000
29.40839 285.000
29.42834 249.000
29.44829 269.000
29.46823 241.000
29.48818 257.000
29.50813 237.000
29.52808 214.000
29.54802 223.000
29.56797 198.000
29.58792 215.000
29.60786 185.000
29.62781 190.000
29.64776 196.000
29.66770 183.000
29.68765 207.000
29.70760 178.000
29.72755 160.000
29.74749 185.000
29.76744 184.000
29.78739 169.000
29.80733 180.000
29.82728 178.000
29.84723 195.000
29.86717 173.000
29.88712 178.000
29.90707 163.000
29.92701 183.000
29.94696 153.000
29.96691 172.000
29.98686 156.000
30.00680 181.000
30.02675 177.000
30.04670 208.000
30.06664 204.000
30.08659 192.000
30.10654 229.000
30.12648 196.000
30.14643 186.000
30.16638 187.000
30.18633 206.000
30.20627 214.000
30.22622 237.000
30.24617 245.000
30.26611 268.000
30.28606 264.000
30.30601 308.000
30.32595 292.000
30.34590 285.000
30.36585 276.000
30.38579 284.000
30.40574 232.000
30.42569 211.000
30.44564 199.000
30.46558 196.000
30.48553 208.000
30.50548 178.000
30.52542 163.000
30.54537 174.000
30.56532 182.000
30.58526 173.000
30.60521 182.000
30.62516 183.000
30.64511 178.000
30.66505 180.000
30.68500 158.000
30.70495 187.000
30.72489 165.000
30.74484 188.000
30.76479 193.000
30.78473 166.000
30.80468 167.000
30.82463 167.000
30.84458 178.000
30.86452 168.000
30.88447 188.000
30.90442 194.000
30.92436 167.000
30.94431 167.000
30.96426 170.000
30.98420 160.000
31.00415 189.000
31.02410 161.000
31.04404 165.000
31.06399 178.000
31.08394 196.000
31.10389 165.000
31.12383 159.000
31.14378 196.000
31.16373 166.000
31.18367 178.000
31.20362 184.000
31.22357 191.000
31.24351 159.000
31.26346 203.000
31.28341 188.000
31.30336 173.000
31.32330 184.000
31.34325 178.000
31.36320 167.000
31.38314 185.000
31.40309 191.000
31.42304 174.000
31.44298 168.000
31.46293 171.000
31.48288 202.000
31.50282 177.000
31.52277 179.000
31.54272 155.000
31.56267 169.000
31.58261 184.000
31.60256 190.000
31.62251 200.000
31.64245 185.000
31.66240 184.000
31.68235 192.000
31.70229 164.000
31.72224 174.000
31.74219 169.000
31.76214 164.000
31.78208 179.000
31.80203 154.000
31.82198 169.000
31.84192 174.000
31.86187 200.000
31.88182 162.000
31.90176 199.000
31.92171 212.000
31.94166 182.000
31.96160 184.000
31.98155 188.000
32.00150 209.000
32.02145 189.000
32.04139 225.000
32.06134 215.000
32.08129 210.000
32.10123 221.000
32.12118 223.000
32.14113 197.000
32.16107 211.000
32.18102 207.000
32.20097 196.000
32.22092 217.000
32.24086 179.000
32.26081 186.000
32.28076 177.000
32.30070 166.000
32.32065 192.000
32.34060 172.000
32.36054 186.000
32.38049 193.000
32.40044 162.000
32.42039 179.000
32.44033 177.000
32.46028 183.000
32.48023 168.000
32.50017 165.000
32.52012 200.000
32.54007 200.000
32.56001 192.000
32.57996 167.000
32.59991 208.000
32.61985 201.000
32.63980 211.000
32.65975 184.000
32.67970 214.000
32.69964 231.000
32.71959 216.000
32.73954 231.000
32.75948 262.000
32.77943 254.000
32.79938 260.000
32.81932 280.000
32.83927 288.000
32.85922 322.000
32.87917 314.000
32.89911 328.000
32.91906 361.000
32.93901 416.000
32.95895 393.000
32.97890 426.000
32.99885 387.000
33.01879 425.000
33.03874 433.000
33.05869 331.000
33.07863 378.000
33.09858 378.000
33.11853 344.000
33.13848 332.000
33.15842 307.000
33.17837 275.000
33.19832 279.000
33.21826 247.000
33.23821 252.000
33.25816 235.000
33.27810 216.000
33.29805 225.000
33.31800 211.000
33.33795 238.000
33.35789 186.000
33.37784 186.000
33.39779 188.000
33.41773 165.000
33.43768 182.000
33.45763 204.000
33.47757 161.000
33.49752 175.000
33.51747 169.000
33.53741 170.000
33.55736 172.000
33.57731 171.000
33.59726 162.000
33.61720 165.000
33.63715 172.000
33.65710 179.000
33.67704 184.000
33.69699 196.000
33.71694 157.000
33.73688 169.000
33.75683 174.000
33.77678 173.000
33.79673 181.000
33.81667 179.000
33.83662 192.000
33.85657 191.000
33.87651 157.000
33.89646 175.000
33.91641 167.000
33.93635 202.000
33.95630 198.000
33.97625 191.000
33.99620 186.000
34.01614 199.000
34.03609 192.000
34.05604 185.000
34.07598 167.000
34.09593 201.000
34.11588 194.000
34.13582 196.000
34.15577 219.000
34.17572 210.000
34.19566 218.000
34.21561 215.000
34.23556 219.000
34.25551 223.000
34.27545 197.000
34.29540 224.000
34.31535 212.000
34.33529 235.000
34.35524 235.000
34.37519 212.000
34.39513 254.000
34.41508 218.000
34.43503 188.000
34.45498 228.000
34.47492 219.000
34.49487 228.000
34.51482 238.000
34.53476 230.000
34.55471 197.000
34.57466 219.000
34.59460 223.000
34.61455 228.000
34.63450 237.000
34.65444 195.000
34.67439 231.000
34.69434 225.000
34.71429 207.000
34.73423 222.000
34.75418 252.000
34.77413 253.000
34.79407 216.000
34.81402 242.000
34.83397 260.000
34.85391 220.000
34.87386 204.000
34.89381 238.000
34.91376 220.000
34.93370 234.000
34.95365 242.000
34.97360 201.000
34.99354 191.000
35.01349 199.000
35.03344 219.000
35.05338 191.000
35.07333 188.000
35.09328 229.000
35.11322 190.000
35.13317 187.000
35.15312 217.000
35.17307 223.000
35.19301 196.000
35.21296 216.000
35.23291 212.000
35.25285 235.000
35.27280 220.000
35.29275 219.000
35.31269 233.000
35.33264 287.000
35.35259 298.000
35.37254 350.000
35.39248 334.000
35.41243 384.000
35.43238 484.000
35.45232 517.000
35.47227 568.000
35.49222 597.000
35.51216 557.000
35.53211 601.000
35.55206 541.000
35.57201 554.000
35.59195 564.000
35.61190 537.000
35.63185 589.000
35.65179 603.000
35.67174 660.000
35.69169 697.000
35.71163 637.000
35.73158 664.000
35.75153 607.000
35.77147 525.000
35.79142 505.000
35.81137 457.000
35.83132 388.000
35.85126 377.000
35.87121 340.000
35.89116 304.000
35.91110 285.000
35.93105 263.000
35.95100 256.000
35.97094 240.000
35.99089 228.000
36.01084 232.000
36.03079 233.000
36.05073 203.000
36.07068 218.000
36.09063 220.000
36.11057 200.000
36.13052 215.000
36.15047 211.000
36.17041 219.000
36.19036 195.000
36.21031 195.000
36.23025 189.000
36.25020 211.000
36.27015 242.000
36.29010 211.000
36.31004 201.000
36.32999 220.000
36.34994 221.000
36.36988 217.000
36.38983 213.000
36.40978 225.000
36.42972 237.000
36.44967 223.000
36.46962 225.000
36.48957 255.000
36.50951 207.000
36.52946 233.000
36.54941 279.000
36.56935 242.000
36.58930 277.000
36.60925 308.000
36.62919 315.000
36.64914 333.000
36.66909 408.000
36.68903 471.000
36.70898 456.000
36.72893 577.000
36.74888 668.000
36.76882 700.000
36.78877 783.000
36.80872 780.000
36.82866 756.000
36.84861 727.000
36.86856 686.000
36.88850 694.000
36.90845 637.000
36.92840 580.000
36.94835 586.000
36.96829 544.000
36.98824 533.000
37.00819 550.000
37.02813 605.000
37.04808 673.000
37.06803 736.000
37.08797 852.000
37.10792 1037.000
37.12787 1396.000
37.14781 1885.000
37.16776 2555.000
37.18771 3124.000
37.20766 3501.000
37.22760 3403.000
37.24755 3175.000
37.26750 3051.000
37.28744 2742.000
37.30739 2517.000
37.32734 2093.000
37.34728 1664.000
37.36723 1286.000
37.38718 982.000
37.40713 749.000
37.42707 584.000
37.44702 491.000
37.46697 402.000
37.48691 357.000
37.50686 366.000
37.52681 267.000
37.54675 277.000
37.56670 297.000
37.58665 262.000
37.60660 266.000
37.62654 204.000
37.64649 242.000
37.66644 251.000
37.68638 226.000
37.70633 239.000
37.72628 215.000
37.74622 213.000
37.76617 219.000
37.78612 200.000
37.80606 201.000
37.82601 178.000
37.84596 171.000
37.86591 205.000
37.88585 192.000
37.90580 206.000
37.92575 208.000
37.94569 199.000
37.96564 211.000
37.98559 210.000
38.00553 192.000
38.02548 175.000
38.04543 190.000
38.06538 193.000
38.08532 200.000
38.10527 219.000
38.12522 189.000
38.14516 188.000
38.16511 184.000
38.18506 188.000
38.20500 218.000
38.22495 171.000
38.24490 194.000
38.26484 187.000
38.28479 178.000
38.30474 166.000
38.32469 197.000
38.34463 190.000
38.36458 178.000
38.38453 162.000
38.40447 174.000
38.42442 198.000
38.44437 175.000
38.46431 187.000
38.48426 187.000
38.50421 171.000
38.52416 163.000
38.54410 173.000
38.56405 167.000
38.58400 163.000
38.60394 193.000
38.62389 178.000
38.64384 178.000
38.66378 189.000
38.68373 190.000
38.70368 187.000
38.72362 179.000
38.74357 177.000
38.76352 173.000
38.78347 162.000
38.80341 202.000
38.82336 186.000
38.84331 196.000
38.86325 167.000
38.88320 183.000
38.90315 185.000
38.92309 172.000
38.94304 180.000
38.96299 189.000
38.98294 183.000
39.00288 175.000
39.02283 185.000
39.04278 171.000
39.06272 177.000
39.08267 172.000
39.10262 171.000
39.12256 166.000
39.14251 178.000
39.16246 165.000
39.18241 185.000
39.20235 209.000
39.22230 191.000
39.24225 223.000
39.26219 221.000
39.28214 262.000
39.30209 220.000
39.32203 258.000
39.34198 232.000
39.36193 230.000
39.38187 269.000
39.40182 302.000
39.42177 267.000
39.44172 275.000
39.46166 252.000
39.48161 264.000
39.50156 228.000
39.52150 206.000
39.54145 206.000
39.56140 205.000
39.58134 211.000
39.60129 205.000
39.62124 200.000
39.64119 202.000
39.66113 174.000
39.68108 205.000
39.70103 179.000
39.72097 188.000
39.74092 201.000
39.76087 159.000
39.78081 178.000
39.80076 164.000
39.82071 163.000
39.84065 202.000
39.86060 193.000
39.88055 174.000
39.90050 150.000
39.92044 186.000
39.94039 212.000
39.96034 178.000
39.98028 183.000
40.00023 191.000
40.02018 172.000
40.04012 179.000
40.06007 176.000
40.08002 186.000
40.09997 175.000
40.11991 213.000
40.13986 185.000
40.15981 193.000
40.17975 171.000
40.19970 163.000
40.21965 191.000
40.23959 211.000
40.25954 188.000
40.27949 197.000
40.29943 170.000
40.31938 167.000
40.33933 204.000
40.35928 168.000
40.37922 194.000
40.39917 198.000
40.41912 184.000
40.43906 158.000
40.45901 175.000
40.47896 210.000
40.49890 181.000
40.51885 184.000
40.53880 213.000
40.55875 214.000
40.57869 179.000
40.59864 183.000
40.61859 184.000
40.63853 170.000
40.65848 201.000
40.67843 184.000
40.69837 178.000
40.71832 185.000
40.73827 158.000
40.75822 194.000
40.77816 214.000
40.79811 187.000
40.81806 191.000
40.83800 204.000
40.85795 187.000
40.87790 182.000
40.89784 197.000
40.91779 203.000
40.93774 207.000
40.95768 215.000
40.97763 181.000
40.99758 220.000
41.01753 192.000
41.03747 193.000
41.05742 240.000
41.07737 206.000
41.09731 210.000
41.11726 221.000
41.13721 215.000
41.15715 204.000
41.17710 216.000
41.19705 216.000
41.21700 232.000
41.23694 227.000
41.25689 232.000
41.27684 243.000
41.29678 249.000
41.31673 256.000
41.33668 239.000
41.35662 271.000
41.37657 304.000
41.39652 310.000
41.41646 309.000
41.43641 357.000
41.45636 409.000
41.47631 437.000
41.49625 510.000
41.51620 541.000
41.53615 657.000
41.55609 795.000
41.57604 1021.000
41.59599 1374.000
41.61593 1727.000
41.63588 2199.000
41.65583 2496.000
41.67578 2488.000
41.69572 2332.000
41.71567 2173.000
41.73562 2028.000
41.75556 1869.000
41.77551 1662.000
41.79546 1486.000
41.81540 1241.000
41.83535 911.000
41.85530 752.000
41.87524 651.000
41.89519 505.000
41.91514 434.000
41.93509 389.000
41.95503 368.000
41.97498 324.000
41.99493 307.000
42.01487 270.000
42.03482 256.000
42.05477 282.000
42.07471 286.000
42.09466 219.000
42.11461 278.000
42.13456 261.000
42.15450 223.000
42.17445 250.000
42.19440 229.000
42.21434 235.000
42.23429 216.000
42.25424 239.000
42.27418 249.000
42.29413 253.000
42.31408 256.000
42.33403 227.000
42.35397 239.000
42.37392 242.000
42.39387 239.000
42.41381 242.000
42.43376 254.000
42.45371 243.000
42.47365 245.000
42.49360 276.000
42.51355 231.000
42.53349 225.000
42.55344 232.000
42.57339 258.000
42.59334 261.000
42.61328 244.000
42.63323 250.000
42.65318 230.000
42.67312 221.000
42.69307 275.000
42.71302 269.000
42.73296 281.000
42.75291 278.000
42.77286 322.000
42.79281 308.000
42.81275 283.000
42.83270 337.000
42.85265 354.000
42.87259 364.000
42.89254 353.000
42.91249 426.000
42.93243 437.000
42.95238 477.000
42.97233 523.000
42.99227 540.000
43.01222 605.000
43.03217 685.000
43.05212 758.000
43.07206 876.000
43.09201 988.000
43.11196 1186.000
43.13190 1567.000
43.15185 2061.000
43.17180 2936.000
43.19174 4078.000
43.21169 4848.000
43.23164 5495.000
43.25159 5396.000
43.27153 4950.000
43.29148 4500.000
43.31143 4124.000
43.33137 3854.000
43.35132 3480.000
43.37127 3016.000
43.39121 2522.000
43.41116 1958.000
43.43111 1390.000
43.45105 1092.000
43.47100 873.000
43.49095 735.000
43.51090 622.000
43.53084 537.000
43.55079 492.000
43.57074 445.000
43.59068 382.000
43.61063 406.000
43.63058 334.000
43.65052 321.000
43.67047 319.000
43.69042 272.000
43.71037 293.000
43.73031 256.000
43.75026 244.000
43.77021 224.000
43.79015 239.000
43.81010 269.000
43.83005 252.000
43.84999 231.000
43.86994 218.000
43.88989 215.000
43.90984 241.000
43.92978 196.000
43.94973 230.000
43.96968 214.000
43.98962 220.000
44.00957 179.000
44.02952 206.000
44.04946 195.000
44.06941 205.000
44.08936 196.000
44.10930 196.000
44.12925 207.000
44.14920 176.000
44.16915 201.000
44.18909 203.000
44.20904 196.000
44.22899 190.000
44.24893 186.000
44.26888 214.000
44.28883 185.000
44.30877 187.000
44.32872 192.000
44.34867 190.000
44.36862 183.000
44.38856 183.000
44.40851 189.000
44.42846 180.000
44.44840 204.000
44.46835 184.000
44.48830 202.000
44.50824 179.000
44.52819 191.000
44.54814 201.000
44.56808 167.000
44.58803 181.000
44.60798 189.000
44.62793 185.000
44.64787 193.000
44.66782 172.000
44.68777 170.000
44.70771 184.000
44.72766 160.000
44.74761 189.000
44.76755 201.000
44.78750 194.000
44.80745 171.000
44.82740 193.000
44.84734 197.000
44.86729 181.000
44.88724 197.000
44.90718 194.000
44.92713 212.000
44.94708 227.000
44.96702 229.000
44.98697 228.000
45.00692 217.000
45.02686 200.000
45.04681 237.000
45.06676 220.000
45.08671 242.000
45.10665 224.000
45.12660 215.000
45.14655 219.000
45.16649 227.000
45.18644 213.000
45.20639 227.000
45.22633 202.000
45.24628 203.000
45.26623 184.000
45.28618 179.000
45.30612 198.000
45.32607 172.000
45.34602 186.000
45.36596 190.000
45.38591 173.000
45.40586 178.000
45.42580 182.000
45.44575 175.000
45.46570 183.000
45.48565 173.000
45.50559 201.000
45.52554 192.000
45.54549 181.000
45.56543 187.000
45.58538 179.000
45.60533 174.000
45.62527 167.000
45.64522 167.000
45.66517 190.000
45.68511 179.000
45.70506 164.000
45.72501 186.000
45.74496 193.000
45.76490 171.000
45.78485 163.000
45.80480 156.000
45.82474 166.000
45.84469 168.000
45.86464 184.000
45.88458 172.000
45.90453 172.000
45.92448 174.000
45.94443 183.000
45.96437 160.000
45.98432 170.000
46.00427 159.000
46.02421 159.000
46.04416 167.000
46.06411 150.000
46.08405 191.000
46.10400 167.000
46.12395 188.000
46.14389 195.000
46.16384 164.000
46.18379 158.000
46.20374 157.000
46.22368 177.000
46.24363 148.000
46.26358 157.000
46.28352 175.000
46.30347 179.000
46.32342 173.000
46.34336 148.000
46.36331 173.000
46.38326 172.000
46.40321 184.000
46.42315 146.000
46.44310 190.000
46.46305 182.000
46.48299 191.000
46.50294 185.000
46.52289 162.000
46.54283 155.000
46.56278 144.000
46.58273 177.000
46.60267 178.000
46.62262 177.000
46.64257 166.000
46.66252 171.000
46.68246 189.000
46.70241 164.000
46.72236 160.000
46.74230 164.000
46.76225 165.000
46.78220 171.000
46.80214 176.000
46.82209 159.000
46.84204 166.000
46.86199 194.000
46.88193 149.000
46.90188 161.000
46.92183 147.000
46.94177 149.000
46.96172 178.000
46.98167 154.000
47.00161 163.000
47.02156 161.000
47.04151 156.000
47.06146 170.000
47.08140 163.000
47.10135 179.000
47.12130 165.000
47.14124 173.000
47.16119 152.000
47.18114 149.000
47.20108 184.000
47.22103 137.000
47.24098 157.000
47.26092 158.000
47.28087 170.000
47.30082 139.000
47.32077 161.000
47.34071 129.000
47.36066 198.000
47.38061 156.000
47.40055 149.000
47.42050 158.000
47.44045 178.000
47.46039 157.000
47.48034 158.000
47.50029 193.000
47.52024 161.000
47.54018 170.000
47.56013 179.000
47.58008 177.000
47.60002 164.000
47.61997 145.000
47.63992 163.000
47.65986 160.000
47.67981 163.000
47.69976 177.000
47.71970 178.000
47.73965 174.000
47.75960 163.000
47.77955 171.000
47.79949 150.000
47.81944 172.000
47.83939 154.000
47.85933 165.000
47.87928 165.000
47.89923 169.000
47.91917 156.000
47.93912 147.000
47.95907 185.000
47.97902 182.000
47.99896 185.000
48.01891 201.000
48.03886 218.000
48.05880 193.000
48.07875 196.000
48.09870 198.000
48.11864 190.000
48.13859 195.000
48.15854 207.000
48.17848 179.000
48.19843 180.000
48.21838 182.000
48.23833 198.000
48.25827 179.000
48.27822 170.000
48.29817 166.000
48.31811 156.000
48.33806 146.000
48.35801 177.000
48.37795 164.000
48.39790 181.000
48.41785 177.000
48.43780 161.000
48.45774 200.000
48.47769 178.000
48.49764 174.000
48.51758 180.000
48.53753 151.000
48.55748 174.000
48.57742 183.000
48.59737 183.000
48.61732 194.000
48.63726 171.000
48.65721 189.000
48.67716 214.000
48.69711 208.000
48.71705 210.000
48.73700 227.000
48.75695 247.000
48.77689 230.000
48.79684 237.000
48.81679 241.000
48.83673 237.000
48.85668 234.000
48.87663 270.000
48.89658 252.000
48.91652 250.000
48.93647 231.000
48.95642 213.000
48.97636 198.000
48.99631 201.000
49.01626 199.000
49.03620 159.000
49.05615 159.000
49.07610 175.000
49.09605 193.000
49.11599 184.000
49.13594 165.000
49.15589 176.000
49.17583 168.000
49.19578 190.000
49.21573 183.000
49.23567 148.000
49.25562 186.000
49.27557 157.000
49.29551 150.000
49.31546 194.000
49.33541 163.000
49.35536 167.000
49.37530 158.000
49.39525 172.000
49.41520 181.000
49.43514 177.000
49.45509 183.000
49.47504 183.000
49.49498 187.000
49.51493 187.000
49.53488 160.000
49.55483 166.000
49.57477 189.000
49.59472 162.000
49.61467 173.000
49.63461 194.000
49.65456 157.000
49.67451 154.000
49.69445 190.000
49.71440 175.000
49.73435 188.000
49.75429 173.000
49.77424 169.000
49.79419 167.000
49.81414 178.000
49.83408 151.000
49.85403 153.000
49.87398 145.000
49.89392 159.000
49.91387 161.000
49.93382 167.000
49.95376 170.000
49.97371 177.000
49.99366 170.000
50.01361 170.000
50.03355 137.000
50.05350 138.000
50.07345 157.000
50.09339 160.000
50.11334 186.000
50.13329 169.000
50.15323 177.000
50.17318 187.000
50.19313 168.000
50.21307 146.000
50.23302 156.000
50.25297 156.000
50.27292 164.000
50.29286 180.000
50.31281 157.000
50.33276 157.000
50.35270 162.000
50.37265 166.000
50.39260 173.000
50.41254 182.000
50.43249 182.000
50.45244 160.000
50.47239 190.000
50.49233 160.000
50.51228 158.000
50.53223 162.000
50.55217 153.000
50.57212 165.000
50.59207 172.000
50.61201 160.000
50.63196 182.000
50.65191 178.000
50.67186 183.000
50.69180 146.000
50.71175 172.000
50.73170 165.000
50.75164 157.000
50.77159 179.000
50.79154 155.000
50.81148 178.000
50.83143 186.000
50.85138 165.000
50.87132 169.000
50.89127 188.000
50.91122 172.000
50.93117 172.000
50.95111 156.000
50.97106 164.000
50.99101 170.000
51.01095 171.000
51.03090 158.000
51.05085 138.000
51.07079 171.000
51.09074 145.000
51.11069 142.000
51.13064 156.000
51.15058 163.000
51.17053 169.000
51.19048 164.000
51.21042 149.000
51.23037 147.000
51.25032 160.000
51.27026 184.000
51.29021 153.000
51.31016 137.000
51.33010 167.000
51.35005 140.000
51.37000 157.000
51.38995 157.000
51.40989 154.000
51.42984 166.000
51.44979 153.000
51.46973 148.000
51.48968 168.000
51.50963 176.000
51.52957 141.000
51.54952 163.000
51.56947 162.000
51.58942 161.000
51.60936 148.000
51.62931 170.000
51.64926 147.000
51.66920 162.000
51.68915 134.000
51.70910 172.000
51.72904 172.000
51.74899 172.000
51.76894 180.000
51.78888 154.000
51.80883 177.000
51.82878 186.000
51.84873 172.000
51.86867 156.000
51.88862 194.000
51.90857 166.000
51.92851 151.000
51.94846 165.000
51.96841 192.000
51.98835 197.000
52.00830 214.000
52.02825 171.000
52.04820 184.000
52.06814 181.000
52.08809 187.000
52.10804 163.000
52.12798 190.000
52.14793 201.000
52.16788 186.000
52.18782 193.000
52.20777 211.000
52.22772 172.000
52.24767 203.000
52.26761 175.000
52.28756 171.000
52.30751 188.000
52.32745 181.000
52.34740 170.000
52.36735 166.000
52.38729 160.000
52.40724 186.000
52.42719 165.000
52.44713 174.000
52.46708 181.000
52.48703 158.000
52.50698 175.000
52.52692 174.000
52.54687 176.000
52.56682 180.000
52.58676 159.000
52.60671 182.000
52.62666 183.000
52.64660 160.000
52.66655 167.000
52.68650 188.000
52.70645 171.000
52.72639 204.000
52.74634 167.000
52.76629 135.000
52.78623 157.000
52.80618 175.000
52.82613 182.000
52.84607 186.000
52.86602 175.000
52.88597 196.000
52.90591 196.000
52.92586 217.000
52.94581 215.000
52.96576 234.000
52.98570 233.000
53.00565 254.000
53.02560 236.000
53.04554 251.000
53.06549 273.000
53.08544 297.000
53.10538 317.000
53.12533 343.000
53.14528 340.000
53.16523 370.000
53.18517 415.000
53.20512 396.000
53.22507 416.000
53.24501 370.000
53.26496 366.000
53.28491 406.000
53.30485 319.000
53.32480 314.000
53.34475 340.000
53.36469 296.000
53.38464 290.000
53.40459 271.000
53.42454 230.000
53.44448 220.000
53.46443 238.000
53.48438 206.000
53.50432 211.000
53.52427 188.000
53.54422 212.000
53.56416 184.000
53.58411 179.000
53.60406 154.000
53.62401 177.000
53.64395 198.000
53.66390 173.000
53.68385 200.000
53.70379 183.000
53.72374 165.000
53.74369 183.000
53.76363 204.000
53.78358 213.000
53.80353 205.000
53.82348 206.000
53.84342 222.000
53.86337 209.000
53.88332 209.000
53.90326 184.000
53.92321 164.000
53.94316 171.000
53.96310 181.000
53.98305 184.000
54.00300 180.000
54.02294 173.000
54.04289 182.000
54.06284 180.000
54.08279 198.000
54.10273 168.000
54.12268 161.000
54.14263 177.000
54.16257 157.000
54.18252 174.000
54.20247 157.000
54.22241 157.000
54.24236 175.000
54.26231 158.000
54.28226 137.000
54.30220 183.000
54.32215 166.000
54.34210 170.000
54.36204 188.000
54.38199 166.000
54.40194 164.000
54.42188 147.000
54.44183 163.000
54.46178 179.000
54.48172 184.000
54.50167 193.000
54.52162 178.000
54.54157 172.000
54.56151 170.000
54.58146 167.000
54.60141 169.000
54.62135 172.000
54.64130 164.000
54.66125 171.000
54.68119 180.000
54.70114 179.000
54.72109 174.000
54.74104 165.000
54.76098 156.000
54.78093 174.000
54.80088 170.000
54.82082 160.000
54.84077 185.000
54.86072 187.000
54.88066 166.000
54.90061 155.000
54.92056 160.000
54.94050 163.000
54.96045 172.000
54.98040 156.000
55.00035 149.000
55.02029 151.000
55.04024 177.000
55.06019 167.000
55.08013 168.000
55.10008 172.000
55.12003 146.000
55.13997 177.000
55.15992 195.000
55.17987 159.000
55.19982 156.000
55.21976 140.000
55.23971 168.000
55.25966 173.000
55.27960 171.000
55.29955 171.000
55.31950 155.000
55.33944 163.000
55.35939 170.000
55.37934 160.000
55.39929 151.000
55.41923 140.000
55.43918 181.000
55.45913 168.000
55.47907 164.000
55.49902 165.000
55.51897 164.000
55.53891 158.000
55.55886 163.000
55.57881 153.000
55.59875 163.000
55.61870 142.000
55.63865 144.000
55.65860 160.000
55.67854 154.000
55.69849 188.000
55.71844 168.000
55.73838 181.000
55.75833 161.000
55.77828 161.000
55.79822 176.000
55.81817 180.000
55.83812 189.000
55.85807 176.000
55.87801 193.000
55.89796 154.000
55.91791 133.000
55.93785 152.000
55.95780 161.000
55.97775 166.000
55.99769 160.000
56.01764 146.000
56.03759 155.000
56.05753 159.000
56.07748 160.000
56.09743 180.000
56.11738 161.000
56.13732 185.000
56.15727 171.000
56.17722 184.000
56.19716 171.000
56.21711 180.000
56.23706 195.000
56.25700 174.000
56.27695 179.000
56.29690 160.000
56.31685 195.000
56.33679 145.000
56.35674 154.000
56.37669 172.000
56.39663 156.000
56.41658 189.000
56.43653 155.000
56.45647 152.000
56.47642 169.000
56.49637 187.000
56.51631 161.000
56.53626 148.000
56.55621 157.000
56.57616 168.000
56.59610 156.000
56.61605 171.000
56.63600 183.000
56.65594 177.000
56.67589 176.000
56.69584 154.000
56.71578 148.000
56.73573 173.000
56.75568 182.000
56.77563 193.000
56.79557 158.000
56.81552 172.000
56.83547 151.000
56.85541 163.000
56.87536 161.000
56.89531 147.000
56.91525 167.000
56.93520 178.000
56.95515 146.000
56.97510 176.000
56.99504 177.000
57.01499 167.000
57.03494 181.000
57.05488 182.000
57.07483 176.000
57.09478 192.000
57.11472 163.000
57.13467 201.000
57.15462 186.000
57.17456 204.000
57.19451 197.000
57.21446 196.000
57.23441 194.000
57.25435 209.000
57.27430 223.000
57.29425 225.000
57.31419 239.000
57.33414 273.000
57.35409 256.000
57.37403 261.000
57.39398 301.000
57.41393 252.000
57.43388 260.000
57.45382 259.000
57.47377 275.000
57.49372 291.000
57.51366 271.000
57.53361 260.000
57.55356 246.000
57.57350 267.000
57.59345 279.000
57.61340 290.000
57.63334 292.000
57.65329 305.000
57.67324 312.000
57.69319 350.000
57.71313 327.000
57.73308 404.000
57.75303 389.000
57.77297 420.000
57.79292 436.000
57.81287 465.000
57.83281 454.000
57.85276 477.000
57.87271 513.000
57.89266 508.000
57.91260 485.000
57.93255 444.000
57.95250 472.000
57.97244 507.000
57.99239 427.000
58.01234 466.000
58.03228 421.000
58.05223 378.000
58.07218 374.000
58.09212 326.000
58.11207 316.000
58.13202 296.000
58.15197 269.000
58.17191 274.000
58.19186 247.000
58.21181 256.000
58.23175 240.000
58.25170 220.000
58.27165 200.000
58.29159 189.000
58.31154 203.000
58.33149 185.000
58.35144 169.000
58.37138 186.000
58.39133 180.000
58.41128 174.000
58.43122 168.000
58.45117 170.000
58.47112 192.000
58.49106 188.000
58.51101 189.000
58.53096 175.000
58.55090 176.000
58.57085 174.000
58.59080 189.000
58.61075 158.000
58.63069 181.000
58.65064 175.000
58.67059 170.000
58.69053 167.000
58.71048 191.000
58.73043 167.000
58.75037 194.000
58.77032 168.000
58.79027 150.000
58.81022 175.000
58.83016 165.000
58.85011 154.000
58.87006 186.000
58.89000 168.000
58.90995 168.000
58.92990 170.000
58.94984 175.000
58.96979 179.000
58.98974 154.000
59.00969 179.000
59.02963 158.000
59.04958 181.000
59.06953 154.000
59.08947 190.000
59.10942 166.000
59.12937 183.000
59.14931 165.000
59.16926 161.000
59.18921 162.000
59.20915 181.000
59.22910 190.000
59.24905 171.000
59.26900 173.000
59.28894 179.000
59.30889 186.000
59.32884 163.000
59.34878 168.000
59.36873 171.000
59.38868 172.000
59.40862 177.000
59.42857 173.000
59.44852 175.000
59.46847 156.000
59.48841 178.000
59.50836 163.000
59.52831 189.000
59.54825 173.000
59.56820 154.000
59.58815 160.000
59.60809 163.000
59.62804 157.000
59.64799 167.000
59.66793 170.000
59.68788 179.000
59.70783 169.000
59.72778 186.000
59.74772 158.000
59.76767 180.000
59.78762 175.000
59.80756 172.000
59.82751 164.000
59.84746 171.000
59.86740 177.000
59.88735 171.000
59.90730 154.000
59.92725 179.000
59.94719 163.000
59.96714 177.000
59.98709 169.000
60.00703 164.000
60.02698 156.000
60.04693 168.000
60.06687 157.000
60.08682 190.000
60.10677 179.000
60.12671 169.000
60.14666 181.000
60.16661 172.000
60.18656 160.000
60.20650 145.000
60.22645 171.000
60.24640 193.000
60.26634 144.000
60.28629 177.000
60.30624 186.000
60.32618 154.000
60.34613 146.000
60.36608 167.000
60.38603 166.000
60.40597 148.000
60.42592 164.000
60.44587 188.000
60.46581 163.000
60.48576 183.000
60.50571 167.000
60.52565 193.000
60.54560 184.000
60.56555 168.000
60.58550 163.000
60.60544 173.000
60.62539 179.000
60.64534 147.000
60.66528 165.000
60.68523 162.000
60.70518 162.000
60.72512 183.000
60.74507 155.000
60.76502 183.000
60.78496 164.000
60.80491 150.000
60.82486 168.000
60.84481 172.000
60.86475 173.000
60.88470 175.000
60.90465 171.000
60.92459 159.000
60.94454 177.000
60.96449 182.000
60.98443 178.000
61.00438 164.000
61.02433 180.000
61.04428 172.000
61.06422 163.000
61.08417 167.000
61.10412 174.000
61.12406 179.000
61.14401 175.000
61.16396 177.000
61.18390 178.000
61.20385 182.000
61.22380 160.000
61.24374 154.000
61.26369 178.000
61.28364 182.000
61.30359 152.000
61.32353 179.000
61.34348 169.000
61.36343 186.000
61.38337 204.000
61.40332 193.000
61.42327 185.000
61.44321 175.000
61.46316 179.000
61.48311 175.000
61.50306 192.000
61.52300 176.000
61.54295 197.000
61.56290 184.000
61.58284 185.000
61.60279 212.000
61.62274 202.000
61.64268 203.000
61.66263 203.000
61.68258 188.000
61.70252 173.000
61.72247 207.000
61.74242 188.000
61.76237 206.000
61.78231 181.000
61.80226 186.000
61.82221 202.000
61.84215 188.000
61.86210 203.000
61.88205 196.000
61.90199 171.000
61.92194 202.000
61.94189 195.000
61.96184 240.000
61.98178 196.000
62.00173 223.000
62.02168 225.000
62.04162 254.000
62.06157 215.000
62.08152 230.000
62.10146 240.000
62.12141 237.000
62.14136 231.000
62.16131 245.000
62.18125 231.000
62.20120 242.000
62.22115 208.000
62.24109 257.000
62.26104 250.000
62.28099 261.000
62.30093 255.000
62.32088 219.000
62.34083 270.000
62.36077 278.000
62.38072 289.000
62.40067 293.000
62.42062 316.000
62.44056 295.000
62.46051 347.000
62.48046 332.000
62.50040 342.000
62.52035 395.000
62.54030 422.000
62.56024 455.000
62.58019 535.000
62.60014 591.000
62.62009 662.000
62.64003 788.000
62.65998 901.000
62.67993 1116.000
62.69987 1426.000
62.71982 1642.000
62.73977 1868.000
62.75971 2059.000
62.77966 2238.000
62.79961 2238.000
62.81955 2304.000
62.83950 2199.000
62.85945 2077.000
62.87940 2010.000
62.89934 1954.000
62.91929 1782.000
62.93924 1735.000
62.95918 1734.000
62.97913 1646.000
62.99908 1472.000
63.01902 1320.000
63.03897 1206.000
63.05892 1098.000
63.07887 951.000
63.09881 788.000
63.11876 727.000
63.13871 608.000
63.15865 541.000
63.17860 489.000
63.19855 487.000
63.21849 437.000
63.23844 358.000
63.25839 354.000
63.27833 357.000
63.29828 303.000
63.31823 287.000
63.33818 277.000
63.35812 263.000
63.37807 247.000
63.39802 226.000
63.41796 242.000
63.43791 235.000
63.45786 229.000
63.47780 213.000
63.49775 207.000
63.51770 211.000
63.53765 214.000
63.55759 205.000
63.57754 176.000
63.59749 202.000
63.61743 199.000
63.63738 194.000
63.65733 201.000
63.67727 209.000
63.69722 191.000
63.71717 212.000
63.73712 189.000
63.75706 195.000
63.77701 175.000
63.79696 190.000
63.81690 202.000
63.83685 193.000
63.85680 165.000
63.87674 194.000
63.89669 184.000
63.91664 201.000
63.93658 168.000
63.95653 174.000
63.97648 181.000
63.99643 202.000
64.01637 192.000
64.03632 199.000
64.05627 207.000
64.07621 207.000
64.09616 204.000
64.11611 203.000
64.13605 203.000
64.15600 192.000
64.17595 187.000
64.19590 185.000
64.21584 192.000
64.23579 209.000
64.25574 195.000
64.27568 185.000
64.29563 181.000
64.31558 204.000
64.33552 194.000
64.35547 190.000
64.37542 195.000
64.39536 216.000
64.41531 177.000
64.43526 176.000
64.45521 173.000
64.47515 215.000
64.49510 169.000
64.51505 181.000
64.53499 219.000
64.55494 190.000
64.57489 181.000
64.59483 191.000
64.61478 220.000
64.63473 183.000
64.65468 179.000
64.67462 181.000
64.69457 195.000
64.71452 179.000
64.73446 184.000
64.75441 172.000
64.77436 184.000
64.79430 190.000
64.81425 177.000
64.83420 201.000
64.85414 179.000
64.87409 210.000
64.89404 172.000
64.91399 167.000
64.93393 180.000
64.95388 185.000
64.97383 178.000
64.99377 150.000
65.01372 202.000
65.03367 189.000
65.05361 182.000
65.07356 191.000
65.09351 188.000
65.11346 181.000
65.13340 180.000
65.15335 178.000
65.17330 205.000
65.19324 201.000
65.21319 228.000
65.23314 198.000
65.25308 243.000
65.27303 249.000
65.29298 241.000
65.31293 234.000
65.33287 257.000
65.35282 248.000
65.37277 284.000
65.39271 293.000
65.41266 318.000
65.43261 287.000
65.45255 301.000
65.47250 302.000
65.49245 286.000
65.51239 284.000
65.53234 280.000
65.55229 274.000
65.57224 299.000
65.59218 275.000
65.61213 261.000
65.63208 300.000
65.65202 246.000
65.67197 235.000
65.69192 240.000
65.71186 260.000
65.73181 238.000
65.75176 217.000
65.77171 232.000
65.79165 221.000
65.81160 194.000
65.83155 208.000
65.85149 182.000
65.87144 212.000
65.89139 173.000
65.91133 183.000
65.93128 181.000
65.95123 196.000
65.97117 191.000
65.99112 198.000
66.01107 170.000
66.03102 192.000
66.05096 167.000
66.07091 182.000
66.09086 173.000
66.11080 166.000
66.13075 175.000
66.15070 164.000
66.17064 146.000
66.19059 176.000
66.21054 169.000
66.23049 191.000
66.25043 202.000
66.27038 172.000
66.29033 175.000
66.31027 182.000
66.33022 170.000
66.35017 167.000
66.37011 156.000
66.39006 147.000
66.41001 161.000
66.42995 158.000
66.44990 172.000
66.46985 184.000
66.48980 177.000
66.50974 156.000
66.52969 190.000
66.54964 168.000
66.56958 194.000
66.58953 196.000
66.60948 168.000
66.62942 152.000
66.64937 180.000
66.66932 173.000
66.68927 161.000
66.70921 176.000
66.72916 183.000
66.74911 147.000
66.76905 146.000
66.78900 166.000
66.80895 177.000
66.82889 166.000
66.84884 181.000
66.86879 170.000
66.88874 190.000
66.90868 149.000
66.92863 186.000
66.94858 190.000
66.96852 176.000
66.98847 179.000
67.00842 153.000
67.02836 171.000
67.04831 180.000
67.06826 148.000
67.08820 163.000
67.10815 181.000
67.12810 162.000
67.14805 182.000
67.16799 152.000
67.18794 170.000
67.20789 165.000
67.22783 179.000
67.24778 162.000
67.26773 170.000
67.28767 188.000
67.30762 163.000
67.32757 183.000
67.34752 160.000
67.36746 180.000
67.38741 161.000
67.40736 172.000
67.42730 176.000
67.44725 183.000
67.46720 202.000
67.48714 172.000
67.50709 160.000
67.52704 156.000
67.54698 203.000
67.56693 168.000
67.58688 169.000
67.60683 173.000
67.62677 161.000
67.64672 154.000
67.66667 176.000
67.68661 177.000
67.70656 176.000
67.72651 190.000
67.74645 156.000
67.76640 163.000
67.78635 179.000
67.80630 190.000
67.82624 159.000
67.84619 194.000
67.86614 208.000
67.88608 194.000
67.90603 172.000
67.92598 173.000
67.94592 174.000
67.96587 205.000
67.98582 201.000
68.00576 188.000
68.02571 223.000
68.04566 219.000
68.06561 208.000
68.08555 216.000
68.10550 201.000
68.12545 225.000
68.14539 227.000
68.16534 225.000
68.18529 231.000
68.20523 208.000
68.22518 216.000
68.24513 221.000
68.26508 258.000
68.28502 245.000
68.30497 237.000
68.32492 206.000
68.34486 249.000
68.36481 258.000
68.38476 227.000
68.40470 230.000
68.42465 240.000
68.44460 228.000
68.46455 222.000
68.48449 229.000
68.50444 219.000
68.52439 185.000
68.54433 233.000
68.56428 175.000
68.58423 204.000
68.60417 205.000
68.62412 205.000
68.64407 199.000
68.66401 175.000
68.68396 176.000
68.70391 191.000
68.72386 188.000
68.74380 194.000
68.76375 176.000
68.78370 161.000
68.80364 170.000
68.82359 162.000
68.84354 168.000
68.86348 172.000
68.88343 181.000
68.90338 146.000
68.92333 193.000
68.94327 188.000
68.96322 185.000
68.98317 173.000
69.00311 182.000
69.02306 165.000
69.04301 170.000
69.06295 181.000
69.08290 232.000
69.10285 176.000
69.12279 194.000
69.14274 197.000
69.16269 174.000
69.18264 172.000
69.20258 193.000
69.22253 177.000
69.24248 176.000
69.26242 205.000
69.28237 201.000
69.30232 195.000
69.32226 200.000
69.34221 166.000
69.36216 185.000
69.38211 178.000
69.40205 168.000
69.42200 161.000
69.44195 188.000
69.46189 168.000
69.48184 186.000
69.50179 161.000
69.52173 156.000
69.54168 171.000
69.56163 204.000
69.58157 165.000
69.60152 201.000
69.62147 210.000
69.64142 155.000
69.66136 160.000
69.68131 164.000
69.70126 181.000
69.72120 172.000
69.74115 188.000
69.76110 183.000
69.78104 175.000
69.80099 179.000
69.82094 176.000
69.84089 146.000
69.86083 167.000
69.88078 172.000
69.90073 167.000
69.92067 155.000
69.94062 151.000
69.96057 147.000
69.98051 148.000
70.00046 154.000
70.02041 163.000
70.04035 169.000
70.06030 158.000
70.08025 153.000
70.10020 157.000
70.12014 170.000
70.14009 156.000
70.16004 166.000
70.17998 148.000
70.19993 169.000
70.21988 168.000
70.23982 132.000
70.25977 160.000
70.27972 156.000
70.29967 171.000
70.31961 165.000
70.33956 159.000
70.35951 143.000
70.37945 165.000
70.39940 148.000
70.41935 164.000
70.43929 165.000
70.45924 174.000
70.47919 143.000
70.49914 161.000
70.51908 165.000
70.53903 189.000
70.55898 170.000
70.57892 139.000
70.59887 168.000
70.61882 158.000
70.63876 175.000
70.65871 156.000
70.67866 131.000
70.69860 159.000
70.71855 162.000
70.73850 178.000
70.75845 166.000
70.77839 143.000
70.79834 164.000
70.81829 167.000
70.83823 158.000
70.85818 129.000
70.87813 164.000
70.89807 149.000
70.91802 161.000
70.93797 160.000
70.95792 136.000
70.97786 158.000
70.99781 140.000
71.01776 165.000
71.03770 159.000
71.05765 171.000
71.07760 158.000
71.09754 137.000
71.11749 180.000
71.13744 165.000
71.15738 180.000
71.17733 184.000
71.19728 150.000
71.21723 162.000
71.23717 164.000
71.25712 147.000
71.27707 174.000
71.29701 161.000
71.31696 156.000
71.33691 175.000
71.35685 176.000
71.37680 197.000
71.39675 159.000
71.41670 180.000
71.43664 168.000
71.45659 172.000
71.47654 166.000
71.49648 175.000
71.51643 183.000
71.53638 155.000
71.55632 159.000
71.57627 161.000
71.59622 183.000
71.61616 171.000
71.63611 161.000
71.65606 168.000
71.67601 158.000
71.69595 181.000
71.71590 178.000
71.73585 158.000
71.75579 166.000
71.77574 180.000
71.79569 173.000
71.81563 148.000
71.83558 174.000
71.85553 168.000
71.87548 169.000
71.89542 176.000
71.91537 160.000
71.93532 164.000
71.95526 160.000
71.97521 188.000
71.99516 165.000
72.01510 168.000
72.03505 151.000
72.05500 178.000
72.07495 156.000
72.09489 167.000
72.11484 162.000
72.13479 158.000
72.15473 180.000
72.17468 156.000
72.19463 174.000
72.21457 156.000
72.23452 143.000
72.25447 165.000
72.27441 175.000
72.29436 170.000
72.31431 161.000
72.33426 160.000
72.35420 172.000
72.37415 169.000
72.39410 153.000
72.41404 153.000
72.43399 167.000
72.45394 166.000
72.47388 147.000
72.49383 160.000
72.51378 187.000
72.53373 154.000
72.55367 174.000
72.57362 186.000
72.59357 193.000
72.61351 183.000
72.63346 179.000
72.65341 209.000
72.67335 188.000
72.69330 213.000
72.71325 210.000
72.73319 244.000
72.75314 246.000
72.77309 255.000
72.79304 265.000
72.81298 264.000
72.83293 265.000
72.85288 266.000
72.87282 266.000
72.89277 266.000
72.91272 238.000
72.93266 222.000
72.95261 217.000
72.97256 240.000
72.99251 241.000
73.01245 211.000
73.03240 219.000
73.05235 236.000
73.07229 241.000
73.09224 210.000
73.11219 171.000
73.13213 209.000
73.15208 209.000
73.17203 171.000
73.19197 178.000
73.21192 188.000
73.23187 180.000
73.25182 165.000
73.27176 187.000
73.29171 178.000
73.31166 152.000
73.33160 200.000
73.35155 185.000
73.37150 183.000
73.39144 178.000
73.41139 163.000
73.43134 174.000
73.45129 199.000
73.47123 157.000
73.49118 189.000
73.51113 184.000
73.53107 162.000
73.55102 186.000
73.57097 178.000
73.59091 169.000
73.61086 188.000
73.63081 189.000
73.65076 165.000
73.67070 196.000
73.69065 198.000
73.71060 187.000
73.73054 206.000
73.75049 197.000
73.77044 199.000
73.79038 205.000
73.81033 201.000
73.83028 207.000
73.85022 198.000
73.87017 217.000
73.89012 217.000
73.91007 231.000
73.93001 203.000
73.94996 241.000
73.96991 221.000
73.98985 196.000
74.00980 218.000
74.02975 203.000
74.04969 225.000
74.06964 192.000
74.08959 219.000
74.10954 213.000
74.12948 205.000
74.14943 213.000
74.16938 223.000
74.18932 186.000
74.20927 206.000
74.22922 212.000
74.24916 208.000
74.26911 211.000
74.28906 219.000
74.30900 227.000
74.32895 203.000
74.34890 206.000
74.36885 202.000
74.38879 204.000
74.40874 189.000
74.42869 215.000
74.44863 190.000
74.46858 209.000
74.48853 204.000
74.50847 205.000
74.52842 194.000
74.54837 224.000
74.56832 196.000
74.58826 216.000
74.60821 210.000
74.62816 212.000
74.64810 222.000
74.66805 200.000
74.68800 236.000
74.70794 191.000
74.72789 198.000
74.74784 234.000
74.76778 209.000
74.78773 215.000
74.80768 190.000
74.82763 187.000
74.84757 219.000
74.86752 215.000
74.88747 255.000
74.90741 226.000
74.92736 227.000
74.94731 233.000
74.96725 262.000
74.98720 264.000
75.00715 239.000
75.02710 259.000
75.04704 269.000
75.06699 285.000
75.08694 312.000
75.10688 298.000
75.12683 331.000
75.14678 382.000
75.16672 453.000
75.18667 473.000
75.20662 538.000
75.22657 626.000
75.24651 747.000
75.26646 728.000
75.28641 722.000
75.30635 782.000
75.32630 773.000
75.34625 713.000
75.36619 699.000
75.38614 738.000
75.40609 652.000
75.42603 597.000
75.44598 603.000
75.46593 564.000
75.48588 578.000
75.50582 588.000
75.52577 512.000
75.54572 488.000
75.56566 492.000
75.58561 423.000
75.60556 431.000
75.62550 326.000
75.64545 364.000
75.66540 307.000
75.68535 291.000
75.70529 265.000
75.72524 272.000
75.74519 229.000
75.76513 223.000
75.78508 216.000
75.80503 221.000
75.82497 238.000
75.84492 188.000
75.86487 199.000
75.88481 174.000
75.90476 207.000
75.92471 213.000
75.94466 194.000
75.96460 196.000
75.98455 182.000
76.00450 190.000
76.02444 188.000
76.04439 138.000
76.06434 177.000
76.08428 182.000
76.10423 189.000
76.12418 170.000
76.14413 166.000
76.16407 204.000
76.18402 160.000
76.20397 148.000
76.22391 196.000
76.24386 179.000
76.26381 171.000
76.28375 164.000
76.30370 184.000
76.32365 147.000
76.34359 174.000
76.36354 163.000
76.38349 133.000
76.40344 158.000
76.42338 151.000
76.44333 168.000
76.46328 143.000
76.48322 154.000
76.50317 155.000
76.52312 168.000
76.54306 173.000
76.56301 172.000
76.58296 166.000
76.60291 165.000
76.62285 161.000
76.64280 167.000
76.66275 171.000
76.68269 152.000
76.70264 159.000
76.72259 174.000
76.74253 167.000
76.76248 186.000
76.78243 164.000
76.80238 183.000
76.82232 175.000
76.84227 140.000
76.86222 166.000
76.88216 177.000
76.90211 169.000
76.92206 177.000
76.94200 152.000
76.96195 163.000
76.98190 168.000
77.00184 169.000
77.02179 166.000
77.04174 157.000
77.06169 172.000
77.08163 154.000
77.10158 173.000
77.12153 163.000
77.14147 147.000
77.16142 152.000
77.18137 187.000
77.20131 196.000
77.22126 173.000
77.24121 173.000
77.26116 170.000
77.28110 180.000
77.30105 136.000
77.32100 151.000
77.34094 164.000
77.36089 166.000
77.38084 178.000
77.40078 164.000
77.42073 160.000
77.44068 146.000
77.46062 152.000
77.48057 144.000
77.50052 167.000
77.52047 165.000
77.54041 154.000
77.56036 162.000
77.58031 166.000
77.60025 159.000
77.62020 164.000
77.64015 151.000
77.66009 161.000
77.68004 166.000
77.69999 167.000
77.71994 149.000
77.73988 182.000
77.75983 175.000
77.77978 173.000
77.79972 161.000
77.81967 173.000
77.83962 161.000
77.85956 180.000
77.87951 189.000
77.89946 219.000
77.91940 182.000
77.93935 198.000
77.95930 192.000
77.97925 207.000
77.99919 185.000
78.01914 186.000
78.03909 207.000
78.05903 222.000
78.07898 208.000
78.09893 189.000
78.11887 233.000
78.13882 238.000
78.15877 219.000
78.17872 288.000
78.19866 264.000
78.21861 270.000
78.23856 305.000
78.25850 234.000
78.27845 248.000
78.29840 247.000
78.31834 252.000
78.33829 250.000
78.35824 271.000
78.37819 247.000
78.39813 248.000
78.41808 266.000
78.43803 243.000
78.45797 250.000
78.47792 222.000
78.49787 244.000
78.51781 212.000
78.53776 228.000
78.55771 229.000
78.57765 231.000
78.59760 230.000
78.61755 212.000
78.63750 233.000
78.65744 212.000
78.67739 205.000
78.69734 193.000
78.71728 191.000
78.73723 201.000
78.75718 195.000
78.77712 197.000
78.79707 210.000
78.81702 199.000
78.83697 206.000
78.85691 179.000
78.87686 185.000
78.89681 207.000
78.91675 181.000
78.93670 201.000
78.95665 209.000
78.97659 227.000
78.99654 225.000
79.01649 190.000
79.03643 224.000
79.05638 269.000
79.07633 255.000
79.09628 276.000
79.11622 300.000
79.13617 333.000
79.15612 372.000
79.17606 434.000
79.19601 463.000
79.21596 546.000
79.23590 537.000
79.25585 570.000
79.27580 526.000
79.29575 531.000
79.31569 501.000
79.33564 527.000
79.35559 511.000
79.37553 525.000
79.39548 523.000
79.41543 476.000
79.43537 448.000
79.45532 449.000
79.47527 461.000
79.49521 444.000
79.51516 438.000
79.53511 417.000
79.55506 406.000
79.57500 371.000
79.59495 370.000
79.61490 332.000
79.63484 296.000
79.65479 294.000
79.67474 247.000
79.69468 261.000
79.71463 248.000
79.73458 221.000
79.75453 207.000
79.77447 231.000
79.79442 183.000
79.81437 202.000
79.83431 215.000
79.85426 197.000
79.87421 166.000
79.89415 152.000
79.91410 184.000
79.93405 186.000
79.95399 174.000
79.97394 171.000
79.99389 175.000
80.01384 161.000
80.03378 176.000
80.05373 167.000
80.07368 164.000
80.09362 157.000
80.11357 183.000
80.13352 188.000
80.15346 176.000
80.17341 145.000
80.19336 165.000
80.21331 174.000
80.23325 150.000
80.25320 164.000
80.27315 173.000
80.29309 184.000
80.31304 149.000
80.33299 173.000
80.35293 180.000
80.37288 159.000
80.39283 175.000
80.41278 183.000
80.43272 179.000
80.45267 155.000
80.47262 160.000
80.49256 149.000
80.51251 147.000
80.53246 163.000
80.55240 178.000
80.57235 163.000
80.59230 158.000
80.61224 178.000
80.63219 176.000
80.65214 154.000
80.67209 164.000
80.69203 144.000
80.71198 188.000
80.73193 176.000
80.75187 172.000
80.77182 170.000
80.79177 180.000
80.81171 170.000
80.83166 153.000
80.85161 161.000
80.87156 164.000
80.89150 181.000
80.91145 172.000
80.93140 137.000
80.95134 149.000
80.97129 152.000
80.99124 182.000
81.01118 159.000
81.03113 161.000
81.05108 162.000
81.07102 156.000
81.09097 171.000
81.11092 135.000
81.13087 171.000
81.15081 171.000
81.17076 136.000
81.19071 149.000
81.21065 168.000
81.23060 162.000
81.25055 183.000
81.27049 144.000
81.29044 159.000
81.31039 174.000
81.33034 159.000
81.35028 140.000
81.37023 153.000
81.39018 165.000
81.41012 153.000
81.43007 173.000
81.45002 154.000
81.46996 169.000
81.48991 160.000
81.50986 156.000
81.52980 164.000
81.54975 160.000
81.56970 152.000
81.58965 156.000
81.60959 152.000
81.62954 129.000
81.64949 148.000
81.66943 164.000
81.68938 147.000
81.70933 145.000
81.72927 175.000
81.74922 135.000
81.76917 154.000
81.78912 156.000
81.80906 157.000
81.82901 149.000
81.84896 162.000
81.86890 163.000
81.88885 187.000
81.90880 155.000
81.92874 156.000
81.94869 166.000
81.96864 184.000
81.98859 159.000
82.00853 163.000
82.02848 146.000
82.04843 161.000
82.06837 174.000
82.08832 139.000
82.10827 162.000
82.12821 150.000
82.14816 155.000
82.16811 174.000
82.18805 126.000
82.20800 158.000
82.22795 147.000
82.24790 159.000
82.26784 160.000
82.28779 162.000
82.30774 187.000
82.32768 145.000
82.34763 162.000
82.36758 154.000
82.38752 151.000
82.40747 150.000
82.42742 141.000
82.44737 139.000
82.46731 174.000
82.48726 155.000
82.50721 188.000
82.52715 180.000
82.54710 173.000
82.56705 147.000
82.58699 166.000
82.60694 145.000
82.62689 169.000
82.64683 148.000
82.66678 152.000
82.68673 175.000
82.70668 180.000
82.72662 157.000
82.74657 164.000
82.76652 153.000
82.78646 155.000
82.80641 149.000
82.82636 152.000
82.84630 137.000
82.86625 176.000
82.88620 158.000
82.90615 162.000
82.92609 170.000
82.94604 159.000
82.96599 142.000
82.98593 158.000
83.00588 157.000
83.02583 171.000
83.04577 142.000
83.06572 162.000
83.08567 149.000
83.10561 181.000
83.12556 147.000
83.14551 160.000
83.16546 157.000
83.18540 156.000
83.20535 163.000
83.22530 154.000
83.24524 159.000
83.26519 166.000
83.28514 159.000
83.30508 138.000
83.32503 148.000
83.34498 141.000
83.36493 145.000
83.38487 147.000
83.40482 141.000
83.42477 151.000
83.44471 171.000
83.46466 164.000
83.48461 152.000
83.50455 144.000
83.52450 166.000
83.54445 171.000
83.56440 173.000
83.58434 148.000
83.60429 177.000
83.62424 175.000
83.64418 165.000
83.66413 156.000
83.68408 161.000
83.70402 168.000
83.72397 166.000
83.74392 168.000
83.76386 136.000
83.78381 173.000
83.80376 161.000
83.82371 156.000
83.84365 158.000
83.86360 153.000
83.88355 168.000
83.90349 168.000
83.92344 181.000
83.94339 155.000
83.96333 166.000
83.98328 165.000
84.00323 184.000
84.02318 165.000
84.04312 170.000
84.06307 163.000
84.08302 172.000
84.10296 149.000
84.12291 161.000
84.14286 163.000
84.16280 137.000
84.18275 143.000
84.20270 161.000
84.22264 145.000
84.24259 156.000
84.26254 181.000
84.28249 154.000
84.30243 141.000
84.32238 162.000
84.34233 150.000
84.36227 165.000
84.38222 163.000
84.40217 151.000
84.42211 162.000
84.44206 166.000
84.46201 172.000
84.48196 148.000
84.50190 180.000
84.52185 151.000
84.54180 163.000
84.56174 161.000
84.58169 193.000
84.60164 173.000
84.62158 167.000
84.64153 164.000
84.66148 166.000
84.68142 159.000
84.70137 161.000
84.72132 169.000
84.74127 166.000
84.76121 163.000
84.78116 180.000
84.80111 134.000
84.82105 177.000
84.84100 204.000
84.86095 155.000
84.88089 184.000
84.90084 164.000
84.92079 157.000
84.94074 155.000
84.96068 168.000
84.98063 170.000
85.00058 147.000
85.02052 151.000
85.04047 143.000
85.06042 143.000
85.08036 154.000
85.10031 151.000
85.12026 183.000
85.14021 162.000
85.16015 172.000
85.18010 149.000
85.20005 163.000
85.21999 148.000
85.23994 172.000
85.25989 162.000
85.27983 161.000
85.29978 157.000
85.31973 187.000
85.33967 174.000
85.35962 166.000
85.37957 188.000
85.39952 166.000
85.41946 141.000
85.43941 186.000
85.45936 176.000
85.47930 165.000
85.49925 157.000
85.51920 153.000
85.53914 161.000
85.55909 151.000
85.57904 171.000
85.59899 173.000
85.61893 150.000
85.63888 147.000
85.65883 160.000
85.67877 163.000
85.69872 164.000
85.71867 148.000
85.73861 168.000
85.75856 154.000
85.77851 175.000
85.79845 159.000
85.81840 170.000
85.83835 155.000
85.85830 187.000
85.87824 151.000
85.89819 160.000
85.91814 143.000
85.93808 156.000
85.95803 173.000
85.97798 147.000
85.99792 153.000
86.01787 130.000
86.03782 149.000
86.05777 179.000
86.07771 178.000
86.09766 149.000
86.11761 148.000
86.13755 154.000
86.15750 163.000
86.17745 159.000
86.19739 154.000
86.21734 162.000
86.23729 150.000
86.25723 156.000
86.27718 168.000
86.29713 163.000
86.31708 156.000
86.33702 164.000
86.35697 162.000
86.37692 160.000
86.39686 154.000
86.41681 134.000
86.43676 139.000
86.45670 161.000
86.47665 146.000
86.49660 161.000
86.51655 148.000
86.53649 158.000
86.55644 168.000
86.57639 158.000
86.59633 186.000
86.61628 154.000
86.63623 178.000
86.65617 158.000
86.67612 178.000
86.69607 177.000
86.71602 170.000
86.73596 166.000
86.75591 188.000
86.77586 207.000
86.79580 184.000
86.81575 185.000
86.83570 167.000
86.85564 205.000
86.87559 172.000
86.89554 194.000
86.91548 173.000
86.93543 185.000
86.95538 177.000
86.97533 166.000
86.99527 198.000
87.01522 211.000
87.03517 178.000
87.05511 173.000
87.07506 159.000
87.09501 174.000
87.11495 172.000
87.13490 164.000
87.15485 173.000
87.17480 179.000
87.19474 195.000
87.21469 178.000
87.23464 145.000
87.25458 150.000
87.27453 169.000
87.29448 150.000
87.31442 176.000
87.33437 162.000
87.35432 176.000
87.37426 180.000
87.39421 164.000
87.41416 177.000
87.43411 181.000
87.45405 180.000
87.47400 163.000
87.49395 175.000
87.51389 172.000
87.53384 151.000
87.55379 185.000
87.57373 193.000
87.59368 178.000
87.61363 147.000
87.63358 154.000
87.65352 167.000
87.67347 163.000
87.69342 153.000
87.71336 173.000
87.73331 188.000
87.75326 183.000
87.77320 157.000
87.79315 191.000
87.81310 153.000
87.83304 150.000
87.85299 128.000
87.87294 161.000
87.89289 153.000
87.91283 148.000
87.93278 165.000
87.95273 160.000
87.97267 160.000
87.99262 172.000
88.01257 177.000
88.03251 156.000
88.05246 174.000
88.07241 154.000
88.09236 156.000
88.11230 161.000
88.13225 154.000
88.15220 184.000
88.17214 160.000
88.19209 190.000
88.21204 149.000
88.23198 151.000
88.25193 165.000
88.27188 158.000
88.29183 156.000
88.31177 156.000
88.33172 150.000
88.35167 144.000
88.37161 148.000
88.39156 159.000
88.41151 146.000
88.43145 156.000
88.45140 167.000
88.47135 165.000
88.49129 160.000
88.51124 142.000
88.53119 168.000
88.55114 150.000
88.57108 144.000
88.59103 157.000
88.61098 159.000
88.63092 165.000
88.65087 164.000
88.67082 171.000
88.69076 168.000
88.71071 132.000
88.73066 166.000
88.75061 155.000
88.77055 147.000
88.79050 152.000
88.81045 138.000
88.83039 160.000
88.85034 172.000
88.87029 140.000
88.89023 138.000
88.91018 146.000
88.93013 155.000
88.95007 158.000
88.97002 159.000
88.98997 155.000
89.00992 137.000
89.02986 155.000
89.04981 167.000
89.06976 137.000
89.08970 156.000
89.10965 155.000
89.12960 150.000
89.14954 160.000
89.16949 158.000
89.18944 156.000
89.20939 151.000
89.22933 183.000
89.24928 162.000
89.26923 162.000
89.28917 172.000
89.30912 155.000
89.32907 161.000
89.34901 160.000
89.36896 176.000
89.38891 159.000
89.40885 177.000
89.42880 148.000
89.44875 155.000
89.46870 127.000
89.48864 171.000
89.50859 148.000
89.52854 161.000
89.54848 158.000
89.56843 144.000
89.58838 149.000
89.60832 155.000
89.62827 139.000
89.64822 152.000
89.66817 154.000
89.68811 155.000
89.70806 134.000
89.72801 154.000
89.74795 151.000
89.76790 155.000
89.78785 162.000
89.80779 160.000
89.82774 174.000
89.84769 155.000
89.86764 161.000
89.88758 148.000
89.90753 154.000
89.92748 172.000
89.94742 169.000
89.96737 166.000
89.98732 172.000
90.00726 165.000
