10.00000 173.000
10.01995 152.000
10.03989 138.000
10.05984 165.000
10.07979 150.000
10.09973 149.000
10.11968 155.000
10.13963 160.000
10.15958 154.000
10.17952 140.000
10.19947 153.000
10.21942 139.000
10.23936 128.000
10.25931 155.000
10.27926 161.000
10.29920 142.000
10.31915 141.000
10.33910 151.000
10.35905 168.000
10.37899 158.000
10.39894 152.000
10.41889 168.000
10.43883 157.000
10.45878 152.000
10.47873 148.000
10.49867 145.000
10.51862 145.000
10.53857 143.000
10.55851 159.000
10.57846 155.000
10.59841 177.000
10.61836 122.000
10.63830 150.000
10.65825 168.000
10.67820 154.000
10.69814 155.000
10.71809 143.000
10.73804 129.000
10.75798 158.000
10.77793 134.000
10.79788 149.000
10.81783 151.000
10.83777 172.000
10.85772 178.000
10.87767 169.000
10.89761 137.000
10.91756 190.000
10.93751 153.000
10.95745 189.000
10.97740 135.000
10.99735 153.000
11.01730 152.000
11.03724 135.000
11.05719 148.000
11.07714 163.000
11.09708 177.000
11.11703 153.000
11.13698 164.000
11.15692 164.000
11.17687 152.000
11.19682 173.000
11.21676 161.000
11.23671 185.000
11.25666 180.000
11.27661 164.000
11.29655 134.000
11.31650 159.000
11.33645 144.000
11.35639 164.000
11.37634 182.000
11.39629 166.000
11.41623 171.000
11.43618 150.000
11.45613 168.000
11.47608 138.000
11.49602 158.000
11.51597 150.000
11.53592 172.000
11.55586 168.000
11.57581 165.000
11.59576 154.000
11.61570 159.000
11.63565 167.000
11.65560 166.000
11.67554 156.000
11.69549 152.000
11.71544 163.000
11.73539 170.000
11.75533 153.000
11.77528 172.000
11.79523 163.000
11.81517 165.000
11.83512 147.000
11.85507 172.000
11.87501 160.000
11.89496 135.000
11.91491 196.000
11.93486 177.000
11.95480 149.000
11.97475 166.000
11.99470 167.000
12.01464 147.000
12.03459 170.000
12.05454 151.000
12.07448 180.000
12.09443 160.000
12.11438 151.000
12.13432 156.000
12.15427 176.000
12.17422 153.000
12.19417 173.000
12.21411 147.000
12.23406 178.000
12.25401 180.000
12.27395 147.000
12.29390 141.000
12.31385 157.000
12.33379 169.000
12.35374 155.000
12.37369 155.000
12.39364 192.000
12.41358 154.000
12.43353 152.000
12.45348 140.000
12.47342 161.000
12.49337 164.000
12.51332 152.000
12.53326 157.000
12.55321 168.000
12.57316 154.000
12.59311 178.000
12.61305 153.000
12.63300 164.000
12.65295 169.000
12.67289 189.000
12.69284 153.000
12.71279 170.000
12.73273 174.000
12.75268 160.000
12.77263 181.000
12.79257 149.000
12.81252 147.000
12.83247 172.000
12.85242 164.000
12.87236 207.000
12.89231 167.000
12.91226 167.000
12.93220 167.000
12.95215 160.000
12.97210 169.000
12.99204 177.000
13.01199 155.000
13.03194 162.000
13.05189 170.000
13.07183 169.000
13.09178 157.000
13.11173 160.000
13.13167 166.000
13.15162 154.000
13.17157 173.000
13.19151 146.000
13.21146 151.000
13.23141 184.000
13.25135 196.000
13.27130 160.000
13.29125 166.000
13.31120 145.000
13.33114 174.000
13.35109 175.000
13.37104 164.000
13.39098 182.000
13.41093 171.000
13.43088 158.000
13.45082 163.000
13.47077 187.000
13.49072 158.000
13.51067 153.000
13.53061 152.000
13.55056 174.000
13.57051 168.000
13.59045 186.000
13.61040 191.000
13.63035 176.000
13.65029 166.000
13.67024 185.000
13.69019 160.000
13.71013 145.000
13.73008 169.000
13.75003 155.000
13.76998 171.000
13.78992 162.000
13.80987 185.000
13.82982 168.000
13.84976 158.000
13.86971 168.000
13.88966 164.000
13.90960 189.000
13.92955 168.000
13.94950 150.000
13.96945 171.000
13.98939 165.000
14.00934 190.000
14.02929 145.000
14.04923 191.000
14.06918 175.000
14.08913 165.000
14.10907 169.000
14.12902 166.000
14.14897 160.000
14.16892 177.000
14.18886 171.000
14.20881 163.000
14.22876 171.000
14.24870 209.000
14.26865 181.000
14.28860 175.000
14.30854 194.000
14.32849 155.000
14.34844 174.000
14.36838 158.000
14.38833 174.000
14.40828 178.000
14.42823 159.000
14.44817 164.000
14.46812 200.000
14.48807 179.000
14.50801 192.000
14.52796 195.000
14.54791 162.000
14.56785 180.000
14.58780 187.000
14.60775 157.000
14.62770 166.000
14.64764 185.000
14.66759 192.000
14.68754 157.000
14.70748 177.000
14.72743 178.000
14.74738 177.000
14.76732 185.000
14.78727 195.000
14.80722 170.000
14.82716 185.000
14.84711 180.000
14.86706 172.000
14.88701 194.000
14.90695 187.000
14.92690 186.000
14.94685 213.000
14.96679 179.000
14.98674 179.000
15.00669 187.000
15.02663 172.000
15.04658 210.000
15.06653 166.000
15.08648 192.000
15.10642 163.000
15.12637 181.000
15.14632 195.000
15.16626 193.000
15.18621 204.000
15.20616 219.000
15.22610 194.000
15.24605 234.000
15.26600 205.000
15.28594 212.000
15.30589 190.000
15.32584 197.000
15.34579 186.000
15.36573 220.000
15.38568 188.000
15.40563 197.000
15.42557 225.000
15.44552 196.000
15.46547 245.000
15.48541 229.000
15.50536 197.000
15.52531 226.000
15.54526 256.000
15.56520 234.000
15.58515 213.000
15.60510 240.000
15.62504 273.000
15.64499 266.000
15.66494 311.000
15.68488 287.000
15.70483 336.000
15.72478 357.000
15.74472 427.000
15.76467 516.000
15.78462 630.000
15.80457 864.000
15.82451 1266.000
15.84446 1988.000
15.86441 2723.000
15.88435 3453.000
15.90430 3710.000
15.92425 3409.000
15.94419 2749.000
15.96414 2052.000
15.98409 1584.000
16.00404 1438.000
16.02398 1270.000
16.04393 1267.000
16.06388 1110.000
16.08382 1003.000
16.10377 950.000
16.12372 1038.000
16.14366 1123.000
16.16361 1290.000
16.18356 1424.000
16.20351 1566.000
16.22345 1568.000
16.24340 1593.000
16.26335 1506.000
16.28329 1404.000
16.30324 1262.000
16.32319 1101.000
16.34313 920.000
16.36308 799.000
16.38303 775.000
16.40297 609.000
16.42292 561.000
16.44287 479.000
16.46282 396.000
16.48276 338.000
16.50271 310.000
16.52266 297.000
16.54260 277.000
16.56255 247.000
16.58250 260.000
16.60244 210.000
16.62239 258.000
16.64234 248.000
16.66229 247.000
16.68223 234.000
16.70218 211.000
16.72213 214.000
16.74207 205.000
16.76202 228.000
16.78197 241.000
16.80191 234.000
16.82186 254.000
16.84181 274.000
16.86175 336.000
16.88170 284.000
16.90165 250.000
16.92160 212.000
16.94154 241.000
16.96149 207.000
16.98144 217.000
17.00138 210.000
17.02133 200.000
17.04128 197.000
17.06122 187.000
17.08117 219.000
17.10112 199.000
17.12107 194.000
17.14101 206.000
17.16096 164.000
17.18091 207.000
17.20085 196.000
17.22080 201.000
17.24075 160.000
17.26069 196.000
17.28064 193.000
17.30059 185.000
17.32053 194.000
17.34048 183.000
17.36043 201.000
17.38038 198.000
17.40032 191.000
17.42027 192.000
17.44022 193.000
17.46016 196.000
17.48011 200.000
17.50006 192.000
17.52000 184.000
17.53995 180.000
17.55990 151.000
17.57985 173.000
17.59979 200.000
17.61974 171.000
17.63969 208.000
17.65963 184.000
17.67958 180.000
17.69953 208.000
17.71947 194.000
17.73942 196.000
17.75937 208.000
17.77932 201.000
17.79926 180.000
17.81921 204.000
17.83916 187.000
17.85910 181.000
17.87905 190.000
17.89900 174.000
17.91894 185.000
17.93889 186.000
17.95884 191.000
17.97878 185.000
17.99873 207.000
18.01868 183.000
18.03863 193.000
18.05857 177.000
18.07852 211.000
18.09847 179.000
18.11841 199.000
18.13836 179.000
18.15831 186.000
18.17825 181.000
18.19820 187.000
18.21815 189.000
18.23810 150.000
18.25804 186.000
18.27799 186.000
18.29794 176.000
18.31788 172.000
18.33783 194.000
18.35778 172.000
18.37772 172.000
18.39767 183.000
18.41762 206.000
18.43756 180.000
18.45751 198.000
18.47746 188.000
18.49741 203.000
18.51735 185.000
18.53730 223.000
18.55725 177.000
18.57719 186.000
18.59714 203.000
18.61709 204.000
18.63703 198.000
18.65698 189.000
18.67693 189.000
18.69688 213.000
18.71682 178.000
18.73677 196.000
18.75672 197.000
18.77666 194.000
18.79661 171.000
18.81656 177.000
18.83650 211.000
18.85645 180.000
18.87640 188.000
18.89634 177.000
18.91629 194.000
18.93624 222.000
18.95619 202.000
18.97613 171.000
18.99608 177.000
19.01603 172.000
19.03597 215.000
19.05592 191.000
19.07587 188.000
19.09581 181.000
19.11576 211.000
19.13571 188.000
19.15566 198.000
19.17560 192.000
19.19555 189.000
19.21550 172.000
19.23544 211.000
19.25539 183.000
19.27534 201.000
19.29528 174.000
19.31523 176.000
19.33518 182.000
19.35513 174.000
19.37507 185.000
19.39502 175.000
19.41497 201.000
19.43491 197.000
19.45486 204.000
19.47481 196.000
19.49475 196.000
19.51470 168.000
19.53465 201.000
19.55459 186.000
19.57454 189.000
19.59449 183.000
19.61444 187.000
19.63438 192.000
19.65433 201.000
19.67428 178.000
19.69422 189.000
19.71417 207.000
19.73412 180.000
19.75406 193.000
19.77401 209.000
19.79396 177.000
19.81391 191.000
19.83385 187.000
19.85380 185.000
19.87375 211.000
19.89369 201.000
19.91364 184.000
19.93359 186.000
19.95353 202.000
19.97348 202.000
19.99343 171.000
20.01337 176.000
20.03332 197.000
20.05327 192.000
20.07322 190.000
20.09316 209.000
20.11311 185.000
20.13306 216.000
20.15300 190.000
20.17295 225.000
20.19290 204.000
20.21284 195.000
20.23279 173.000
20.25274 197.000
20.27269 193.000
20.29263 209.000
20.31258 195.000
20.33253 216.000
20.35247 193.000
20.37242 199.000
20.39237 206.000
20.41231 194.000
20.43226 184.000
20.45221 214.000
20.47215 192.000
20.49210 208.000
20.51205 215.000
20.53200 163.000
20.55194 201.000
20.57189 190.000
20.59184 200.000
20.61178 190.000
20.63173 199.000
20.65168 186.000
20.67162 227.000
20.69157 211.000
20.71152 229.000
20.73147 207.000
20.75141 234.000
20.77136 225.000
20.79131 239.000
20.81125 287.000
20.83120 297.000
20.85115 289.000
20.87109 325.000
20.89104 297.000
20.91099 333.000
20.93094 306.000
20.95088 315.000
20.97083 320.000
20.99078 315.000
21.01072 322.000
21.03067 290.000
21.05062 267.000
21.07056 280.000
21.09051 261.000
21.11046 241.000
21.13040 247.000
21.15035 228.000
21.17030 208.000
21.19025 216.000
21.21019 228.000
21.23014 205.000
21.25009 226.000
21.27003 184.000
21.28998 204.000
21.30993 211.000
21.32987 200.000
21.34982 217.000
21.36977 194.000
21.38972 211.000
21.40966 194.000
21.42961 213.000
21.44956 206.000
21.46950 205.000
21.48945 198.000
21.50940 205.000
21.52934 171.000
21.54929 199.000
21.56924 203.000
21.58918 196.000
21.60913 204.000
21.62908 196.000
21.64903 178.000
21.66897 185.000
21.68892 201.000
21.70887 217.000
21.72881 190.000
21.74876 194.000
21.76871 184.000
21.78865 205.000
21.80860 192.000
21.82855 197.000
21.84850 202.000
21.86844 205.000
21.88839 204.000
21.90834 198.000
21.92828 191.000
21.94823 210.000
21.96818 180.000
21.98812 192.000
22.00807 216.000
22.02802 215.000
22.04796 191.000
22.06791 192.000
22.08786 198.000
22.10781 200.000
22.12775 200.000
22.14770 209.000
22.16765 194.000
22.18759 197.000
22.20754 201.000
22.22749 209.000
22.24743 215.000
22.26738 195.000
22.28733 183.000
22.30728 199.000
22.32722 204.000
22.34717 201.000
22.36712 209.000
22.38706 196.000
22.40701 181.000
22.42696 202.000
22.44690 174.000
22.46685 205.000
22.48680 210.000
22.50675 215.000
22.52669 194.000
22.54664 214.000
22.56659 186.000
22.58653 196.000
22.60648 218.000
22.62643 241.000
22.64637 201.000
22.66632 188.000
22.68627 214.000
22.70621 199.000
22.72616 194.000
22.74611 184.000
22.76606 205.000
22.78600 196.000
22.80595 199.000
22.82590 194.000
22.84584 185.000
22.86579 186.000
22.88574 207.000
22.90568 176.000
22.92563 212.000
22.94558 212.000
22.96553 204.000
22.98547 204.000
23.00542 230.000
23.02537 213.000
23.04531 205.000
23.06526 213.000
23.08521 187.000
23.10515 220.000
23.12510 231.000
23.14505 202.000
23.16499 220.000
23.18494 219.000
23.20489 178.000
23.22484 204.000
23.24478 214.000
23.26473 200.000
23.28468 187.000
23.30462 231.000
23.32457 183.000
23.34452 206.000
23.36446 198.000
23.38441 195.000
23.40436 194.000
23.42431 210.000
23.44425 211.000
23.46420 183.000
23.48415 207.000
23.50409 184.000
23.52404 200.000
23.54399 201.000
23.56393 192.000
23.58388 201.000
23.60383 203.000
23.62377 198.000
23.64372 216.000
23.66367 229.000
23.68362 201.000
23.70356 205.000
23.72351 200.000
23.74346 192.000
23.76340 202.000
23.78335 200.000
23.80330 205.000
23.82324 212.000
23.84319 189.000
23.86314 206.000
23.88309 211.000
23.90303 218.000
23.92298 219.000
23.94293 194.000
23.96287 204.000
23.98282 176.000
24.00277 197.000
24.02271 215.000
24.04266 204.000
24.06261 200.000
24.08256 213.000
24.10250 209.000
24.12245 246.000
24.14240 197.000
24.16234 186.000
24.18229 191.000
24.20224 213.000
24.22218 221.000
24.24213 208.000
24.26208 195.000
24.28202 204.000
24.30197 214.000
24.32192 230.000
24.34187 221.000
24.36181 207.000
24.38176 212.000
24.40171 205.000
24.42165 196.000
24.44160 200.000
24.46155 213.000
24.48149 223.000
24.50144 225.000
24.52139 231.000
24.54134 204.000
24.56128 197.000
24.58123 210.000
24.60118 206.000
24.62112 190.000
24.64107 220.000
24.66102 207.000
24.68096 189.000
24.70091 208.000
24.72086 231.000
24.74080 236.000
24.76075 202.000
24.78070 195.000
24.80065 218.000
24.82059 210.000
24.84054 211.000
24.86049 225.000
24.88043 198.000
24.90038 225.000
24.92033 258.000
24.94027 250.000
24.96022 242.000
24.98017 269.000
25.00012 266.000
25.02006 242.000
25.04001 246.000
25.05996 262.000
25.07990 235.000
25.09985 263.000
25.11980 211.000
25.13974 229.000
25.15969 231.000
25.17964 210.000
25.19958 220.000
25.21953 213.000
25.23948 233.000
25.25943 223.000
25.27937 200.000
25.29932 206.000
25.31927 226.000
25.33921 210.000
25.35916 186.000
25.37911 203.000
25.39905 185.000
25.41900 237.000
25.43895 217.000
25.45890 205.000
25.47884 185.000
25.49879 169.000
25.51874 213.000
25.53868 217.000
25.55863 208.000
25.57858 194.000
25.59852 209.000
25.61847 217.000
25.63842 196.000
25.65837 200.000
25.67831 199.000
25.69826 227.000
25.71821 199.000
25.73815 208.000
25.75810 222.000
25.77805 216.000
25.79799 216.000
25.81794 215.000
25.83789 235.000
25.85783 242.000
25.87778 230.000
25.89773 197.000
25.91768 199.000
25.93762 193.000
25.95757 187.000
25.97752 230.000
25.99746 230.000
26.01741 179.000
26.03736 199.000
26.05730 186.000
26.07725 221.000
26.09720 218.000
26.11715 225.000
26.13709 230.000
26.15704 233.000
26.17699 223.000
26.19693 221.000
26.21688 210.000
26.23683 187.000
26.25677 195.000
26.27672 192.000
26.29667 219.000
26.31661 206.000
26.33656 224.000
26.35651 193.000
26.37646 217.000
26.39640 222.000
26.41635 220.000
26.43630 220.000
26.45624 232.000
26.47619 222.000
26.49614 219.000
26.51608 215.000
26.53603 226.000
26.55598 220.000
26.57593 199.000
26.59587 217.000
26.61582 218.000
26.63577 230.000
26.65571 221.000
26.67566 230.000
26.69561 204.000
26.71555 210.000
26.73550 219.000
26.75545 209.000
26.77539 227.000
26.79534 204.000
26.81529 208.000
26.83524 240.000
26.85518 227.000
26.87513 205.000
26.89508 230.000
26.91502 219.000
26.93497 226.000
26.95492 229.000
26.97486 216.000
26.99481 203.000
27.01476 210.000
27.03471 224.000
27.05465 178.000
27.07460 198.000
27.09455 226.000
27.11449 248.000
27.13444 215.000
27.15439 218.000
27.17433 216.000
27.19428 209.000
27.21423 241.000
27.23417 202.000
27.25412 225.000
27.27407 205.000
27.29402 199.000
27.31396 222.000
27.33391 218.000
27.35386 241.000
27.37380 228.000
27.39375 261.000
27.41370 224.000
27.43364 226.000
27.45359 215.000
27.47354 224.000
27.49349 230.000
27.51343 224.000
27.53338 194.000
27.55333 214.000
27.57327 240.000
27.59322 231.000
27.61317 253.000
27.63311 252.000
27.65306 216.000
27.67301 232.000
27.69296 217.000
27.71290 194.000
27.73285 224.000
27.75280 200.000
27.77274 231.000
27.79269 216.000
27.81264 243.000
27.83258 221.000
27.85253 219.000
27.87248 216.000
27.89242 237.000
27.91237 207.000
27.93232 229.000
27.95227 228.000
27.97221 230.000
27.99216 221.000
28.01211 203.000
28.03205 220.000
28.05200 245.000
28.07195 229.000
28.09189 216.000
28.11184 241.000
28.13179 200.000
28.15174 220.000
28.17168 243.000
28.19163 230.000
28.21158 213.000
28.23152 253.000
28.25147 248.000
28.27142 230.000
28.29136 258.000
28.31131 205.000
28.33126 231.000
28.35120 238.000
28.37115 235.000
28.39110 220.000
28.41105 249.000
28.43099 255.000
28.45094 236.000
28.47089 257.000
28.49083 234.000
28.51078 235.000
28.53073 224.000
28.55067 197.000
28.57062 226.000
28.59057 215.000
28.61052 249.000
28.63046 243.000
28.65041 230.000
28.67036 230.000
28.69030 227.000
28.71025 238.000
28.73020 240.000
28.75014 218.000
28.77009 212.000
28.79004 228.000
28.80998 229.000
28.82993 220.000
28.84988 205.000
28.86983 237.000
28.88977 223.000
28.90972 212.000
28.92967 215.000
28.94961 257.000
28.96956 235.000
28.98951 232.000
29.00945 241.000
29.02940 209.000
29.04935 238.000
29.06930 220.000
29.08924 240.000
29.10919 199.000
29.12914 242.000
29.14908 239.000
29.16903 234.000
29.18898 208.000
29.20892 256.000
29.22887 260.000
29.24882 260.000
29.26877 304.000
29.28871 291.000
29.30866 332.000
29.32861 373.000
29.34855 401.000
29.36850 388.000
29.38845 417.000
29.40839 413.000
29.42834 407.000
29.44829 385.000
29.46823 363.000
29.48818 334.000
29.50813 341.000
29.52808 303.000
29.54802 309.000
29.56797 284.000
29.58792 251.000
29.60786 252.000
29.62781 239.000
29.64776 242.000
29.66770 255.000
29.68765 231.000
29.70760 268.000
29.72755 232.000
29.74749 237.000
29.76744 245.000
29.78739 229.000
29.80733 246.000
29.82728 240.000
29.84723 248.000
29.86717 259.000
29.88712 220.000
29.90707 226.000
29.92701 238.000
29.94696 238.000
29.96691 231.000
29.98686 220.000
30.00680 213.000
30.02675 265.000
30.04670 246.000
30.06664 234.000
30.08659 233.000
30.10654 246.000
30.12648 258.000
30.14643 234.000
30.16638 263.000
30.18633 246.000
30.20627 230.000
30.22622 242.000
30.24617 285.000
30.26611 234.000
30.28606 233.000
30.30601 226.000
30.32595 215.000
30.34590 248.000
30.36585 246.000
30.38579 218.000
30.40574 231.000
30.42569 227.000
30.44564 240.000
30.46558 193.000
30.48553 248.000
30.50548 211.000
30.52542 242.000
30.54537 232.000
30.56532 240.000
30.58526 252.000
30.60521 229.000
30.62516 216.000
30.64511 218.000
30.66505 240.000
30.68500 235.000
30.70495 246.000
30.72489 211.000
30.74484 220.000
30.76479 248.000
30.78473 239.000
30.80468 223.000
30.82463 232.000
30.84458 209.000
30.86452 250.000
30.88447 227.000
30.90442 224.000
30.92436 227.000
30.94431 242.000
30.96426 251.000
30.98420 233.000
31.00415 218.000
31.02410 254.000
31.04404 197.000
31.06399 235.000
31.08394 197.000
31.10389 211.000
31.12383 216.000
31.14378 199.000
31.16373 235.000
31.18367 253.000
31.20362 221.000
31.22357 235.000
31.24351 219.000
31.26346 220.000
31.28341 230.000
31.30336 239.000
31.32330 250.000
31.34325 230.000
31.36320 209.000
31.38314 207.000
31.40309 238.000
31.42304 232.000
31.44298 239.000
31.46293 243.000
31.48288 229.000
31.50282 214.000
31.52277 247.000
31.54272 252.000
31.56267 237.000
31.58261 225.000
31.60256 256.000
31.62251 237.000
31.64245 242.000
31.66240 258.000
31.68235 217.000
31.70229 231.000
31.72224 267.000
31.74219 243.000
31.76214 272.000
31.78208 248.000
31.80203 234.000
31.82198 238.000
31.84192 260.000
31.86187 243.000
31.88182 264.000
31.90176 235.000
31.92171 246.000
31.94166 254.000
31.96160 262.000
31.98155 296.000
32.00150 296.000
32.02145 405.000
32.04139 382.000
32.06134 457.000
32.08129 511.000
32.10123 492.000
32.12118 570.000
32.14113 570.000
32.16107 550.000
32.18102 554.000
32.20097 506.000
32.22092 494.000
32.24086 425.000
32.26081 419.000
32.28076 366.000
32.30070 384.000
32.32065 345.000
32.34060 298.000
32.36054 339.000
32.38049 317.000
32.40044 299.000
32.42039 291.000
32.44033 343.000
32.46028 323.000
32.48023 316.000
32.50017 320.000
32.52012 314.000
32.54007 333.000
32.56001 346.000
32.57996 328.000
32.59991 329.000
32.61985 350.000
32.63980 348.000
32.65975 353.000
32.67970 334.000
32.69964 352.000
32.71959 362.000
32.73954 384.000
32.75948 375.000
32.77943 385.000
32.79938 353.000
32.81932 391.000
32.83927 356.000
32.85922 351.000
32.87917 358.000
32.89911 370.000
32.91906 328.000
32.93901 350.000
32.95895 344.000
32.97890 325.000
32.99885 321.000
33.01879 328.000
33.03874 281.000
33.05869 278.000
33.07863 331.000
33.09858 284.000
33.11853 294.000
33.13848 314.000
33.15842 297.000
33.17837 310.000
33.19832 269.000
33.21826 269.000
33.23821 271.000
33.25816 252.000
33.27810 242.000
33.29805 253.000
33.31800 272.000
33.33795 276.000
33.35789 229.000
33.37784 237.000
33.39779 228.000
33.41773 249.000
33.43768 216.000
33.45763 247.000
33.47757 267.000
33.49752 231.000
33.51747 218.000
33.53741 233.000
33.55736 248.000
33.57731 243.000
33.59726 249.000
33.61720 271.000
33.63715 233.000
33.65710 218.000
33.67704 255.000
33.69699 237.000
33.71694 235.000
33.73688 263.000
33.75683 229.000
33.77678 248.000
33.79673 255.000
33.81667 218.000
33.83662 246.000
33.85657 250.000
33.87651 251.000
33.89646 275.000
33.91641 240.000
33.93635 254.000
33.95630 239.000
33.97625 247.000
33.99620 250.000
34.01614 242.000
34.03609 270.000
34.05604 255.000
34.07598 254.000
34.09593 258.000
34.11588 260.000
34.13582 263.000
34.15577 298.000
34.17572 287.000
34.19566 281.000
34.21561 326.000
34.23556 310.000
34.25551 299.000
34.27545 321.000
34.29540 331.000
34.31535 347.000
34.33529 310.000
34.35524 375.000
34.37519 371.000
34.39513 410.000
34.41508 368.000
34.43503 395.000
34.45498 382.000
34.47492 387.000
34.49487 374.000
34.51482 397.000
34.53476 370.000
34.55471 403.000
34.57466 372.000
34.59460 397.000
34.61455 382.000
34.63450 367.000
34.65444 382.000
34.67439 339.000
34.69434 375.000
34.71429 368.000
34.73423 373.000
34.75418 317.000
34.77413 390.000
34.79407 373.000
34.81402 375.000
34.83397 353.000
34.85391 353.000
34.87386 337.000
34.89381 357.000
34.91376 381.000
34.93370 314.000
34.95365 326.000
34.97360 350.000
34.99354 311.000
35.01349 313.000
35.03344 339.000
35.05338 321.000
35.07333 297.000
35.09328 281.000
35.11322 309.000
35.13317 275.000
35.15312 312.000
35.17307 285.000
35.19301 332.000
35.21296 328.000
35.23291 358.000
35.25285 368.000
35.27280 324.000
35.29275 389.000
35.31269 413.000
35.33264 436.000
35.35259 465.000
35.37254 525.000
35.39248 638.000
35.41243 700.000
35.43238 779.000
35.45232 812.000
35.47227 863.000
35.49222 1005.000
35.51216 1082.000
35.53211 1192.000
35.55206 1169.000
35.57201 1110.000
35.59195 1201.000
35.61190 1173.000
35.63185 1281.000
35.65179 1148.000
35.67174 1171.000
35.69169 1196.000
35.71163 1139.000
35.73158 1051.000
35.75153 1032.000
35.77147 999.000
35.79142 994.000
35.81137 884.000
35.83132 871.000
35.85126 831.000
35.87121 703.000
35.89116 651.000
35.91110 642.000
35.93105 544.000
35.95100 516.000
35.97094 476.000
35.99089 448.000
36.01084 405.000
36.03079 391.000
36.05073 373.000
36.07068 350.000
36.09063 334.000
36.11057 331.000
36.13052 341.000
36.15047 316.000
36.17041 311.000
36.19036 318.000
36.21031 332.000
36.23025 329.000
36.25020 345.000
36.27015 310.000
36.29010 279.000
36.31004 309.000
36.32999 292.000
36.34994 293.000
36.36988 285.000
36.38983 310.000
36.40978 277.000
36.42972 295.000
36.44967 286.000
36.46962 310.000
36.48957 299.000
36.50951 329.000
36.52946 342.000
36.54941 311.000
36.56935 319.000
36.58930 324.000
36.60925 347.000
36.62919 360.000
36.64914 354.000
36.66909 359.000
36.68903 380.000
36.70898 393.000
36.72893 377.000
36.74888 392.000
36.76882 402.000
36.78877 443.000
36.80872 484.000
36.82866 450.000
36.84861 471.000
36.86856 448.000
36.88850 515.000
36.90845 586.000
36.92840 622.000
36.94835 686.000
36.96829 739.000
36.98824 812.000
37.00819 912.000
37.02813 962.000
37.04808 1082.000
37.06803 1041.000
37.08797 1104.000
37.10792 1105.000
37.12787 1094.000
37.14781 1063.000
37.16776 1061.000
37.18771 953.000
37.20766 871.000
37.22760 785.000
37.24755 686.000
37.26750 680.000
37.28744 614.000
37.30739 567.000
37.32734 508.000
37.34728 480.000
37.36723 450.000
37.38718 365.000
37.40713 377.000
37.42707 384.000
37.44702 334.000
37.46697 325.000
37.48691 339.000
37.50686 324.000
37.52681 310.000
37.54675 352.000
37.56670 274.000
37.58665 294.000
37.60660 304.000
37.62654 286.000
37.64649 283.000
37.66644 325.000
37.68638 301.000
37.70633 271.000
37.72628 297.000
37.74622 272.000
37.76617 274.000
37.78612 307.000
37.80606 263.000
37.82601 273.000
37.84596 282.000
37.86591 285.000
37.88585 261.000
37.90580 284.000
37.92575 292.000
37.94569 300.000
37.96564 313.000
37.98559 304.000
38.00553 277.000
38.02548 299.000
38.04543 294.000
38.06538 302.000
38.08532 322.000
38.10527 292.000
38.12522 305.000
38.14516 328.000
38.16511 298.000
38.18506 307.000
38.20500 293.000
38.22495 291.000
38.24490 312.000
38.26484 294.000
38.28479 281.000
38.30474 310.000
38.32469 317.000
38.34463 326.000
38.36458 338.000
38.38453 314.000
38.40447 319.000
38.42442 353.000
38.44437 364.000
38.46431 362.000
38.48426 436.000
38.50421 440.000
38.52416 427.000
38.54410 485.000
38.56405 553.000
38.58400 602.000
38.60394 729.000
38.62389 789.000
38.64384 868.000
38.66378 948.000
38.68373 928.000
38.70368 976.000
38.72362 973.000
38.74357 996.000
38.76352 968.000
38.78347 902.000
38.80341 893.000
38.82336 766.000
38.84331 824.000
38.86325 743.000
38.88320 746.000
38.90315 696.000
38.92309 632.000
38.94304 581.000
38.96299 646.000
38.98294 556.000
39.00288 604.000
39.02283 560.000
39.04278 522.000
39.06272 534.000
39.08267 470.000
39.10262 476.000
39.12256 473.000
39.14251 549.000
39.16246 509.000
39.18241 507.000
39.20235 536.000
39.22230 607.000
39.24225 687.000
39.26219 732.000
39.28214 843.000
39.30209 874.000
39.32203 874.000
39.34198 912.000
39.36193 885.000
39.38187 878.000
39.40182 829.000
39.42177 795.000
39.44172 799.000
39.46166 694.000
39.48161 593.000
39.50156 575.000
39.52150 563.000
39.54145 525.000
39.56140 476.000
39.58134 430.000
39.60129 397.000
39.62124 341.000
39.64119 352.000
39.66113 322.000
39.68108 341.000
39.70103 296.000
39.72097 291.000
39.74092 268.000
39.76087 273.000
39.78081 270.000
39.80076 273.000
39.82071 290.000
39.84065 253.000
39.86060 259.000
39.88055 270.000
39.90050 269.000
39.92044 309.000
39.94039 272.000
39.96034 296.000
39.98028 271.000
40.00023 253.000
40.02018 261.000
40.04012 298.000
40.06007 271.000
40.08002 275.000
40.09997 259.000
40.11991 254.000
40.13986 247.000
40.15981 267.000
40.17975 262.000
40.19970 249.000
40.21965 283.000
40.23959 242.000
40.25954 243.000
40.27949 244.000
40.29943 260.000
40.31938 275.000
40.33933 252.000
40.35928 243.000
40.37922 254.000
40.39917 254.000
40.41912 245.000
40.43906 275.000
40.45901 256.000
40.47896 246.000
40.49890 255.000
40.51885 260.000
40.53880 254.000
40.55875 285.000
40.57869 241.000
40.59864 237.000
40.61859 264.000
40.63853 271.000
40.65848 280.000
40.67843 249.000
40.69837 260.000
40.71832 258.000
40.73827 268.000
40.75822 236.000
40.77816 269.000
40.79811 258.000
40.81806 238.000
40.83800 260.000
40.85795 244.000
40.87790 260.000
40.89784 273.000
40.91779 270.000
40.93774 266.000
40.95768 249.000
40.97763 268.000
40.99758 258.000
41.01753 255.000
41.03747 263.000
41.05742 294.000
41.07737 272.000
41.09731 273.000
41.11726 261.000
41.13721 292.000
41.15715 253.000
41.17710 286.000
41.19705 273.000
41.21700 279.000
41.23694 292.000
41.25689 284.000
41.27684 295.000
41.29678 291.000
41.31673 294.000
41.33668 291.000
41.35662 262.000
41.37657 345.000
41.39652 305.000
41.41646 282.000
41.43641 297.000
41.45636 330.000
41.47631 328.000
41.49625 308.000
41.51620 321.000
41.53615 343.000
41.55609 374.000
41.57604 365.000
41.59599 387.000
41.61593 438.000
41.63588 437.000
41.65583 436.000
41.67578 465.000
41.69572 513.000
41.71567 589.000
41.73562 672.000
41.75556 705.000
41.77551 859.000
41.79546 1066.000
41.81540 1248.000
41.83535 1385.000
41.85530 1418.000
41.87524 1422.000
41.89519 1418.000
41.91514 1367.000
41.93509 1281.000
41.95503 1330.000
41.97498 1179.000
41.99493 1077.000
42.01487 892.000
42.03482 795.000
42.05477 697.000
42.07471 643.000
42.09466 554.000
42.11461 454.000
42.13456 462.000
42.15450 430.000
42.17445 390.000
42.19440 376.000
42.21434 350.000
42.23429 336.000
42.25424 355.000
42.27418 352.000
42.29413 322.000
42.31408 325.000
42.33403 303.000
42.35397 356.000
42.37392 342.000
42.39387 328.000
42.41381 308.000
42.43376 340.000
42.45371 315.000
42.47365 322.000
42.49360 331.000
42.51355 314.000
42.53349 308.000
42.55344 333.000
42.57339 318.000
42.59334 311.000
42.61328 345.000
42.63323 338.000
42.65318 328.000
42.67312 366.000
42.69307 359.000
42.71302 389.000
42.73296 419.000
42.75291 356.000
42.77286 400.000
42.79281 456.000
42.81275 447.000
42.83270 430.000
42.85265 469.000
42.87259 517.000
42.89254 541.000
42.91249 531.000
42.93243 575.000
42.95238 621.000
42.97233 663.000
42.99227 740.000
43.01222 774.000
43.03217 831.000
43.05212 796.000
43.07206 880.000
43.09201 865.000
43.11196 900.000
43.13190 911.000
43.15185 859.000
43.17180 969.000
43.19174 935.000
43.21169 863.000
43.23164 837.000
43.25159 807.000
43.27153 779.000
43.29148 778.000
43.31143 734.000
43.33137 695.000
43.35132 651.000
43.37127 679.000
43.39121 631.000
43.41116 694.000
43.43111 695.000
43.45105 710.000
43.47100 686.000
43.49095 663.000
43.51090 608.000
43.53084 584.000
43.55079 565.000
43.57074 523.000
43.59068 526.000
43.61063 496.000
43.63058 448.000
43.65052 403.000
43.67047 375.000
43.69042 400.000
43.71037 353.000
43.73031 356.000
43.75026 326.000
43.77021 319.000
43.79015 304.000
43.81010 314.000
43.83005 290.000
43.84999 307.000
43.86994 319.000
43.88989 280.000
43.90984 264.000
43.92978 259.000
43.94973 238.000
43.96968 271.000
43.98962 252.000
44.00957 274.000
44.02952 265.000
44.04946 251.000
44.06941 245.000
44.08936 258.000
44.10930 256.000
44.12925 253.000
44.14920 259.000
44.16915 265.000
44.18909 248.000
44.20904 272.000
44.22899 268.000
44.24893 256.000
44.26888 276.000
44.28883 242.000
44.30877 261.000
44.32872 269.000
44.34867 245.000
44.36862 274.000
44.38856 286.000
44.40851 268.000
44.42846 244.000
44.44840 291.000
44.46835 272.000
44.48830 262.000
44.50824 245.000
44.52819 266.000
44.54814 249.000
44.56808 274.000
44.58803 249.000
44.60798 247.000
44.62793 263.000
44.64787 234.000
44.66782 259.000
44.68777 266.000
44.70771 248.000
44.72766 236.000
44.74761 255.000
44.76755 298.000
44.78750 259.000
44.80745 270.000
44.82740 250.000
44.84734 261.000
44.86729 226.000
44.88724 283.000
44.90718 293.000
44.92713 280.000
44.94708 262.000
44.96702 266.000
44.98697 267.000
45.00692 259.000
45.02686 246.000
45.04681 257.000
45.06676 248.000
45.08671 279.000
45.10665 313.000
45.12660 272.000
45.14655 299.000
45.16649 292.000
45.18644 288.000
45.20639 305.000
45.22633 260.000
45.24628 298.000
45.26623 321.000
45.28618 268.000
45.30612 318.000
45.32607 272.000
45.34602 283.000
45.36596 258.000
45.38591 253.000
45.40586 245.000
45.42580 279.000
45.44575 265.000
45.46570 263.000
45.48565 254.000
45.50559 238.000
45.52554 253.000
45.54549 287.000
45.56543 260.000
45.58538 265.000
45.60533 269.000
45.62527 304.000
45.64522 272.000
45.66517 248.000
45.68511 253.000
45.70506 262.000
45.72501 241.000
45.74496 241.000
45.76490 270.000
45.78485 247.000
45.80480 262.000
45.82474 242.000
45.84469 248.000
45.86464 221.000
45.88458 246.000
45.90453 240.000
45.92448 241.000
45.94443 227.000
45.96437 231.000
45.98432 238.000
46.00427 260.000
46.02421 208.000
46.04416 243.000
46.06411 212.000
46.08405 240.000
46.10400 235.000
46.12395 242.000
46.14389 254.000
46.16384 257.000
46.18379 266.000
46.20374 250.000
46.22368 258.000
46.24363 220.000
46.26358 269.000
46.28352 245.000
46.30347 262.000
46.32342 242.000
46.34336 257.000
46.36331 271.000
46.38326 268.000
46.40321 280.000
46.42315 242.000
46.44310 275.000
46.46305 255.000
46.48299 260.000
46.50294 238.000
46.52289 232.000
46.54283 216.000
46.56278 220.000
46.58273 247.000
46.60267 226.000
46.62262 252.000
46.64257 264.000
46.66252 227.000
46.68246 235.000
46.70241 251.000
46.72236 216.000
46.74230 237.000
46.76225 242.000
46.78220 235.000
46.80214 265.000
46.82209 248.000
46.84204 261.000
46.86199 220.000
46.88193 284.000
46.90188 267.000
46.92183 234.000
46.94177 216.000
46.96172 265.000
46.98167 249.000
47.00161 238.000
47.02156 249.000
47.04151 250.000
47.06146 236.000
47.08140 237.000
47.10135 255.000
47.12130 227.000
47.14124 231.000
47.16119 235.000
47.18114 250.000
47.20108 235.000
47.22103 250.000
47.24098 244.000
47.26092 224.000
47.28087 257.000
47.30082 229.000
47.32077 249.000
47.34071 235.000
47.36066 246.000
47.38061 221.000
47.40055 247.000
47.42050 245.000
47.44045 230.000
47.46039 243.000
47.48034 212.000
47.50029 247.000
47.52024 257.000
47.54018 226.000
47.56013 232.000
47.58008 225.000
47.60002 217.000
47.61997 246.000
47.63992 260.000
47.65986 226.000
47.67981 254.000
47.69976 258.000
47.71970 245.000
47.73965 231.000
47.75960 268.000
47.77955 230.000
47.79949 233.000
47.81944 250.000
47.83939 245.000
47.85933 250.000
47.87928 264.000
47.89923 244.000
47.91917 236.000
47.93912 248.000
47.95907 255.000
47.97902 274.000
47.99896 316.000
48.01891 261.000
48.03886 297.000
48.05880 281.000
48.07875 277.000
48.09870 295.000
48.11864 285.000
48.13859 323.000
48.15854 296.000
48.17848 286.000
48.19843 307.000
48.21838 271.000
48.23833 306.000
48.25827 282.000
48.27822 289.000
48.29817 240.000
48.31811 270.000
48.33806 298.000
48.35801 286.000
48.37795 328.000
48.39790 255.000
48.41785 264.000
48.43780 297.000
48.45774 308.000
48.47769 303.000
48.49764 326.000
48.51758 353.000
48.53753 328.000
48.55748 345.000
48.57742 374.000
48.59737 359.000
48.61732 383.000
48.63726 440.000
48.65721 496.000
48.67716 534.000
48.69711 622.000
48.71705 732.000
48.73700 820.000
48.75695 881.000
48.77689 943.000
48.79684 980.000
48.81679 892.000
48.83673 949.000
48.85668 898.000
48.87663 951.000
48.89658 926.000
48.91652 831.000
48.93647 808.000
48.95642 778.000
48.97636 697.000
48.99631 674.000
49.01626 585.000
49.03620 513.000
49.05615 464.000
49.07610 494.000
49.09605 432.000
49.11599 405.000
49.13594 378.000
49.15589 372.000
49.17583 312.000
49.19578 318.000
49.21573 305.000
49.23567 312.000
49.25562 306.000
49.27557 275.000
49.29551 293.000
49.31546 295.000
49.33541 242.000
49.35536 269.000
49.37530 293.000
49.39525 287.000
49.41520 272.000
49.43514 289.000
49.45509 294.000
49.47504 276.000
49.49498 288.000
49.51493 278.000
49.53488 298.000
49.55483 302.000
49.57477 289.000
49.59472 266.000
49.61467 287.000
49.63461 246.000
49.65456 258.000
49.67451 255.000
49.69445 277.000
49.71440 245.000
49.73435 250.000
49.75429 256.000
49.77424 270.000
49.79419 245.000
49.81414 242.000
49.83408 233.000
49.85403 255.000
49.87398 245.000
49.89392 251.000
49.91387 239.000
49.93382 212.000
49.95376 218.000
49.97371 246.000
49.99366 261.000
50.01361 244.000
50.03355 241.000
50.05350 246.000
50.07345 239.000
50.09339 253.000
50.11334 237.000
50.13329 253.000
50.15323 239.000
50.17318 245.000
50.19313 232.000
50.21307 248.000
50.23302 260.000
50.25297 246.000
50.27292 234.000
50.29286 260.000
50.31281 229.000
50.33276 249.000
50.35270 233.000
50.37265 256.000
50.39260 241.000
50.41254 209.000
50.43249 236.000
50.45244 233.000
50.47239 256.000
50.49233 281.000
50.51228 228.000
50.53223 218.000
50.55217 241.000
50.57212 251.000
50.59207 225.000
50.61201 254.000
50.63196 269.000
50.65191 242.000
50.67186 273.000
50.69180 212.000
50.71175 238.000
50.73170 234.000
50.75164 260.000
50.77159 225.000
50.79154 257.000
50.81148 270.000
50.83143 236.000
50.85138 244.000
50.87132 253.000
50.89127 230.000
50.91122 217.000
50.93117 242.000
50.95111 241.000
50.97106 244.000
50.99101 250.000
51.01095 251.000
51.03090 272.000
51.05085 244.000
51.07079 232.000
51.09074 244.000
51.11069 227.000
51.13064 231.000
51.15058 257.000
51.17053 219.000
51.19048 232.000
51.21042 216.000
51.23037 248.000
51.25032 247.000
51.27026 252.000
51.29021 238.000
51.31016 280.000
51.33010 273.000
51.35005 246.000
51.37000 235.000
51.38995 274.000
51.40989 247.000
51.42984 262.000
51.44979 235.000
51.46973 225.000
51.48968 226.000
51.50963 249.000
51.52957 256.000
51.54952 247.000
51.56947 222.000
51.58942 229.000
51.60936 271.000
51.62931 251.000
51.64926 264.000
51.66920 239.000
51.68915 222.000
51.70910 250.000
51.72904 240.000
51.74899 220.000
51.76894 236.000
51.78888 232.000
51.80883 221.000
51.82878 242.000
51.84873 247.000
51.86867 245.000
51.88862 245.000
51.90857 258.000
51.92851 224.000
51.94846 242.000
51.96841 244.000
51.98835 256.000
52.00830 261.000
52.02825 272.000
52.04820 291.000
52.06814 273.000
52.08809 258.000
52.10804 290.000
52.12798 266.000
52.14793 284.000
52.16788 283.000
52.18782 275.000
52.20777 283.000
52.22772 265.000
52.24767 285.000
52.26761 268.000
52.28756 248.000
52.30751 255.000
52.32745 263.000
52.34740 281.000
52.36735 226.000
52.38729 252.000
52.40724 233.000
52.42719 224.000
52.44713 268.000
52.46708 252.000
52.48703 259.000
52.50698 230.000
52.52692 263.000
52.54687 261.000
52.56682 262.000
52.58676 271.000
52.60671 246.000
52.62666 233.000
52.64660 249.000
52.66655 230.000
52.68650 235.000
52.70645 236.000
52.72639 263.000
52.74634 256.000
52.76629 280.000
52.78623 271.000
52.80618 266.000
52.82613 247.000
52.84607 254.000
52.86602 271.000
52.88597 231.000
52.90591 267.000
52.92586 267.000
52.94581 263.000
52.96576 275.000
52.98570 265.000
53.00565 289.000
53.02560 290.000
53.04554 287.000
53.06549 259.000
53.08544 286.000
53.10538 304.000
53.12533 349.000
53.14528 345.000
53.16523 349.000
53.18517 363.000
53.20512 379.000
53.22507 388.000
53.24501 402.000
53.26496 402.000
53.28491 407.000
53.30485 380.000
53.32480 413.000
53.34475 426.000
53.36469 429.000
53.38464 399.000
53.40459 370.000
53.42454 380.000
53.44448 360.000
53.46443 355.000
53.48438 331.000
53.50432 356.000
53.52427 291.000
53.54422 281.000
53.56416 300.000
53.58411 298.000
53.60406 305.000
53.62401 293.000
53.64395 306.000
53.66390 306.000
53.68385 301.000
53.70379 240.000
53.72374 287.000
53.74369 273.000
53.76363 259.000
53.78358 285.000
53.80353 266.000
53.82348 264.000
53.84342 241.000
53.86337 243.000
53.88332 266.000
53.90326 259.000
53.92321 236.000
53.94316 241.000
53.96310 262.000
53.98305 244.000
54.00300 231.000
54.02294 261.000
54.04289 250.000
54.06284 243.000
54.08279 269.000
54.10273 249.000
54.12268 250.000
54.14263 231.000
54.16257 233.000
54.18252 222.000
54.20247 249.000
54.22241 252.000
54.24236 258.000
54.26231 254.000
54.28226 277.000
54.30220 221.000
54.32215 235.000
54.34210 262.000
54.36204 252.000
54.38199 236.000
54.40194 234.000
54.42188 227.000
54.44183 241.000
54.46178 268.000
54.48172 244.000
54.50167 251.000
54.52162 251.000
54.54157 235.000
54.56151 266.000
54.58146 238.000
54.60141 253.000
54.62135 241.000
54.64130 239.000
54.66125 228.000
54.68119 232.000
54.70114 279.000
54.72109 247.000
54.74104 258.000
54.76098 218.000
54.78093 255.000
54.80088 284.000
54.82082 238.000
54.84077 232.000
54.86072 232.000
54.88066 241.000
54.90061 226.000
54.92056 230.000
54.94050 249.000
54.96045 230.000
54.98040 233.000
55.00035 239.000
55.02029 226.000
55.04024 252.000
55.06019 248.000
55.08013 215.000
55.10008 249.000
55.12003 232.000
55.13997 216.000
55.15992 216.000
55.17987 241.000
55.19982 240.000
55.21976 259.000
55.23971 220.000
55.25966 236.000
55.27960 247.000
55.29955 249.000
55.31950 248.000
55.33944 219.000
55.35939 254.000
55.37934 240.000
55.39929 232.000
55.41923 219.000
55.43918 208.000
55.45913 248.000
55.47907 238.000
55.49902 234.000
55.51897 216.000
55.53891 219.000
55.55886 227.000
55.57881 254.000
55.59875 262.000
55.61870 258.000
55.63865 233.000
55.65860 267.000
55.67854 219.000
55.69849 246.000
55.71844 257.000
55.73838 225.000
55.75833 246.000
55.77828 212.000
55.79822 219.000
55.81817 214.000
55.83812 231.000
55.85807 236.000
55.87801 261.000
55.89796 229.000
55.91791 212.000
55.93785 263.000
55.95780 250.000
55.97775 251.000
55.99769 246.000
56.01764 260.000
56.03759 240.000
56.05753 222.000
56.07748 235.000
56.09743 257.000
56.11738 242.000
56.13732 247.000
56.15727 216.000
56.17722 223.000
56.19716 236.000
56.21711 240.000
56.23706 251.000
56.25700 226.000
56.27695 229.000
56.29690 220.000
56.31685 227.000
56.33679 248.000
56.35674 239.000
56.37669 255.000
56.39663 240.000
56.41658 203.000
56.43653 245.000
56.45647 227.000
56.47642 247.000
56.49637 215.000
56.51631 231.000
56.53626 231.000
56.55621 246.000
56.57616 219.000
56.59610 246.000
56.61605 245.000
56.63600 255.000
56.65594 253.000
56.67589 264.000
56.69584 234.000
56.71578 264.000
56.73573 274.000
56.75568 228.000
56.77563 254.000
56.79557 249.000
56.81552 236.000
56.83547 262.000
56.85541 234.000
56.87536 258.000
56.89531 260.000
56.91525 244.000
56.93520 225.000
56.95515 247.000
56.97510 245.000
56.99504 259.000
57.01499 249.000
57.03494 261.000
57.05488 243.000
57.07483 235.000
57.09478 231.000
57.11472 236.000
57.13467 237.000
57.15462 277.000
57.17456 257.000
57.19451 260.000
57.21446 237.000
57.23441 223.000
57.25435 243.000
57.27430 239.000
57.29425 256.000
57.31419 265.000
57.33414 235.000
57.35409 295.000
57.37403 273.000
57.39398 265.000
57.41393 236.000
57.43388 254.000
57.45382 254.000
57.47377 244.000
57.49372 246.000
57.51366 253.000
57.53361 302.000
57.55356 274.000
57.57350 304.000
57.59345 305.000
57.61340 271.000
57.63334 283.000
57.65329 254.000
57.67324 305.000
57.69319 333.000
57.71313 310.000
57.73308 334.000
57.75303 331.000
57.77297 321.000
57.79292 393.000
57.81287 386.000
57.83281 403.000
57.85276 387.000
57.87271 435.000
57.89266 444.000
57.91260 448.000
57.93255 471.000
57.95250 404.000
57.97244 424.000
57.99239 410.000
58.01234 421.000
58.03228 444.000
58.05223 427.000
58.07218 405.000
58.09212 426.000
58.11207 414.000
58.13202 382.000
58.15197 334.000
58.17191 377.000
58.19186 360.000
58.21181 353.000
58.23175 323.000
58.25170 345.000
58.27165 333.000
58.29159 377.000
58.31154 356.000
58.33149 351.000
58.35144 338.000
58.37138 343.000
58.39133 310.000
58.41128 325.000
58.43122 311.000
58.45117 295.000
58.47112 318.000
58.49106 296.000
58.51101 290.000
58.53096 270.000
58.55090 292.000
58.57085 303.000
58.59080 268.000
58.61075 314.000
58.63069 251.000
58.65064 270.000
58.67059 280.000
58.69053 260.000
58.71048 223.000
58.73043 253.000
58.75037 232.000
58.77032 266.000
58.79027 248.000
58.81022 256.000
58.83016 257.000
58.85011 223.000
58.87006 258.000
58.89000 252.000
58.90995 252.000
58.92990 243.000
58.94984 252.000
58.96979 233.000
58.98974 250.000
59.00969 244.000
59.02963 211.000
59.04958 218.000
59.06953 228.000
59.08947 274.000
59.10942 243.000
59.12937 266.000
59.14931 229.000
59.16926 220.000
59.18921 268.000
59.20915 252.000
59.22910 245.000
59.24905 230.000
59.26900 276.000
59.28894 227.000
59.30889 273.000
59.32884 242.000
59.34878 271.000
59.36873 235.000
59.38868 243.000
59.40862 237.000
59.42857 239.000
59.44852 235.000
59.46847 250.000
59.48841 255.000
59.50836 237.000
59.52831 236.000
59.54825 243.000
59.56820 245.000
59.58815 256.000
59.60809 197.000
59.62804 271.000
59.64799 245.000
59.66793 241.000
59.68788 239.000
59.70783 244.000
59.72778 247.000
59.74772 254.000
59.76767 224.000
59.78762 244.000
59.80756 217.000
59.82751 264.000
59.84746 245.000
59.86740 233.000
59.88735 245.000
59.90730 231.000
59.92725 233.000
59.94719 216.000
59.96714 263.000
59.98709 230.000
60.00703 247.000
60.02698 249.000
60.04693 248.000
60.06687 258.000
60.08682 252.000
60.10677 269.000
60.12671 230.000
60.14666 262.000
60.16661 266.000
60.18656 246.000
60.20650 267.000
60.22645 246.000
60.24640 268.000
60.26634 266.000
60.28629 256.000
60.30624 228.000
60.32618 245.000
60.34613 245.000
60.36608 302.000
60.38603 242.000
60.40597 261.000
60.42592 256.000
60.44587 226.000
60.46581 252.000
60.48576 259.000
60.50571 234.000
60.52565 259.000
60.54560 244.000
60.56555 248.000
60.58550 268.000
60.60544 258.000
60.62539 247.000
60.64534 255.000
60.66528 231.000
60.68523 273.000
60.70518 264.000
60.72512 262.000
60.74507 233.000
60.76502 254.000
60.78496 260.000
60.80491 271.000
60.82486 245.000
60.84481 235.000
60.86475 259.000
60.88470 267.000
60.90465 268.000
60.92459 238.000
60.94454 222.000
60.96449 285.000
60.98443 247.000
61.00438 250.000
61.02433 256.000
61.04428 237.000
61.06422 241.000
61.08417 259.000
61.10412 230.000
61.12406 251.000
61.14401 251.000
61.16396 280.000
61.18390 269.000
61.20385 275.000
61.22380 306.000
61.24374 250.000
61.26369 271.000
61.28364 267.000
61.30359 271.000
61.32353 286.000
61.34348 276.000
61.36343 296.000
61.38337 272.000
61.40332 301.000
61.42327 328.000
61.44321 321.000
61.46316 355.000
61.48311 350.000
61.50306 379.000
61.52300 378.000
61.54295 383.000
61.56290 416.000
61.58284 413.000
61.60279 387.000
61.62274 430.000
61.64268 444.000
61.66263 436.000
61.68258 388.000
61.70252 384.000
61.72247 404.000
61.74242 377.000
61.76237 396.000
61.78231 401.000
61.80226 355.000
61.82221 413.000
61.84215 343.000
61.86210 369.000
61.88205 376.000
61.90199 339.000
61.92194 367.000
61.94189 397.000
61.96184 370.000
61.98178 413.000
62.00173 407.000
62.02168 487.000
62.04162 462.000
62.06157 517.000
62.08152 570.000
62.10146 509.000
62.12141 516.000
62.14136 531.000
62.16131 516.000
62.18125 595.000
62.20120 568.000
62.22115 552.000
62.24109 565.000
62.26104 577.000
62.28099 537.000
62.30093 560.000
62.32088 588.000
62.34083 559.000
62.36077 546.000
62.38072 523.000
62.40067 537.000
62.42062 537.000
62.44056 521.000
62.46051 526.000
62.48046 566.000
62.50040 547.000
62.52035 593.000
62.54030 570.000
62.56024 522.000
62.58019 573.000
62.60014 588.000
62.62009 525.000
62.64003 597.000
62.65998 519.000
62.67993 559.000
62.69987 591.000
62.71982 495.000
62.73977 506.000
62.75971 553.000
62.77966 487.000
62.79961 459.000
62.81955 426.000
62.83950 437.000
62.85945 431.000
62.87940 405.000
62.89934 402.000
62.91929 391.000
62.93924 369.000
62.95918 351.000
62.97913 366.000
62.99908 386.000
63.01902 331.000
63.03897 328.000
63.05892 345.000
63.07887 333.000
63.09881 352.000
63.11876 333.000
63.13871 329.000
63.15865 322.000
63.17860 361.000
63.19855 393.000
63.21849 362.000
63.23844 347.000
63.25839 362.000
63.27833 327.000
63.29828 373.000
63.31823 347.000
63.33818 407.000
63.35812 373.000
63.37807 403.000
63.39802 391.000
63.41796 391.000
63.43791 409.000
63.45786 421.000
63.47780 427.000
63.49775 385.000
63.51770 420.000
63.53765 408.000
63.55759 411.000
63.57754 418.000
63.59749 396.000
63.61743 394.000
63.63738 354.000
63.65733 331.000
63.67727 351.000
63.69722 353.000
63.71717 365.000
63.73712 317.000
63.75706 317.000
63.77701 335.000
63.79696 308.000
63.81690 304.000
63.83685 321.000
63.85680 332.000
63.87674 280.000
63.89669 286.000
63.91664 297.000
63.93658 333.000
63.95653 323.000
63.97648 347.000
63.99643 337.000
64.01637 326.000
64.03632 343.000
64.05627 354.000
64.07621 375.000
64.09616 408.000
64.11611 409.000
64.13605 385.000
64.15600 381.000
64.17595 382.000
64.19590 451.000
64.21584 388.000
64.23579 402.000
64.25574 414.000
64.27568 343.000
64.29563 424.000
64.31558 398.000
64.33552 375.000
64.35547 391.000
64.37542 391.000
64.39536 418.000
64.41531 371.000
64.43526 365.000
64.45521 351.000
64.47515 346.000
64.49510 289.000
64.51505 335.000
64.53499 294.000
64.55494 327.000
64.57489 349.000
64.59483 294.000
64.61478 304.000
64.63473 291.000
64.65468 300.000
64.67462 270.000
64.69457 261.000
64.71452 255.000
64.73446 247.000
64.75441 277.000
64.77436 294.000
64.79430 276.000
64.81425 285.000
64.83420 249.000
64.85414 251.000
64.87409 263.000
64.89404 292.000
64.91399 245.000
64.93393 260.000
64.95388 245.000
64.97383 241.000
64.99377 261.000
65.01372 248.000
65.03367 271.000
65.05361 239.000
65.07356 236.000
65.09351 267.000
65.11346 249.000
65.13340 250.000
65.15335 248.000
65.17330 273.000
65.19324 256.000
65.21319 264.000
65.23314 281.000
65.25308 253.000
65.27303 268.000
65.29298 284.000
65.31293 249.000
65.33287 228.000
65.35282 293.000
65.37277 282.000
65.39271 280.000
65.41266 267.000
65.43261 276.000
65.45255 291.000
65.47250 305.000
65.49245 321.000
65.51239 319.000
65.53234 324.000
65.55229 350.000
65.57224 312.000
65.59218 320.000
65.61213 372.000
65.63208 348.000
65.65202 345.000
65.67197 337.000
65.69192 333.000
65.71186 369.000
65.73181 380.000
65.75176 346.000
65.77171 372.000
65.79165 352.000
65.81160 377.000
65.83155 354.000
65.85149 394.000
65.87144 387.000
65.89139 423.000
65.91133 379.000
65.93128 451.000
65.95123 351.000
65.97117 374.000
65.99112 403.000
66.01107 395.000
66.03102 378.000
66.05096 404.000
66.07091 392.000
66.09086 435.000
66.11080 365.000
66.13075 365.000
66.15070 359.000
66.17064 394.000
66.19059 383.000
66.21054 378.000
66.23049 376.000
66.25043 364.000
66.27038 399.000
66.29033 407.000
66.31027 397.000
66.33022 430.000
66.35017 419.000
66.37011 393.000
66.39006 371.000
66.41001 398.000
66.42995 418.000
66.44990 419.000
66.46985 374.000
66.48980 439.000
66.50974 410.000
66.52969 450.000
66.54964 408.000
66.56958 385.000
66.58953 416.000
66.60948 410.000
66.62942 425.000
66.64937 396.000
66.66932 385.000
66.68927 369.000
66.70921 335.000
66.72916 399.000
66.74911 340.000
66.76905 347.000
66.78900 361.000
66.80895 345.000
66.82889 324.000
66.84884 327.000
66.86879 316.000
66.88874 322.000
66.90868 323.000
66.92863 284.000
66.94858 317.000
66.96852 271.000
66.98847 293.000
67.00842 324.000
67.02836 268.000
67.04831 286.000
67.06826 301.000
67.08820 280.000
67.10815 294.000
67.12810 286.000
67.14805 275.000
67.16799 311.000
67.18794 269.000
67.20789 304.000
67.22783 286.000
67.24778 297.000
67.26773 278.000
67.28767 264.000
67.30762 297.000
67.32757 297.000
67.34752 287.000
67.36746 315.000
67.38741 281.000
67.40736 270.000
67.42730 285.000
67.44725 269.000
67.46720 264.000
67.48714 279.000
67.50709 283.000
67.52704 287.000
67.54698 249.000
67.56693 297.000
67.58688 261.000
67.60683 276.000
67.62677 249.000
67.64672 285.000
67.66667 264.000
67.68661 278.000
67.70656 287.000
67.72651 298.000
67.74645 267.000
67.76640 329.000
67.78635 304.000
67.80630 317.000
67.82624 301.000
67.84619 325.000
67.86614 356.000
67.88608 357.000
67.90603 311.000
67.92598 362.000
67.94592 341.000
67.96587 376.000
67.98582 357.000
68.00576 357.000
68.02571 381.000
68.04566 349.000
68.06561 369.000
68.08555 389.000
68.10550 387.000
68.12545 372.000
68.14539 361.000
68.16534 374.000
68.18529 360.000
68.20523 357.000
68.22518 347.000
68.24513 348.000
68.26508 361.000
68.28502 376.000
68.30497 356.000
68.32492 335.000
68.34486 327.000
68.36481 283.000
68.38476 325.000
68.40470 306.000
68.42465 308.000
68.44460 335.000
68.46455 301.000
68.48449 298.000
68.50444 283.000
68.52439 336.000
68.54433 294.000
68.56428 263.000
68.58423 287.000
68.60417 267.000
68.62412 277.000
68.64407 255.000
68.66401 248.000
68.68396 265.000
68.70391 291.000
68.72386 262.000
68.74380 300.000
68.76375 252.000
68.78370 276.000
68.80364 272.000
68.82359 248.000
68.84354 270.000
68.86348 265.000
68.88343 273.000
68.90338 272.000
68.92333 282.000
68.94327 238.000
68.96322 247.000
68.98317 259.000
69.00311 235.000
69.02306 280.000
69.04301 257.000
69.06295 276.000
69.08290 230.000
69.10285 241.000
69.12279 284.000
69.14274 242.000
69.16269 258.000
69.18264 227.000
69.20258 262.000
69.22253 288.000
69.24248 213.000
69.26242 221.000
69.28237 254.000
69.30232 232.000
69.32226 254.000
69.34221 276.000
69.36216 245.000
69.38211 252.000
69.40205 238.000
69.42200 241.000
69.44195 271.000
69.46189 224.000
69.48184 252.000
69.50179 244.000
69.52173 261.000
69.54168 234.000
69.56163 235.000
69.58157 246.000
69.60152 236.000
69.62147 252.000
69.64142 231.000
69.66136 230.000
69.68131 270.000
69.70126 229.000
69.72120 242.000
69.74115 220.000
69.76110 214.000
69.78104 242.000
69.80099 264.000
69.82094 227.000
69.84089 248.000
69.86083 273.000
69.88078 237.000
69.90073 239.000
69.92067 207.000
69.94062 226.000
69.96057 239.000
69.98051 235.000
70.00046 238.000
70.02041 209.000
70.04035 246.000
70.06030 232.000
70.08025 248.000
70.10020 259.000
70.12014 237.000
70.14009 248.000
70.16004 210.000
70.17998 243.000
70.19993 233.000
70.21988 256.000
70.23982 249.000
70.25977 229.000
70.27972 209.000
70.29967 212.000
70.31961 239.000
70.33956 230.000
70.35951 250.000
70.37945 249.000
70.39940 264.000
70.41935 268.000
70.43929 231.000
70.45924 240.000
70.47919 240.000
70.49914 241.000
70.51908 230.000
70.53903 247.000
70.55898 255.000
70.57892 240.000
70.59887 213.000
70.61882 229.000
70.63876 214.000
70.65871 242.000
70.67866 225.000
70.69860 243.000
70.71855 246.000
70.73850 251.000
70.75845 249.000
70.77839 246.000
70.79834 221.000
70.81829 242.000
70.83823 204.000
70.85818 238.000
70.87813 243.000
70.89807 248.000
70.91802 252.000
70.93797 213.000
70.95792 233.000
70.97786 233.000
70.99781 229.000
71.01776 232.000
71.03770 264.000
71.05765 269.000
71.07760 235.000
71.09754 200.000
71.11749 247.000
71.13744 222.000
71.15738 239.000
71.17733 225.000
71.19728 219.000
71.21723 242.000
71.23717 233.000
71.25712 219.000
71.27707 250.000
71.29701 227.000
71.31696 249.000
71.33691 235.000
71.35685 213.000
71.37680 250.000
71.39675 212.000
71.41670 236.000
71.43664 223.000
71.45659 245.000
71.47654 220.000
71.49648 232.000
71.51643 256.000
71.53638 246.000
71.55632 258.000
71.57627 258.000
71.59622 232.000
71.61616 240.000
71.63611 260.000
71.65606 226.000
71.67601 268.000
71.69595 222.000
71.71590 252.000
71.73585 266.000
71.75579 266.000
71.77574 223.000
71.79569 249.000
71.81563 209.000
71.83558 245.000
71.85553 248.000
71.87548 233.000
71.89542 223.000
71.91537 244.000
71.93532 248.000
71.95526 221.000
71.97521 238.000
71.99516 242.000
72.01510 247.000
72.03505 239.000
72.05500 241.000
72.07495 259.000
72.09489 271.000
72.11484 254.000
72.13479 242.000
72.15473 237.000
72.17468 242.000
72.19463 247.000
72.21457 222.000
72.23452 300.000
72.25447 291.000
72.27441 264.000
72.29436 279.000
72.31431 292.000
72.33426 269.000
72.35420 283.000
72.37415 253.000
72.39410 262.000
72.41404 299.000
72.43399 266.000
72.45394 297.000
72.47388 260.000
72.49383 280.000
72.51378 274.000
72.53373 288.000
72.55367 278.000
72.57362 271.000
72.59357 284.000
72.61351 298.000
72.63346 278.000
72.65341 274.000
72.67335 301.000
72.69330 259.000
72.71325 270.000
72.73319 239.000
72.75314 272.000
72.77309 272.000
72.79304 263.000
72.81298 271.000
72.83293 236.000
72.85288 258.000
72.87282 276.000
72.89277 255.000
72.91272 254.000
72.93266 248.000
72.95261 277.000
72.97256 293.000
72.99251 251.000
73.01245 246.000
73.03240 282.000
73.05235 275.000
73.07229 287.000
73.09224 261.000
73.11219 288.000
73.13213 247.000
73.15208 263.000
73.17203 299.000
73.19197 248.000
73.21192 273.000
73.23187 288.000
73.25182 322.000
73.27176 311.000
73.29171 283.000
73.31166 301.000
73.33160 330.000
73.35155 366.000
73.37150 316.000
73.39144 307.000
73.41139 298.000
73.43134 319.000
73.45129 357.000
73.47123 310.000
73.49118 335.000
73.51113 326.000
73.53107 330.000
73.55102 337.000
73.57097 352.000
73.59091 331.000
73.61086 318.000
73.63081 313.000
73.65076 344.000
73.67070 314.000
73.69065 332.000
73.71060 311.000
73.73054 338.000
73.75049 328.000
73.77044 280.000
73.79038 294.000
73.81033 306.000
73.83028 313.000
73.85022 296.000
73.87017 328.000
73.89012 273.000
73.91007 284.000
73.93001 254.000
73.94996 299.000
73.96991 300.000
73.98985 311.000
74.00980 271.000
74.02975 252.000
74.04969 304.000
74.06964 283.000
74.08959 279.000
74.10954 260.000
74.12948 256.000
74.14943 246.000
74.16938 269.000
74.18932 260.000
74.20927 261.000
74.22922 250.000
74.24916 273.000
74.26911 268.000
74.28906 287.000
74.30900 264.000
74.32895 237.000
74.34890 230.000
74.36885 270.000
74.38879 238.000
74.40874 282.000
74.42869 270.000
74.44863 249.000
74.46858 249.000
74.48853 239.000
74.50847 304.000
74.52842 269.000
74.54837 296.000
74.56832 284.000
74.58826 283.000
74.60821 244.000
74.62816 256.000
74.64810 275.000
74.66805 283.000
74.68800 302.000
74.70794 313.000
74.72789 296.000
74.74784 284.000
74.76778 301.000
74.78773 310.000
74.80768 327.000
74.82763 330.000
74.84757 307.000
74.86752 349.000
74.88747 329.000
74.90741 370.000
74.92736 327.000
74.94731 381.000
74.96725 372.000
74.98720 379.000
75.00715 386.000
75.02710 361.000
75.04704 362.000
75.06699 388.000
75.08694 373.000
75.10688 397.000
75.12683 419.000
75.14678 407.000
75.16672 375.000
75.18667 397.000
75.20662 377.000
75.22657 390.000
75.24651 356.000
75.26646 363.000
75.28641 348.000
75.30635 348.000
75.32630 321.000
75.34625 356.000
75.36619 346.000
75.38614 324.000
75.40609 326.000
75.42603 337.000
75.44598 315.000
75.46593 329.000
75.48588 329.000
75.50582 318.000
75.52577 328.000
75.54572 313.000
75.56566 308.000
75.58561 297.000
75.60556 310.000
75.62550 268.000
75.64545 286.000
75.66540 295.000
75.68535 298.000
75.70529 276.000
75.72524 315.000
75.74519 276.000
75.76513 262.000
75.78508 316.000
75.80503 314.000
75.82497 271.000
75.84492 295.000
75.86487 262.000
75.88481 284.000
75.90476 287.000
75.92471 293.000
75.94466 282.000
75.96460 268.000
75.98455 269.000
76.00450 268.000
76.02444 271.000
76.04439 259.000
76.06434 244.000
76.08428 298.000
76.10423 279.000
76.12418 295.000
76.14413 285.000
76.16407 249.000
76.18402 252.000
76.20397 263.000
76.22391 233.000
76.24386 265.000
76.26381 269.000
76.28375 260.000
76.30370 209.000
76.32365 246.000
76.34359 234.000
76.36354 279.000
76.38349 253.000
76.40344 249.000
76.42338 255.000
76.44333 261.000
76.46328 250.000
76.48322 246.000
76.50317 242.000
76.52312 260.000
76.54306 245.000
76.56301 223.000
76.58296 253.000
76.60291 260.000
76.62285 250.000
76.64280 233.000
76.66275 230.000
76.68269 248.000
76.70264 246.000
76.72259 229.000
76.74253 268.000
76.76248 216.000
76.78243 236.000
76.80238 221.000
76.82232 258.000
76.84227 257.000
76.86222 244.000
76.88216 243.000
76.90211 253.000
76.92206 245.000
76.94200 228.000
76.96195 213.000
76.98190 252.000
77.00184 227.000
77.02179 249.000
77.04174 244.000
77.06169 248.000
77.08163 222.000
77.10158 227.000
77.12153 241.000
77.14147 245.000
77.16142 231.000
77.18137 240.000
77.20131 228.000
77.22126 231.000
77.24121 220.000
77.26116 233.000
77.28110 267.000
77.30105 238.000
77.32100 239.000
77.34094 212.000
77.36089 241.000
77.38084 237.000
77.40078 254.000
77.42073 268.000
77.44068 234.000
77.46062 278.000
77.48057 217.000
77.50052 251.000
77.52047 258.000
77.54041 249.000
77.56036 261.000
77.58031 232.000
77.60025 238.000
77.62020 248.000
77.64015 252.000
77.66009 257.000
77.68004 244.000
77.69999 252.000
77.71994 255.000
77.73988 241.000
77.75983 263.000
77.77978 301.000
77.79972 264.000
77.81967 267.000
77.83962 287.000
77.85956 291.000
77.87951 283.000
77.89946 306.000
77.91940 307.000
77.93935 266.000
77.95930 260.000
77.97925 288.000
77.99919 276.000
78.01914 292.000
78.03909 303.000
78.05903 288.000
78.07898 290.000
78.09893 302.000
78.11887 279.000
78.13882 274.000
78.15877 294.000
78.17872 295.000
78.19866 307.000
78.21861 336.000
78.23856 298.000
78.25850 317.000
78.27845 317.000
78.29840 298.000
78.31834 292.000
78.33829 315.000
78.35824 288.000
78.37819 292.000
78.39813 301.000
78.41808 323.000
78.43803 288.000
78.45797 318.000
78.47792 320.000
78.49787 327.000
78.51781 338.000
78.53776 344.000
78.55771 316.000
78.57765 353.000
78.59760 315.000
78.61755 315.000
78.63750 309.000
78.65744 290.000
78.67739 326.000
78.69734 337.000
78.71728 331.000
78.73723 350.000
78.75718 339.000
78.77712 351.000
78.79707 348.000
78.81702 371.000
78.83697 344.000
78.85691 336.000
78.87686 329.000
78.89681 340.000
78.91675 396.000
78.93670 331.000
78.95665 371.000
78.97659 388.000
78.99654 375.000
79.01649 343.000
79.03643 358.000
79.05638 345.000
79.07633 367.000
79.09628 344.000
79.11622 354.000
79.13617 346.000
79.15612 333.000
79.17606 338.000
79.19601 326.000
79.21596 358.000
79.23590 323.000
79.25585 337.000
79.27580 280.000
79.29575 289.000
79.31569 314.000
79.33564 301.000
79.35559 290.000
79.37553 282.000
79.39548 292.000
79.41543 301.000
79.43537 273.000
79.45532 276.000
79.47527 292.000
79.49521 260.000
79.51516 292.000
79.53511 274.000
79.55506 250.000
79.57500 251.000
79.59495 277.000
79.61490 269.000
79.63484 258.000
79.65479 267.000
79.67474 245.000
79.69468 242.000
79.71463 258.000
79.73458 245.000
79.75453 234.000
79.77447 254.000
79.79442 232.000
79.81437 289.000
79.83431 229.000
79.85426 244.000
79.87421 252.000
79.89415 233.000
79.91410 233.000
79.93405 233.000
79.95399 237.000
79.97394 247.000
79.99389 236.000
80.01384 223.000
80.03378 257.000
80.05373 208.000
80.07368 253.000
80.09362 246.000
80.11357 218.000
80.13352 248.000
80.15346 250.000
80.17341 246.000
80.19336 246.000
80.21331 243.000
80.23325 256.000
80.25320 229.000
80.27315 261.000
80.29309 257.000
80.31304 239.000
80.33299 261.000
80.35293 247.000
80.37288 253.000
80.39283 249.000
80.41278 243.000
80.43272 246.000
80.45267 263.000
80.47262 282.000
80.49256 230.000
80.51251 259.000
80.53246 245.000
80.55240 258.000
80.57235 224.000
80.59230 249.000
80.61224 239.000
80.63219 257.000
80.65214 281.000
80.67209 248.000
80.69203 255.000
80.71198 260.000
80.73193 221.000
80.75187 241.000
80.77182 261.000
80.79177 208.000
80.81171 239.000
80.83166 239.000
80.85161 249.000
80.87156 249.000
80.89150 229.000
80.91145 252.000
80.93140 250.000
80.95134 233.000
80.97129 221.000
80.99124 234.000
81.01118 259.000
81.03113 229.000
81.05108 273.000
81.07102 251.000
81.09097 261.000
81.11092 273.000
81.13087 204.000
81.15081 240.000
81.17076 209.000
81.19071 222.000
81.21065 234.000
81.23060 237.000
81.25055 258.000
81.27049 250.000
81.29044 229.000
81.31039 270.000
81.33034 263.000
81.35028 245.000
81.37023 240.000
81.39018 259.000
81.41012 221.000
81.43007 274.000
81.45002 247.000
81.46996 235.000
81.48991 234.000
81.50986 252.000
81.52980 248.000
81.54975 214.000
81.56970 256.000
81.58965 236.000
81.60959 232.000
81.62954 217.000
81.64949 237.000
81.66943 250.000
81.68938 250.000
81.70933 221.000
81.72927 220.000
81.74922 232.000
81.76917 228.000
81.78912 285.000
81.80906 238.000
81.82901 247.000
81.84896 230.000
81.86890 246.000
81.88885 249.000
81.90880 295.000
81.92874 244.000
81.94869 281.000
81.96864 229.000
81.98859 238.000
82.00853 271.000
82.02848 242.000
82.04843 220.000
82.06837 243.000
82.08832 248.000
82.10827 243.000
82.12821 226.000
82.14816 236.000
82.16811 230.000
82.18805 222.000
82.20800 266.000
82.22795 248.000
82.24790 214.000
82.26784 217.000
82.28779 241.000
82.30774 236.000
82.32768 271.000
82.34763 276.000
82.36758 237.000
82.38752 251.000
82.40747 275.000
82.42742 260.000
82.44737 258.000
82.46731 236.000
82.48726 247.000
82.50721 251.000
82.52715 260.000
82.54710 256.000
82.56705 244.000
82.58699 260.000
82.60694 249.000
82.62689 272.000
82.64683 268.000
82.66678 254.000
82.68673 268.000
82.70668 288.000
82.72662 282.000
82.74657 267.000
82.76652 280.000
82.78646 244.000
82.80641 286.000
82.82636 269.000
82.84630 259.000
82.86625 256.000
82.88620 255.000
82.90615 273.000
82.92609 284.000
82.94604 258.000
82.96599 224.000
82.98593 259.000
83.00588 268.000
83.02583 259.000
83.04577 264.000
83.06572 289.000
83.08567 271.000
83.10561 249.000
83.12556 273.000
83.14551 261.000
83.16546 252.000
83.18540 240.000
83.20535 258.000
83.22530 241.000
83.24524 259.000
83.26519 276.000
83.28514 258.000
83.30508 268.000
83.32503 248.000
83.34498 250.000
83.36493 232.000
83.38487 247.000
83.40482 236.000
83.42477 245.000
83.44471 279.000
83.46466 260.000
83.48461 258.000
83.50455 269.000
83.52450 239.000
83.54445 229.000
83.56440 228.000
83.58434 237.000
83.60429 265.000
83.62424 257.000
83.64418 238.000
83.66413 231.000
83.68408 248.000
83.70402 264.000
83.72397 273.000
83.74392 235.000
83.76386 254.000
83.78381 277.000
83.80376 232.000
83.82371 256.000
83.84365 237.000
83.86360 235.000
83.88355 252.000
83.90349 242.000
83.92344 288.000
83.94339 257.000
83.96333 255.000
83.98328 253.000
84.00323 294.000
84.02318 249.000
84.04312 258.000
84.06307 245.000
84.08302 234.000
84.10296 255.000
84.12291 252.000
84.14286 274.000
84.16280 226.000
84.18275 232.000
84.20270 236.000
84.22264 256.000
84.24259 242.000
84.26254 242.000
84.28249 258.000
84.30243 274.000
84.32238 262.000
84.34233 250.000
84.36227 247.000
84.38222 255.000
84.40217 277.000
84.42211 248.000
84.44206 265.000
84.46201 267.000
84.48196 284.000
84.50190 290.000
84.52185 240.000
84.54180 290.000
84.56174 261.000
84.58169 267.000
84.60164 299.000
84.62158 316.000
84.64153 282.000
84.66148 299.000
84.68142 311.000
84.70137 317.000
84.72132 264.000
84.74127 283.000
84.76121 296.000
84.78116 271.000
84.80111 267.000
84.82105 314.000
84.84100 286.000
84.86095 275.000
84.88089 274.000
84.90084 261.000
84.92079 270.000
84.94074 299.000
84.96068 223.000
84.98063 257.000
85.00058 248.000
85.02052 262.000
85.04047 267.000
85.06042 281.000
85.08036 254.000
85.10031 248.000
85.12026 269.000
85.14021 258.000
85.16015 249.000
85.18010 257.000
85.20005 259.000
85.21999 241.000
85.23994 242.000
85.25989 264.000
85.27983 269.000
85.29978 256.000
85.31973 287.000
85.33967 238.000
85.35962 215.000
85.37957 239.000
85.39952 245.000
85.41946 244.000
85.43941 253.000
85.45936 247.000
85.47930 249.000
85.49925 219.000
85.51920 237.000
85.53914 233.000
85.55909 250.000
85.57904 242.000
85.59899 253.000
85.61893 211.000
85.63888 263.000
85.65883 235.000
85.67877 257.000
85.69872 249.000
85.71867 235.000
85.73861 246.000
85.75856 205.000
85.77851 231.000
85.79845 212.000
85.81840 256.000
85.83835 209.000
85.85830 263.000
85.87824 240.000
85.89819 234.000
85.91814 236.000
85.93808 237.000
85.95803 233.000
85.97798 228.000
85.99792 252.000
86.01787 257.000
86.03782 211.000
86.05777 242.000
86.07771 226.000
86.09766 211.000
86.11761 235.000
86.13755 254.000
86.15750 226.000
86.17745 266.000
86.19739 243.000
86.21734 250.000
86.23729 238.000
86.25723 219.000
86.27718 242.000
86.29713 222.000
86.31708 235.000
86.33702 242.000
86.35697 250.000
86.37692 258.000
86.39686 240.000
86.41681 224.000
86.43676 236.000
86.45670 230.000
86.47665 240.000
86.49660 234.000
86.51655 251.000
86.53649 225.000
86.55644 247.000
86.57639 254.000
86.59633 253.000
86.61628 253.000
86.63623 242.000
86.65617 227.000
86.67612 243.000
86.69607 272.000
86.71602 259.000
86.73596 242.000
86.75591 229.000
86.77586 274.000
86.79580 231.000
86.81575 248.000
86.83570 245.000
86.85564 246.000
86.87559 261.000
86.89554 251.000
86.91548 251.000
86.93543 230.000
86.95538 256.000
86.97533 248.000
86.99527 243.000
87.01522 270.000
87.03517 254.000
87.05511 270.000
87.07506 237.000
87.09501 246.000
87.11495 266.000
87.13490 254.000
87.15485 242.000
87.17480 269.000
87.19474 277.000
87.21469 270.000
87.23464 247.000
87.25458 240.000
87.27453 272.000
87.29448 248.000
87.31442 289.000
87.33437 297.000
87.35432 289.000
87.37426 259.000
87.39421 269.000
87.41416 277.000
87.43411 276.000
87.45405 251.000
87.47400 266.000
87.49395 262.000
87.51389 270.000
87.53384 257.000
87.55379 281.000
87.57373 242.000
87.59368 246.000
87.61363 256.000
87.63358 254.000
87.65352 255.000
87.67347 263.000
87.69342 276.000
87.71336 259.000
87.73331 242.000
87.75326 252.000
87.77320 242.000
87.79315 265.000
87.81310 252.000
87.83304 243.000
87.85299 222.000
87.87294 276.000
87.89289 259.000
87.91283 245.000
87.93278 252.000
87.95273 243.000
87.97267 255.000
87.99262 252.000
88.01257 246.000
88.03251 255.000
88.05246 258.000
88.07241 256.000
88.09236 236.000
88.11230 242.000
88.13225 251.000
88.15220 247.000
88.17214 259.000
88.19209 240.000
88.21204 255.000
88.23198 247.000
88.25193 244.000
88.27188 268.000
88.29183 241.000
88.31177 257.000
88.33172 262.000
88.35167 220.000
88.37161 252.000
88.39156 238.000
88.41151 246.000
88.43145 230.000
88.45140 238.000
88.47135 248.000
88.49129 226.000
88.51124 219.000
88.53119 264.000
88.55114 248.000
88.57108 249.000
88.59103 282.000
88.61098 243.000
88.63092 252.000
88.65087 237.000
88.67082 255.000
88.69076 253.000
88.71071 244.000
88.73066 229.000
88.75061 233.000
88.77055 226.000
88.79050 253.000
88.81045 253.000
88.83039 236.000
88.85034 219.000
88.87029 237.000
88.89023 226.000
88.91018 238.000
88.93013 221.000
88.95007 235.000
88.97002 244.000
88.98997 220.000
89.00992 208.000
89.02986 249.000
89.04981 243.000
89.06976 249.000
89.08970 264.000
89.10965 256.000
89.12960 227.000
89.14954 216.000
89.16949 222.000
89.18944 246.000
89.20939 271.000
89.22933 267.000
89.24928 242.000
89.26923 242.000
89.28917 256.000
89.30912 256.000
89.32907 269.000
89.34901 263.000
89.36896 241.000
89.38891 230.000
89.40885 218.000
89.42880 268.000
89.44875 244.000
89.46870 255.000
89.48864 293.000
89.50859 251.000
89.52854 256.000
89.54848 277.000
89.56843 235.000
89.58838 275.000
89.60832 265.000
89.62827 235.000
89.64822 257.000
89.66817 227.000
89.68811 240.000
89.70806 247.000
89.72801 243.000
89.74795 244.000
89.76790 245.000
89.78785 251.000
89.80779 225.000
89.82774 269.000
89.84769 241.000
89.86764 238.000
89.88758 248.000
89.90753 260.000
89.92748 226.000
89.94742 223.000
89.96737 251.000
89.98732 251.000
90.00726 249.000
