10.00000 305.000
10.01995 314.000
10.03989 316.000
10.05984 305.000
10.07979 296.000
10.09973 301.000
10.11968 281.000
10.13963 289.000
10.15958 324.000
10.17952 314.000
10.19947 303.000
10.21942 333.000
10.23936 352.000
10.25931 322.000
10.27926 306.000
10.29920 314.000
10.31915 306.000
10.33910 336.000
10.35905 323.000
10.37899 298.000
10.39894 313.000
10.41889 320.000
10.43883 296.000
10.45878 337.000
10.47873 309.000
10.49867 306.000
10.51862 286.000
10.53857 297.000
10.55851 317.000
10.57846 325.000
10.59841 342.000
10.61836 330.000
10.63830 322.000
10.65825 354.000
10.67820 315.000
10.69814 330.000
10.71809 318.000
10.73804 295.000
10.75798 303.000
10.77793 276.000
10.79788 343.000
10.81783 326.000
10.83777 309.000
10.85772 328.000
10.87767 308.000
10.89761 310.000
10.91756 299.000
10.93751 290.000
10.95745 333.000
10.97740 324.000
10.99735 317.000
11.01730 312.000
11.03724 321.000
11.05719 312.000
11.07714 326.000
11.09708 341.000
11.11703 289.000
11.13698 346.000
11.15692 332.000
11.17687 357.000
11.19682 290.000
11.21676 299.000
11.23671 330.000
11.25666 329.000
11.27661 341.000
11.29655 327.000
11.31650 337.000
11.33645 327.000
11.35639 306.000
11.37634 319.000
11.39629 314.000
11.41623 305.000
11.43618 311.000
11.45613 356.000
11.47608 309.000
11.49602 349.000
11.51597 326.000
11.53592 332.000
11.55586 304.000
11.57581 313.000
11.59576 291.000
11.61570 338.000
11.63565 313.000
11.65560 340.000
11.67554 308.000
11.69549 344.000
11.71544 331.000
11.73539 320.000
11.75533 341.000
11.77528 313.000
11.79523 319.000
11.81517 317.000
11.83512 341.000
11.85507 340.000
11.87501 322.000
11.89496 321.000
11.91491 327.000
11.93486 320.000
11.95480 339.000
11.97475 329.000
11.99470 328.000
12.01464 329.000
12.03459 284.000
12.05454 314.000
12.07448 328.000
12.09443 324.000
12.11438 317.000
12.13432 310.000
12.15427 330.000
12.17422 330.000
12.19417 299.000
12.21411 333.000
12.23406 324.000
12.25401 287.000
12.27395 313.000
12.29390 318.000
12.31385 323.000
12.33379 318.000
12.35374 290.000
12.37369 315.000
12.39364 314.000
12.41358 324.000
12.43353 324.000
12.45348 325.000
12.47342 321.000
12.49337 356.000
12.51332 347.000
12.53326 339.000
12.55321 338.000
12.57316 327.000
12.59311 357.000
12.61305 346.000
12.63300 302.000
12.65295 318.000
12.67289 329.000
12.69284 331.000
12.71279 327.000
12.73273 333.000
12.75268 319.000
12.77263 371.000
12.79257 329.000
12.81252 347.000
12.83247 312.000
12.85242 306.000
12.87236 282.000
12.89231 342.000
12.91226 342.000
12.93220 343.000
12.95215 371.000
12.97210 339.000
12.99204 334.000
13.01199 309.000
13.03194 343.000
13.05189 312.000
13.07183 295.000
13.09178 314.000
13.11173 312.000
13.13167 357.000
13.15162 354.000
13.17157 339.000
13.19151 329.000
13.21146 332.000
13.23141 327.000
13.25135 354.000
13.27130 344.000
13.29125 333.000
13.31120 311.000
13.33114 334.000
13.35109 326.000
13.37104 345.000
13.39098 331.000
13.41093 342.000
13.43088 304.000
13.45082 314.000
13.47077 329.000
13.49072 326.000
13.51067 341.000
13.53061 339.000
13.55056 281.000
13.57051 329.000
13.59045 323.000
13.61040 320.000
13.63035 326.000
13.65029 329.000
13.67024 358.000
13.69019 310.000
13.71013 327.000
13.73008 341.000
13.75003 341.000
13.76998 364.000
13.78992 307.000
13.80987 323.000
13.82982 358.000
13.84976 339.000
13.86971 312.000
13.88966 341.000
13.90960 320.000
13.92955 351.000
13.94950 316.000
13.96945 345.000
13.98939 317.000
14.00934 313.000
14.02929 319.000
14.04923 334.000
14.06918 353.000
14.08913 314.000
14.10907 329.000
14.12902 324.000
14.14897 342.000
14.16892 340.000
14.18886 343.000
14.20881 336.000
14.22876 329.000
14.24870 353.000
14.26865 335.000
14.28860 357.000
14.30854 370.000
14.32849 329.000
14.34844 320.000
14.36838 324.000
14.38833 326.000
14.40828 349.000
14.42823 338.000
14.44817 351.000
14.46812 305.000
14.48807 338.000
14.50801 338.000
14.52796 335.000
14.54791 351.000
14.56785 300.000
14.58780 380.000
14.60775 345.000
14.62770 316.000
14.64764 317.000
14.66759 355.000
14.68754 351.000
14.70748 364.000
14.72743 333.000
14.74738 350.000
14.76732 347.000
14.78727 345.000
14.80722 334.000
14.82716 364.000
14.84711 337.000
14.86706 342.000
14.88701 339.000
14.90695 352.000
14.92690 342.000
14.94685 317.000
14.96679 333.000
14.98674 342.000
15.00669 347.000
15.02663 334.000
15.04658 369.000
15.06653 321.000
15.08648 346.000
15.10642 307.000
15.12637 388.000
15.14632 343.000
15.16626 347.000
15.18621 358.000
15.20616 359.000
15.22610 350.000
15.24605 397.000
15.26600 326.000
15.28594 347.000
15.30589 368.000
15.32584 359.000
15.34579 356.000
15.36573 369.000
15.38568 337.000
15.40563 365.000
15.42557 325.000
15.44552 392.000
15.46547 396.000
15.48541 366.000
15.50536 378.000
15.52531 366.000
15.54526 407.000
15.56520 352.000
15.58515 403.000
15.60510 447.000
15.62504 470.000
15.64499 475.000
15.66494 514.000
15.68488 539.000
15.70483 693.000
15.72478 793.000
15.74472 942.000
15.76467 1170.000
15.78462 1517.000
15.80457 1755.000
15.82451 2026.000
15.84446 2137.000
15.86441 2073.000
15.88435 1828.000
15.90430 1513.000
15.92425 1156.000
15.94419 836.000
15.96414 686.000
15.98409 494.000
16.00404 450.000
16.02398 453.000
16.04393 392.000
16.06388 400.000
16.08382 395.000
16.10377 418.000
16.12372 373.000
16.14366 416.000
16.16361 395.000
16.18356 431.000
16.20351 358.000
16.22345 377.000
16.24340 380.000
16.26335 377.000
16.28329 373.000
16.30324 336.000
16.32319 393.000
16.34313 358.000
16.36308 376.000
16.38303 352.000
16.40297 371.000
16.42292 381.000
16.44287 371.000
16.46282 358.000
16.48276 382.000
16.50271 353.000
16.52266 341.000
16.54260 372.000
16.56255 340.000
16.58250 360.000
16.60244 339.000
16.62239 365.000
16.64234 377.000
16.66229 351.000
16.68223 346.000
16.70218 380.000
16.72213 380.000
16.74207 389.000
16.76202 367.000
16.78197 372.000
16.80191 442.000
16.82186 391.000
16.84181 435.000
16.86175 394.000
16.88170 409.000
16.90165 435.000
16.92160 384.000
16.94154 386.000
16.96149 345.000
16.98144 353.000
17.00138 373.000
17.02133 372.000
17.04128 344.000
17.06122 389.000
17.08117 340.000
17.10112 315.000
17.12107 377.000
17.14101 366.000
17.16096 327.000
17.18091 340.000
17.20085 347.000
17.22080 326.000
17.24075 333.000
17.26069 334.000
17.28064 348.000
17.30059 336.000
17.32053 321.000
17.34048 360.000
17.36043 327.000
17.38038 292.000
17.40032 336.000
17.42027 358.000
17.44022 305.000
17.46016 351.000
17.48011 327.000
17.50006 346.000
17.52000 340.000
17.53995 316.000
17.55990 355.000
17.57985 325.000
17.59979 330.000
17.61974 347.000
17.63969 338.000
17.65963 339.000
17.67958 355.000
17.69953 365.000
17.71947 351.000
17.73942 351.000
17.75937 326.000
17.77932 294.000
17.79926 317.000
17.81921 352.000
17.83916 336.000
17.85910 358.000
17.87905 347.000
17.89900 368.000
17.91894 352.000
17.93889 344.000
17.95884 325.000
17.97878 373.000
17.99873 385.000
18.01868 347.000
18.03863 351.000
18.05857 375.000
18.07852 317.000
18.09847 367.000
18.11841 328.000
18.13836 368.000
18.15831 347.000
18.17825 331.000
18.19820 341.000
18.21815 339.000
18.23810 361.000
18.25804 357.000
18.27799 378.000
18.29794 377.000
18.31788 375.000
18.33783 393.000
18.35778 424.000
18.37772 466.000
18.39767 475.000
18.41762 477.000
18.43756 436.000
18.45751 457.000
18.47746 457.000
18.49741 401.000
18.51735 363.000
18.53730 316.000
18.55725 359.000
18.57719 376.000
18.59714 363.000
18.61709 352.000
18.63703 349.000
18.65698 359.000
18.67693 371.000
18.69688 349.000
18.71682 343.000
18.73677 365.000
18.75672 361.000
18.77666 322.000
18.79661 321.000
18.81656 335.000
18.83650 389.000
18.85645 338.000
18.87640 338.000
18.89634 377.000
18.91629 348.000
18.93624 337.000
18.95619 378.000
18.97613 367.000
18.99608 354.000
19.01603 348.000
19.03597 341.000
19.05592 355.000
19.07587 377.000
19.09581 327.000
19.11576 335.000
19.13571 352.000
19.15566 326.000
19.17560 344.000
19.19555 390.000
19.21550 375.000
19.23544 351.000
19.25539 390.000
19.27534 351.000
19.29528 364.000
19.31523 343.000
19.33518 373.000
19.35513 349.000
19.37507 356.000
19.39502 356.000
19.41497 324.000
19.43491 365.000
19.45486 382.000
19.47481 335.000
19.49475 337.000
19.51470 359.000
19.53465 295.000
19.55459 359.000
19.57454 350.000
19.59449 353.000
19.61444 373.000
19.63438 366.000
19.65433 392.000
19.67428 365.000
19.69422 347.000
19.71417 324.000
19.73412 366.000
19.75406 378.000
19.77401 348.000
19.79396 345.000
19.81391 353.000
19.83385 371.000
19.85380 308.000
19.87375 331.000
19.89369 349.000
19.91364 338.000
19.93359 342.000
19.95353 396.000
19.97348 351.000
19.99343 357.000
20.01337 322.000
20.03332 339.000
20.05327 354.000
20.07322 364.000
20.09316 356.000
20.11311 381.000
20.13306 368.000
20.15300 348.000
20.17295 362.000
20.19290 391.000
20.21284 335.000
20.23279 339.000
20.25274 373.000
20.27269 309.000
20.29263 340.000
20.31258 338.000
20.33253 345.000
20.35247 355.000
20.37242 350.000
20.39237 380.000
20.41231 353.000
20.43226 359.000
20.45221 390.000
20.47215 338.000
20.49210 375.000
20.51205 381.000
20.53200 368.000
20.55194 375.000
20.57189 388.000
20.59184 391.000
20.61178 385.000
20.63173 403.000
20.65168 411.000
20.67162 396.000
20.69157 379.000
20.71152 419.000
20.73147 394.000
20.75141 377.000
20.77136 409.000
20.79131 442.000
20.81125 462.000
20.83120 509.000
20.85115 548.000
20.87109 562.000
20.89104 538.000
20.91099 535.000
20.93094 563.000
20.95088 533.000
20.97083 563.000
20.99078 593.000
21.01072 579.000
21.03067 614.000
21.05062 664.000
21.07056 675.000
21.09051 678.000
21.11046 686.000
21.13040 612.000
21.15035 540.000
21.17030 495.000
21.19025 446.000
21.21019 417.000
21.23014 396.000
21.25009 386.000
21.27003 374.000
21.28998 364.000
21.30993 371.000
21.32987 382.000
21.34982 374.000
21.36977 336.000
21.38972 331.000
21.40966 360.000
21.42961 342.000
21.44956 363.000
21.46950 356.000
21.48945 325.000
21.50940 368.000
21.52934 368.000
21.54929 337.000
21.56924 370.000
21.58918 348.000
21.60913 347.000
21.62908 388.000
21.64903 348.000
21.66897 362.000
21.68892 345.000
21.70887 368.000
21.72881 367.000
21.74876 327.000
21.76871 360.000
21.78865 337.000
21.80860 333.000
21.82855 371.000
21.84850 354.000
21.86844 368.000
21.88839 368.000
21.90834 353.000
21.92828 354.000
21.94823 366.000
21.96818 362.000
21.98812 366.000
22.00807 367.000
22.02802 344.000
22.04796 355.000
22.06791 338.000
22.08786 338.000
22.10781 368.000
22.12775 392.000
22.14770 355.000
22.16765 357.000
22.18759 330.000
22.20754 343.000
22.22749 347.000
22.24743 341.000
22.26738 313.000
22.28733 353.000
22.30728 358.000
22.32722 343.000
22.34717 359.000
22.36712 347.000
22.38706 374.000
22.40701 359.000
22.42696 354.000
22.44690 345.000
22.46685 358.000
22.48680 366.000
22.50675 361.000
22.52669 361.000
22.54664 379.000
22.56659 359.000
22.58653 397.000
22.60648 401.000
22.62643 352.000
22.64637 368.000
22.66632 373.000
22.68627 310.000
22.70621 384.000
22.72616 338.000
22.74611 389.000
22.76606 344.000
22.78600 381.000
22.80595 357.000
22.82590 361.000
22.84584 354.000
22.86579 377.000
22.88574 347.000
22.90568 357.000
22.92563 408.000
22.94558 358.000
22.96553 376.000
22.98547 387.000
23.00542 351.000
23.02537 363.000
23.04531 355.000
23.06526 389.000
23.08521 347.000
23.10515 370.000
23.12510 359.000
23.14505 375.000
23.16499 362.000
23.18494 390.000
23.20489 335.000
23.22484 371.000
23.24478 359.000
23.26473 377.000
23.28468 393.000
23.30462 376.000
23.32457 355.000
23.34452 378.000
23.36446 370.000
23.38441 365.000
23.40436 351.000
23.42431 356.000
23.44425 361.000
23.46420 381.000
23.48415 346.000
23.50409 400.000
23.52404 340.000
23.54399 396.000
23.56393 356.000
23.58388 380.000
23.60383 369.000
23.62377 366.000
23.64372 374.000
23.66367 364.000
23.68362 329.000
23.70356 366.000
23.72351 363.000
23.74346 361.000
23.76340 364.000
23.78335 375.000
23.80330 373.000
23.82324 406.000
23.84319 377.000
23.86314 361.000
23.88309 387.000
23.90303 375.000
23.92298 385.000
23.94293 372.000
23.96287 375.000
23.98282 336.000
24.00277 355.000
24.02271 362.000
24.04266 351.000
24.06261 382.000
24.08256 380.000
24.10250 369.000
24.12245 327.000
24.14240 352.000
24.16234 404.000
24.18229 364.000
24.20224 364.000
24.22218 373.000
24.24213 353.000
24.26208 376.000
24.28202 389.000
24.30197 342.000
24.32192 366.000
24.34187 388.000
24.36181 356.000
24.38176 410.000
24.40171 377.000
24.42165 354.000
24.44160 415.000
24.46155 384.000
24.48149 356.000
24.50144 381.000
24.52139 387.000
24.54134 394.000
24.56128 362.000
24.58123 372.000
24.60118 375.000
24.62112 406.000
24.64107 386.000
24.66102 367.000
24.68096 367.000
24.70091 375.000
24.72086 368.000
24.74080 386.000
24.76075 364.000
24.78070 363.000
24.80065 379.000
24.82059 374.000
24.84054 383.000
24.86049 384.000
24.88043 428.000
24.90038 400.000
24.92033 425.000
24.94027 422.000
24.96022 408.000
24.98017 417.000
25.00012 439.000
25.02006 410.000
25.04001 422.000
25.05996 392.000
25.07990 412.000
25.09985 417.000
25.11980 398.000
25.13974 367.000
25.15969 358.000
25.17964 372.000
25.19958 382.000
25.21953 408.000
25.23948 389.000
25.25943 371.000
25.27937 402.000
25.29932 394.000
25.31927 366.000
25.33921 393.000
25.35916 383.000
25.37911 387.000
25.39905 399.000
25.41900 336.000
25.43895 383.000
25.45890 372.000
25.47884 368.000
25.49879 402.000
25.51874 374.000
25.53868 395.000
25.55863 374.000
25.57858 407.000
25.59852 390.000
25.61847 402.000
25.63842 379.000
25.65837 365.000
25.67831 407.000
25.69826 382.000
25.71821 370.000
25.73815 366.000
25.75810 397.000
25.77805 389.000
25.79799 384.000
25.81794 364.000
25.83789 317.000
25.85783 385.000
25.87778 389.000
25.89773 386.000
25.91768 388.000
25.93762 392.000
25.95757 399.000
25.97752 366.000
25.99746 382.000
26.01741 382.000
26.03736 365.000
26.05730 390.000
26.07725 399.000
26.09720 369.000
26.11715 388.000
26.13709 401.000
26.15704 425.000
26.17699 375.000
26.19693 383.000
26.21688 405.000
26.23683 390.000
26.25677 414.000
26.27672 354.000
26.29667 401.000
26.31661 366.000
26.33656 365.000
26.35651 379.000
26.37646 402.000
26.39640 396.000
26.41635 381.000
26.43630 410.000
26.45624 375.000
26.47619 396.000
26.49614 395.000
26.51608 385.000
26.53603 357.000
26.55598 379.000
26.57593 379.000
26.59587 434.000
26.61582 379.000
26.63577 368.000
26.65571 370.000
26.67566 373.000
26.69561 381.000
26.71555 372.000
26.73550 419.000
26.75545 380.000
26.77539 402.000
26.79534 386.000
26.81529 377.000
26.83524 407.000
26.85518 389.000
26.87513 363.000
26.89508 398.000
26.91502 389.000
26.93497 382.000
26.95492 412.000
26.97486 435.000
26.99481 426.000
27.01476 388.000
27.03471 382.000
27.05465 458.000
27.07460 381.000
27.09455 392.000
27.11449 428.000
27.13444 412.000
27.15439 387.000
27.17433 393.000
27.19428 378.000
27.21423 398.000
27.23417 379.000
27.25412 417.000
27.27407 422.000
27.29402 374.000
27.31396 351.000
27.33391 388.000
27.35386 381.000
27.37380 439.000
27.39375 407.000
27.41370 366.000
27.43364 403.000
27.45359 368.000
27.47354 414.000
27.49349 435.000
27.51343 412.000
27.53338 391.000
27.55333 394.000
27.57327 394.000
27.59322 408.000
27.61317 391.000
27.63311 376.000
27.65306 408.000
27.67301 404.000
27.69296 413.000
27.71290 418.000
27.73285 473.000
27.75280 422.000
27.77274 419.000
27.79269 409.000
27.81264 399.000
27.83258 410.000
27.85253 375.000
27.87248 399.000
27.89242 419.000
27.91237 403.000
27.93232 420.000
27.95227 424.000
27.97221 439.000
27.99216 376.000
28.01211 448.000
28.03205 423.000
28.05200 365.000
28.07195 398.000
28.09189 420.000
28.11184 396.000
28.13179 373.000
28.15174 417.000
28.17168 432.000
28.19163 384.000
28.21158 442.000
28.23152 424.000
28.25147 391.000
28.27142 403.000
28.29136 424.000
28.31131 418.000
28.33126 413.000
28.35120 416.000
28.37115 427.000
28.39110 377.000
28.41105 388.000
28.43099 426.000
28.45094 420.000
28.47089 388.000
28.49083 423.000
28.51078 404.000
28.53073 380.000
28.55067 409.000
28.57062 389.000
28.59057 411.000
28.61052 410.000
28.63046 370.000
28.65041 408.000
28.67036 387.000
28.69030 412.000
28.71025 385.000
28.73020 440.000
28.75014 415.000
28.77009 416.000
28.79004 448.000
28.80998 381.000
28.82993 399.000
28.84988 414.000
28.86983 430.000
28.88977 420.000
28.90972 414.000
28.92967 384.000
28.94961 426.000
28.96956 397.000
28.98951 398.000
29.00945 417.000
29.02940 405.000
29.04935 374.000
29.06930 384.000
29.08924 380.000
29.10919 431.000
29.12914 435.000
29.14908 422.000
29.16903 452.000
29.18898 460.000
29.20892 430.000
29.22887 452.000
29.24882 483.000
29.26877 505.000
29.28871 506.000
29.30866 529.000
29.32861 574.000
29.34855 575.000
29.36850 569.000
29.38845 549.000
29.40839 593.000
29.42834 552.000
29.44829 564.000
29.46823 519.000
29.48818 513.000
29.50813 498.000
29.52808 441.000
29.54802 457.000
29.56797 459.000
29.58792 476.000
29.60786 488.000
29.62781 380.000
29.64776 444.000
29.66770 431.000
29.68765 459.000
29.70760 409.000
29.72755 407.000
29.74749 462.000
29.76744 444.000
29.78739 425.000
29.80733 414.000
29.82728 458.000
29.84723 407.000
29.86717 465.000
29.88712 412.000
29.90707 403.000
29.92701 452.000
29.94696 433.000
29.96691 419.000
29.98686 408.000
30.00680 431.000
30.02675 441.000
30.04670 445.000
30.06664 476.000
30.08659 453.000
30.10654 494.000
30.12648 482.000
30.14643 521.000
30.16638 532.000
30.18633 512.000
30.20627 563.000
30.22622 581.000
30.24617 697.000
30.26611 709.000
30.28606 693.000
30.30601 715.000
30.32595 689.000
30.34590 672.000
30.36585 626.000
30.38579 615.000
30.40574 571.000
30.42569 576.000
30.44564 514.000
30.46558 527.000
30.48553 435.000
30.50548 465.000
30.52542 453.000
30.54537 423.000
30.56532 430.000
30.58526 430.000
30.60521 450.000
30.62516 422.000
30.64511 415.000
30.66505 495.000
30.68500 402.000
30.70495 432.000
30.72489 418.000
30.74484 440.000
30.76479 411.000
30.78473 425.000
30.80468 461.000
30.82463 402.000
30.84458 424.000
30.86452 417.000
30.88447 446.000
30.90442 418.000
30.92436 422.000
30.94431 439.000
30.96426 429.000
30.98420 412.000
31.00415 399.000
31.02410 412.000
31.04404 421.000
31.06399 415.000
31.08394 398.000
31.10389 442.000
31.12383 428.000
31.14378 492.000
31.16373 431.000
31.18367 437.000
31.20362 438.000
31.22357 436.000
31.24351 434.000
31.26346 420.000
31.28341 415.000
31.30336 479.000
31.32330 425.000
31.34325 438.000
31.36320 432.000
31.38314 391.000
31.40309 449.000
31.42304 455.000
31.44298 446.000
31.46293 454.000
31.48288 429.000
31.50282 431.000
31.52277 435.000
31.54272 417.000
31.56267 434.000
31.58261 435.000
31.60256 425.000
31.62251 414.000
31.64245 424.000
31.66240 443.000
31.68235 418.000
31.70229 436.000
31.72224 427.000
31.74219 454.000
31.76214 421.000
31.78208 437.000
31.80203 505.000
31.82198 497.000
31.84192 432.000
31.86187 453.000
31.88182 482.000
31.90176 468.000
31.92171 513.000
31.94166 490.000
31.96160 504.000
31.98155 518.000
32.00150 582.000
32.02145 566.000
32.04139 539.000
32.06134 556.000
32.08129 552.000
32.10123 524.000
32.12118 539.000
32.14113 517.000
32.16107 460.000
32.18102 509.000
32.20097 447.000
32.22092 466.000
32.24086 465.000
32.26081 439.000
32.28076 471.000
32.30070 414.000
32.32065 426.000
32.34060 469.000
32.36054 498.000
32.38049 473.000
32.40044 485.000
32.42039 512.000
32.44033 533.000
32.46028 584.000
32.48023 591.000
32.50017 628.000
32.52012 578.000
32.54007 577.000
32.56001 542.000
32.57996 519.000
32.59991 509.000
32.61985 487.000
32.63980 458.000
32.65975 501.000
32.67970 476.000
32.69964 454.000
32.71959 430.000
32.73954 452.000
32.75948 427.000
32.77943 423.000
32.79938 429.000
32.81932 454.000
32.83927 445.000
32.85922 431.000
32.87917 442.000
32.89911 416.000
32.91906 413.000
32.93901 421.000
32.95895 445.000
32.97890 428.000
32.99885 418.000
33.01879 382.000
33.03874 440.000
33.05869 428.000
33.07863 408.000
33.09858 434.000
33.11853 434.000
33.13848 450.000
33.15842 410.000
33.17837 402.000
33.19832 417.000
33.21826 423.000
33.23821 459.000
33.25816 374.000
33.27810 406.000
33.29805 443.000
33.31800 425.000
33.33795 387.000
33.35789 422.000
33.37784 418.000
33.39779 468.000
33.41773 415.000
33.43768 417.000
33.45763 454.000
33.47757 405.000
33.49752 466.000
33.51747 424.000
33.53741 414.000
33.55736 444.000
33.57731 390.000
33.59726 430.000
33.61720 423.000
33.63715 422.000
33.65710 417.000
33.67704 431.000
33.69699 393.000
33.71694 430.000
33.73688 420.000
33.75683 429.000
33.77678 419.000
33.79673 497.000
33.81667 421.000
33.83662 442.000
33.85657 400.000
33.87651 426.000
33.89646 444.000
33.91641 450.000
33.93635 431.000
33.95630 454.000
33.97625 459.000
33.99620 484.000
34.01614 424.000
34.03609 385.000
34.05604 437.000
34.07598 460.000
34.09593 467.000
34.11588 475.000
34.13582 473.000
34.15577 477.000
34.17572 504.000
34.19566 518.000
34.21561 504.000
34.23556 466.000
34.25551 505.000
34.27545 493.000
34.29540 541.000
34.31535 540.000
34.33529 517.000
34.35524 621.000
34.37519 609.000
34.39513 640.000
34.41508 668.000
34.43503 676.000
34.45498 626.000
34.47492 683.000
34.49487 675.000
34.51482 685.000
34.53476 672.000
34.55471 641.000
34.57466 607.000
34.59460 698.000
34.61455 665.000
34.63450 678.000
34.65444 635.000
34.67439 675.000
34.69434 679.000
34.71429 646.000
34.73423 707.000
34.75418 709.000
34.77413 650.000
34.79407 699.000
34.81402 661.000
34.83397 688.000
34.85391 679.000
34.87386 603.000
34.89381 631.000
34.91376 583.000
34.93370 540.000
34.95365 603.000
34.97360 575.000
34.99354 545.000
35.01349 553.000
35.03344 577.000
35.05338 551.000
35.07333 552.000
35.09328 538.000
35.11322 555.000
35.13317 569.000
35.15312 573.000
35.17307 571.000
35.19301 646.000
35.21296 656.000
35.23291 703.000
35.25285 720.000
35.27280 769.000
35.29275 732.000
35.31269 849.000
35.33264 888.000
35.35259 1005.000
35.37254 1177.000
35.39248 1222.000
35.41243 1451.000
35.43238 1652.000
35.45232 1713.000
35.47227 1972.000
35.49222 2101.000
35.51216 2275.000
35.53211 2262.000
35.55206 2439.000
35.57201 2308.000
35.59195 2318.000
35.61190 2274.000
35.63185 2312.000
35.65179 2225.000
35.67174 1968.000
35.69169 1838.000
35.71163 1708.000
35.73158 1585.000
35.75153 1493.000
35.77147 1397.000
35.79142 1213.000
35.81137 1072.000
35.83132 1008.000
35.85126 956.000
35.87121 878.000
35.89116 744.000
35.91110 725.000
35.93105 669.000
35.95100 656.000
35.97094 621.000
35.99089 551.000
36.01084 544.000
36.03079 539.000
36.05073 494.000
36.07068 522.000
36.09063 549.000
36.11057 531.000
36.13052 521.000
36.15047 558.000
36.17041 496.000
36.19036 516.000
36.21031 551.000
36.23025 524.000
36.25020 535.000
36.27015 531.000
36.29010 522.000
36.31004 533.000
36.32999 537.000
36.34994 502.000
36.36988 539.000
36.38983 528.000
36.40978 499.000
36.42972 515.000
36.44967 497.000
36.46962 533.000
36.48957 470.000
36.50951 540.000
36.52946 493.000
36.54941 473.000
36.56935 474.000
36.58930 502.000
36.60925 517.000
36.62919 499.000
36.64914 492.000
36.66909 498.000
36.68903 526.000
36.70898 514.000
36.72893 518.000
36.74888 531.000
36.76882 542.000
36.78877 574.000
36.80872 568.000
36.82866 571.000
36.84861 657.000
36.86856 672.000
36.88850 711.000
36.90845 708.000
36.92840 804.000
36.94835 876.000
36.96829 980.000
36.98824 1104.000
37.00819 1353.000
37.02813 1542.000
37.04808 1760.000
37.06803 1988.000
37.08797 2209.000
37.10792 2277.000
37.12787 2271.000
37.14781 2227.000
37.16776 2060.000
37.18771 1834.000
37.20766 1675.000
37.22760 1431.000
37.24755 1380.000
37.26750 1172.000
37.28744 995.000
37.30739 875.000
37.32734 758.000
37.34728 774.000
37.36723 690.000
37.38718 681.000
37.40713 642.000
37.42707 630.000
37.44702 577.000
37.46697 600.000
37.48691 632.000
37.50686 568.000
37.52681 545.000
37.54675 562.000
37.56670 499.000
37.58665 529.000
37.60660 542.000
37.62654 509.000
37.64649 514.000
37.66644 466.000
37.68638 466.000
37.70633 442.000
37.72628 476.000
37.74622 454.000
37.76617 487.000
37.78612 467.000
37.80606 460.000
37.82601 481.000
37.84596 482.000
37.86591 446.000
37.88585 469.000
37.90580 483.000
37.92575 524.000
37.94569 473.000
37.96564 481.000
37.98559 513.000
38.00553 519.000
38.02548 465.000
38.04543 475.000
38.06538 483.000
38.08532 504.000
38.10527 489.000
38.12522 476.000
38.14516 525.000
38.16511 495.000
38.18506 514.000
38.20500 507.000
38.22495 514.000
38.24490 547.000
38.26484 547.000
38.28479 606.000
38.30474 592.000
38.32469 565.000
38.34463 612.000
38.36458 587.000
38.38453 633.000
38.40447 673.000
38.42442 714.000
38.44437 692.000
38.46431 739.000
38.48426 858.000
38.50421 865.000
38.52416 917.000
38.54410 1027.000
38.56405 1165.000
38.58400 1379.000
38.60394 1455.000
38.62389 1703.000
38.64384 1754.000
38.66378 1872.000
38.68373 1978.000
38.70368 1931.000
38.72362 1907.000
38.74357 1768.000
38.76352 1694.000
38.78347 1569.000
38.80341 1484.000
38.82336 1359.000
38.84331 1253.000
38.86325 1196.000
38.88320 1087.000
38.90315 1043.000
38.92309 979.000
38.94304 1042.000
38.96299 986.000
38.98294 909.000
39.00288 958.000
39.02283 958.000
39.04278 858.000
39.06272 776.000
39.08267 771.000
39.10262 732.000
39.12256 655.000
39.14251 659.000
39.16246 634.000
39.18241 642.000
39.20235 637.000
39.22230 618.000
39.24225 660.000
39.26219 679.000
39.28214 636.000
39.30209 633.000
39.32203 722.000
39.34198 629.000
39.36193 623.000
39.38187 629.000
39.40182 628.000
39.42177 622.000
39.44172 584.000
39.46166 548.000
39.48161 537.000
39.50156 532.000
39.52150 527.000
39.54145 477.000
39.56140 454.000
39.58134 435.000
39.60129 449.000
39.62124 472.000
39.64119 454.000
39.66113 434.000
39.68108 427.000
39.70103 429.000
39.72097 428.000
39.74092 411.000
39.76087 435.000
39.78081 413.000
39.80076 415.000
39.82071 440.000
39.84065 404.000
39.86060 442.000
39.88055 404.000
39.90050 454.000
39.92044 461.000
39.94039 418.000
39.96034 432.000
39.98028 404.000
40.00023 401.000
40.02018 404.000
40.04012 391.000
40.06007 419.000
40.08002 424.000
40.09997 371.000
40.11991 443.000
40.13986 434.000
40.15981 417.000
40.17975 405.000
40.19970 392.000
40.21965 422.000
40.23959 420.000
40.25954 395.000
40.27949 376.000
40.29943 373.000
40.31938 404.000
40.33933 440.000
40.35928 411.000
40.37922 455.000
40.39917 449.000
40.41912 394.000
40.43906 394.000
40.45901 391.000
40.47896 384.000
40.49890 442.000
40.51885 392.000
40.53880 401.000
40.55875 399.000
40.57869 425.000
40.59864 359.000
40.61859 420.000
40.63853 381.000
40.65848 388.000
40.67843 424.000
40.69837 425.000
40.71832 406.000
40.73827 384.000
40.75822 410.000
40.77816 414.000
40.79811 413.000
40.81806 436.000
40.83800 415.000
40.85795 392.000
40.87790 380.000
40.89784 433.000
40.91779 429.000
40.93774 420.000
40.95768 436.000
40.97763 385.000
40.99758 373.000
41.01753 438.000
41.03747 400.000
41.05742 426.000
41.07737 394.000
41.09731 402.000
41.11726 405.000
41.13721 423.000
41.15715 450.000
41.17710 403.000
41.19705 387.000
41.21700 417.000
41.23694 448.000
41.25689 414.000
41.27684 387.000
41.29678 462.000
41.31673 433.000
41.33668 389.000
41.35662 386.000
41.37657 440.000
41.39652 396.000
41.41646 425.000
41.43641 444.000
41.45636 429.000
41.47631 390.000
41.49625 440.000
41.51620 413.000
41.53615 430.000
41.55609 398.000
41.57604 419.000
41.59599 417.000
41.61593 441.000
41.63588 460.000
41.65583 430.000
41.67578 424.000
41.69572 436.000
41.71567 432.000
41.73562 426.000
41.75556 421.000
41.77551 424.000
41.79546 441.000
41.81540 421.000
41.83535 398.000
41.85530 487.000
41.87524 402.000
41.89519 400.000
41.91514 396.000
41.93509 411.000
41.95503 438.000
41.97498 443.000
41.99493 429.000
42.01487 432.000
42.03482 424.000
42.05477 412.000
42.07471 429.000
42.09466 430.000
42.11461 412.000
42.13456 437.000
42.15450 447.000
42.17445 425.000
42.19440 418.000
42.21434 442.000
42.23429 439.000
42.25424 449.000
42.27418 427.000
42.29413 470.000
42.31408 449.000
42.33403 465.000
42.35397 473.000
42.37392 474.000
42.39387 460.000
42.41381 500.000
42.43376 460.000
42.45371 462.000
42.47365 487.000
42.49360 472.000
42.51355 512.000
42.53349 433.000
42.55344 479.000
42.57339 494.000
42.59334 512.000
42.61328 543.000
42.63323 566.000
42.65318 601.000
42.67312 568.000
42.69307 621.000
42.71302 607.000
42.73296 612.000
42.75291 699.000
42.77286 672.000
42.79281 718.000
42.81275 795.000
42.83270 796.000
42.85265 864.000
42.87259 910.000
42.89254 1032.000
42.91249 1072.000
42.93243 1344.000
42.95238 1188.000
42.97233 1412.000
42.99227 1588.000
43.01222 1669.000
43.03217 1814.000
43.05212 1958.000
43.07206 1979.000
43.09201 2274.000
43.11196 2359.000
43.13190 2421.000
43.15185 2354.000
43.17180 2392.000
43.19174 2279.000
43.21169 2140.000
43.23164 2059.000
43.25159 1884.000
43.27153 1768.000
43.29148 1565.000
43.31143 1451.000
43.33137 1370.000
43.35132 1256.000
43.37127 1174.000
43.39121 1076.000
43.41116 981.000
43.43111 918.000
43.45105 902.000
43.47100 864.000
43.49095 769.000
43.51090 765.000
43.53084 679.000
43.55079 646.000
43.57074 659.000
43.59068 582.000
43.61063 541.000
43.63058 584.000
43.65052 494.000
43.67047 492.000
43.69042 501.000
43.71037 487.000
43.73031 450.000
43.75026 448.000
43.77021 477.000
43.79015 437.000
43.81010 438.000
43.83005 450.000
43.84999 432.000
43.86994 453.000
43.88989 430.000
43.90984 425.000
43.92978 417.000
43.94973 392.000
43.96968 404.000
43.98962 402.000
44.00957 442.000
44.02952 386.000
44.04946 406.000
44.06941 416.000
44.08936 399.000
44.10930 420.000
44.12925 407.000
44.14920 379.000
44.16915 442.000
44.18909 432.000
44.20904 416.000
44.22899 411.000
44.24893 425.000
44.26888 422.000
44.28883 401.000
44.30877 450.000
44.32872 419.000
44.34867 399.000
44.36862 407.000
44.38856 451.000
44.40851 434.000
44.42846 410.000
44.44840 433.000
44.46835 389.000
44.48830 435.000
44.50824 410.000
44.52819 367.000
44.54814 416.000
44.56808 454.000
44.58803 376.000
44.60798 410.000
44.62793 421.000
44.64787 411.000
44.66782 458.000
44.68777 416.000
44.70771 416.000
44.72766 401.000
44.74761 402.000
44.76755 430.000
44.78750 378.000
44.80745 389.000
44.82740 420.000
44.84734 418.000
44.86729 433.000
44.88724 403.000
44.90718 438.000
44.92713 445.000
44.94708 421.000
44.96702 461.000
44.98697 475.000
45.00692 504.000
45.02686 502.000
45.04681 490.000
45.06676 508.000
45.08671 471.000
45.10665 526.000
45.12660 478.000
45.14655 474.000
45.16649 540.000
45.18644 499.000
45.20639 515.000
45.22633 524.000
45.24628 512.000
45.26623 498.000
45.28618 471.000
45.30612 473.000
45.32607 467.000
45.34602 436.000
45.36596 456.000
45.38591 425.000
45.40586 432.000
45.42580 406.000
45.44575 434.000
45.46570 410.000
45.48565 439.000
45.50559 400.000
45.52554 420.000
45.54549 412.000
45.56543 443.000
45.58538 384.000
45.60533 425.000
45.62527 417.000
45.64522 430.000
45.66517 421.000
45.68511 377.000
45.70506 397.000
45.72501 400.000
45.74496 387.000
45.76490 388.000
45.78485 433.000
45.80480 401.000
45.82474 388.000
45.84469 384.000
45.86464 410.000
45.88458 358.000
45.90453 418.000
45.92448 361.000
45.94443 395.000
45.96437 391.000
45.98432 374.000
46.00427 398.000
46.02421 405.000
46.04416 383.000
46.06411 412.000
46.08405 385.000
46.10400 381.000
46.12395 423.000
46.14389 430.000
46.16384 417.000
46.18379 437.000
46.20374 428.000
46.22368 397.000
46.24363 405.000
46.26358 425.000
46.28352 435.000
46.30347 414.000
46.32342 387.000
46.34336 431.000
46.36331 397.000
46.38326 388.000
46.40321 417.000
46.42315 383.000
46.44310 397.000
46.46305 407.000
46.48299 427.000
46.50294 385.000
46.52289 416.000
46.54283 358.000
46.56278 386.000
46.58273 422.000
46.60267 412.000
46.62262 397.000
46.64257 390.000
46.66252 407.000
46.68246 365.000
46.70241 411.000
46.72236 389.000
46.74230 393.000
46.76225 370.000
46.78220 411.000
46.80214 384.000
46.82209 371.000
46.84204 369.000
46.86199 362.000
46.88193 345.000
46.90188 383.000
46.92183 389.000
46.94177 410.000
46.96172 376.000
46.98167 374.000
47.00161 387.000
47.02156 392.000
47.04151 387.000
47.06146 369.000
47.08140 393.000
47.10135 403.000
47.12130 366.000
47.14124 393.000
47.16119 386.000
47.18114 384.000
47.20108 362.000
47.22103 374.000
47.24098 366.000
47.26092 355.000
47.28087 376.000
47.30082 355.000
47.32077 396.000
47.34071 443.000
47.36066 406.000
47.38061 385.000
47.40055 375.000
47.42050 426.000
47.44045 404.000
47.46039 394.000
47.48034 392.000
47.50029 370.000
47.52024 357.000
47.54018 381.000
47.56013 386.000
47.58008 335.000
47.60002 363.000
47.61997 410.000
47.63992 401.000
47.65986 406.000
47.67981 375.000
47.69976 399.000
47.71970 378.000
47.73965 418.000
47.75960 368.000
47.77955 418.000
47.79949 392.000
47.81944 406.000
47.83939 381.000
47.85933 417.000
47.87928 413.000
47.89923 394.000
47.91917 388.000
47.93912 401.000
47.95907 420.000
47.97902 434.000
47.99896 395.000
48.01891 429.000
48.03886 419.000
48.05880 432.000
48.07875 456.000
48.09870 417.000
48.11864 438.000
48.13859 434.000
48.15854 427.000
48.17848 397.000
48.19843 405.000
48.21838 408.000
48.23833 429.000
48.25827 432.000
48.27822 398.000
48.29817 393.000
48.31811 413.000
48.33806 433.000
48.35801 450.000
48.37795 457.000
48.39790 446.000
48.41785 417.000
48.43780 454.000
48.45774 449.000
48.47769 435.000
48.49764 465.000
48.51758 486.000
48.53753 499.000
48.55748 476.000
48.57742 532.000
48.59737 566.000
48.61732 557.000
48.63726 594.000
48.65721 563.000
48.67716 661.000
48.69711 705.000
48.71705 728.000
48.73700 773.000
48.75695 787.000
48.77689 760.000
48.79684 850.000
48.81679 831.000
48.83673 901.000
48.85668 820.000
48.87663 841.000
48.89658 758.000
48.91652 729.000
48.93647 726.000
48.95642 656.000
48.97636 637.000
48.99631 644.000
49.01626 554.000
49.03620 568.000
49.05615 515.000
49.07610 508.000
49.09605 492.000
49.11599 467.000
49.13594 457.000
49.15589 463.000
49.17583 472.000
49.19578 446.000
49.21573 409.000
49.23567 413.000
49.25562 433.000
49.27557 430.000
49.29551 440.000
49.31546 426.000
49.33541 421.000
49.35536 422.000
49.37530 392.000
49.39525 404.000
49.41520 360.000
49.43514 384.000
49.45509 464.000
49.47504 437.000
49.49498 406.000
49.51493 454.000
49.53488 408.000
49.55483 426.000
49.57477 385.000
49.59472 405.000
49.61467 392.000
49.63461 430.000
49.65456 404.000
49.67451 396.000
49.69445 376.000
49.71440 436.000
49.73435 389.000
49.75429 394.000
49.77424 398.000
49.79419 376.000
49.81414 407.000
49.83408 365.000
49.85403 400.000
49.87398 403.000
49.89392 416.000
49.91387 406.000
49.93382 403.000
49.95376 393.000
49.97371 397.000
49.99366 416.000
50.01361 388.000
50.03355 380.000
50.05350 376.000
50.07345 422.000
50.09339 378.000
50.11334 420.000
50.13329 398.000
50.15323 382.000
50.17318 388.000
50.19313 387.000
50.21307 349.000
50.23302 382.000
50.25297 413.000
50.27292 410.000
50.29286 361.000
50.31281 392.000
50.33276 368.000
50.35270 375.000
50.37265 374.000
50.39260 409.000
50.41254 385.000
50.43249 402.000
50.45244 410.000
50.47239 392.000
50.49233 370.000
50.51228 402.000
50.53223 401.000
50.55217 379.000
50.57212 392.000
50.59207 356.000
50.61201 410.000
50.63196 362.000
50.65191 360.000
50.67186 375.000
50.69180 407.000
50.71175 395.000
50.73170 366.000
50.75164 378.000
50.77159 370.000
50.79154 395.000
50.81148 369.000
50.83143 384.000
50.85138 384.000
50.87132 445.000
50.89127 398.000
50.91122 396.000
50.93117 370.000
50.95111 373.000
50.97106 398.000
50.99101 374.000
51.01095 371.000
51.03090 375.000
51.05085 409.000
51.07079 392.000
51.09074 366.000
51.11069 409.000
51.13064 406.000
51.15058 394.000
51.17053 405.000
51.19048 378.000
51.21042 363.000
51.23037 411.000
51.25032 413.000
51.27026 368.000
51.29021 428.000
51.31016 403.000
51.33010 407.000
51.35005 389.000
51.37000 386.000
51.38995 400.000
51.40989 350.000
51.42984 395.000
51.44979 407.000
51.46973 392.000
51.48968 377.000
51.50963 389.000
51.52957 388.000
51.54952 380.000
51.56947 401.000
51.58942 412.000
51.60936 396.000
51.62931 397.000
51.64926 438.000
51.66920 382.000
51.68915 397.000
51.70910 410.000
51.72904 354.000
51.74899 376.000
51.76894 401.000
51.78888 386.000
51.80883 394.000
51.82878 431.000
51.84873 400.000
51.86867 399.000
51.88862 386.000
51.90857 411.000
51.92851 420.000
51.94846 417.000
51.96841 423.000
51.98835 418.000
52.00830 393.000
52.02825 403.000
52.04820 396.000
52.06814 426.000
52.08809 393.000
52.10804 424.000
52.12798 416.000
52.14793 425.000
52.16788 394.000
52.18782 389.000
52.20777 402.000
52.22772 428.000
52.24767 452.000
52.26761 372.000
52.28756 412.000
52.30751 365.000
52.32745 389.000
52.34740 438.000
52.36735 413.000
52.38729 383.000
52.40724 407.000
52.42719 365.000
52.44713 413.000
52.46708 412.000
52.48703 357.000
52.50698 389.000
52.52692 377.000
52.54687 407.000
52.56682 362.000
52.58676 363.000
52.60671 380.000
52.62666 414.000
52.64660 403.000
52.66655 401.000
52.68650 410.000
52.70645 416.000
52.72639 378.000
52.74634 400.000
52.76629 410.000
52.78623 419.000
52.80618 416.000
52.82613 430.000
52.84607 446.000
52.86602 400.000
52.88597 413.000
52.90591 442.000
52.92586 416.000
52.94581 473.000
52.96576 400.000
52.98570 418.000
53.00565 416.000
53.02560 376.000
53.04554 456.000
53.06549 398.000
53.08544 423.000
53.10538 418.000
53.12533 442.000
53.14528 405.000
53.16523 455.000
53.18517 420.000
53.20512 431.000
53.22507 476.000
53.24501 464.000
53.26496 448.000
53.28491 471.000
53.30485 466.000
53.32480 450.000
53.34475 476.000
53.36469 467.000
53.38464 463.000
53.40459 521.000
53.42454 451.000
53.44448 472.000
53.46443 470.000
53.48438 472.000
53.50432 440.000
53.52427 426.000
53.54422 462.000
53.56416 408.000
53.58411 481.000
53.60406 452.000
53.62401 427.000
53.64395 411.000
53.66390 418.000
53.68385 426.000
53.70379 468.000
53.72374 488.000
53.74369 448.000
53.76363 488.000
53.78358 481.000
53.80353 463.000
53.82348 436.000
53.84342 462.000
53.86337 472.000
53.88332 446.000
53.90326 437.000
53.92321 400.000
53.94316 436.000
53.96310 463.000
53.98305 421.000
54.00300 392.000
54.02294 440.000
54.04289 441.000
54.06284 401.000
54.08279 415.000
54.10273 381.000
54.12268 404.000
54.14263 404.000
54.16257 380.000
54.18252 377.000
54.20247 395.000
54.22241 411.000
54.24236 411.000
54.26231 359.000
54.28226 407.000
54.30220 350.000
54.32215 373.000
54.34210 411.000
54.36204 366.000
54.38199 383.000
54.40194 368.000
54.42188 387.000
54.44183 404.000
54.46178 407.000
54.48172 397.000
54.50167 425.000
54.52162 370.000
54.54157 378.000
54.56151 365.000
54.58146 378.000
54.60141 395.000
54.62135 405.000
54.64130 375.000
54.66125 362.000
54.68119 367.000
54.70114 382.000
54.72109 370.000
54.74104 395.000
54.76098 383.000
54.78093 385.000
54.80088 395.000
54.82082 375.000
54.84077 398.000
54.86072 389.000
54.88066 390.000
54.90061 388.000
54.92056 359.000
54.94050 416.000
54.96045 372.000
54.98040 384.000
55.00035 395.000
55.02029 416.000
55.04024 401.000
55.06019 387.000
55.08013 395.000
55.10008 374.000
55.12003 407.000
55.13997 348.000
55.15992 350.000
55.17987 387.000
55.19982 402.000
55.21976 359.000
55.23971 399.000
55.25966 352.000
55.27960 396.000
55.29955 369.000
55.31950 393.000
55.33944 331.000
55.35939 373.000
55.37934 340.000
55.39929 380.000
55.41923 363.000
55.43918 400.000
55.45913 384.000
55.47907 382.000
55.49902 377.000
55.51897 344.000
55.53891 384.000
55.55886 381.000
55.57881 382.000
55.59875 399.000
55.61870 367.000
55.63865 385.000
55.65860 398.000
55.67854 374.000
55.69849 398.000
55.71844 377.000
55.73838 390.000
55.75833 376.000
55.77828 404.000
55.79822 381.000
55.81817 399.000
55.83812 355.000
55.85807 357.000
55.87801 356.000
55.89796 367.000
55.91791 408.000
55.93785 395.000
55.95780 358.000
55.97775 362.000
55.99769 402.000
56.01764 380.000
56.03759 373.000
56.05753 374.000
56.07748 404.000
56.09743 352.000
56.11738 394.000
56.13732 371.000
56.15727 388.000
56.17722 379.000
56.19716 404.000
56.21711 365.000
56.23706 348.000
56.25700 357.000
56.27695 399.000
56.29690 398.000
56.31685 388.000
56.33679 397.000
56.35674 396.000
56.37669 431.000
56.39663 367.000
56.41658 365.000
56.43653 401.000
56.45647 370.000
56.47642 413.000
56.49637 421.000
56.51631 386.000
56.53626 380.000
56.55621 408.000
56.57616 391.000
56.59610 372.000
56.61605 415.000
56.63600 382.000
56.65594 359.000
56.67589 415.000
56.69584 402.000
56.71578 400.000
56.73573 411.000
56.75568 410.000
56.77563 403.000
56.79557 379.000
56.81552 414.000
56.83547 393.000
56.85541 436.000
56.87536 391.000
56.89531 403.000
56.91525 424.000
56.93520 410.000
56.95515 409.000
56.97510 390.000
56.99504 428.000
57.01499 417.000
57.03494 459.000
57.05488 460.000
57.07483 439.000
57.09478 442.000
57.11472 436.000
57.13467 469.000
57.15462 476.000
57.17456 431.000
57.19451 473.000
57.21446 457.000
57.23441 476.000
57.25435 545.000
57.27430 580.000
57.29425 590.000
57.31419 603.000
57.33414 569.000
57.35409 562.000
57.37403 526.000
57.39398 499.000
57.41393 540.000
57.43388 581.000
57.45382 537.000
57.47377 540.000
57.49372 513.000
57.51366 545.000
57.53361 542.000
57.55356 471.000
57.57350 491.000
57.59345 464.000
57.61340 481.000
57.63334 478.000
57.65329 445.000
57.67324 437.000
57.69319 396.000
57.71313 448.000
57.73308 468.000
57.75303 458.000
57.77297 415.000
57.79292 435.000
57.81287 420.000
57.83281 386.000
57.85276 384.000
57.87271 384.000
57.89266 424.000
57.91260 437.000
57.93255 419.000
57.95250 462.000
57.97244 421.000
57.99239 427.000
58.01234 428.000
58.03228 459.000
58.05223 466.000
58.07218 480.000
58.09212 493.000
58.11207 466.000
58.13202 474.000
58.15197 538.000
58.17191 506.000
58.19186 493.000
58.21181 517.000
58.23175 547.000
58.25170 542.000
58.27165 567.000
58.29159 515.000
58.31154 556.000
58.33149 558.000
58.35144 491.000
58.37138 509.000
58.39133 528.000
58.41128 480.000
58.43122 517.000
58.45117 481.000
58.47112 465.000
58.49106 460.000
58.51101 414.000
58.53096 421.000
58.55090 428.000
58.57085 436.000
58.59080 444.000
58.61075 423.000
58.63069 416.000
58.65064 408.000
58.67059 364.000
58.69053 400.000
58.71048 378.000
58.73043 393.000
58.75037 441.000
58.77032 385.000
58.79027 388.000
58.81022 396.000
58.83016 349.000
58.85011 375.000
58.87006 397.000
58.89000 359.000
58.90995 389.000
58.92990 416.000
58.94984 396.000
58.96979 386.000
58.98974 409.000
59.00969 390.000
59.02963 358.000
59.04958 360.000
59.06953 382.000
59.08947 361.000
59.10942 393.000
59.12937 368.000
59.14931 379.000
59.16926 383.000
59.18921 379.000
59.20915 406.000
59.22910 390.000
59.24905 364.000
59.26900 400.000
59.28894 414.000
59.30889 366.000
59.32884 377.000
59.34878 341.000
59.36873 362.000
59.38868 392.000
59.40862 389.000
59.42857 393.000
59.44852 368.000
59.46847 394.000
59.48841 376.000
59.50836 387.000
59.52831 399.000
59.54825 377.000
59.56820 421.000
59.58815 399.000
59.60809 442.000
59.62804 402.000
59.64799 405.000
59.66793 392.000
59.68788 379.000
59.70783 380.000
59.72778 375.000
59.74772 357.000
59.76767 414.000
59.78762 370.000
59.80756 385.000
59.82751 395.000
59.84746 432.000
59.86740 407.000
59.88735 359.000
59.90730 412.000
59.92725 346.000
59.94719 370.000
59.96714 397.000
59.98709 416.000
60.00703 381.000
60.02698 369.000
60.04693 395.000
60.06687 409.000
60.08682 383.000
60.10677 376.000
60.12671 413.000
60.14666 413.000
60.16661 381.000
60.18656 403.000
60.20650 396.000
60.22645 396.000
60.24640 390.000
60.26634 389.000
60.28629 400.000
60.30624 390.000
60.32618 397.000
60.34613 393.000
60.36608 397.000
60.38603 395.000
60.40597 413.000
60.42592 447.000
60.44587 371.000
60.46581 398.000
60.48576 398.000
60.50571 386.000
60.52565 371.000
60.54560 365.000
60.56555 392.000
60.58550 398.000
60.60544 375.000
60.62539 388.000
60.64534 357.000
60.66528 401.000
60.68523 376.000
60.70518 381.000
60.72512 410.000
60.74507 404.000
60.76502 401.000
60.78496 363.000
60.80491 379.000
60.82486 405.000
60.84481 410.000
60.86475 399.000
60.88470 402.000
60.90465 397.000
60.92459 377.000
60.94454 415.000
60.96449 376.000
60.98443 402.000
61.00438 423.000
61.02433 450.000
61.04428 425.000
61.06422 429.000
61.08417 415.000
61.10412 405.000
61.12406 437.000
61.14401 385.000
61.16396 438.000
61.18390 465.000
61.20385 447.000
61.22380 421.000
61.24374 457.000
61.26369 444.000
61.28364 461.000
61.30359 491.000
61.32353 460.000
61.34348 476.000
61.36343 472.000
61.38337 498.000
61.40332 544.000
61.42327 513.000
61.44321 569.000
61.46316 534.000
61.48311 631.000
61.50306 595.000
61.52300 640.000
61.54295 650.000
61.56290 634.000
61.58284 663.000
61.60279 656.000
61.62274 649.000
61.64268 645.000
61.66263 639.000
61.68258 592.000
61.70252 608.000
61.72247 599.000
61.74242 659.000
61.76237 623.000
61.78231 575.000
61.80226 532.000
61.82221 616.000
61.84215 581.000
61.86210 550.000
61.88205 518.000
61.90199 573.000
61.92194 554.000
61.94189 538.000
61.96184 522.000
61.98178 510.000
62.00173 557.000
62.02168 568.000
62.04162 562.000
62.06157 507.000
62.08152 574.000
62.10146 571.000
62.12141 553.000
62.14136 567.000
62.16131 569.000
62.18125 591.000
62.20120 566.000
62.22115 585.000
62.24109 604.000
62.26104 609.000
62.28099 635.000
62.30093 625.000
62.32088 667.000
62.34083 650.000
62.36077 742.000
62.38072 743.000
62.40067 765.000
62.42062 855.000
62.44056 841.000
62.46051 917.000
62.48046 995.000
62.50040 988.000
62.52035 1059.000
62.54030 1111.000
62.56024 1154.000
62.58019 1260.000
62.60014 1249.000
62.62009 1275.000
62.64003 1271.000
62.65998 1255.000
62.67993 1309.000
62.69987 1233.000
62.71982 1216.000
62.73977 1173.000
62.75971 1151.000
62.77966 1141.000
62.79961 1033.000
62.81955 1087.000
62.83950 1015.000
62.85945 973.000
62.87940 959.000
62.89934 896.000
62.91929 893.000
62.93924 885.000
62.95918 839.000
62.97913 815.000
62.99908 750.000
63.01902 737.000
63.03897 752.000
63.05892 702.000
63.07887 711.000
63.09881 674.000
63.11876 697.000
63.13871 616.000
63.15865 588.000
63.17860 611.000
63.19855 609.000
63.21849 554.000
63.23844 552.000
63.25839 538.000
63.27833 509.000
63.29828 512.000
63.31823 488.000
63.33818 478.000
63.35812 453.000
63.37807 474.000
63.39802 436.000
63.41796 440.000
63.43791 438.000
63.45786 399.000
63.47780 414.000
63.49775 431.000
63.51770 417.000
63.53765 439.000
63.55759 393.000
63.57754 408.000
63.59749 432.000
63.61743 412.000
63.63738 358.000
63.65733 415.000
63.67727 384.000
63.69722 402.000
63.71717 414.000
63.73712 435.000
63.75706 391.000
63.77701 383.000
63.79696 398.000
63.81690 426.000
63.83685 411.000
63.85680 390.000
63.87674 414.000
63.89669 377.000
63.91664 451.000
63.93658 438.000
63.95653 411.000
63.97648 416.000
63.99643 457.000
64.01637 462.000
64.03632 461.000
64.05627 426.000
64.07621 470.000
64.09616 417.000
64.11611 429.000
64.13605 444.000
64.15600 408.000
64.17595 436.000
64.19590 470.000
64.21584 502.000
64.23579 437.000
64.25574 457.000
64.27568 429.000
64.29563 465.000
64.31558 402.000
64.33552 453.000
64.35547 465.000
64.37542 422.000
64.39536 468.000
64.41531 416.000
64.43526 456.000
64.45521 471.000
64.47515 457.000
64.49510 442.000
64.51505 446.000
64.53499 450.000
64.55494 434.000
64.57489 441.000
64.59483 433.000
64.61478 412.000
64.63473 431.000
64.65468 421.000
64.67462 440.000
64.69457 401.000
64.71452 430.000
64.73446 417.000
64.75441 412.000
64.77436 401.000
64.79430 419.000
64.81425 422.000
64.83420 433.000
64.85414 447.000
64.87409 403.000
64.89404 428.000
64.91399 378.000
64.93393 398.000
64.95388 410.000
64.97383 425.000
64.99377 381.000
65.01372 418.000
65.03367 416.000
65.05361 381.000
65.07356 391.000
65.09351 383.000
65.11346 411.000
65.13340 400.000
65.15335 426.000
65.17330 423.000
65.19324 393.000
65.21319 397.000
65.23314 423.000
65.25308 450.000
65.27303 391.000
65.29298 393.000
65.31293 426.000
65.33287 451.000
65.35282 442.000
65.37277 442.000
65.39271 441.000
65.41266 431.000
65.43261 440.000
65.45255 433.000
65.47250 506.000
65.49245 504.000
65.51239 471.000
65.53234 533.000
65.55229 513.000
65.57224 514.000
65.59218 527.000
65.61213 489.000
65.63208 528.000
65.65202 480.000
65.67197 531.000
65.69192 524.000
65.71186 540.000
65.73181 530.000
65.75176 543.000
65.77171 530.000
65.79165 501.000
65.81160 528.000
65.83155 541.000
65.85149 508.000
65.87144 545.000
65.89139 532.000
65.91133 494.000
65.93128 499.000
65.95123 497.000
65.97117 523.000
65.99112 534.000
66.01107 531.000
66.03102 526.000
66.05096 527.000
66.07091 517.000
66.09086 536.000
66.11080 551.000
66.13075 537.000
66.15070 520.000
66.17064 526.000
66.19059 566.000
66.21054 531.000
66.23049 562.000
66.25043 576.000
66.27038 579.000
66.29033 644.000
66.31027 623.000
66.33022 616.000
66.35017 610.000
66.37011 598.000
66.39006 612.000
66.41001 622.000
66.42995 619.000
66.44990 596.000
66.46985 544.000
66.48980 583.000
66.50974 549.000
66.52969 559.000
66.54964 549.000
66.56958 525.000
66.58953 560.000
66.60948 553.000
66.62942 501.000
66.64937 490.000
66.66932 487.000
66.68927 507.000
66.70921 493.000
66.72916 450.000
66.74911 464.000
66.76905 488.000
66.78900 477.000
66.80895 502.000
66.82889 458.000
66.84884 430.000
66.86879 458.000
66.88874 476.000
66.90868 487.000
66.92863 464.000
66.94858 445.000
66.96852 444.000
66.98847 413.000
67.00842 451.000
67.02836 429.000
67.04831 416.000
67.06826 451.000
67.08820 441.000
67.10815 445.000
67.12810 431.000
67.14805 437.000
67.16799 440.000
67.18794 437.000
67.20789 371.000
67.22783 410.000
67.24778 450.000
67.26773 409.000
67.28767 432.000
67.30762 380.000
67.32757 454.000
67.34752 395.000
67.36746 404.000
67.38741 431.000
67.40736 402.000
67.42730 395.000
67.44725 427.000
67.46720 436.000
67.48714 418.000
67.50709 416.000
67.52704 393.000
67.54698 416.000
67.56693 449.000
67.58688 468.000
67.60683 435.000
67.62677 431.000
67.64672 451.000
67.66667 431.000
67.68661 454.000
67.70656 463.000
67.72651 478.000
67.74645 457.000
67.76640 479.000
67.78635 465.000
67.80630 483.000
67.82624 500.000
67.84619 508.000
67.86614 527.000
67.88608 511.000
67.90603 558.000
67.92598 599.000
67.94592 591.000
67.96587 595.000
67.98582 604.000
68.00576 602.000
68.02571 561.000
68.04566 576.000
68.06561 588.000
68.08555 574.000
68.10550 572.000
68.12545 583.000
68.14539 504.000
68.16534 544.000
68.18529 566.000
68.20523 549.000
68.22518 517.000
68.24513 472.000
68.26508 462.000
68.28502 502.000
68.30497 489.000
68.32492 471.000
68.34486 433.000
68.36481 480.000
68.38476 437.000
68.40470 449.000
68.42465 408.000
68.44460 391.000
68.46455 437.000
68.48449 415.000
68.50444 414.000
68.52439 406.000
68.54433 431.000
68.56428 397.000
68.58423 390.000
68.60417 365.000
68.62412 371.000
68.64407 421.000
68.66401 389.000
68.68396 383.000
68.70391 375.000
68.72386 409.000
68.74380 375.000
68.76375 389.000
68.78370 377.000
68.80364 405.000
68.82359 412.000
68.84354 356.000
68.86348 402.000
68.88343 379.000
68.90338 379.000
68.92333 390.000
68.94327 390.000
68.96322 400.000
68.98317 359.000
69.00311 410.000
69.02306 378.000
69.04301 392.000
69.06295 366.000
69.08290 359.000
69.10285 381.000
69.12279 388.000
69.14274 365.000
69.16269 361.000
69.18264 348.000
69.20258 422.000
69.22253 375.000
69.24248 384.000
69.26242 357.000
69.28237 396.000
69.30232 388.000
69.32226 334.000
69.34221 393.000
69.36216 378.000
69.38211 384.000
69.40205 358.000
69.42200 352.000
69.44195 347.000
69.46189 386.000
69.48184 374.000
69.50179 345.000
69.52173 366.000
69.54168 407.000
69.56163 356.000
69.58157 394.000
69.60152 389.000
69.62147 355.000
69.64142 430.000
69.66136 383.000
69.68131 340.000
69.70126 346.000
69.72120 380.000
69.74115 385.000
69.76110 375.000
69.78104 360.000
69.80099 371.000
69.82094 404.000
69.84089 365.000
69.86083 348.000
69.88078 358.000
69.90073 364.000
69.92067 395.000
69.94062 367.000
69.96057 369.000
69.98051 334.000
70.00046 409.000
70.02041 389.000
70.04035 386.000
70.06030 403.000
70.08025 383.000
70.10020 368.000
70.12014 381.000
70.14009 347.000
70.16004 359.000
70.17998 350.000
70.19993 355.000
70.21988 354.000
70.23982 380.000
70.25977 385.000
70.27972 374.000
70.29967 368.000
70.31961 343.000
70.33956 381.000
70.35951 369.000
70.37945 384.000
70.39940 371.000
70.41935 365.000
70.43929 360.000
70.45924 364.000
70.47919 351.000
70.49914 402.000
70.51908 375.000
70.53903 376.000
70.55898 379.000
70.57892 378.000
70.59887 382.000
70.61882 381.000
70.63876 386.000
70.65871 383.000
70.67866 357.000
70.69860 402.000
70.71855 364.000
70.73850 419.000
70.75845 375.000
70.77839 354.000
70.79834 381.000
70.81829 378.000
70.83823 389.000
70.85818 394.000
70.87813 388.000
70.89807 363.000
70.91802 392.000
70.93797 374.000
70.95792 358.000
70.97786 380.000
70.99781 377.000
71.01776 333.000
71.03770 345.000
71.05765 379.000
71.07760 359.000
71.09754 363.000
71.11749 358.000
71.13744 382.000
71.15738 399.000
71.17733 429.000
71.19728 377.000
71.21723 360.000
71.23717 382.000
71.25712 355.000
71.27707 389.000
71.29701 419.000
71.31696 391.000
71.33691 404.000
71.35685 354.000
71.37680 414.000
71.39675 421.000
71.41670 354.000
71.43664 390.000
71.45659 372.000
71.47654 398.000
71.49648 397.000
71.51643 403.000
71.53638 410.000
71.55632 390.000
71.57627 392.000
71.59622 414.000
71.61616 405.000
71.63611 359.000
71.65606 370.000
71.67601 357.000
71.69595 372.000
71.71590 418.000
71.73585 413.000
71.75579 393.000
71.77574 385.000
71.79569 392.000
71.81563 370.000
71.83558 359.000
71.85553 396.000
71.87548 360.000
71.89542 343.000
71.91537 392.000
71.93532 386.000
71.95526 410.000
71.97521 399.000
71.99516 413.000
72.01510 387.000
72.03505 396.000
72.05500 372.000
72.07495 388.000
72.09489 375.000
72.11484 377.000
72.13479 404.000
72.15473 393.000
72.17468 393.000
72.19463 391.000
72.21457 428.000
72.23452 385.000
72.25447 437.000
72.27441 457.000
72.29436 401.000
72.31431 437.000
72.33426 458.000
72.35420 470.000
72.37415 463.000
72.39410 428.000
72.41404 476.000
72.43399 453.000
72.45394 429.000
72.47388 431.000
72.49383 454.000
72.51378 473.000
72.53373 456.000
72.55367 474.000
72.57362 425.000
72.59357 407.000
72.61351 443.000
72.63346 398.000
72.65341 407.000
72.67335 370.000
72.69330 430.000
72.71325 404.000
72.73319 387.000
72.75314 382.000
72.77309 383.000
72.79304 401.000
72.81298 405.000
72.83293 381.000
72.85288 443.000
72.87282 363.000
72.89277 450.000
72.91272 409.000
72.93266 380.000
72.95261 384.000
72.97256 379.000
72.99251 350.000
73.01245 430.000
73.03240 338.000
73.05235 388.000
73.07229 351.000
73.09224 414.000
73.11219 400.000
73.13213 370.000
73.15208 402.000
73.17203 374.000
73.19197 425.000
73.21192 368.000
73.23187 400.000
73.25182 395.000
73.27176 365.000
73.29171 405.000
73.31166 400.000
73.33160 395.000
73.35155 389.000
73.37150 374.000
73.39144 409.000
73.41139 376.000
73.43134 371.000
73.45129 413.000
73.47123 411.000
73.49118 380.000
73.51113 353.000
73.53107 387.000
73.55102 406.000
73.57097 395.000
73.59091 405.000
73.61086 345.000
73.63081 390.000
73.65076 400.000
73.67070 363.000
73.69065 393.000
73.71060 391.000
73.73054 427.000
73.75049 395.000
73.77044 398.000
73.79038 382.000
73.81033 416.000
73.83028 393.000
73.85022 389.000
73.87017 383.000
73.89012 386.000
73.91007 386.000
73.93001 423.000
73.94996 393.000
73.96991 375.000
73.98985 399.000
74.00980 377.000
74.02975 415.000
74.04969 402.000
74.06964 379.000
74.08959 379.000
74.10954 322.000
74.12948 375.000
74.14943 365.000
74.16938 407.000
74.18932 384.000
74.20927 424.000
74.22922 405.000
74.24916 400.000
74.26911 400.000
74.28906 390.000
74.30900 392.000
74.32895 406.000
74.34890 423.000
74.36885 410.000
74.38879 404.000
74.40874 400.000
74.42869 433.000
74.44863 453.000
74.46858 423.000
74.48853 447.000
74.50847 451.000
74.52842 401.000
74.54837 399.000
74.56832 438.000
74.58826 413.000
74.60821 495.000
74.62816 491.000
74.64810 485.000
74.66805 464.000
74.68800 475.000
74.70794 509.000
74.72789 494.000
74.74784 498.000
74.76778 515.000
74.78773 485.000
74.80768 532.000
74.82763 530.000
74.84757 577.000
74.86752 531.000
74.88747 617.000
74.90741 613.000
74.92736 596.000
74.94731 634.000
74.96725 659.000
74.98720 644.000
75.00715 648.000
75.02710 684.000
75.04704 706.000
75.06699 703.000
75.08694 726.000
75.10688 761.000
75.12683 718.000
75.14678 725.000
75.16672 772.000
75.18667 743.000
75.20662 703.000
75.22657 697.000
75.24651 659.000
75.26646 662.000
75.28641 626.000
75.30635 662.000
75.32630 609.000
75.34625 640.000
75.36619 657.000
75.38614 598.000
75.40609 573.000
75.42603 588.000
75.44598 500.000
75.46593 552.000
75.48588 495.000
75.50582 505.000
75.52577 478.000
75.54572 508.000
75.56566 476.000
75.58561 410.000
75.60556 432.000
75.62550 428.000
75.64545 469.000
75.66540 424.000
75.68535 435.000
75.70529 424.000
75.72524 415.000
75.74519 415.000
75.76513 409.000
75.78508 417.000
75.80503 415.000
75.82497 393.000
75.84492 387.000
75.86487 398.000
75.88481 412.000
75.90476 431.000
75.92471 389.000
75.94466 408.000
75.96460 397.000
75.98455 361.000
76.00450 416.000
76.02444 421.000
76.04439 392.000
76.06434 402.000
76.08428 376.000
76.10423 388.000
76.12418 421.000
76.14413 395.000
76.16407 386.000
76.18402 408.000
76.20397 351.000
76.22391 398.000
76.24386 370.000
76.26381 379.000
76.28375 355.000
76.30370 360.000
76.32365 372.000
76.34359 391.000
76.36354 393.000
76.38349 384.000
76.40344 366.000
76.42338 388.000
76.44333 374.000
76.46328 414.000
76.48322 359.000
76.50317 395.000
76.52312 383.000
76.54306 396.000
76.56301 363.000
76.58296 394.000
76.60291 380.000
76.62285 373.000
76.64280 378.000
76.66275 384.000
76.68269 405.000
76.70264 380.000
76.72259 387.000
76.74253 368.000
76.76248 395.000
76.78243 410.000
76.80238 397.000
76.82232 364.000
76.84227 414.000
76.86222 359.000
76.88216 385.000
76.90211 390.000
76.92206 379.000
76.94200 390.000
76.96195 381.000
76.98190 418.000
77.00184 381.000
77.02179 345.000
77.04174 329.000
77.06169 373.000
77.08163 403.000
77.10158 360.000
77.12153 382.000
77.14147 409.000
77.16142 382.000
77.18137 323.000
77.20131 375.000
77.22126 374.000
77.24121 384.000
77.26116 406.000
77.28110 348.000
77.30105 419.000
77.32100 380.000
77.34094 385.000
77.36089 380.000
77.38084 381.000
77.40078 336.000
77.42073 373.000
77.44068 401.000
77.46062 369.000
77.48057 402.000
77.50052 369.000
77.52047 358.000
77.54041 356.000
77.56036 384.000
77.58031 361.000
77.60025 339.000
77.62020 388.000
77.64015 329.000
77.66009 351.000
77.68004 376.000
77.69999 394.000
77.71994 367.000
77.73988 386.000
77.75983 386.000
77.77978 330.000
77.79972 409.000
77.81967 400.000
77.83962 395.000
77.85956 384.000
77.87951 369.000
77.89946 361.000
77.91940 367.000
77.93935 396.000
77.95930 380.000
77.97925 378.000
77.99919 370.000
78.01914 395.000
78.03909 366.000
78.05903 376.000
78.07898 385.000
78.09893 394.000
78.11887 407.000
78.13882 385.000
78.15877 401.000
78.17872 382.000
78.19866 322.000
78.21861 392.000
78.23856 363.000
78.25850 421.000
78.27845 394.000
78.29840 383.000
78.31834 389.000
78.33829 379.000
78.35824 383.000
78.37819 396.000
78.39813 387.000
78.41808 382.000
78.43803 438.000
78.45797 405.000
78.47792 401.000
78.49787 384.000
78.51781 382.000
78.53776 428.000
78.55771 390.000
78.57765 414.000
78.59760 411.000
78.61755 392.000
78.63750 404.000
78.65744 379.000
78.67739 407.000
78.69734 415.000
78.71728 447.000
78.73723 429.000
78.75718 410.000
78.77712 468.000
78.79707 460.000
78.81702 471.000
78.83697 475.000
78.85691 518.000
78.87686 443.000
78.89681 491.000
78.91675 487.000
78.93670 507.000
78.95665 545.000
78.97659 507.000
78.99654 528.000
79.01649 547.000
79.03643 594.000
79.05638 601.000
79.07633 584.000
79.09628 578.000
79.11622 594.000
79.13617 586.000
79.15612 582.000
79.17606 533.000
79.19601 555.000
79.21596 556.000
79.23590 570.000
79.25585 538.000
79.27580 480.000
79.29575 502.000
79.31569 465.000
79.33564 515.000
79.35559 496.000
79.37553 465.000
79.39548 452.000
79.41543 436.000
79.43537 485.000
79.45532 433.000
79.47527 442.000
79.49521 445.000
79.51516 422.000
79.53511 430.000
79.55506 423.000
79.57500 385.000
79.59495 379.000
79.61490 410.000
79.63484 387.000
79.65479 401.000
79.67474 356.000
79.69468 413.000
79.71463 400.000
79.73458 383.000
79.75453 367.000
79.77447 416.000
79.79442 404.000
79.81437 380.000
79.83431 388.000
79.85426 383.000
79.87421 417.000
79.89415 390.000
79.91410 414.000
79.93405 359.000
79.95399 338.000
79.97394 385.000
79.99389 381.000
80.01384 399.000
80.03378 383.000
80.05373 395.000
80.07368 370.000
80.09362 411.000
80.11357 389.000
80.13352 383.000
80.15346 368.000
80.17341 355.000
80.19336 365.000
80.21331 391.000
80.23325 397.000
80.25320 364.000
80.27315 420.000
80.29309 389.000
80.31304 374.000
80.33299 367.000
80.35293 378.000
80.37288 378.000
80.39283 351.000
80.41278 412.000
80.43272 390.000
80.45267 370.000
80.47262 372.000
80.49256 380.000
80.51251 393.000
80.53246 356.000
80.55240 391.000
80.57235 422.000
80.59230 416.000
80.61224 380.000
80.63219 380.000
80.65214 375.000
80.67209 383.000
80.69203 366.000
80.71198 377.000
80.73193 388.000
80.75187 375.000
80.77182 378.000
80.79177 363.000
80.81171 345.000
80.83166 393.000
80.85161 370.000
80.87156 371.000
80.89150 353.000
80.91145 364.000
80.93140 396.000
80.95134 396.000
80.97129 377.000
80.99124 389.000
81.01118 405.000
81.03113 423.000
81.05108 337.000
81.07102 375.000
81.09097 335.000
81.11092 370.000
81.13087 387.000
81.15081 378.000
81.17076 387.000
81.19071 365.000
81.21065 317.000
81.23060 360.000
81.25055 385.000
81.27049 371.000
81.29044 374.000
81.31039 393.000
81.33034 380.000
81.35028 383.000
81.37023 378.000
81.39018 367.000
81.41012 386.000
81.43007 374.000
81.45002 351.000
81.46996 368.000
81.48991 360.000
81.50986 353.000
81.52980 341.000
81.54975 350.000
81.56970 360.000
81.58965 391.000
81.60959 386.000
81.62954 404.000
81.64949 367.000
81.66943 393.000
81.68938 346.000
81.70933 363.000
81.72927 392.000
81.74922 376.000
81.76917 387.000
81.78912 369.000
81.80906 379.000
81.82901 400.000
81.84896 395.000
81.86890 354.000
81.88885 394.000
81.90880 386.000
81.92874 352.000
81.94869 397.000
81.96864 343.000
81.98859 346.000
82.00853 369.000
82.02848 373.000
82.04843 397.000
82.06837 335.000
82.08832 422.000
82.10827 418.000
82.12821 369.000
82.14816 398.000
82.16811 382.000
82.18805 392.000
82.20800 387.000
82.22795 382.000
82.24790 397.000
82.26784 386.000
82.28779 422.000
82.30774 399.000
82.32768 378.000
82.34763 378.000
82.36758 373.000
82.38752 386.000
82.40747 395.000
82.42742 407.000
82.44737 404.000
82.46731 438.000
82.48726 409.000
82.50721 422.000
82.52715 436.000
82.54710 432.000
82.56705 397.000
82.58699 435.000
82.60694 421.000
82.62689 423.000
82.64683 425.000
82.66678 435.000
82.68673 393.000
82.70668 406.000
82.72662 404.000
82.74657 427.000
82.76652 421.000
82.78646 390.000
82.80641 449.000
82.82636 436.000
82.84630 452.000
82.86625 410.000
82.88620 410.000
82.90615 434.000
82.92609 419.000
82.94604 414.000
82.96599 402.000
82.98593 382.000
83.00588 426.000
83.02583 396.000
83.04577 385.000
83.06572 422.000
83.08567 413.000
83.10561 375.000
83.12556 412.000
83.14551 416.000
83.16546 396.000
83.18540 437.000
83.20535 395.000
83.22530 430.000
83.24524 387.000
83.26519 427.000
83.28514 402.000
83.30508 383.000
83.32503 383.000
83.34498 397.000
83.36493 419.000
83.38487 438.000
83.40482 423.000
83.42477 375.000
83.44471 403.000
83.46466 420.000
83.48461 435.000
83.50455 382.000
83.52450 400.000
83.54445 370.000
83.56440 389.000
83.58434 432.000
83.60429 371.000
83.62424 400.000
83.64418 410.000
83.66413 415.000
83.68408 409.000
83.70402 401.000
83.72397 391.000
83.74392 407.000
83.76386 389.000
83.78381 411.000
83.80376 417.000
83.82371 399.000
83.84365 428.000
83.86360 414.000
83.88355 361.000
83.90349 431.000
83.92344 396.000
83.94339 387.000
83.96333 368.000
83.98328 375.000
84.00323 375.000
84.02318 403.000
84.04312 404.000
84.06307 361.000
84.08302 363.000
84.10296 399.000
84.12291 394.000
84.14286 407.000
84.16280 371.000
84.18275 405.000
84.20270 433.000
84.22264 373.000
84.24259 397.000
84.26254 382.000
84.28249 400.000
84.30243 411.000
84.32238 389.000
84.34233 366.000
84.36227 400.000
84.38222 391.000
84.40217 397.000
84.42211 369.000
84.44206 398.000
84.46201 373.000
84.48196 370.000
84.50190 376.000
84.52185 382.000
84.54180 406.000
84.56174 389.000
84.58169 407.000
84.60164 416.000
84.62158 347.000
84.64153 402.000
84.66148 388.000
84.68142 395.000
84.70137 389.000
84.72132 379.000
84.74127 371.000
84.76121 353.000
84.78116 352.000
84.80111 376.000
84.82105 370.000
84.84100 411.000
84.86095 409.000
84.88089 370.000
84.90084 370.000
84.92079 348.000
84.94074 351.000
84.96068 368.000
84.98063 361.000
85.00058 381.000
85.02052 370.000
85.04047 392.000
85.06042 356.000
85.08036 367.000
85.10031 366.000
85.12026 372.000
85.14021 374.000
85.16015 364.000
85.18010 376.000
85.20005 373.000
85.21999 395.000
85.23994 372.000
85.25989 350.000
85.27983 365.000
85.29978 374.000
85.31973 347.000
85.33967 366.000
85.35962 406.000
85.37957 348.000
85.39952 408.000
85.41946 369.000
85.43941 382.000
85.45936 363.000
85.47930 363.000
85.49925 364.000
85.51920 379.000
85.53914 380.000
85.55909 359.000
85.57904 358.000
85.59899 344.000
85.61893 338.000
85.63888 378.000
85.65883 336.000
85.67877 382.000
85.69872 369.000
85.71867 350.000
85.73861 363.000
85.75856 348.000
85.77851 363.000
85.79845 361.000
85.81840 385.000
85.83835 360.000
85.85830 397.000
85.87824 347.000
85.89819 366.000
85.91814 359.000
85.93808 391.000
85.95803 353.000
85.97798 369.000
85.99792 393.000
86.01787 376.000
86.03782 366.000
86.05777 340.000
86.07771 383.000
86.09766 397.000
86.11761 410.000
86.13755 368.000
86.15750 371.000
86.17745 364.000
86.19739 356.000
86.21734 384.000
86.23729 359.000
86.25723 348.000
86.27718 389.000
86.29713 384.000
86.31708 364.000
86.33702 356.000
86.35697 376.000
86.37692 389.000
86.39686 401.000
86.41681 346.000
86.43676 400.000
86.45670 362.000
86.47665 365.000
86.49660 363.000
86.51655 373.000
86.53649 404.000
86.55644 398.000
86.57639 399.000
86.59633 361.000
86.61628 382.000
86.63623 383.000
86.65617 353.000
86.67612 376.000
86.69607 363.000
86.71602 400.000
86.73596 342.000
86.75591 368.000
86.77586 389.000
86.79580 398.000
86.81575 376.000
86.83570 393.000
86.85564 384.000
86.87559 356.000
86.89554 350.000
86.91548 408.000
86.93543 381.000
86.95538 360.000
86.97533 397.000
86.99527 431.000
87.01522 365.000
87.03517 397.000
87.05511 420.000
87.07506 366.000
87.09501 368.000
87.11495 385.000
87.13490 367.000
87.15485 420.000
87.17480 386.000
87.19474 347.000
87.21469 375.000
87.23464 356.000
87.25458 389.000
87.27453 397.000
87.29448 410.000
87.31442 376.000
87.33437 401.000
87.35432 382.000
87.37426 403.000
87.39421 400.000
87.41416 391.000
87.43411 373.000
87.45405 395.000
87.47400 382.000
87.49395 411.000
87.51389 428.000
87.53384 386.000
87.55379 410.000
87.57373 363.000
87.59368 413.000
87.61363 404.000
87.63358 397.000
87.65352 377.000
87.67347 381.000
87.69342 398.000
87.71336 388.000
87.73331 392.000
87.75326 403.000
87.77320 382.000
87.79315 379.000
87.81310 382.000
87.83304 365.000
87.85299 365.000
87.87294 391.000
87.89289 405.000
87.91283 360.000
87.93278 341.000
87.95273 384.000
87.97267 366.000
87.99262 410.000
88.01257 381.000
88.03251 353.000
88.05246 405.000
88.07241 355.000
88.09236 391.000
88.11230 371.000
88.13225 350.000
88.15220 344.000
88.17214 379.000
88.19209 365.000
88.21204 354.000
88.23198 353.000
88.25193 348.000
88.27188 393.000
88.29183 402.000
88.31177 350.000
88.33172 309.000
88.35167 387.000
88.37161 354.000
88.39156 359.000
88.41151 373.000
88.43145 350.000
88.45140 334.000
88.47135 373.000
88.49129 358.000
88.51124 411.000
88.53119 366.000
88.55114 381.000
88.57108 390.000
88.59103 388.000
88.61098 397.000
88.63092 349.000
88.65087 355.000
88.67082 389.000
88.69076 346.000
88.71071 348.000
88.73066 369.000
88.75061 402.000
88.77055 383.000
88.79050 416.000
88.81045 409.000
88.83039 387.000
88.85034 375.000
88.87029 380.000
88.89023 380.000
88.91018 361.000
88.93013 377.000
88.95007 354.000
88.97002 364.000
88.98997 373.000
89.00992 392.000
89.02986 381.000
89.04981 360.000
89.06976 404.000
89.08970 368.000
89.10965 383.000
89.12960 338.000
89.14954 350.000
89.16949 394.000
89.18944 382.000
89.20939 388.000
89.22933 391.000
89.24928 379.000
89.26923 386.000
89.28917 365.000
89.30912 375.000
89.32907 392.000
89.34901 405.000
89.36896 368.000
89.38891 404.000
89.40885 377.000
89.42880 415.000
89.44875 352.000
89.46870 404.000
89.48864 428.000
89.50859 393.000
89.52854 399.000
89.54848 388.000
89.56843 365.000
89.58838 384.000
89.60832 389.000
89.62827 343.000
89.64822 395.000
89.66817 404.000
89.68811 384.000
89.70806 395.000
89.72801 392.000
89.74795 382.000
89.76790 404.000
89.78785 412.000
89.80779 391.000
89.82774 407.000
89.84769 401.000
89.86764 415.000
89.88758 420.000
89.90753 379.000
89.92748 404.000
89.94742 365.000
89.96737 387.000
89.98732 397.000
90.00726 401.000
