10.00000 399.000
10.01995 386.000
10.03989 375.000
10.05984 427.000
10.07979 396.000
10.09973 371.000
10.11968 403.000
10.13963 391.000
10.15958 415.000
10.17952 397.000
10.19947 397.000
10.21942 357.000
10.23936 385.000
10.25931 431.000
10.27926 400.000
10.29920 400.000
10.31915 390.000
10.33910 395.000
10.35905 372.000
10.37899 389.000
10.39894 403.000
10.41889 415.000
10.43883 411.000
10.45878 397.000
10.47873 384.000
10.49867 397.000
10.51862 373.000
10.53857 375.000
10.55851 408.000
10.57846 398.000
10.59841 357.000
10.61836 402.000
10.63830 404.000
10.65825 404.000
10.67820 399.000
10.69814 415.000
10.71809 397.000
10.73804 417.000
10.75798 408.000
10.77793 398.000
10.79788 404.000
10.81783 384.000
10.83777 365.000
10.85772 399.000
10.87767 388.000
10.89761 371.000
10.91756 433.000
10.93751 409.000
10.95745 397.000
10.97740 417.000
10.99735 373.000
11.01730 378.000
11.03724 356.000
11.05719 387.000
11.07714 393.000
11.09708 439.000
11.11703 384.000
11.13698 398.000
11.15692 376.000
11.17687 393.000
11.19682 391.000
11.21676 383.000
11.23671 377.000
11.25666 380.000
11.27661 403.000
11.29655 418.000
11.31650 391.000
11.33645 380.000
11.35639 394.000
11.37634 403.000
11.39629 404.000
11.41623 434.000
11.43618 381.000
11.45613 391.000
11.47608 401.000
11.49602 405.000
11.51597 406.000
11.53592 376.000
11.55586 365.000
11.57581 368.000
11.59576 383.000
11.61570 398.000
11.63565 362.000
11.65560 413.000
11.67554 395.000
11.69549 405.000
11.71544 391.000
11.73539 407.000
11.75533 425.000
11.77528 405.000
11.79523 369.000
11.81517 384.000
11.83512 388.000
11.85507 396.000
11.87501 380.000
11.89496 404.000
11.91491 419.000
11.93486 435.000
11.95480 402.000
11.97475 418.000
11.99470 379.000
12.01464 407.000
12.03459 396.000
12.05454 426.000
12.07448 376.000
12.09443 398.000
12.11438 389.000
12.13432 379.000
12.15427 399.000
12.17422 395.000
12.19417 424.000
12.21411 400.000
12.23406 405.000
12.25401 359.000
12.27395 387.000
12.29390 400.000
12.31385 387.000
12.33379 455.000
12.35374 371.000
12.37369 397.000
12.39364 390.000
12.41358 344.000
12.43353 358.000
12.45348 392.000
12.47342 395.000
12.49337 395.000
12.51332 391.000
12.53326 417.000
12.55321 416.000
12.57316 388.000
12.59311 384.000
12.61305 438.000
12.63300 396.000
12.65295 377.000
12.67289 393.000
12.69284 420.000
12.71279 450.000
12.73273 383.000
12.75268 407.000
12.77263 385.000
12.79257 391.000
12.81252 413.000
12.83247 402.000
12.85242 376.000
12.87236 397.000
12.89231 404.000
12.91226 366.000
12.93220 408.000
12.95215 407.000
12.97210 384.000
12.99204 355.000
13.01199 404.000
13.03194 411.000
13.05189 420.000
13.07183 388.000
13.09178 388.000
13.11173 420.000
13.13167 385.000
13.15162 415.000
13.17157 391.000
13.19151 406.000
13.21146 368.000
13.23141 342.000
13.25135 377.000
13.27130 390.000
13.29125 386.000
13.31120 369.000
13.33114 384.000
13.35109 391.000
13.37104 428.000
13.39098 421.000
13.41093 384.000
13.43088 418.000
13.45082 405.000
13.47077 367.000
13.49072 358.000
13.51067 392.000
13.53061 380.000
13.55056 413.000
13.57051 414.000
13.59045 385.000
13.61040 381.000
13.63035 395.000
13.65029 407.000
13.67024 378.000
13.69019 405.000
13.71013 408.000
13.73008 404.000
13.75003 398.000
13.76998 384.000
13.78992 374.000
13.80987 371.000
13.82982 394.000
13.84976 405.000
13.86971 430.000
13.88966 417.000
13.90960 398.000
13.92955 363.000
13.94950 403.000
13.96945 390.000
13.98939 424.000
14.00934 417.000
14.02929 422.000
14.04923 418.000
14.06918 426.000
14.08913 369.000
14.10907 420.000
14.12902 369.000
14.14897 429.000
14.16892 352.000
14.18886 389.000
14.20881 352.000
14.22876 387.000
14.24870 375.000
14.26865 376.000
14.28860 378.000
14.30854 376.000
14.32849 384.000
14.34844 381.000
14.36838 418.000
14.38833 368.000
14.40828 412.000
14.42823 421.000
14.44817 445.000
14.46812 376.000
14.48807 379.000
14.50801 375.000
14.52796 441.000
14.54791 429.000
14.56785 403.000
14.58780 384.000
14.60775 395.000
14.62770 387.000
14.64764 382.000
14.66759 406.000
14.68754 401.000
14.70748 380.000
14.72743 385.000
14.74738 439.000
14.76732 364.000
14.78727 409.000
14.80722 376.000
14.82716 440.000
14.84711 427.000
14.86706 379.000
14.88701 446.000
14.90695 400.000
14.92690 414.000
14.94685 389.000
14.96679 424.000
14.98674 407.000
15.00669 393.000
15.02663 423.000
15.04658 423.000
15.06653 419.000
15.08648 430.000
15.10642 404.000
15.12637 403.000
15.14632 383.000
15.16626 435.000
15.18621 403.000
15.20616 403.000
15.22610 431.000
15.24605 419.000
15.26600 397.000
15.28594 466.000
15.30589 479.000
15.32584 426.000
15.34579 432.000
15.36573 460.000
15.38568 437.000
15.40563 427.000
15.42557 455.000
15.44552 443.000
15.46547 461.000
15.48541 463.000
15.50536 469.000
15.52531 492.000
15.54526 431.000
15.56520 494.000
15.58515 501.000
15.60510 514.000
15.62504 610.000
15.64499 614.000
15.66494 762.000
15.68488 930.000
15.70483 1268.000
15.72478 1786.000
15.74472 2321.000
15.76467 2460.000
15.78462 2563.000
15.80457 2391.000
15.82451 2079.000
15.84446 1718.000
15.86441 1261.000
15.88435 976.000
15.90430 917.000
15.92425 876.000
15.94419 956.000
15.96414 1130.000
15.98409 1353.000
16.00404 1564.000
16.02398 1810.000
16.04393 2034.000
16.06388 2207.000
16.08382 2319.000
16.10377 2338.000
16.12372 2300.000
16.14366 2230.000
16.16361 2020.000
16.18356 1786.000
16.20351 1633.000
16.22345 1386.000
16.24340 1190.000
16.26335 1011.000
16.28329 875.000
16.30324 663.000
16.32319 594.000
16.34313 606.000
16.36308 541.000
16.38303 447.000
16.40297 451.000
16.42292 506.000
16.44287 440.000
16.46282 440.000
16.48276 431.000
16.50271 441.000
16.52266 420.000
16.54260 438.000
16.56255 431.000
16.58250 423.000
16.60244 459.000
16.62239 416.000
16.64234 445.000
16.66229 435.000
16.68223 448.000
16.70218 420.000
16.72213 431.000
16.74207 482.000
16.76202 454.000
16.78197 472.000
16.80191 519.000
16.82186 581.000
16.84181 553.000
16.86175 502.000
16.88170 453.000
16.90165 447.000
16.92160 439.000
16.94154 429.000
16.96149 388.000
16.98144 417.000
17.00138 440.000
17.02133 380.000
17.04128 394.000
17.06122 372.000
17.08117 402.000
17.10112 427.000
17.12107 398.000
17.14101 398.000
17.16096 379.000
17.18091 383.000
17.20085 396.000
17.22080 432.000
17.24075 371.000
17.26069 407.000
17.28064 402.000
17.30059 383.000
17.32053 408.000
17.34048 423.000
17.36043 373.000
17.38038 389.000
17.40032 400.000
17.42027 356.000
17.44022 388.000
17.46016 366.000
17.48011 384.000
17.50006 375.000
17.52000 383.000
17.53995 413.000
17.55990 398.000
17.57985 380.000
17.59979 397.000
17.61974 354.000
17.63969 375.000
17.65963 383.000
17.67958 345.000
17.69953 376.000
17.71947 362.000
17.73942 374.000
17.75937 385.000
17.77932 385.000
17.79926 376.000
17.81921 377.000
17.83916 387.000
17.85910 381.000
17.87905 391.000
17.89900 416.000
17.91894 355.000
17.93889 373.000
17.95884 384.000
17.97878 354.000
17.99873 399.000
18.01868 412.000
18.03863 423.000
18.05857 392.000
18.07852 380.000
18.09847 360.000
18.11841 413.000
18.13836 390.000
18.15831 411.000
18.17825 414.000
18.19820 400.000
18.21815 418.000
18.23810 440.000
18.25804 431.000
18.27799 448.000
18.29794 439.000
18.31788 421.000
18.33783 441.000
18.35778 370.000
18.37772 422.000
18.39767 443.000
18.41762 414.000
18.43756 418.000
18.45751 388.000
18.47746 383.000
18.49741 428.000
18.51735 380.000
18.53730 378.000
18.55725 385.000
18.57719 402.000
18.59714 389.000
18.61709 379.000
18.63703 397.000
18.65698 395.000
18.67693 387.000
18.69688 381.000
18.71682 385.000
18.73677 406.000
18.75672 390.000
18.77666 404.000
18.79661 356.000
18.81656 351.000
18.83650 407.000
18.85645 399.000
18.87640 398.000
18.89634 383.000
18.91629 414.000
18.93624 429.000
18.95619 358.000
18.97613 416.000
18.99608 413.000
19.01603 433.000
19.03597 373.000
19.05592 428.000
19.07587 370.000
19.09581 413.000
19.11576 391.000
19.13571 382.000
19.15566 380.000
19.17560 423.000
19.19555 381.000
19.21550 380.000
19.23544 412.000
19.25539 402.000
19.27534 405.000
19.29528 409.000
19.31523 379.000
19.33518 376.000
19.35513 403.000
19.37507 405.000
19.39502 368.000
19.41497 422.000
19.43491 404.000
19.45486 430.000
19.47481 393.000
19.49475 387.000
19.51470 404.000
19.53465 424.000
19.55459 376.000
19.57454 412.000
19.59449 395.000
19.61444 409.000
19.63438 375.000
19.65433 369.000
19.67428 423.000
19.69422 399.000
19.71417 416.000
19.73412 389.000
19.75406 415.000
19.77401 427.000
19.79396 392.000
19.81391 401.000
19.83385 404.000
19.85380 393.000
19.87375 405.000
19.89369 404.000
19.91364 415.000
19.93359 418.000
19.95353 383.000
19.97348 362.000
19.99343 373.000
20.01337 384.000
20.03332 386.000
20.05327 383.000
20.07322 386.000
20.09316 379.000
20.11311 390.000
20.13306 433.000
20.15300 386.000
20.17295 401.000
20.19290 419.000
20.21284 363.000
20.23279 406.000
20.25274 402.000
20.27269 398.000
20.29263 369.000
20.31258 412.000
20.33253 394.000
20.35247 390.000
20.37242 380.000
20.39237 379.000
20.41231 383.000
20.43226 412.000
20.45221 371.000
20.47215 406.000
20.49210 415.000
20.51205 384.000
20.53200 437.000
20.55194 423.000
20.57189 417.000
20.59184 416.000
20.61178 420.000
20.63173 414.000
20.65168 468.000
20.67162 409.000
20.69157 422.000
20.71152 443.000
20.73147 449.000
20.75141 482.000
20.77136 484.000
20.79131 525.000
20.81125 545.000
20.83120 590.000
20.85115 588.000
20.87109 643.000
20.89104 627.000
20.91099 646.000
20.93094 581.000
20.95088 576.000
20.97083 520.000
20.99078 526.000
21.01072 478.000
21.03067 466.000
21.05062 475.000
21.07056 461.000
21.09051 452.000
21.11046 426.000
21.13040 393.000
21.15035 399.000
21.17030 425.000
21.19025 408.000
21.21019 427.000
21.23014 385.000
21.25009 421.000
21.27003 362.000
21.28998 435.000
21.30993 405.000
21.32987 389.000
21.34982 406.000
21.36977 438.000
21.38972 399.000
21.40966 369.000
21.42961 395.000
21.44956 433.000
21.46950 369.000
21.48945 404.000
21.50940 406.000
21.52934 402.000
21.54929 373.000
21.56924 434.000
21.58918 415.000
21.60913 394.000
21.62908 369.000
21.64903 400.000
21.66897 404.000
21.68892 409.000
21.70887 379.000
21.72881 373.000
21.74876 405.000
21.76871 375.000
21.78865 407.000
21.80860 390.000
21.82855 409.000
21.84850 400.000
21.86844 359.000
21.88839 413.000
21.90834 403.000
21.92828 403.000
21.94823 392.000
21.96818 384.000
21.98812 367.000
22.00807 404.000
22.02802 383.000
22.04796 405.000
22.06791 393.000
22.08786 418.000
22.10781 397.000
22.12775 420.000
22.14770 419.000
22.16765 409.000
22.18759 376.000
22.20754 396.000
22.22749 366.000
22.24743 397.000
22.26738 369.000
22.28733 389.000
22.30728 423.000
22.32722 400.000
22.34717 384.000
22.36712 407.000
22.38706 409.000
22.40701 387.000
22.42696 370.000
22.44690 377.000
22.46685 394.000
22.48680 364.000
22.50675 412.000
22.52669 388.000
22.54664 389.000
22.56659 412.000
22.58653 413.000
22.60648 349.000
22.62643 395.000
22.64637 415.000
22.66632 423.000
22.68627 395.000
22.70621 399.000
22.72616 382.000
22.74611 395.000
22.76606 407.000
22.78600 377.000
22.80595 407.000
22.82590 452.000
22.84584 410.000
22.86579 382.000
22.88574 375.000
22.90568 410.000
22.92563 393.000
22.94558 429.000
22.96553 394.000
22.98547 386.000
23.00542 403.000
23.02537 389.000
23.04531 424.000
23.06526 397.000
23.08521 376.000
23.10515 392.000
23.12510 396.000
23.14505 409.000
23.16499 422.000
23.18494 453.000
23.20489 384.000
23.22484 417.000
23.24478 389.000
23.26473 376.000
23.28468 389.000
23.30462 388.000
23.32457 403.000
23.34452 389.000
23.36446 418.000
23.38441 401.000
23.40436 379.000
23.42431 365.000
23.44425 400.000
23.46420 393.000
23.48415 384.000
23.50409 400.000
23.52404 362.000
23.54399 421.000
23.56393 375.000
23.58388 388.000
23.60383 404.000
23.62377 405.000
23.64372 400.000
23.66367 364.000
23.68362 395.000
23.70356 424.000
23.72351 417.000
23.74346 395.000
23.76340 405.000
23.78335 402.000
23.80330 369.000
23.82324 411.000
23.84319 398.000
23.86314 386.000
23.88309 392.000
23.90303 407.000
23.92298 399.000
23.94293 411.000
23.96287 399.000
23.98282 392.000
24.00277 365.000
24.02271 401.000
24.04266 385.000
24.06261 382.000
24.08256 380.000
24.10250 418.000
24.12245 440.000
24.14240 411.000
24.16234 389.000
24.18229 421.000
24.20224 396.000
24.22218 414.000
24.24213 389.000
24.26208 392.000
24.28202 383.000
24.30197 395.000
24.32192 370.000
24.34187 384.000
24.36181 377.000
24.38176 396.000
24.40171 387.000
24.42165 416.000
24.44160 388.000
24.46155 405.000
24.48149 378.000
24.50144 397.000
24.52139 398.000
24.54134 427.000
24.56128 404.000
24.58123 403.000
24.60118 404.000
24.62112 406.000
24.64107 423.000
24.66102 403.000
24.68096 419.000
24.70091 386.000
24.72086 395.000
24.74080 381.000
24.76075 387.000
24.78070 414.000
24.80065 393.000
24.82059 352.000
24.84054 424.000
24.86049 425.000
24.88043 426.000
24.90038 405.000
24.92033 453.000
24.94027 458.000
24.96022 490.000
24.98017 474.000
25.00012 494.000
25.02006 483.000
25.04001 440.000
25.05996 440.000
25.07990 434.000
25.09985 409.000
25.11980 417.000
25.13974 389.000
25.15969 389.000
25.17964 365.000
25.19958 423.000
25.21953 427.000
25.23948 438.000
25.25943 440.000
25.27937 402.000
25.29932 379.000
25.31927 390.000
25.33921 382.000
25.35916 452.000
25.37911 387.000
25.39905 344.000
25.41900 393.000
25.43895 441.000
25.45890 412.000
25.47884 380.000
25.49879 413.000
25.51874 425.000
25.53868 406.000
25.55863 401.000
25.57858 392.000
25.59852 406.000
25.61847 393.000
25.63842 379.000
25.65837 450.000
25.67831 395.000
25.69826 430.000
25.71821 405.000
25.73815 379.000
25.75810 425.000
25.77805 451.000
25.79799 353.000
25.81794 365.000
25.83789 385.000
25.85783 404.000
25.87778 373.000
25.89773 384.000
25.91768 376.000
25.93762 404.000
25.95757 401.000
25.97752 415.000
25.99746 403.000
26.01741 423.000
26.03736 417.000
26.05730 408.000
26.07725 407.000
26.09720 384.000
26.11715 375.000
26.13709 428.000
26.15704 393.000
26.17699 407.000
26.19693 381.000
26.21688 379.000
26.23683 420.000
26.25677 420.000
26.27672 394.000
26.29667 396.000
26.31661 427.000
26.33656 389.000
26.35651 420.000
26.37646 399.000
26.39640 393.000
26.41635 415.000
26.43630 388.000
26.45624 421.000
26.47619 441.000
26.49614 391.000
26.51608 402.000
26.53603 444.000
26.55598 435.000
26.57593 404.000
26.59587 367.000
26.61582 434.000
26.63577 429.000
26.65571 422.000
26.67566 415.000
26.69561 421.000
26.71555 393.000
26.73550 434.000
26.75545 419.000
26.77539 415.000
26.79534 411.000
26.81529 384.000
26.83524 387.000
26.85518 394.000
26.87513 433.000
26.89508 388.000
26.91502 392.000
26.93497 408.000
26.95492 449.000
26.97486 411.000
26.99481 391.000
27.01476 421.000
27.03471 384.000
27.05465 389.000
27.07460 405.000
27.09455 410.000
27.11449 427.000
27.13444 389.000
27.15439 399.000
27.17433 393.000
27.19428 446.000
27.21423 394.000
27.23417 390.000
27.25412 399.000
27.27407 446.000
27.29402 396.000
27.31396 426.000
27.33391 459.000
27.35386 416.000
27.37380 411.000
27.39375 396.000
27.41370 438.000
27.43364 401.000
27.45359 432.000
27.47354 401.000
27.49349 406.000
27.51343 377.000
27.53338 416.000
27.55333 405.000
27.57327 412.000
27.59322 413.000
27.61317 414.000
27.63311 406.000
27.65306 430.000
27.67301 440.000
27.69296 438.000
27.71290 420.000
27.73285 443.000
27.75280 398.000
27.77274 415.000
27.79269 390.000
27.81264 431.000
27.83258 429.000
27.85253 379.000
27.87248 405.000
27.89242 418.000
27.91237 415.000
27.93232 383.000
27.95227 398.000
27.97221 421.000
27.99216 415.000
28.01211 393.000
28.03205 366.000
28.05200 401.000
28.07195 396.000
28.09189 437.000
28.11184 421.000
28.13179 389.000
28.15174 411.000
28.17168 392.000
28.19163 414.000
28.21158 438.000
28.23152 419.000
28.25147 395.000
28.27142 389.000
28.29136 420.000
28.31131 460.000
28.33126 415.000
28.35120 408.000
28.37115 408.000
28.39110 408.000
28.41105 389.000
28.43099 388.000
28.45094 420.000
28.47089 421.000
28.49083 407.000
28.51078 409.000
28.53073 403.000
28.55067 430.000
28.57062 418.000
28.59057 410.000
28.61052 420.000
28.63046 429.000
28.65041 428.000
28.67036 395.000
28.69030 378.000
28.71025 442.000
28.73020 446.000
28.75014 424.000
28.77009 416.000
28.79004 403.000
28.80998 374.000
28.82993 407.000
28.84988 392.000
28.86983 432.000
28.88977 446.000
28.90972 441.000
28.92967 439.000
28.94961 403.000
28.96956 434.000
28.98951 388.000
29.00945 411.000
29.02940 432.000
29.04935 411.000
29.06930 386.000
29.08924 417.000
29.10919 434.000
29.12914 436.000
29.14908 408.000
29.16903 427.000
29.18898 417.000
29.20892 471.000
29.22887 473.000
29.24882 503.000
29.26877 518.000
29.28871 572.000
29.30866 606.000
29.32861 629.000
29.34855 656.000
29.36850 689.000
29.38845 638.000
29.40839 638.000
29.42834 674.000
29.44829 598.000
29.46823 587.000
29.48818 510.000
29.50813 504.000
29.52808 531.000
29.54802 498.000
29.56797 466.000
29.58792 473.000
29.60786 455.000
29.62781 498.000
29.64776 471.000
29.66770 465.000
29.68765 492.000
29.70760 434.000
29.72755 482.000
29.74749 462.000
29.76744 438.000
29.78739 394.000
29.80733 408.000
29.82728 398.000
29.84723 414.000
29.86717 439.000
29.88712 409.000
29.90707 434.000
29.92701 433.000
29.94696 429.000
29.96691 424.000
29.98686 442.000
30.00680 432.000
30.02675 461.000
30.04670 416.000
30.06664 445.000
30.08659 429.000
30.10654 477.000
30.12648 452.000
30.14643 461.000
30.16638 430.000
30.18633 467.000
30.20627 439.000
30.22622 412.000
30.24617 469.000
30.26611 412.000
30.28606 435.000
30.30601 429.000
30.32595 417.000
30.34590 426.000
30.36585 430.000
30.38579 406.000
30.40574 396.000
30.42569 453.000
30.44564 416.000
30.46558 433.000
30.48553 441.000
30.50548 399.000
30.52542 407.000
30.54537 415.000
30.56532 444.000
30.58526 431.000
30.60521 452.000
30.62516 390.000
30.64511 422.000
30.66505 442.000
30.68500 441.000
30.70495 478.000
30.72489 420.000
30.74484 442.000
30.76479 440.000
30.78473 406.000
30.80468 421.000
30.82463 426.000
30.84458 439.000
30.86452 466.000
30.88447 437.000
30.90442 445.000
30.92436 437.000
30.94431 436.000
30.96426 441.000
30.98420 417.000
31.00415 414.000
31.02410 450.000
31.04404 420.000
31.06399 411.000
31.08394 448.000
31.10389 435.000
31.12383 419.000
31.14378 428.000
31.16373 404.000
31.18367 399.000
31.20362 457.000
31.22357 432.000
31.24351 440.000
31.26346 370.000
31.28341 411.000
31.30336 402.000
31.32330 401.000
31.34325 431.000
31.36320 438.000
31.38314 401.000
31.40309 409.000
31.42304 420.000
31.44298 422.000
31.46293 451.000
31.48288 436.000
31.50282 409.000
31.52277 431.000
31.54272 451.000
31.56267 458.000
31.58261 460.000
31.60256 430.000
31.62251 434.000
31.64245 426.000
31.66240 424.000
31.68235 468.000
31.70229 484.000
31.72224 430.000
31.74219 420.000
31.76214 477.000
31.78208 489.000
31.80203 524.000
31.82198 553.000
31.84192 540.000
31.86187 578.000
31.88182 569.000
31.90176 577.000
31.92171 525.000
31.94166 562.000
31.96160 513.000
31.98155 520.000
32.00150 519.000
32.02145 471.000
32.04139 494.000
32.06134 507.000
32.08129 461.000
32.10123 430.000
32.12118 413.000
32.14113 440.000
32.16107 441.000
32.18102 457.000
32.20097 444.000
32.22092 458.000
32.24086 457.000
32.26081 458.000
32.28076 485.000
32.30070 448.000
32.32065 495.000
32.34060 567.000
32.36054 538.000
32.38049 597.000
32.40044 580.000
32.42039 639.000
32.44033 656.000
32.46028 782.000
32.48023 866.000
32.50017 996.000
32.52012 1054.000
32.54007 965.000
32.56001 858.000
32.57996 867.000
32.59991 844.000
32.61985 756.000
32.63980 694.000
32.65975 596.000
32.67970 577.000
32.69964 558.000
32.71959 597.000
32.73954 542.000
32.75948 521.000
32.77943 543.000
32.79938 500.000
32.81932 461.000
32.83927 482.000
32.85922 484.000
32.87917 461.000
32.89911 433.000
32.91906 462.000
32.93901 465.000
32.95895 481.000
32.97890 446.000
32.99885 437.000
33.01879 447.000
33.03874 419.000
33.05869 433.000
33.07863 470.000
33.09858 486.000
33.11853 417.000
33.13848 417.000
33.15842 463.000
33.17837 420.000
33.19832 414.000
33.21826 449.000
33.23821 378.000
33.25816 410.000
33.27810 465.000
33.29805 450.000
33.31800 420.000
33.33795 420.000
33.35789 412.000
33.37784 424.000
33.39779 444.000
33.41773 425.000
33.43768 466.000
33.45763 447.000
33.47757 428.000
33.49752 459.000
33.51747 420.000
33.53741 447.000
33.55736 437.000
33.57731 424.000
33.59726 440.000
33.61720 462.000
33.63715 423.000
33.65710 426.000
33.67704 429.000
33.69699 426.000
33.71694 445.000
33.73688 466.000
33.75683 432.000
33.77678 444.000
33.79673 462.000
33.81667 429.000
33.83662 465.000
33.85657 399.000
33.87651 461.000
33.89646 449.000
33.91641 462.000
33.93635 459.000
33.95630 503.000
33.97625 509.000
33.99620 458.000
34.01614 464.000
34.03609 496.000
34.05604 479.000
34.07598 498.000
34.09593 525.000
34.11588 498.000
34.13582 488.000
34.15577 503.000
34.17572 517.000
34.19566 538.000
34.21561 575.000
34.23556 539.000
34.25551 626.000
34.27545 660.000
34.29540 651.000
34.31535 684.000
34.33529 717.000
34.35524 725.000
34.37519 771.000
34.39513 783.000
34.41508 751.000
34.43503 723.000
34.45498 719.000
34.47492 671.000
34.49487 698.000
34.51482 635.000
34.53476 683.000
34.55471 659.000
34.57466 663.000
34.59460 618.000
34.61455 585.000
34.63450 604.000
34.65444 596.000
34.67439 594.000
34.69434 564.000
34.71429 564.000
34.73423 570.000
34.75418 588.000
34.77413 610.000
34.79407 661.000
34.81402 654.000
34.83397 593.000
34.85391 654.000
34.87386 645.000
34.89381 604.000
34.91376 586.000
34.93370 582.000
34.95365 595.000
34.97360 562.000
34.99354 528.000
35.01349 494.000
35.03344 569.000
35.05338 550.000
35.07333 562.000
35.09328 609.000
35.11322 591.000
35.13317 644.000
35.15312 627.000
35.17307 610.000
35.19301 653.000
35.21296 693.000
35.23291 712.000
35.25285 806.000
35.27280 859.000
35.29275 947.000
35.31269 1040.000
35.33264 1015.000
35.35259 1171.000
35.37254 1453.000
35.39248 1877.000
35.41243 2331.000
35.43238 2745.000
35.45232 3000.000
35.47227 2906.000
35.49222 3639.000
35.51216 4907.000
35.53211 5482.000
35.55206 4793.000
35.57201 3787.000
35.59195 3343.000
35.61190 3249.000
35.63185 2982.000
35.65179 2491.000
35.67174 1888.000
35.69169 1486.000
35.71163 1158.000
35.73158 942.000
35.75153 904.000
35.77147 793.000
35.79142 790.000
35.81137 678.000
35.83132 621.000
35.85126 641.000
35.87121 596.000
35.89116 631.000
35.91110 593.000
35.93105 591.000
35.95100 566.000
35.97094 601.000
35.99089 553.000
36.01084 534.000
36.03079 573.000
36.05073 524.000
36.07068 547.000
36.09063 499.000
36.11057 520.000
36.13052 512.000
36.15047 519.000
36.17041 511.000
36.19036 492.000
36.21031 484.000
36.23025 513.000
36.25020 499.000
36.27015 515.000
36.29010 497.000
36.31004 454.000
36.32999 512.000
36.34994 516.000
36.36988 502.000
36.38983 488.000
36.40978 495.000
36.42972 526.000
36.44967 523.000
36.46962 518.000
36.48957 526.000
36.50951 516.000
36.52946 498.000
36.54941 510.000
36.56935 526.000
36.58930 513.000
36.60925 582.000
36.62919 540.000
36.64914 581.000
36.66909 611.000
36.68903 676.000
36.70898 699.000
36.72893 612.000
36.74888 684.000
36.76882 698.000
36.78877 665.000
36.80872 614.000
36.82866 668.000
36.84861 665.000
36.86856 609.000
36.88850 672.000
36.90845 596.000
36.92840 574.000
36.94835 622.000
36.96829 591.000
36.98824 584.000
37.00819 637.000
37.02813 564.000
37.04808 602.000
37.06803 625.000
37.08797 644.000
37.10792 591.000
37.12787 599.000
37.14781 545.000
37.16776 607.000
37.18771 566.000
37.20766 583.000
37.22760 595.000
37.24755 584.000
37.26750 582.000
37.28744 532.000
37.30739 578.000
37.32734 541.000
37.34728 535.000
37.36723 495.000
37.38718 513.000
37.40713 485.000
37.42707 455.000
37.44702 493.000
37.46697 478.000
37.48691 463.000
37.50686 511.000
37.52681 473.000
37.54675 477.000
37.56670 475.000
37.58665 454.000
37.60660 450.000
37.62654 479.000
37.64649 477.000
37.66644 477.000
37.68638 450.000
37.70633 441.000
37.72628 526.000
37.74622 479.000
37.76617 485.000
37.78612 503.000
37.80606 491.000
37.82601 454.000
37.84596 481.000
37.86591 470.000
37.88585 511.000
37.90580 484.000
37.92575 453.000
37.94569 468.000
37.96564 480.000
37.98559 524.000
38.00553 518.000
38.02548 487.000
38.04543 529.000
38.06538 522.000
38.08532 535.000
38.10527 528.000
38.12522 493.000
38.14516 505.000
38.16511 545.000
38.18506 507.000
38.20500 559.000
38.22495 499.000
38.24490 570.000
38.26484 584.000
38.28479 598.000
38.30474 568.000
38.32469 560.000
38.34463 558.000
38.36458 607.000
38.38453 632.000
38.40447 655.000
38.42442 694.000
38.44437 687.000
38.46431 723.000
38.48426 772.000
38.50421 809.000
38.52416 885.000
38.54410 961.000
38.56405 1093.000
38.58400 1217.000
38.60394 1394.000
38.62389 1540.000
38.64384 1962.000
38.66378 2451.000
38.68373 3012.000
38.70368 3918.000
38.72362 4997.000
38.74357 5144.000
38.76352 4351.000
38.78347 3845.000
38.80341 3751.000
38.82336 3768.000
38.84331 3658.000
38.86325 3212.000
38.88320 2745.000
38.90315 2468.000
38.92309 2162.000
38.94304 1790.000
38.96299 1574.000
38.98294 1448.000
39.00288 1386.000
39.02283 1238.000
39.04278 1147.000
39.06272 933.000
39.08267 876.000
39.10262 772.000
39.12256 736.000
39.14251 717.000
39.16246 703.000
39.18241 687.000
39.20235 654.000
39.22230 661.000
39.24225 631.000
39.26219 618.000
39.28214 603.000
39.30209 612.000
39.32203 531.000
39.34198 565.000
39.36193 567.000
39.38187 516.000
39.40182 508.000
39.42177 530.000
39.44172 487.000
39.46166 478.000
39.48161 458.000
39.50156 475.000
39.52150 460.000
39.54145 491.000
39.56140 435.000
39.58134 454.000
39.60129 442.000
39.62124 493.000
39.64119 492.000
39.66113 489.000
39.68108 449.000
39.70103 454.000
39.72097 459.000
39.74092 447.000
39.76087 455.000
39.78081 472.000
39.80076 450.000
39.82071 445.000
39.84065 450.000
39.86060 451.000
39.88055 429.000
39.90050 470.000
39.92044 436.000
39.94039 459.000
39.96034 479.000
39.98028 452.000
40.00023 448.000
40.02018 417.000
40.04012 451.000
40.06007 420.000
40.08002 456.000
40.09997 455.000
40.11991 435.000
40.13986 427.000
40.15981 436.000
40.17975 412.000
40.19970 439.000
40.21965 449.000
40.23959 465.000
40.25954 424.000
40.27949 450.000
40.29943 452.000
40.31938 410.000
40.33933 425.000
40.35928 439.000
40.37922 427.000
40.39917 422.000
40.41912 438.000
40.43906 413.000
40.45901 442.000
40.47896 420.000
40.49890 454.000
40.51885 400.000
40.53880 410.000
40.55875 417.000
40.57869 419.000
40.59864 430.000
40.61859 447.000
40.63853 459.000
40.65848 395.000
40.67843 391.000
40.69837 456.000
40.71832 394.000
40.73827 440.000
40.75822 392.000
40.77816 428.000
40.79811 417.000
40.81806 424.000
40.83800 427.000
40.85795 426.000
40.87790 403.000
40.89784 423.000
40.91779 470.000
40.93774 454.000
40.95768 435.000
40.97763 404.000
40.99758 456.000
41.01753 469.000
41.03747 452.000
41.05742 477.000
41.07737 483.000
41.09731 449.000
41.11726 497.000
41.13721 486.000
41.15715 500.000
41.17710 498.000
41.19705 523.000
41.21700 464.000
41.23694 508.000
41.25689 522.000
41.27684 537.000
41.29678 524.000
41.31673 579.000
41.33668 613.000
41.35662 650.000
41.37657 696.000
41.39652 762.000
41.41646 805.000
41.43641 952.000
41.45636 1073.000
41.47631 1364.000
41.49625 1456.000
41.51620 1586.000
41.53615 1540.000
41.55609 1591.000
41.57604 1539.000
41.59599 1423.000
41.61593 1306.000
41.63588 1230.000
41.65583 1173.000
41.67578 1023.000
41.69572 851.000
41.71567 824.000
41.73562 746.000
41.75556 687.000
41.77551 595.000
41.79546 586.000
41.81540 532.000
41.83535 534.000
41.85530 474.000
41.87524 493.000
41.89519 489.000
41.91514 505.000
41.93509 536.000
41.95503 450.000
41.97498 426.000
41.99493 456.000
42.01487 449.000
42.03482 422.000
42.05477 443.000
42.07471 452.000
42.09466 450.000
42.11461 446.000
42.13456 423.000
42.15450 455.000
42.17445 456.000
42.19440 423.000
42.21434 463.000
42.23429 454.000
42.25424 443.000
42.27418 407.000
42.29413 454.000
42.31408 425.000
42.33403 439.000
42.35397 439.000
42.37392 472.000
42.39387 464.000
42.41381 456.000
42.43376 452.000
42.45371 431.000
42.47365 430.000
42.49360 453.000
42.51355 440.000
42.53349 450.000
42.55344 481.000
42.57339 454.000
42.59334 451.000
42.61328 416.000
42.63323 447.000
42.65318 401.000
42.67312 448.000
42.69307 433.000
42.71302 424.000
42.73296 441.000
42.75291 450.000
42.77286 428.000
42.79281 468.000
42.81275 465.000
42.83270 437.000
42.85265 433.000
42.87259 416.000
42.89254 451.000
42.91249 427.000
42.93243 436.000
42.95238 444.000
42.97233 448.000
42.99227 404.000
43.01222 426.000
43.03217 423.000
43.05212 414.000
43.07206 439.000
43.09201 424.000
43.11196 459.000
43.13190 463.000
43.15185 461.000
43.17180 447.000
43.19174 445.000
43.21169 466.000
43.23164 475.000
43.25159 451.000
43.27153 485.000
43.29148 488.000
43.31143 480.000
43.33137 477.000
43.35132 436.000
43.37127 470.000
43.39121 463.000
43.41116 430.000
43.43111 437.000
43.45105 425.000
43.47100 466.000
43.49095 460.000
43.51090 424.000
43.53084 437.000
43.55079 498.000
43.57074 442.000
43.59068 402.000
43.61063 427.000
43.63058 424.000
43.65052 383.000
43.67047 442.000
43.69042 427.000
43.71037 450.000
43.73031 437.000
43.75026 401.000
43.77021 429.000
43.79015 425.000
43.81010 412.000
43.83005 401.000
43.84999 392.000
43.86994 426.000
43.88989 453.000
43.90984 393.000
43.92978 409.000
43.94973 407.000
43.96968 439.000
43.98962 415.000
44.00957 465.000
44.02952 414.000
44.04946 434.000
44.06941 427.000
44.08936 377.000
44.10930 404.000
44.12925 399.000
44.14920 455.000
44.16915 420.000
44.18909 405.000
44.20904 461.000
44.22899 412.000
44.24893 412.000
44.26888 443.000
44.28883 463.000
44.30877 460.000
44.32872 398.000
44.34867 472.000
44.36862 459.000
44.38856 437.000
44.40851 439.000
44.42846 408.000
44.44840 425.000
44.46835 426.000
44.48830 447.000
44.50824 432.000
44.52819 431.000
44.54814 432.000
44.56808 442.000
44.58803 485.000
44.60798 438.000
44.62793 471.000
44.64787 455.000
44.66782 491.000
44.68777 452.000
44.70771 442.000
44.72766 477.000
44.74761 467.000
44.76755 538.000
44.78750 523.000
44.80745 491.000
44.82740 537.000
44.84734 551.000
44.86729 497.000
44.88724 525.000
44.90718 496.000
44.92713 522.000
44.94708 463.000
44.96702 451.000
44.98697 476.000
45.00692 506.000
45.02686 483.000
45.04681 511.000
45.06676 489.000
45.08671 448.000
45.10665 438.000
45.12660 481.000
45.14655 419.000
45.16649 399.000
45.18644 440.000
45.20639 468.000
45.22633 439.000
45.24628 445.000
45.26623 462.000
45.28618 422.000
45.30612 468.000
45.32607 417.000
45.34602 416.000
45.36596 430.000
45.38591 459.000
45.40586 439.000
45.42580 420.000
45.44575 454.000
45.46570 431.000
45.48565 426.000
45.50559 428.000
45.52554 405.000
45.54549 448.000
45.56543 438.000
45.58538 428.000
45.60533 427.000
45.62527 443.000
45.64522 460.000
45.66517 415.000
45.68511 437.000
45.70506 445.000
45.72501 388.000
45.74496 461.000
45.76490 409.000
45.78485 436.000
45.80480 430.000
45.82474 431.000
45.84469 423.000
45.86464 421.000
45.88458 409.000
45.90453 429.000
45.92448 415.000
45.94443 401.000
45.96437 392.000
45.98432 466.000
46.00427 423.000
46.02421 421.000
46.04416 405.000
46.06411 393.000
46.08405 431.000
46.10400 441.000
46.12395 400.000
46.14389 433.000
46.16384 405.000
46.18379 460.000
46.20374 440.000
46.22368 538.000
46.24363 539.000
46.26358 502.000
46.28352 486.000
46.30347 459.000
46.32342 465.000
46.34336 470.000
46.36331 470.000
46.38326 408.000
46.40321 499.000
46.42315 424.000
46.44310 442.000
46.46305 470.000
46.48299 431.000
46.50294 467.000
46.52289 431.000
46.54283 439.000
46.56278 435.000
46.58273 451.000
46.60267 397.000
46.62262 438.000
46.64257 451.000
46.66252 423.000
46.68246 429.000
46.70241 408.000
46.72236 433.000
46.74230 409.000
46.76225 424.000
46.78220 410.000
46.80214 455.000
46.82209 398.000
46.84204 428.000
46.86199 457.000
46.88193 435.000
46.90188 392.000
46.92183 432.000
46.94177 399.000
46.96172 426.000
46.98167 416.000
47.00161 422.000
47.02156 437.000
47.04151 407.000
47.06146 358.000
47.08140 423.000
47.10135 431.000
47.12130 395.000
47.14124 436.000
47.16119 452.000
47.18114 408.000
47.20108 433.000
47.22103 430.000
47.24098 444.000
47.26092 423.000
47.28087 399.000
47.30082 432.000
47.32077 409.000
47.34071 431.000
47.36066 432.000
47.38061 440.000
47.40055 396.000
47.42050 410.000
47.44045 433.000
47.46039 465.000
47.48034 410.000
47.50029 422.000
47.52024 420.000
47.54018 414.000
47.56013 413.000
47.58008 423.000
47.60002 449.000
47.61997 401.000
47.63992 420.000
47.65986 435.000
47.67981 414.000
47.69976 449.000
47.71970 391.000
47.73965 400.000
47.75960 453.000
47.77955 419.000
47.79949 388.000
47.81944 423.000
47.83939 419.000
47.85933 425.000
47.87928 443.000
47.89923 468.000
47.91917 479.000
47.93912 449.000
47.95907 452.000
47.97902 419.000
47.99896 442.000
48.01891 474.000
48.03886 468.000
48.05880 421.000
48.07875 478.000
48.09870 506.000
48.11864 489.000
48.13859 481.000
48.15854 486.000
48.17848 491.000
48.19843 474.000
48.21838 468.000
48.23833 430.000
48.25827 489.000
48.27822 493.000
48.29817 499.000
48.31811 496.000
48.33806 521.000
48.35801 521.000
48.37795 520.000
48.39790 573.000
48.41785 492.000
48.43780 601.000
48.45774 608.000
48.47769 609.000
48.49764 677.000
48.51758 641.000
48.53753 679.000
48.55748 723.000
48.57742 733.000
48.59737 808.000
48.61732 991.000
48.63726 1259.000
48.65721 1338.000
48.67716 1535.000
48.69711 1542.000
48.71705 1317.000
48.73700 1192.000
48.75695 1139.000
48.77689 1061.000
48.79684 1158.000
48.81679 1117.000
48.83673 1000.000
48.85668 854.000
48.87663 770.000
48.89658 673.000
48.91652 560.000
48.93647 590.000
48.95642 534.000
48.97636 575.000
48.99631 559.000
49.01626 535.000
49.03620 488.000
49.05615 442.000
49.07610 477.000
49.09605 480.000
49.11599 452.000
49.13594 443.000
49.15589 485.000
49.17583 447.000
49.19578 472.000
49.21573 452.000
49.23567 449.000
49.25562 422.000
49.27557 452.000
49.29551 424.000
49.31546 460.000
49.33541 455.000
49.35536 496.000
49.37530 448.000
49.39525 427.000
49.41520 444.000
49.43514 506.000
49.45509 434.000
49.47504 447.000
49.49498 497.000
49.51493 438.000
49.53488 431.000
49.55483 461.000
49.57477 464.000
49.59472 478.000
49.61467 481.000
49.63461 440.000
49.65456 482.000
49.67451 439.000
49.69445 431.000
49.71440 444.000
49.73435 461.000
49.75429 441.000
49.77424 461.000
49.79419 420.000
49.81414 433.000
49.83408 431.000
49.85403 447.000
49.87398 406.000
49.89392 441.000
49.91387 423.000
49.93382 431.000
49.95376 429.000
49.97371 408.000
49.99366 404.000
50.01361 436.000
50.03355 393.000
50.05350 426.000
50.07345 410.000
50.09339 413.000
50.11334 424.000
50.13329 469.000
50.15323 396.000
50.17318 412.000
50.19313 428.000
50.21307 385.000
50.23302 433.000
50.25297 414.000
50.27292 395.000
50.29286 447.000
50.31281 410.000
50.33276 414.000
50.35270 411.000
50.37265 390.000
50.39260 395.000
50.41254 388.000
50.43249 430.000
50.45244 437.000
50.47239 393.000
50.49233 431.000
50.51228 406.000
50.53223 398.000
50.55217 435.000
50.57212 432.000
50.59207 386.000
50.61201 424.000
50.63196 415.000
50.65191 407.000
50.67186 412.000
50.69180 418.000
50.71175 434.000
50.73170 417.000
50.75164 470.000
50.77159 421.000
50.79154 391.000
50.81148 383.000
50.83143 414.000
50.85138 395.000
50.87132 392.000
50.89127 397.000
50.91122 407.000
50.93117 412.000
50.95111 407.000
50.97106 437.000
50.99101 405.000
51.01095 409.000
51.03090 417.000
51.05085 417.000
51.07079 423.000
51.09074 418.000
51.11069 397.000
51.13064 448.000
51.15058 417.000
51.17053 432.000
51.19048 401.000
51.21042 426.000
51.23037 398.000
51.25032 428.000
51.27026 439.000
51.29021 445.000
51.31016 435.000
51.33010 478.000
51.35005 485.000
51.37000 462.000
51.38995 421.000
51.40989 501.000
51.42984 491.000
51.44979 466.000
51.46973 462.000
51.48968 481.000
51.50963 440.000
51.52957 416.000
51.54952 435.000
51.56947 480.000
51.58942 438.000
51.60936 461.000
51.62931 434.000
51.64926 460.000
51.66920 454.000
51.68915 408.000
51.70910 401.000
51.72904 426.000
51.74899 442.000
51.76894 401.000
51.78888 412.000
51.80883 429.000
51.82878 429.000
51.84873 455.000
51.86867 469.000
51.88862 471.000
51.90857 496.000
51.92851 410.000
51.94846 448.000
51.96841 464.000
51.98835 469.000
52.00830 457.000
52.02825 461.000
52.04820 469.000
52.06814 498.000
52.08809 480.000
52.10804 514.000
52.12798 498.000
52.14793 483.000
52.16788 484.000
52.18782 435.000
52.20777 450.000
52.22772 505.000
52.24767 451.000
52.26761 437.000
52.28756 459.000
52.30751 459.000
52.32745 453.000
52.34740 451.000
52.36735 437.000
52.38729 453.000
52.40724 424.000
52.42719 428.000
52.44713 453.000
52.46708 427.000
52.48703 491.000
52.50698 477.000
52.52692 470.000
52.54687 451.000
52.56682 444.000
52.58676 462.000
52.60671 476.000
52.62666 461.000
52.64660 493.000
52.66655 444.000
52.68650 499.000
52.70645 479.000
52.72639 508.000
52.74634 558.000
52.76629 545.000
52.78623 581.000
52.80618 614.000
52.82613 574.000
52.84607 578.000
52.86602 626.000
52.88597 600.000
52.90591 580.000
52.92586 591.000
52.94581 606.000
52.96576 550.000
52.98570 520.000
53.00565 556.000
53.02560 527.000
53.04554 502.000
53.06549 463.000
53.08544 498.000
53.10538 516.000
53.12533 436.000
53.14528 440.000
53.16523 417.000
53.18517 466.000
53.20512 470.000
53.22507 466.000
53.24501 465.000
53.26496 488.000
53.28491 488.000
53.30485 483.000
53.32480 482.000
53.34475 535.000
53.36469 522.000
53.38464 521.000
53.40459 560.000
53.42454 621.000
53.44448 699.000
53.46443 677.000
53.48438 688.000
53.50432 726.000
53.52427 676.000
53.54422 726.000
53.56416 675.000
53.58411 660.000
53.60406 664.000
53.62401 615.000
53.64395 650.000
53.66390 636.000
53.68385 589.000
53.70379 556.000
53.72374 503.000
53.74369 534.000
53.76363 539.000
53.78358 510.000
53.80353 474.000
53.82348 455.000
53.84342 432.000
53.86337 485.000
53.88332 409.000
53.90326 465.000
53.92321 429.000
53.94316 421.000
53.96310 441.000
53.98305 416.000
54.00300 465.000
54.02294 483.000
54.04289 435.000
54.06284 469.000
54.08279 454.000
54.10273 432.000
54.12268 436.000
54.14263 435.000
54.16257 435.000
54.18252 381.000
54.20247 418.000
54.22241 441.000
54.24236 444.000
54.26231 442.000
54.28226 436.000
54.30220 421.000
54.32215 419.000
54.34210 413.000
54.36204 434.000
54.38199 389.000
54.40194 430.000
54.42188 393.000
54.44183 442.000
54.46178 390.000
54.48172 457.000
54.50167 433.000
54.52162 446.000
54.54157 459.000
54.56151 417.000
54.58146 449.000
54.60141 421.000
54.62135 401.000
54.64130 418.000
54.66125 433.000
54.68119 401.000
54.70114 426.000
54.72109 454.000
54.74104 420.000
54.76098 416.000
54.78093 427.000
54.80088 381.000
54.82082 405.000
54.84077 413.000
54.86072 422.000
54.88066 436.000
54.90061 415.000
54.92056 402.000
54.94050 378.000
54.96045 421.000
54.98040 412.000
55.00035 387.000
55.02029 407.000
55.04024 423.000
55.06019 436.000
55.08013 408.000
55.10008 426.000
55.12003 370.000
55.13997 414.000
55.15992 433.000
55.17987 441.000
55.19982 424.000
55.21976 422.000
55.23971 425.000
55.25966 457.000
55.27960 426.000
55.29955 416.000
55.31950 414.000
55.33944 410.000
55.35939 392.000
55.37934 443.000
55.39929 400.000
55.41923 432.000
55.43918 449.000
55.45913 442.000
55.47907 401.000
55.49902 409.000
55.51897 373.000
55.53891 445.000
55.55886 441.000
55.57881 413.000
55.59875 460.000
55.61870 445.000
55.63865 444.000
55.65860 402.000
55.67854 393.000
55.69849 407.000
55.71844 419.000
55.73838 396.000
55.75833 421.000
55.77828 403.000
55.79822 405.000
55.81817 410.000
55.83812 433.000
55.85807 395.000
55.87801 442.000
55.89796 464.000
55.91791 388.000
55.93785 425.000
55.95780 409.000
55.97775 416.000
55.99769 435.000
56.01764 403.000
56.03759 424.000
56.05753 423.000
56.07748 427.000
56.09743 425.000
56.11738 416.000
56.13732 417.000
56.15727 394.000
56.17722 406.000
56.19716 457.000
56.21711 405.000
56.23706 443.000
56.25700 424.000
56.27695 448.000
56.29690 437.000
56.31685 426.000
56.33679 446.000
56.35674 414.000
56.37669 426.000
56.39663 390.000
56.41658 428.000
56.43653 432.000
56.45647 427.000
56.47642 441.000
56.49637 399.000
56.51631 415.000
56.53626 429.000
56.55621 431.000
56.57616 427.000
56.59610 453.000
56.61605 450.000
56.63600 444.000
56.65594 442.000
56.67589 455.000
56.69584 402.000
56.71578 437.000
56.73573 442.000
56.75568 474.000
56.77563 458.000
56.79557 433.000
56.81552 450.000
56.83547 453.000
56.85541 484.000
56.87536 438.000
56.89531 491.000
56.91525 416.000
56.93520 459.000
56.95515 386.000
56.97510 480.000
56.99504 418.000
57.01499 464.000
57.03494 450.000
57.05488 431.000
57.07483 471.000
57.09478 428.000
57.11472 455.000
57.13467 464.000
57.15462 445.000
57.17456 498.000
57.19451 468.000
57.21446 481.000
57.23441 467.000
57.25435 466.000
57.27430 509.000
57.29425 576.000
57.31419 516.000
57.33414 581.000
57.35409 558.000
57.37403 572.000
57.39398 554.000
57.41393 512.000
57.43388 622.000
57.45382 605.000
57.47377 514.000
57.49372 593.000
57.51366 628.000
57.53361 587.000
57.55356 575.000
57.57350 605.000
57.59345 566.000
57.61340 576.000
57.63334 536.000
57.65329 503.000
57.67324 484.000
57.69319 510.000
57.71313 519.000
57.73308 470.000
57.75303 484.000
57.77297 457.000
57.79292 463.000
57.81287 461.000
57.83281 449.000
57.85276 474.000
57.87271 476.000
57.89266 484.000
57.91260 450.000
57.93255 457.000
57.95250 434.000
57.97244 447.000
57.99239 453.000
58.01234 480.000
58.03228 478.000
58.05223 492.000
58.07218 493.000
58.09212 534.000
58.11207 451.000
58.13202 486.000
58.15197 553.000
58.17191 550.000
58.19186 580.000
58.21181 610.000
58.23175 689.000
58.25170 737.000
58.27165 817.000
58.29159 845.000
58.31154 913.000
58.33149 788.000
58.35144 751.000
58.37138 649.000
58.39133 674.000
58.41128 685.000
58.43122 660.000
58.45117 694.000
58.47112 652.000
58.49106 598.000
58.51101 613.000
58.53096 612.000
58.55090 543.000
58.57085 539.000
58.59080 483.000
58.61075 479.000
58.63069 484.000
58.65064 470.000
58.67059 410.000
58.69053 466.000
58.71048 481.000
58.73043 424.000
58.75037 423.000
58.77032 460.000
58.79027 403.000
58.81022 416.000
58.83016 451.000
58.85011 470.000
58.87006 459.000
58.89000 417.000
58.90995 410.000
58.92990 444.000
58.94984 456.000
58.96979 410.000
58.98974 382.000
59.00969 438.000
59.02963 430.000
59.04958 464.000
59.06953 452.000
59.08947 456.000
59.10942 434.000
59.12937 411.000
59.14931 392.000
59.16926 437.000
59.18921 446.000
59.20915 404.000
59.22910 443.000
59.24905 420.000
59.26900 399.000
59.28894 427.000
59.30889 425.000
59.32884 431.000
59.34878 404.000
59.36873 418.000
59.38868 383.000
59.40862 428.000
59.42857 426.000
59.44852 379.000
59.46847 443.000
59.48841 418.000
59.50836 425.000
59.52831 417.000
59.54825 453.000
59.56820 448.000
59.58815 454.000
59.60809 421.000
59.62804 418.000
59.64799 428.000
59.66793 427.000
59.68788 389.000
59.70783 443.000
59.72778 399.000
59.74772 409.000
59.76767 393.000
59.78762 418.000
59.80756 413.000
59.82751 411.000
59.84746 394.000
59.86740 405.000
59.88735 439.000
59.90730 404.000
59.92725 392.000
59.94719 458.000
59.96714 463.000
59.98709 388.000
60.00703 409.000
60.02698 426.000
60.04693 423.000
60.06687 425.000
60.08682 418.000
60.10677 403.000
60.12671 439.000
60.14666 418.000
60.16661 461.000
60.18656 420.000
60.20650 423.000
60.22645 471.000
60.24640 428.000
60.26634 457.000
60.28629 441.000
60.30624 426.000
60.32618 407.000
60.34613 433.000
60.36608 448.000
60.38603 420.000
60.40597 433.000
60.42592 462.000
60.44587 419.000
60.46581 422.000
60.48576 388.000
60.50571 430.000
60.52565 426.000
60.54560 421.000
60.56555 419.000
60.58550 448.000
60.60544 435.000
60.62539 408.000
60.64534 454.000
60.66528 430.000
60.68523 428.000
60.70518 451.000
60.72512 424.000
60.74507 394.000
60.76502 388.000
60.78496 443.000
60.80491 445.000
60.82486 428.000
60.84481 444.000
60.86475 454.000
60.88470 451.000
60.90465 412.000
60.92459 444.000
60.94454 436.000
60.96449 435.000
60.98443 459.000
61.00438 437.000
61.02433 477.000
61.04428 464.000
61.06422 495.000
61.08417 472.000
61.10412 489.000
61.12406 473.000
61.14401 422.000
61.16396 459.000
61.18390 486.000
61.20385 442.000
61.22380 464.000
61.24374 484.000
61.26369 484.000
61.28364 515.000
61.30359 505.000
61.32353 530.000
61.34348 524.000
61.36343 574.000
61.38337 581.000
61.40332 636.000
61.42327 694.000
61.44321 744.000
61.46316 764.000
61.48311 975.000
61.50306 1097.000
61.52300 1185.000
61.54295 1112.000
61.56290 1105.000
61.58284 946.000
61.60279 861.000
61.62274 806.000
61.64268 865.000
61.66263 868.000
61.68258 904.000
61.70252 855.000
61.72247 867.000
61.74242 735.000
61.76237 730.000
61.78231 621.000
61.80226 655.000
61.82221 595.000
61.84215 615.000
61.86210 552.000
61.88205 543.000
61.90199 511.000
61.92194 503.000
61.94189 528.000
61.96184 520.000
61.98178 498.000
62.00173 471.000
62.02168 487.000
62.04162 446.000
62.06157 490.000
62.08152 509.000
62.10146 487.000
62.12141 462.000
62.14136 464.000
62.16131 499.000
62.18125 446.000
62.20120 463.000
62.22115 468.000
62.24109 487.000
62.26104 453.000
62.28099 485.000
62.30093 436.000
62.32088 445.000
62.34083 481.000
62.36077 463.000
62.38072 492.000
62.40067 478.000
62.42062 445.000
62.44056 452.000
62.46051 444.000
62.48046 472.000
62.50040 495.000
62.52035 462.000
62.54030 487.000
62.56024 469.000
62.58019 496.000
62.60014 459.000
62.62009 478.000
62.64003 505.000
62.65998 531.000
62.67993 500.000
62.69987 515.000
62.71982 494.000
62.73977 477.000
62.75971 477.000
62.77966 491.000
62.79961 526.000
62.81955 512.000
62.83950 541.000
62.85945 486.000
62.87940 520.000
62.89934 558.000
62.91929 550.000
62.93924 505.000
62.95918 488.000
62.97913 463.000
62.99908 519.000
63.01902 543.000
63.03897 523.000
63.05892 538.000
63.07887 526.000
63.09881 548.000
63.11876 484.000
63.13871 523.000
63.15865 499.000
63.17860 485.000
63.19855 499.000
63.21849 495.000
63.23844 492.000
63.25839 494.000
63.27833 468.000
63.29828 487.000
63.31823 479.000
63.33818 497.000
63.35812 477.000
63.37807 486.000
63.39802 472.000
63.41796 440.000
63.43791 491.000
63.45786 479.000
63.47780 473.000
63.49775 453.000
63.51770 482.000
63.53765 453.000
63.55759 437.000
63.57754 435.000
63.59749 427.000
63.61743 468.000
63.63738 456.000
63.65733 479.000
63.67727 482.000
63.69722 479.000
63.71717 499.000
63.73712 498.000
63.75706 489.000
63.77701 491.000
63.79696 429.000
63.81690 488.000
63.83685 459.000
63.85680 479.000
63.87674 472.000
63.89669 445.000
63.91664 459.000
63.93658 448.000
63.95653 451.000
63.97648 491.000
63.99643 488.000
64.01637 434.000
64.03632 467.000
64.05627 481.000
64.07621 494.000
64.09616 458.000
64.11611 462.000
64.13605 465.000
64.15600 502.000
64.17595 491.000
64.19590 495.000
64.21584 451.000
64.23579 478.000
64.25574 491.000
64.27568 482.000
64.29563 466.000
64.31558 435.000
64.33552 461.000
64.35547 436.000
64.37542 446.000
64.39536 460.000
64.41531 454.000
64.43526 435.000
64.45521 465.000
64.47515 422.000
64.49510 435.000
64.51505 411.000
64.53499 503.000
64.55494 451.000
64.57489 399.000
64.59483 401.000
64.61478 460.000
64.63473 453.000
64.65468 432.000
64.67462 445.000
64.69457 480.000
64.71452 443.000
64.73446 477.000
64.75441 438.000
64.77436 434.000
64.79430 423.000
64.81425 429.000
64.83420 469.000
64.85414 444.000
64.87409 453.000
64.89404 467.000
64.91399 463.000
64.93393 427.000
64.95388 437.000
64.97383 442.000
64.99377 461.000
65.01372 451.000
65.03367 456.000
65.05361 436.000
65.07356 464.000
65.09351 461.000
65.11346 442.000
65.13340 467.000
65.15335 475.000
65.17330 439.000
65.19324 465.000
65.21319 480.000
65.23314 492.000
65.25308 494.000
65.27303 466.000
65.29298 515.000
65.31293 502.000
65.33287 476.000
65.35282 499.000
65.37277 501.000
65.39271 543.000
65.41266 532.000
65.43261 561.000
65.45255 529.000
65.47250 551.000
65.49245 547.000
65.51239 557.000
65.53234 571.000
65.55229 582.000
65.57224 582.000
65.59218 632.000
65.61213 619.000
65.63208 606.000
65.65202 647.000
65.67197 642.000
65.69192 615.000
65.71186 694.000
65.73181 743.000
65.75176 682.000
65.77171 764.000
65.79165 799.000
65.81160 849.000
65.83155 856.000
65.85149 874.000
65.87144 863.000
65.89139 842.000
65.91133 813.000
65.93128 852.000
65.95123 757.000
65.97117 806.000
65.99112 776.000
66.01107 773.000
66.03102 750.000
66.05096 757.000
66.07091 808.000
66.09086 768.000
66.11080 828.000
66.13075 885.000
66.15070 947.000
66.17064 979.000
66.19059 1069.000
66.21054 1027.000
66.23049 1005.000
66.25043 879.000
66.27038 814.000
66.29033 724.000
66.31027 744.000
66.33022 790.000
66.35017 776.000
66.37011 844.000
66.39006 753.000
66.41001 749.000
66.42995 722.000
66.44990 621.000
66.46985 596.000
66.48980 582.000
66.50974 547.000
66.52969 566.000
66.54964 541.000
66.56958 508.000
66.58953 531.000
66.60948 505.000
66.62942 555.000
66.64937 475.000
66.66932 521.000
66.68927 487.000
66.70921 490.000
66.72916 493.000
66.74911 494.000
66.76905 515.000
66.78900 487.000
66.80895 479.000
66.82889 477.000
66.84884 464.000
66.86879 432.000
66.88874 461.000
66.90868 430.000
66.92863 468.000
66.94858 445.000
66.96852 466.000
66.98847 489.000
67.00842 454.000
67.02836 473.000
67.04831 481.000
67.06826 432.000
67.08820 437.000
67.10815 465.000
67.12810 484.000
67.14805 474.000
67.16799 436.000
67.18794 440.000
67.20789 442.000
67.22783 441.000
67.24778 465.000
67.26773 446.000
67.28767 441.000
67.30762 479.000
67.32757 472.000
67.34752 438.000
67.36746 464.000
67.38741 479.000
67.40736 475.000
67.42730 499.000
67.44725 463.000
67.46720 476.000
67.48714 496.000
67.50709 518.000
67.52704 493.000
67.54698 491.000
67.56693 517.000
67.58688 545.000
67.60683 518.000
67.62677 503.000
67.64672 509.000
67.66667 527.000
67.68661 539.000
67.70656 566.000
67.72651 571.000
67.74645 563.000
67.76640 584.000
67.78635 544.000
67.80630 581.000
67.82624 639.000
67.84619 684.000
67.86614 673.000
67.88608 738.000
67.90603 734.000
67.92598 736.000
67.94592 793.000
67.96587 780.000
67.98582 686.000
68.00576 727.000
68.02571 757.000
68.04566 805.000
68.06561 941.000
68.08555 981.000
68.10550 1049.000
68.12545 1030.000
68.14539 1018.000
68.16534 880.000
68.18529 809.000
68.20523 786.000
68.22518 750.000
68.24513 723.000
68.26508 717.000
68.28502 752.000
68.30497 701.000
68.32492 749.000
68.34486 672.000
68.36481 637.000
68.38476 550.000
68.40470 556.000
68.42465 513.000
68.44460 522.000
68.46455 518.000
68.48449 525.000
68.50444 461.000
68.52439 493.000
68.54433 481.000
68.56428 476.000
68.58423 451.000
68.60417 482.000
68.62412 434.000
68.64407 425.000
68.66401 478.000
68.68396 432.000
68.70391 458.000
68.72386 435.000
68.74380 435.000
68.76375 407.000
68.78370 453.000
68.80364 423.000
68.82359 422.000
68.84354 426.000
68.86348 482.000
68.88343 440.000
68.90338 420.000
68.92333 409.000
68.94327 457.000
68.96322 431.000
68.98317 420.000
69.00311 406.000
69.02306 440.000
69.04301 441.000
69.06295 406.000
69.08290 428.000
69.10285 450.000
69.12279 470.000
69.14274 428.000
69.16269 458.000
69.18264 499.000
69.20258 446.000
69.22253 422.000
69.24248 424.000
69.26242 452.000
69.28237 395.000
69.30232 441.000
69.32226 419.000
69.34221 412.000
69.36216 450.000
69.38211 397.000
69.40205 402.000
69.42200 413.000
69.44195 407.000
69.46189 427.000
69.48184 421.000
69.50179 434.000
69.52173 425.000
69.54168 404.000
69.56163 389.000
69.58157 441.000
69.60152 419.000
69.62147 399.000
69.64142 435.000
69.66136 418.000
69.68131 414.000
69.70126 424.000
69.72120 379.000
69.74115 421.000
69.76110 432.000
69.78104 408.000
69.80099 399.000
69.82094 407.000
69.84089 433.000
69.86083 393.000
69.88078 422.000
69.90073 427.000
69.92067 378.000
69.94062 415.000
69.96057 385.000
69.98051 417.000
70.00046 408.000
70.02041 414.000
70.04035 414.000
70.06030 451.000
70.08025 442.000
70.10020 391.000
70.12014 431.000
70.14009 412.000
70.16004 394.000
70.17998 456.000
70.19993 385.000
70.21988 373.000
70.23982 411.000
70.25977 413.000
70.27972 425.000
70.29967 409.000
70.31961 373.000
70.33956 436.000
70.35951 412.000
70.37945 393.000
70.39940 383.000
70.41935 424.000
70.43929 456.000
70.45924 379.000
70.47919 399.000
70.49914 432.000
70.51908 420.000
70.53903 406.000
70.55898 394.000
70.57892 407.000
70.59887 411.000
70.61882 403.000
70.63876 445.000
70.65871 402.000
70.67866 401.000
70.69860 421.000
70.71855 403.000
70.73850 428.000
70.75845 454.000
70.77839 396.000
70.79834 421.000
70.81829 425.000
70.83823 416.000
70.85818 438.000
70.87813 394.000
70.89807 420.000
70.91802 421.000
70.93797 421.000
70.95792 427.000
70.97786 400.000
70.99781 424.000
71.01776 413.000
71.03770 423.000
71.05765 395.000
71.07760 419.000
71.09754 425.000
71.11749 420.000
71.13744 458.000
71.15738 429.000
71.17733 411.000
71.19728 444.000
71.21723 402.000
71.23717 424.000
71.25712 443.000
71.27707 450.000
71.29701 420.000
71.31696 428.000
71.33691 445.000
71.35685 445.000
71.37680 406.000
71.39675 418.000
71.41670 434.000
71.43664 462.000
71.45659 423.000
71.47654 402.000
71.49648 422.000
71.51643 433.000
71.53638 419.000
71.55632 449.000
71.57627 432.000
71.59622 446.000
71.61616 453.000
71.63611 441.000
71.65606 431.000
71.67601 431.000
71.69595 426.000
71.71590 405.000
71.73585 402.000
71.75579 424.000
71.77574 407.000
71.79569 435.000
71.81563 412.000
71.83558 433.000
71.85553 428.000
71.87548 437.000
71.89542 444.000
71.91537 432.000
71.93532 440.000
71.95526 448.000
71.97521 442.000
71.99516 434.000
72.01510 433.000
72.03505 426.000
72.05500 417.000
72.07495 440.000
72.09489 425.000
72.11484 500.000
72.13479 477.000
72.15473 464.000
72.17468 461.000
72.19463 468.000
72.21457 446.000
72.23452 470.000
72.25447 484.000
72.27441 495.000
72.29436 531.000
72.31431 566.000
72.33426 552.000
72.35420 625.000
72.37415 646.000
72.39410 667.000
72.41404 652.000
72.43399 615.000
72.45394 593.000
72.47388 571.000
72.49383 584.000
72.51378 555.000
72.53373 602.000
72.55367 566.000
72.57362 564.000
72.59357 611.000
72.61351 522.000
72.63346 575.000
72.65341 601.000
72.67335 536.000
72.69330 536.000
72.71325 545.000
72.73319 473.000
72.75314 501.000
72.77309 469.000
72.79304 487.000
72.81298 513.000
72.83293 457.000
72.85288 461.000
72.87282 480.000
72.89277 454.000
72.91272 490.000
72.93266 454.000
72.95261 504.000
72.97256 489.000
72.99251 469.000
73.01245 457.000
73.03240 461.000
73.05235 489.000
73.07229 445.000
73.09224 480.000
73.11219 468.000
73.13213 451.000
73.15208 451.000
73.17203 442.000
73.19197 506.000
73.21192 451.000
73.23187 476.000
73.25182 473.000
73.27176 441.000
73.29171 442.000
73.31166 487.000
73.33160 432.000
73.35155 471.000
73.37150 458.000
73.39144 473.000
73.41139 441.000
73.43134 446.000
73.45129 428.000
73.47123 470.000
73.49118 446.000
73.51113 405.000
73.53107 464.000
73.55102 438.000
73.57097 460.000
73.59091 446.000
73.61086 428.000
73.63081 447.000
73.65076 416.000
73.67070 400.000
73.69065 458.000
73.71060 426.000
73.73054 415.000
73.75049 452.000
73.77044 445.000
73.79038 393.000
73.81033 421.000
73.83028 415.000
73.85022 421.000
73.87017 438.000
73.89012 377.000
73.91007 451.000
73.93001 409.000
73.94996 437.000
73.96991 408.000
73.98985 423.000
74.00980 416.000
74.02975 414.000
74.04969 432.000
74.06964 412.000
74.08959 446.000
74.10954 370.000
74.12948 432.000
74.14943 431.000
74.16938 428.000
74.18932 421.000
74.20927 402.000
74.22922 437.000
74.24916 409.000
74.26911 413.000
74.28906 428.000
74.30900 458.000
74.32895 462.000
74.34890 442.000
74.36885 461.000
74.38879 473.000
74.40874 429.000
74.42869 435.000
74.44863 424.000
74.46858 437.000
74.48853 462.000
74.50847 416.000
74.52842 438.000
74.54837 455.000
74.56832 460.000
74.58826 472.000
74.60821 412.000
74.62816 473.000
74.64810 404.000
74.66805 442.000
74.68800 445.000
74.70794 418.000
74.72789 446.000
74.74784 478.000
74.76778 450.000
74.78773 458.000
74.80768 461.000
74.82763 469.000
74.84757 480.000
74.86752 483.000
74.88747 486.000
74.90741 484.000
74.92736 526.000
74.94731 576.000
74.96725 592.000
74.98720 608.000
75.00715 646.000
75.02710 631.000
75.04704 598.000
75.06699 601.000
75.08694 572.000
75.10688 539.000
75.12683 568.000
75.14678 558.000
75.16672 627.000
75.18667 682.000
75.20662 705.000
75.22657 691.000
75.24651 747.000
75.26646 709.000
75.28641 666.000
75.30635 603.000
75.32630 611.000
75.34625 594.000
75.36619 544.000
75.38614 552.000
75.40609 544.000
75.42603 541.000
75.44598 559.000
75.46593 554.000
75.48588 528.000
75.50582 492.000
75.52577 503.000
75.54572 497.000
75.56566 499.000
75.58561 470.000
75.60556 496.000
75.62550 435.000
75.64545 416.000
75.66540 457.000
75.68535 410.000
75.70529 486.000
75.72524 410.000
75.74519 434.000
75.76513 451.000
75.78508 439.000
75.80503 437.000
75.82497 409.000
75.84492 443.000
75.86487 464.000
75.88481 393.000
75.90476 443.000
75.92471 424.000
75.94466 409.000
75.96460 438.000
75.98455 416.000
76.00450 435.000
76.02444 452.000
76.04439 475.000
76.06434 407.000
76.08428 380.000
76.10423 393.000
76.12418 427.000
76.14413 399.000
76.16407 437.000
76.18402 436.000
76.20397 431.000
76.22391 399.000
76.24386 452.000
76.26381 398.000
76.28375 399.000
76.30370 398.000
76.32365 425.000
76.34359 460.000
76.36354 373.000
76.38349 404.000
76.40344 420.000
76.42338 447.000
76.44333 431.000
76.46328 427.000
76.48322 414.000
76.50317 396.000
76.52312 403.000
76.54306 391.000
76.56301 438.000
76.58296 418.000
76.60291 455.000
76.62285 384.000
76.64280 445.000
76.66275 421.000
76.68269 402.000
76.70264 431.000
76.72259 434.000
76.74253 412.000
76.76248 418.000
76.78243 402.000
76.80238 432.000
76.82232 410.000
76.84227 392.000
76.86222 411.000
76.88216 432.000
76.90211 394.000
76.92206 426.000
76.94200 434.000
76.96195 425.000
76.98190 396.000
77.00184 439.000
77.02179 410.000
77.04174 444.000
77.06169 393.000
77.08163 409.000
77.10158 410.000
77.12153 437.000
77.14147 435.000
77.16142 442.000
77.18137 411.000
77.20131 426.000
77.22126 414.000
77.24121 423.000
77.26116 400.000
77.28110 431.000
77.30105 429.000
77.32100 442.000
77.34094 450.000
77.36089 406.000
77.38084 443.000
77.40078 414.000
77.42073 421.000
77.44068 429.000
77.46062 391.000
77.48057 437.000
77.50052 437.000
77.52047 434.000
77.54041 429.000
77.56036 474.000
77.58031 397.000
77.60025 480.000
77.62020 414.000
77.64015 400.000
77.66009 448.000
77.68004 395.000
77.69999 409.000
77.71994 398.000
77.73988 422.000
77.75983 445.000
77.77978 460.000
77.79972 444.000
77.81967 419.000
77.83962 474.000
77.85956 419.000
77.87951 442.000
77.89946 445.000
77.91940 448.000
77.93935 483.000
77.95930 463.000
77.97925 441.000
77.99919 464.000
78.01914 438.000
78.03909 429.000
78.05903 416.000
78.07898 474.000
78.09893 436.000
78.11887 502.000
78.13882 432.000
78.15877 399.000
78.17872 455.000
78.19866 468.000
78.21861 413.000
78.23856 444.000
78.25850 474.000
78.27845 446.000
78.29840 459.000
78.31834 450.000
78.33829 462.000
78.35824 430.000
78.37819 430.000
78.39813 420.000
78.41808 476.000
78.43803 421.000
78.45797 451.000
78.47792 441.000
78.49787 432.000
78.51781 433.000
78.53776 458.000
78.55771 434.000
78.57765 438.000
78.59760 444.000
78.61755 433.000
78.63750 428.000
78.65744 416.000
78.67739 461.000
78.69734 442.000
78.71728 429.000
78.73723 439.000
78.75718 398.000
78.77712 419.000
78.79707 469.000
78.81702 415.000
78.83697 427.000
78.85691 447.000
78.87686 399.000
78.89681 412.000
78.91675 422.000
78.93670 415.000
78.95665 412.000
78.97659 403.000
78.99654 395.000
79.01649 403.000
79.03643 402.000
79.05638 448.000
79.07633 403.000
79.09628 397.000
79.11622 460.000
79.13617 416.000
79.15612 413.000
79.17606 454.000
79.19601 400.000
79.21596 410.000
79.23590 440.000
79.25585 435.000
79.27580 428.000
79.29575 440.000
79.31569 402.000
79.33564 442.000
79.35559 392.000
79.37553 451.000
79.39548 386.000
79.41543 407.000
79.43537 428.000
79.45532 412.000
79.47527 404.000
79.49521 425.000
79.51516 408.000
79.53511 444.000
79.55506 429.000
79.57500 398.000
79.59495 416.000
79.61490 419.000
79.63484 435.000
79.65479 400.000
79.67474 431.000
79.69468 417.000
79.71463 396.000
79.73458 436.000
79.75453 436.000
79.77447 412.000
79.79442 419.000
79.81437 444.000
79.83431 430.000
79.85426 390.000
79.87421 442.000
79.89415 402.000
79.91410 451.000
79.93405 407.000
79.95399 460.000
79.97394 408.000
79.99389 419.000
80.01384 407.000
80.03378 451.000
80.05373 433.000
80.07368 422.000
80.09362 485.000
80.11357 472.000
80.13352 509.000
80.15346 513.000
80.17341 485.000
80.19336 460.000
80.21331 448.000
80.23325 476.000
80.25320 450.000
80.27315 465.000
80.29309 483.000
80.31304 429.000
80.33299 441.000
80.35293 469.000
80.37288 487.000
80.39283 438.000
80.41278 498.000
80.43272 425.000
80.45267 406.000
80.47262 442.000
80.49256 445.000
80.51251 448.000
80.53246 422.000
80.55240 468.000
80.57235 430.000
80.59230 455.000
80.61224 473.000
80.63219 407.000
80.65214 424.000
80.67209 402.000
80.69203 397.000
80.71198 436.000
80.73193 446.000
80.75187 373.000
80.77182 452.000
80.79177 442.000
80.81171 400.000
80.83166 383.000
80.85161 466.000
80.87156 426.000
80.89150 411.000
80.91145 421.000
80.93140 441.000
80.95134 437.000
80.97129 394.000
80.99124 422.000
81.01118 408.000
81.03113 402.000
81.05108 385.000
81.07102 417.000
81.09097 420.000
81.11092 452.000
81.13087 414.000
81.15081 428.000
81.17076 426.000
81.19071 437.000
81.21065 420.000
81.23060 426.000
81.25055 391.000
81.27049 418.000
81.29044 439.000
81.31039 392.000
81.33034 385.000
81.35028 465.000
81.37023 433.000
81.39018 450.000
81.41012 404.000
81.43007 387.000
81.45002 423.000
81.46996 395.000
81.48991 373.000
81.50986 406.000
81.52980 383.000
81.54975 380.000
81.56970 411.000
81.58965 414.000
81.60959 402.000
81.62954 376.000
81.64949 447.000
81.66943 419.000
81.68938 451.000
81.70933 398.000
81.72927 429.000
81.74922 417.000
81.76917 467.000
81.78912 437.000
81.80906 391.000
81.82901 418.000
81.84896 423.000
81.86890 370.000
81.88885 459.000
81.90880 449.000
81.92874 461.000
81.94869 394.000
81.96864 436.000
81.98859 433.000
82.00853 434.000
82.02848 474.000
82.04843 427.000
82.06837 457.000
82.08832 430.000
82.10827 483.000
82.12821 463.000
82.14816 408.000
82.16811 460.000
82.18805 462.000
82.20800 460.000
82.22795 505.000
82.24790 509.000
82.26784 532.000
82.28779 542.000
82.30774 552.000
82.32768 571.000
82.34763 529.000
82.36758 490.000
82.38752 536.000
82.40747 475.000
82.42742 454.000
82.44737 459.000
82.46731 472.000
82.48726 463.000
82.50721 489.000
82.52715 487.000
82.54710 492.000
82.56705 486.000
82.58699 455.000
82.60694 471.000
82.62689 494.000
82.64683 498.000
82.66678 444.000
82.68673 439.000
82.70668 437.000
82.72662 459.000
82.74657 445.000
82.76652 455.000
82.78646 478.000
82.80641 450.000
82.82636 476.000
82.84630 463.000
82.86625 487.000
82.88620 472.000
82.90615 450.000
82.92609 456.000
82.94604 448.000
82.96599 448.000
82.98593 490.000
83.00588 492.000
83.02583 470.000
83.04577 512.000
83.06572 491.000
83.08567 509.000
83.10561 490.000
83.12556 506.000
83.14551 520.000
83.16546 500.000
83.18540 501.000
83.20535 464.000
83.22530 549.000
83.24524 520.000
83.26519 505.000
83.28514 483.000
83.30508 492.000
83.32503 502.000
83.34498 498.000
83.36493 532.000
83.38487 487.000
83.40482 528.000
83.42477 519.000
83.44471 523.000
83.46466 511.000
83.48461 513.000
83.50455 557.000
83.52450 538.000
83.54445 549.000
83.56440 549.000
83.58434 501.000
83.60429 516.000
83.62424 512.000
83.64418 525.000
83.66413 479.000
83.68408 547.000
83.70402 461.000
83.72397 468.000
83.74392 501.000
83.76386 473.000
83.78381 520.000
83.80376 510.000
83.82371 475.000
83.84365 474.000
83.86360 460.000
83.88355 422.000
83.90349 445.000
83.92344 456.000
83.94339 442.000
83.96333 410.000
83.98328 436.000
84.00323 424.000
84.02318 420.000
84.04312 410.000
84.06307 435.000
84.08302 464.000
84.10296 426.000
84.12291 479.000
84.14286 432.000
84.16280 452.000
84.18275 469.000
84.20270 440.000
84.22264 455.000
84.24259 421.000
84.26254 468.000
84.28249 408.000
84.30243 421.000
84.32238 395.000
84.34233 418.000
84.36227 417.000
84.38222 428.000
84.40217 450.000
84.42211 408.000
84.44206 386.000
84.46201 404.000
84.48196 440.000
84.50190 440.000
84.52185 435.000
84.54180 442.000
84.56174 389.000
84.58169 462.000
84.60164 418.000
84.62158 409.000
84.64153 404.000
84.66148 409.000
84.68142 445.000
84.70137 431.000
84.72132 417.000
84.74127 430.000
84.76121 434.000
84.78116 413.000
84.80111 398.000
84.82105 396.000
84.84100 423.000
84.86095 402.000
84.88089 435.000
84.90084 428.000
84.92079 405.000
84.94074 418.000
84.96068 385.000
84.98063 420.000
85.00058 418.000
85.02052 436.000
85.04047 429.000
85.06042 402.000
85.08036 425.000
85.10031 429.000
85.12026 417.000
85.14021 415.000
85.16015 403.000
85.18010 439.000
85.20005 405.000
85.21999 420.000
85.23994 415.000
85.25989 429.000
85.27983 420.000
85.29978 435.000
85.31973 411.000
85.33967 461.000
85.35962 383.000
85.37957 413.000
85.39952 412.000
85.41946 421.000
85.43941 423.000
85.45936 429.000
85.47930 415.000
85.49925 399.000
85.51920 396.000
85.53914 413.000
85.55909 424.000
85.57904 430.000
85.59899 425.000
85.61893 435.000
85.63888 412.000
85.65883 424.000
85.67877 404.000
85.69872 439.000
85.71867 422.000
85.73861 404.000
85.75856 410.000
85.77851 430.000
85.79845 396.000
85.81840 400.000
85.83835 409.000
85.85830 400.000
85.87824 447.000
85.89819 437.000
85.91814 409.000
85.93808 387.000
85.95803 406.000
85.97798 418.000
85.99792 405.000
86.01787 430.000
86.03782 437.000
86.05777 402.000
86.07771 388.000
86.09766 432.000
86.11761 446.000
86.13755 470.000
86.15750 416.000
86.17745 439.000
86.19739 401.000
86.21734 383.000
86.23729 421.000
86.25723 459.000
86.27718 410.000
86.29713 454.000
86.31708 443.000
86.33702 472.000
86.35697 437.000
86.37692 465.000
86.39686 461.000
86.41681 425.000
86.43676 411.000
86.45670 474.000
86.47665 492.000
86.49660 465.000
86.51655 499.000
86.53649 439.000
86.55644 486.000
86.57639 442.000
86.59633 431.000
86.61628 476.000
86.63623 454.000
86.65617 464.000
86.67612 455.000
86.69607 460.000
86.71602 493.000
86.73596 485.000
86.75591 470.000
86.77586 488.000
86.79580 479.000
86.81575 429.000
86.83570 428.000
86.85564 422.000
86.87559 458.000
86.89554 435.000
86.91548 395.000
86.93543 444.000
86.95538 440.000
86.97533 423.000
86.99527 429.000
87.01522 448.000
87.03517 399.000
87.05511 431.000
87.07506 438.000
87.09501 433.000
87.11495 414.000
87.13490 420.000
87.15485 433.000
87.17480 436.000
87.19474 421.000
87.21469 424.000
87.23464 430.000
87.25458 430.000
87.27453 432.000
87.29448 467.000
87.31442 433.000
87.33437 446.000
87.35432 416.000
87.37426 417.000
87.39421 458.000
87.41416 437.000
87.43411 432.000
87.45405 404.000
87.47400 391.000
87.49395 431.000
87.51389 422.000
87.53384 429.000
87.55379 446.000
87.57373 441.000
87.59368 404.000
87.61363 415.000
87.63358 440.000
87.65352 426.000
87.67347 397.000
87.69342 405.000
87.71336 390.000
87.73331 398.000
87.75326 451.000
87.77320 401.000
87.79315 419.000
87.81310 408.000
87.83304 433.000
87.85299 405.000
87.87294 407.000
87.89289 428.000
87.91283 390.000
87.93278 418.000
87.95273 417.000
87.97267 438.000
87.99262 406.000
88.01257 424.000
88.03251 396.000
88.05246 433.000
88.07241 427.000
88.09236 420.000
88.11230 408.000
88.13225 412.000
88.15220 430.000
88.17214 421.000
88.19209 388.000
88.21204 405.000
88.23198 414.000
88.25193 459.000
88.27188 413.000
88.29183 428.000
88.31177 416.000
88.33172 410.000
88.35167 435.000
88.37161 405.000
88.39156 430.000
88.41151 388.000
88.43145 410.000
88.45140 418.000
88.47135 432.000
88.49129 451.000
88.51124 419.000
88.53119 417.000
88.55114 409.000
88.57108 421.000
88.59103 412.000
88.61098 406.000
88.63092 418.000
88.65087 433.000
88.67082 391.000
88.69076 383.000
88.71071 423.000
88.73066 451.000
88.75061 387.000
88.77055 440.000
88.79050 434.000
88.81045 419.000
88.83039 439.000
88.85034 433.000
88.87029 437.000
88.89023 451.000
88.91018 411.000
88.93013 444.000
88.95007 441.000
88.97002 419.000
88.98997 395.000
89.00992 423.000
89.02986 402.000
89.04981 390.000
89.06976 423.000
89.08970 416.000
89.10965 459.000
89.12960 408.000
89.14954 426.000
89.16949 413.000
89.18944 451.000
89.20939 471.000
89.22933 424.000
89.24928 443.000
89.26923 435.000
89.28917 400.000
89.30912 430.000
89.32907 426.000
89.34901 411.000
89.36896 392.000
89.38891 428.000
89.40885 434.000
89.42880 428.000
89.44875 436.000
89.46870 393.000
89.48864 456.000
89.50859 437.000
89.52854 408.000
89.54848 418.000
89.56843 419.000
89.58838 446.000
89.60832 435.000
89.62827 418.000
89.64822 423.000
89.66817 449.000
89.68811 499.000
89.70806 480.000
89.72801 464.000
89.74795 504.000
89.76790 480.000
89.78785 474.000
89.80779 539.000
89.82774 507.000
89.84769 474.000
89.86764 485.000
89.88758 493.000
89.90753 502.000
89.92748 474.000
89.94742 496.000
89.96737 500.000
89.98732 501.000
90.00726 498.000
