10.00000 266.000
10.01995 277.000
10.03989 302.000
10.05984 289.000
10.07979 289.000
10.09973 280.000
10.11968 297.000
10.13963 262.000
10.15958 271.000
10.17952 297.000
10.19947 291.000
10.21942 295.000
10.23936 293.000
10.25931 267.000
10.27926 286.000
10.29920 285.000
10.31915 271.000
10.33910 301.000
10.35905 277.000
10.37899 280.000
10.39894 274.000
10.41889 290.000
10.43883 252.000
10.45878 279.000
10.47873 294.000
10.49867 306.000
10.51862 304.000
10.53857 275.000
10.55851 278.000
10.57846 315.000
10.59841 276.000
10.61836 288.000
10.63830 283.000
10.65825 290.000
10.67820 317.000
10.69814 322.000
10.71809 298.000
10.73804 303.000
10.75798 297.000
10.77793 285.000
10.79788 285.000
10.81783 291.000
10.83777 302.000
10.85772 296.000
10.87767 322.000
10.89761 300.000
10.91756 304.000
10.93751 294.000
10.95745 295.000
10.97740 305.000
10.99735 283.000
11.01730 317.000
11.03724 309.000
11.05719 304.000
11.07714 310.000
11.09708 284.000
11.11703 285.000
11.13698 279.000
11.15692 326.000
11.17687 293.000
11.19682 344.000
11.21676 293.000
11.23671 294.000
11.25666 340.000
11.27661 307.000
11.29655 324.000
11.31650 297.000
11.33645 297.000
11.35639 310.000
11.37634 295.000
11.39629 299.000
11.41623 327.000
11.43618 319.000
11.45613 317.000
11.47608 320.000
11.49602 319.000
11.51597 329.000
11.53592 317.000
11.55586 346.000
11.57581 323.000
11.59576 302.000
11.61570 313.000
11.63565 292.000
11.65560 307.000
11.67554 342.000
11.69549 331.000
11.71544 361.000
11.73539 311.000
11.75533 308.000
11.77528 351.000
11.79523 309.000
11.81517 365.000
11.83512 309.000
11.85507 348.000
11.87501 336.000
11.89496 317.000
11.91491 320.000
11.93486 312.000
11.95480 339.000
11.97475 361.000
11.99470 301.000
12.01464 315.000
12.03459 319.000
12.05454 351.000
12.07448 306.000
12.09443 301.000
12.11438 361.000
12.13432 339.000
12.15427 322.000
12.17422 351.000
12.19417 309.000
12.21411 338.000
12.23406 310.000
12.25401 318.000
12.27395 332.000
12.29390 338.000
12.31385 336.000
12.33379 336.000
12.35374 307.000
12.37369 338.000
12.39364 347.000
12.41358 356.000
12.43353 334.000
12.45348 336.000
12.47342 350.000
12.49337 378.000
12.51332 315.000
12.53326 342.000
12.55321 310.000
12.57316 377.000
12.59311 365.000
12.61305 359.000
12.63300 348.000
12.65295 352.000
12.67289 324.000
12.69284 342.000
12.71279 350.000
12.73273 340.000
12.75268 359.000
12.77263 336.000
12.79257 344.000
12.81252 313.000
12.83247 336.000
12.85242 334.000
12.87236 321.000
12.89231 330.000
12.91226 342.000
12.93220 332.000
12.95215 317.000
12.97210 342.000
12.99204 361.000
13.01199 373.000
13.03194 370.000
13.05189 356.000
13.07183 337.000
13.09178 365.000
13.11173 350.000
13.13167 362.000
13.15162 326.000
13.17157 345.000
13.19151 355.000
13.21146 380.000
13.23141 334.000
13.25135 345.000
13.27130 337.000
13.29125 357.000
13.31120 357.000
13.33114 361.000
13.35109 354.000
13.37104 367.000
13.39098 353.000
13.41093 358.000
13.43088 327.000
13.45082 333.000
13.47077 365.000
13.49072 344.000
13.51067 354.000
13.53061 383.000
13.55056 364.000
13.57051 354.000
13.59045 365.000
13.61040 309.000
13.63035 350.000
13.65029 336.000
13.67024 389.000
13.69019 351.000
13.71013 366.000
13.73008 353.000
13.75003 344.000
13.76998 383.000
13.78992 339.000
13.80987 379.000
13.82982 365.000
13.84976 330.000
13.86971 389.000
13.88966 362.000
13.90960 362.000
13.92955 361.000
13.94950 372.000
13.96945 366.000
13.98939 345.000
14.00934 375.000
14.02929 367.000
14.04923 327.000
14.06918 373.000
14.08913 328.000
14.10907 360.000
14.12902 374.000
14.14897 333.000
14.16892 384.000
14.18886 389.000
14.20881 367.000
14.22876 376.000
14.24870 360.000
14.26865 384.000
14.28860 386.000
14.30854 383.000
14.32849 367.000
14.34844 397.000
14.36838 358.000
14.38833 383.000
14.40828 384.000
14.42823 373.000
14.44817 357.000
14.46812 346.000
14.48807 366.000
14.50801 369.000
14.52796 364.000
14.54791 368.000
14.56785 393.000
14.58780 334.000
14.60775 358.000
14.62770 361.000
14.64764 400.000
14.66759 347.000
14.68754 392.000
14.70748 373.000
14.72743 385.000
14.74738 372.000
14.76732 397.000
14.78727 365.000
14.80722 380.000
14.82716 369.000
14.84711 372.000
14.86706 379.000
14.88701 356.000
14.90695 367.000
14.92690 356.000
14.94685 377.000
14.96679 354.000
14.98674 391.000
15.00669 399.000
15.02663 424.000
15.04658 380.000
15.06653 382.000
15.08648 362.000
15.10642 420.000
15.12637 384.000
15.14632 372.000
15.16626 400.000
15.18621 399.000
15.20616 356.000
15.22610 372.000
15.24605 367.000
15.26600 381.000
15.28594 397.000
15.30589 404.000
15.32584 381.000
15.34579 386.000
15.36573 410.000
15.38568 369.000
15.40563 361.000
15.42557 369.000
15.44552 376.000
15.46547 412.000
15.48541 368.000
15.50536 397.000
15.52531 380.000
15.54526 357.000
15.56520 368.000
15.58515 365.000
15.60510 396.000
15.62504 391.000
15.64499 358.000
15.66494 399.000
15.68488 366.000
15.70483 406.000
15.72478 390.000
15.74472 419.000
15.76467 407.000
15.78462 437.000
15.80457 384.000
15.82451 427.000
15.84446 423.000
15.86441 409.000
15.88435 421.000
15.90430 412.000
15.92425 427.000
15.94419 389.000
15.96414 422.000
15.98409 402.000
16.00404 415.000
16.02398 435.000
16.04393 370.000
16.06388 398.000
16.08382 417.000
16.10377 406.000
16.12372 387.000
16.14366 415.000
16.16361 400.000
16.18356 443.000
16.20351 421.000
16.22345 432.000
16.24340 397.000
16.26335 408.000
16.28329 393.000
16.30324 450.000
16.32319 382.000
16.34313 383.000
16.36308 411.000
16.38303 432.000
16.40297 413.000
16.42292 416.000
16.44287 379.000
16.46282 467.000
16.48276 386.000
16.50271 388.000
16.52266 408.000
16.54260 389.000
16.56255 451.000
16.58250 413.000
16.60244 435.000
16.62239 402.000
16.64234 392.000
16.66229 464.000
16.68223 471.000
16.70218 475.000
16.72213 438.000
16.74207 412.000
16.76202 443.000
16.78197 469.000
16.80191 426.000
16.82186 463.000
16.84181 460.000
16.86175 448.000
16.88170 441.000
16.90165 409.000
16.92160 430.000
16.94154 456.000
16.96149 413.000
16.98144 405.000
17.00138 428.000
17.02133 422.000
17.04128 412.000
17.06122 400.000
17.08117 377.000
17.10112 426.000
17.12107 392.000
17.14101 403.000
17.16096 433.000
17.18091 400.000
17.20085 438.000
17.22080 422.000
17.24075 420.000
17.26069 372.000
17.28064 405.000
17.30059 423.000
17.32053 406.000
17.34048 412.000
17.36043 382.000
17.38038 429.000
17.40032 421.000
17.42027 419.000
17.44022 405.000
17.46016 407.000
17.48011 405.000
17.50006 390.000
17.52000 419.000
17.53995 404.000
17.55990 416.000
17.57985 423.000
17.59979 429.000
17.61974 396.000
17.63969 397.000
17.65963 414.000
17.67958 436.000
17.69953 439.000
17.71947 435.000
17.73942 406.000
17.75937 431.000
17.77932 462.000
17.79926 416.000
17.81921 401.000
17.83916 419.000
17.85910 432.000
17.87905 417.000
17.89900 439.000
17.91894 432.000
17.93889 451.000
17.95884 433.000
17.97878 461.000
17.99873 419.000
18.01868 413.000
18.03863 469.000
18.05857 422.000
18.07852 402.000
18.09847 454.000
18.11841 430.000
18.13836 468.000
18.15831 431.000
18.17825 471.000
18.19820 464.000
18.21815 460.000
18.23810 495.000
18.25804 505.000
18.27799 490.000
18.29794 585.000
18.31788 515.000
18.33783 510.000
18.35778 476.000
18.37772 480.000
18.39767 444.000
18.41762 422.000
18.43756 423.000
18.45751 443.000
18.47746 423.000
18.49741 428.000
18.51735 475.000
18.53730 433.000
18.55725 450.000
18.57719 456.000
18.59714 448.000
18.61709 394.000
18.63703 416.000
18.65698 413.000
18.67693 432.000
18.69688 437.000
18.71682 485.000
18.73677 408.000
18.75672 394.000
18.77666 448.000
18.79661 421.000
18.81656 434.000
18.83650 416.000
18.85645 440.000
18.87640 443.000
18.89634 426.000
18.91629 440.000
18.93624 420.000
18.95619 432.000
18.97613 422.000
18.99608 445.000
19.01603 399.000
19.03597 445.000
19.05592 439.000
19.07587 471.000
19.09581 422.000
19.11576 431.000
19.13571 401.000
19.15566 425.000
19.17560 442.000
19.19555 426.000
19.21550 422.000
19.23544 446.000
19.25539 447.000
19.27534 441.000
19.29528 451.000
19.31523 417.000
19.33518 411.000
19.35513 434.000
19.37507 433.000
19.39502 482.000
19.41497 465.000
19.43491 431.000
19.45486 443.000
19.47481 458.000
19.49475 430.000
19.51470 462.000
19.53465 430.000
19.55459 425.000
19.57454 440.000
19.59449 476.000
19.61444 462.000
19.63438 441.000
19.65433 432.000
19.67428 495.000
19.69422 423.000
19.71417 448.000
19.73412 437.000
19.75406 449.000
19.77401 433.000
19.79396 461.000
19.81391 441.000
19.83385 441.000
19.85380 461.000
19.87375 453.000
19.89369 460.000
19.91364 469.000
19.93359 450.000
19.95353 461.000
19.97348 432.000
19.99343 437.000
20.01337 455.000
20.03332 469.000
20.05327 453.000
20.07322 419.000
20.09316 460.000
20.11311 446.000
20.13306 470.000
20.15300 484.000
20.17295 451.000
20.19290 459.000
20.21284 482.000
20.23279 458.000
20.25274 492.000
20.27269 531.000
20.29263 499.000
20.31258 512.000
20.33253 510.000
20.35247 461.000
20.37242 485.000
20.39237 538.000
20.41231 534.000
20.43226 592.000
20.45221 558.000
20.47215 536.000
20.49210 650.000
20.51205 597.000
20.53200 643.000
20.55194 739.000
20.57189 727.000
20.59184 760.000
20.61178 890.000
20.63173 852.000
20.65168 921.000
20.67162 1063.000
20.69157 993.000
20.71152 1075.000
20.73147 1113.000
20.75141 1052.000
20.77136 1112.000
20.79131 1054.000
20.81125 949.000
20.83120 922.000
20.85115 787.000
20.87109 788.000
20.89104 715.000
20.91099 631.000
20.93094 650.000
20.95088 642.000
20.97083 610.000
20.99078 568.000
21.01072 498.000
21.03067 519.000
21.05062 511.000
21.07056 503.000
21.09051 508.000
21.11046 486.000
21.13040 460.000
21.15035 452.000
21.17030 462.000
21.19025 520.000
21.21019 450.000
21.23014 423.000
21.25009 477.000
21.27003 477.000
21.28998 500.000
21.30993 459.000
21.32987 431.000
21.34982 460.000
21.36977 420.000
21.38972 454.000
21.40966 489.000
21.42961 457.000
21.44956 453.000
21.46950 454.000
21.48945 481.000
21.50940 456.000
21.52934 472.000
21.54929 510.000
21.56924 440.000
21.58918 454.000
21.60913 473.000
21.62908 446.000
21.64903 451.000
21.66897 466.000
21.68892 466.000
21.70887 455.000
21.72881 504.000
21.74876 472.000
21.76871 454.000
21.78865 451.000
21.80860 488.000
21.82855 478.000
21.84850 461.000
21.86844 462.000
21.88839 457.000
21.90834 486.000
21.92828 469.000
21.94823 468.000
21.96818 509.000
21.98812 478.000
22.00807 468.000
22.02802 421.000
22.04796 442.000
22.06791 508.000
22.08786 462.000
22.10781 437.000
22.12775 466.000
22.14770 474.000
22.16765 459.000
22.18759 467.000
22.20754 467.000
22.22749 432.000
22.24743 459.000
22.26738 481.000
22.28733 428.000
22.30728 486.000
22.32722 503.000
22.34717 481.000
22.36712 466.000
22.38706 447.000
22.40701 464.000
22.42696 465.000
22.44690 436.000
22.46685 444.000
22.48680 478.000
22.50675 492.000
22.52669 447.000
22.54664 499.000
22.56659 434.000
22.58653 474.000
22.60648 487.000
22.62643 448.000
22.64637 453.000
22.66632 498.000
22.68627 488.000
22.70621 479.000
22.72616 475.000
22.74611 474.000
22.76606 479.000
22.78600 433.000
22.80595 471.000
22.82590 509.000
22.84584 455.000
22.86579 480.000
22.88574 477.000
22.90568 501.000
22.92563 555.000
22.94558 467.000
22.96553 457.000
22.98547 475.000
23.00542 492.000
23.02537 471.000
23.04531 457.000
23.06526 427.000
23.08521 503.000
23.10515 457.000
23.12510 458.000
23.14505 471.000
23.16499 479.000
23.18494 499.000
23.20489 468.000
23.22484 420.000
23.24478 475.000
23.26473 468.000
23.28468 484.000
23.30462 477.000
23.32457 494.000
23.34452 464.000
23.36446 472.000
23.38441 434.000
23.40436 490.000
23.42431 493.000
23.44425 474.000
23.46420 493.000
23.48415 496.000
23.50409 479.000
23.52404 477.000
23.54399 469.000
23.56393 454.000
23.58388 462.000
23.60383 459.000
23.62377 453.000
23.64372 505.000
23.66367 469.000
23.68362 473.000
23.70356 487.000
23.72351 498.000
23.74346 455.000
23.76340 442.000
23.78335 481.000
23.80330 474.000
23.82324 448.000
23.84319 468.000
23.86314 534.000
23.88309 461.000
23.90303 514.000
23.92298 473.000
23.94293 484.000
23.96287 501.000
23.98282 477.000
24.00277 473.000
24.02271 445.000
24.04266 513.000
24.06261 492.000
24.08256 501.000
24.10250 499.000
24.12245 500.000
24.14240 514.000
24.16234 474.000
24.18229 468.000
24.20224 487.000
24.22218 473.000
24.24213 488.000
24.26208 442.000
24.28202 513.000
24.30197 513.000
24.32192 468.000
24.34187 484.000
24.36181 506.000
24.38176 469.000
24.40171 482.000
24.42165 488.000
24.44160 475.000
24.46155 467.000
24.48149 515.000
24.50144 459.000
24.52139 477.000
24.54134 497.000
24.56128 499.000
24.58123 490.000
24.60118 467.000
24.62112 460.000
24.64107 491.000
24.66102 495.000
24.68096 469.000
24.70091 527.000
24.72086 453.000
24.74080 501.000
24.76075 487.000
24.78070 525.000
24.80065 472.000
24.82059 529.000
24.84054 525.000
24.86049 500.000
24.88043 533.000
24.90038 547.000
24.92033 508.000
24.94027 517.000
24.96022 501.000
24.98017 509.000
25.00012 508.000
25.02006 499.000
25.04001 507.000
25.05996 504.000
25.07990 505.000
25.09985 494.000
25.11980 429.000
25.13974 526.000
25.15969 448.000
25.17964 474.000
25.19958 505.000
25.21953 461.000
25.23948 467.000
25.25943 473.000
25.27937 491.000
25.29932 452.000
25.31927 507.000
25.33921 512.000
25.35916 480.000
25.37911 475.000
25.39905 467.000
25.41900 464.000
25.43895 529.000
25.45890 506.000
25.47884 500.000
25.49879 510.000
25.51874 464.000
25.53868 474.000
25.55863 475.000
25.57858 477.000
25.59852 517.000
25.61847 500.000
25.63842 472.000
25.65837 484.000
25.67831 472.000
25.69826 527.000
25.71821 482.000
25.73815 479.000
25.75810 491.000
25.77805 487.000
25.79799 526.000
25.81794 495.000
25.83789 506.000
25.85783 523.000
25.87778 497.000
25.89773 490.000
25.91768 541.000
25.93762 479.000
25.95757 492.000
25.97752 468.000
25.99746 524.000
26.01741 535.000
26.03736 519.000
26.05730 524.000
26.07725 543.000
26.09720 511.000
26.11715 522.000
26.13709 507.000
26.15704 463.000
26.17699 472.000
26.19693 508.000
26.21688 541.000
26.23683 483.000
26.25677 481.000
26.27672 516.000
26.29667 511.000
26.31661 515.000
26.33656 541.000
26.35651 529.000
26.37646 523.000
26.39640 508.000
26.41635 500.000
26.43630 528.000
26.45624 526.000
26.47619 482.000
26.49614 496.000
26.51608 514.000
26.53603 519.000
26.55598 487.000
26.57593 506.000
26.59587 542.000
26.61582 548.000
26.63577 511.000
26.65571 482.000
26.67566 482.000
26.69561 502.000
26.71555 520.000
26.73550 517.000
26.75545 488.000
26.77539 469.000
26.79534 559.000
26.81529 528.000
26.83524 500.000
26.85518 513.000
26.87513 518.000
26.89508 529.000
26.91502 546.000
26.93497 488.000
26.95492 528.000
26.97486 517.000
26.99481 508.000
27.01476 507.000
27.03471 535.000
27.05465 495.000
27.07460 504.000
27.09455 505.000
27.11449 534.000
27.13444 499.000
27.15439 544.000
27.17433 484.000
27.19428 565.000
27.21423 552.000
27.23417 515.000
27.25412 516.000
27.27407 520.000
27.29402 526.000
27.31396 506.000
27.33391 485.000
27.35386 485.000
27.37380 473.000
27.39375 487.000
27.41370 566.000
27.43364 477.000
27.45359 519.000
27.47354 500.000
27.49349 454.000
27.51343 538.000
27.53338 511.000
27.55333 547.000
27.57327 559.000
27.59322 495.000
27.61317 462.000
27.63311 552.000
27.65306 501.000
27.67301 520.000
27.69296 507.000
27.71290 523.000
27.73285 514.000
27.75280 536.000
27.77274 540.000
27.79269 501.000
27.81264 532.000
27.83258 496.000
27.85253 519.000
27.87248 516.000
27.89242 486.000
27.91237 496.000
27.93232 509.000
27.95227 491.000
27.97221 506.000
27.99216 545.000
28.01211 521.000
28.03205 538.000
28.05200 544.000
28.07195 519.000
28.09189 503.000
28.11184 537.000
28.13179 555.000
28.15174 524.000
28.17168 512.000
28.19163 540.000
28.21158 479.000
28.23152 542.000
28.25147 564.000
28.27142 545.000
28.29136 535.000
28.31131 499.000
28.33126 508.000
28.35120 556.000
28.37115 549.000
28.39110 508.000
28.41105 531.000
28.43099 547.000
28.45094 540.000
28.47089 508.000
28.49083 490.000
28.51078 497.000
28.53073 552.000
28.55067 545.000
28.57062 508.000
28.59057 537.000
28.61052 534.000
28.63046 536.000
28.65041 508.000
28.67036 546.000
28.69030 519.000
28.71025 520.000
28.73020 543.000
28.75014 490.000
28.77009 577.000
28.79004 534.000
28.80998 532.000
28.82993 546.000
28.84988 519.000
28.86983 563.000
28.88977 537.000
28.90972 522.000
28.92967 517.000
28.94961 526.000
28.96956 547.000
28.98951 549.000
29.00945 568.000
29.02940 549.000
29.04935 545.000
29.06930 578.000
29.08924 517.000
29.10919 561.000
29.12914 547.000
29.14908 564.000
29.16903 593.000
29.18898 610.000
29.20892 631.000
29.22887 582.000
29.24882 622.000
29.26877 629.000
29.28871 621.000
29.30866 649.000
29.32861 664.000
29.34855 611.000
29.36850 641.000
29.38845 583.000
29.40839 587.000
29.42834 552.000
29.44829 593.000
29.46823 617.000
29.48818 565.000
29.50813 592.000
29.52808 542.000
29.54802 563.000
29.56797 509.000
29.58792 527.000
29.60786 496.000
29.62781 579.000
29.64776 551.000
29.66770 537.000
29.68765 596.000
29.70760 575.000
29.72755 547.000
29.74749 534.000
29.76744 535.000
29.78739 535.000
29.80733 553.000
29.82728 548.000
29.84723 528.000
29.86717 528.000
29.88712 535.000
29.90707 568.000
29.92701 598.000
29.94696 564.000
29.96691 578.000
29.98686 578.000
30.00680 563.000
30.02675 602.000
30.04670 619.000
30.06664 593.000
30.08659 563.000
30.10654 693.000
30.12648 648.000
30.14643 768.000
30.16638 750.000
30.18633 821.000
30.20627 794.000
30.22622 699.000
30.24617 685.000
30.26611 678.000
30.28606 657.000
30.30601 638.000
30.32595 553.000
30.34590 562.000
30.36585 531.000
30.38579 547.000
30.40574 565.000
30.42569 529.000
30.44564 487.000
30.46558 541.000
30.48553 567.000
30.50548 555.000
30.52542 507.000
30.54537 515.000
30.56532 538.000
30.58526 515.000
30.60521 497.000
30.62516 544.000
30.64511 538.000
30.66505 531.000
30.68500 519.000
30.70495 546.000
30.72489 557.000
30.74484 531.000
30.76479 534.000
30.78473 547.000
30.80468 531.000
30.82463 521.000
30.84458 501.000
30.86452 548.000
30.88447 570.000
30.90442 529.000
30.92436 550.000
30.94431 537.000
30.96426 484.000
30.98420 534.000
31.00415 514.000
31.02410 520.000
31.04404 537.000
31.06399 549.000
31.08394 514.000
31.10389 513.000
31.12383 496.000
31.14378 528.000
31.16373 501.000
31.18367 509.000
31.20362 520.000
31.22357 499.000
31.24351 546.000
31.26346 549.000
31.28341 581.000
31.30336 568.000
31.32330 542.000
31.34325 558.000
31.36320 553.000
31.38314 536.000
31.40309 543.000
31.42304 529.000
31.44298 511.000
31.46293 524.000
31.48288 523.000
31.50282 549.000
31.52277 525.000
31.54272 547.000
31.56267 536.000
31.58261 514.000
31.60256 532.000
31.62251 544.000
31.64245 532.000
31.66240 497.000
31.68235 528.000
31.70229 585.000
31.72224 537.000
31.74219 506.000
31.76214 497.000
31.78208 504.000
31.80203 571.000
31.82198 561.000
31.84192 572.000
31.86187 542.000
31.88182 584.000
31.90176 542.000
31.92171 530.000
31.94166 551.000
31.96160 557.000
31.98155 521.000
32.00150 549.000
32.02145 555.000
32.04139 569.000
32.06134 561.000
32.08129 560.000
32.10123 604.000
32.12118 567.000
32.14113 539.000
32.16107 553.000
32.18102 608.000
32.20097 586.000
32.22092 663.000
32.24086 606.000
32.26081 598.000
32.28076 683.000
32.30070 745.000
32.32065 812.000
32.34060 841.000
32.36054 917.000
32.38049 827.000
32.40044 856.000
32.42039 808.000
32.44033 742.000
32.46028 705.000
32.48023 663.000
32.50017 627.000
32.52012 568.000
32.54007 591.000
32.56001 567.000
32.57996 568.000
32.59991 571.000
32.61985 577.000
32.63980 562.000
32.65975 574.000
32.67970 581.000
32.69964 597.000
32.71959 537.000
32.73954 522.000
32.75948 567.000
32.77943 548.000
32.79938 525.000
32.81932 552.000
32.83927 547.000
32.85922 536.000
32.87917 504.000
32.89911 540.000
32.91906 536.000
32.93901 563.000
32.95895 519.000
32.97890 499.000
32.99885 554.000
33.01879 560.000
33.03874 541.000
33.05869 523.000
33.07863 554.000
33.09858 488.000
33.11853 579.000
33.13848 535.000
33.15842 559.000
33.17837 530.000
33.19832 527.000
33.21826 530.000
33.23821 544.000
33.25816 553.000
33.27810 573.000
33.29805 511.000
33.31800 509.000
33.33795 574.000
33.35789 558.000
33.37784 558.000
33.39779 597.000
33.41773 562.000
33.43768 539.000
33.45763 584.000
33.47757 522.000
33.49752 573.000
33.51747 585.000
33.53741 563.000
33.55736 606.000
33.57731 592.000
33.59726 626.000
33.61720 633.000
33.63715 599.000
33.65710 614.000
33.67704 614.000
33.69699 647.000
33.71694 676.000
33.73688 598.000
33.75683 651.000
33.77678 670.000
33.79673 714.000
33.81667 674.000
33.83662 760.000
33.85657 682.000
33.87651 753.000
33.89646 757.000
33.91641 808.000
33.93635 833.000
33.95630 875.000
33.97625 846.000
33.99620 892.000
34.01614 973.000
34.03609 1013.000
34.05604 1000.000
34.07598 1053.000
34.09593 1064.000
34.11588 1162.000
34.13582 1162.000
34.15577 1179.000
34.17572 1215.000
34.19566 1272.000
34.21561 1292.000
34.23556 1278.000
34.25551 1291.000
34.27545 1322.000
34.29540 1284.000
34.31535 1312.000
34.33529 1221.000
34.35524 1183.000
34.37519 1187.000
34.39513 1084.000
34.41508 1032.000
34.43503 1052.000
34.45498 974.000
34.47492 884.000
34.49487 854.000
34.51482 797.000
34.53476 843.000
34.55471 809.000
34.57466 818.000
34.59460 774.000
34.61455 793.000
34.63450 785.000
34.65444 844.000
34.67439 801.000
34.69434 842.000
34.71429 746.000
34.73423 797.000
34.75418 761.000
34.77413 721.000
34.79407 744.000
34.81402 787.000
34.83397 770.000
34.85391 766.000
34.87386 778.000
34.89381 764.000
34.91376 860.000
34.93370 852.000
34.95365 862.000
34.97360 885.000
34.99354 900.000
35.01349 956.000
35.03344 939.000
35.05338 951.000
35.07333 972.000
35.09328 1050.000
35.11322 1032.000
35.13317 1098.000
35.15312 1144.000
35.17307 1365.000
35.19301 1330.000
35.21296 1414.000
35.23291 1628.000
35.25285 1872.000
35.27280 2073.000
35.29275 2531.000
35.31269 3027.000
35.33264 3238.000
35.35259 3410.000
35.37254 3584.000
35.39248 4052.000
35.41243 4372.000
35.43238 4448.000
35.45232 4184.000
35.47227 3671.000
35.49222 3346.000
35.51216 3141.000
35.53211 2985.000
35.55206 2624.000
35.57201 2460.000
35.59195 1967.000
35.61190 1742.000
35.63185 1500.000
35.65179 1445.000
35.67174 1240.000
35.69169 1085.000
35.71163 954.000
35.73158 913.000
35.75153 804.000
35.77147 793.000
35.79142 774.000
35.81137 694.000
35.83132 700.000
35.85126 707.000
35.87121 681.000
35.89116 678.000
35.91110 665.000
35.93105 660.000
35.95100 692.000
35.97094 605.000
35.99089 627.000
36.01084 689.000
36.03079 651.000
36.05073 649.000
36.07068 619.000
36.09063 628.000
36.11057 642.000
36.13052 640.000
36.15047 590.000
36.17041 632.000
36.19036 612.000
36.21031 618.000
36.23025 590.000
36.25020 603.000
36.27015 622.000
36.29010 632.000
36.31004 643.000
36.32999 630.000
36.34994 585.000
36.36988 652.000
36.38983 666.000
36.40978 643.000
36.42972 660.000
36.44967 664.000
36.46962 646.000
36.48957 680.000
36.50951 647.000
36.52946 684.000
36.54941 675.000
36.56935 679.000
36.58930 637.000
36.60925 657.000
36.62919 693.000
36.64914 625.000
36.66909 712.000
36.68903 743.000
36.70898 715.000
36.72893 739.000
36.74888 844.000
36.76882 769.000
36.78877 798.000
36.80872 793.000
36.82866 888.000
36.84861 857.000
36.86856 936.000
36.88850 926.000
36.90845 1004.000
36.92840 1000.000
36.94835 1051.000
36.96829 1074.000
36.98824 1015.000
37.00819 1037.000
37.02813 983.000
37.04808 943.000
37.06803 882.000
37.08797 869.000
37.10792 776.000
37.12787 734.000
37.14781 721.000
37.16776 685.000
37.18771 716.000
37.20766 660.000
37.22760 657.000
37.24755 654.000
37.26750 588.000
37.28744 610.000
37.30739 605.000
37.32734 617.000
37.34728 602.000
37.36723 571.000
37.38718 562.000
37.40713 534.000
37.42707 536.000
37.44702 537.000
37.46697 566.000
37.48691 546.000
37.50686 606.000
37.52681 515.000
37.54675 588.000
37.56670 591.000
37.58665 536.000
37.60660 558.000
37.62654 599.000
37.64649 551.000
37.66644 590.000
37.68638 612.000
37.70633 572.000
37.72628 641.000
37.74622 598.000
37.76617 606.000
37.78612 624.000
37.80606 698.000
37.82601 638.000
37.84596 611.000
37.86591 660.000
37.88585 660.000
37.90580 666.000
37.92575 678.000
37.94569 698.000
37.96564 677.000
37.98559 745.000
38.00553 770.000
38.02548 730.000
38.04543 761.000
38.06538 768.000
38.08532 876.000
38.10527 777.000
38.12522 848.000
38.14516 918.000
38.16511 929.000
38.18506 907.000
38.20500 934.000
38.22495 1016.000
38.24490 1053.000
38.26484 1086.000
38.28479 1116.000
38.30474 1141.000
38.32469 1166.000
38.34463 1240.000
38.36458 1388.000
38.38453 1437.000
38.40447 1663.000
38.42442 1840.000
38.44437 2089.000
38.46431 2388.000
38.48426 2863.000
38.50421 3185.000
38.52416 3422.000
38.54410 3620.000
38.56405 3617.000
38.58400 3463.000
38.60394 3204.000
38.62389 3041.000
38.64384 2721.000
38.66378 2531.000
38.68373 2165.000
38.70368 1762.000
38.72362 1609.000
38.74357 1449.000
38.76352 1329.000
38.78347 1237.000
38.80341 1248.000
38.82336 1140.000
38.84331 1268.000
38.86325 1327.000
38.88320 1417.000
38.90315 1421.000
38.92309 1378.000
38.94304 1362.000
38.96299 1335.000
38.98294 1294.000
39.00288 1161.000
39.02283 1080.000
39.04278 1035.000
39.06272 933.000
39.08267 849.000
39.10262 790.000
39.12256 667.000
39.14251 693.000
39.16246 675.000
39.18241 620.000
39.20235 635.000
39.22230 657.000
39.24225 622.000
39.26219 629.000
39.28214 581.000
39.30209 581.000
39.32203 612.000
39.34198 575.000
39.36193 574.000
39.38187 608.000
39.40182 590.000
39.42177 558.000
39.44172 545.000
39.46166 526.000
39.48161 597.000
39.50156 566.000
39.52150 565.000
39.54145 554.000
39.56140 542.000
39.58134 548.000
39.60129 544.000
39.62124 557.000
39.64119 576.000
39.66113 515.000
39.68108 532.000
39.70103 528.000
39.72097 514.000
39.74092 559.000
39.76087 545.000
39.78081 497.000
39.80076 542.000
39.82071 562.000
39.84065 521.000
39.86060 541.000
39.88055 523.000
39.90050 512.000
39.92044 503.000
39.94039 545.000
39.96034 515.000
39.98028 529.000
40.00023 571.000
40.02018 554.000
40.04012 523.000
40.06007 534.000
40.08002 511.000
40.09997 519.000
40.11991 551.000
40.13986 551.000
40.15981 494.000
40.17975 544.000
40.19970 499.000
40.21965 504.000
40.23959 519.000
40.25954 524.000
40.27949 551.000
40.29943 545.000
40.31938 520.000
40.33933 546.000
40.35928 562.000
40.37922 526.000
40.39917 517.000
40.41912 481.000
40.43906 502.000
40.45901 526.000
40.47896 540.000
40.49890 522.000
40.51885 506.000
40.53880 547.000
40.55875 535.000
40.57869 510.000
40.59864 491.000
40.61859 532.000
40.63853 498.000
40.65848 518.000
40.67843 509.000
40.69837 497.000
40.71832 527.000
40.73827 514.000
40.75822 555.000
40.77816 517.000
40.79811 520.000
40.81806 517.000
40.83800 515.000
40.85795 534.000
40.87790 521.000
40.89784 529.000
40.91779 555.000
40.93774 498.000
40.95768 503.000
40.97763 559.000
40.99758 510.000
41.01753 530.000
41.03747 513.000
41.05742 559.000
41.07737 541.000
41.09731 550.000
41.11726 517.000
41.13721 503.000
41.15715 570.000
41.17710 568.000
41.19705 519.000
41.21700 498.000
41.23694 547.000
41.25689 555.000
41.27684 550.000
41.29678 540.000
41.31673 544.000
41.33668 562.000
41.35662 554.000
41.37657 566.000
41.39652 552.000
41.41646 566.000
41.43641 564.000
41.45636 550.000
41.47631 533.000
41.49625 561.000
41.51620 554.000
41.53615 537.000
41.55609 544.000
41.57604 569.000
41.59599 546.000
41.61593 596.000
41.63588 540.000
41.65583 565.000
41.67578 507.000
41.69572 576.000
41.71567 552.000
41.73562 586.000
41.75556 550.000
41.77551 564.000
41.79546 566.000
41.81540 601.000
41.83535 578.000
41.85530 574.000
41.87524 583.000
41.89519 540.000
41.91514 559.000
41.93509 579.000
41.95503 533.000
41.97498 550.000
41.99493 602.000
42.01487 563.000
42.03482 570.000
42.05477 498.000
42.07471 540.000
42.09466 585.000
42.11461 554.000
42.13456 541.000
42.15450 577.000
42.17445 565.000
42.19440 592.000
42.21434 559.000
42.23429 593.000
42.25424 579.000
42.27418 630.000
42.29413 588.000
42.31408 574.000
42.33403 584.000
42.35397 592.000
42.37392 591.000
42.39387 600.000
42.41381 666.000
42.43376 677.000
42.45371 655.000
42.47365 643.000
42.49360 641.000
42.51355 654.000
42.53349 681.000
42.55344 653.000
42.57339 684.000
42.59334 696.000
42.61328 714.000
42.63323 706.000
42.65318 743.000
42.67312 712.000
42.69307 790.000
42.71302 788.000
42.73296 808.000
42.75291 775.000
42.77286 750.000
42.79281 818.000
42.81275 816.000
42.83270 927.000
42.85265 883.000
42.87259 863.000
42.89254 971.000
42.91249 918.000
42.93243 965.000
42.95238 1002.000
42.97233 991.000
42.99227 1016.000
43.01222 1016.000
43.03217 975.000
43.05212 1003.000
43.07206 944.000
43.09201 947.000
43.11196 935.000
43.13190 936.000
43.15185 868.000
43.17180 886.000
43.19174 890.000
43.21169 911.000
43.23164 889.000
43.25159 865.000
43.27153 804.000
43.29148 808.000
43.31143 764.000
43.33137 676.000
43.35132 690.000
43.37127 715.000
43.39121 716.000
43.41116 649.000
43.43111 576.000
43.45105 551.000
43.47100 562.000
43.49095 563.000
43.51090 505.000
43.53084 544.000
43.55079 535.000
43.57074 539.000
43.59068 534.000
43.61063 580.000
43.63058 489.000
43.65052 513.000
43.67047 518.000
43.69042 565.000
43.71037 519.000
43.73031 527.000
43.75026 519.000
43.77021 472.000
43.79015 520.000
43.81010 573.000
43.83005 515.000
43.84999 515.000
43.86994 471.000
43.88989 506.000
43.90984 517.000
43.92978 516.000
43.94973 532.000
43.96968 523.000
43.98962 543.000
44.00957 489.000
44.02952 505.000
44.04946 553.000
44.06941 494.000
44.08936 518.000
44.10930 516.000
44.12925 505.000
44.14920 498.000
44.16915 518.000
44.18909 524.000
44.20904 500.000
44.22899 563.000
44.24893 517.000
44.26888 482.000
44.28883 523.000
44.30877 536.000
44.32872 523.000
44.34867 540.000
44.36862 490.000
44.38856 474.000
44.40851 499.000
44.42846 518.000
44.44840 442.000
44.46835 514.000
44.48830 451.000
44.50824 486.000
44.52819 510.000
44.54814 503.000
44.56808 511.000
44.58803 473.000
44.60798 474.000
44.62793 477.000
44.64787 502.000
44.66782 476.000
44.68777 444.000
44.70771 489.000
44.72766 452.000
44.74761 488.000
44.76755 517.000
44.78750 513.000
44.80745 461.000
44.82740 506.000
44.84734 493.000
44.86729 500.000
44.88724 486.000
44.90718 528.000
44.92713 494.000
44.94708 536.000
44.96702 487.000
44.98697 525.000
45.00692 500.000
45.02686 533.000
45.04681 490.000
45.06676 497.000
45.08671 509.000
45.10665 540.000
45.12660 496.000
45.14655 507.000
45.16649 534.000
45.18644 486.000
45.20639 481.000
45.22633 486.000
45.24628 505.000
45.26623 525.000
45.28618 459.000
45.30612 477.000
45.32607 453.000
45.34602 453.000
45.36596 530.000
45.38591 533.000
45.40586 486.000
45.42580 477.000
45.44575 507.000
45.46570 496.000
45.48565 512.000
45.50559 491.000
45.52554 521.000
45.54549 543.000
45.56543 517.000
45.58538 499.000
45.60533 513.000
45.62527 514.000
45.64522 503.000
45.66517 515.000
45.68511 533.000
45.70506 576.000
45.72501 495.000
45.74496 539.000
45.76490 517.000
45.78485 507.000
45.80480 533.000
45.82474 543.000
45.84469 480.000
45.86464 516.000
45.88458 497.000
45.90453 508.000
45.92448 523.000
45.94443 507.000
45.96437 510.000
45.98432 529.000
46.00427 517.000
46.02421 496.000
46.04416 542.000
46.06411 514.000
46.08405 554.000
46.10400 504.000
46.12395 575.000
46.14389 563.000
46.16384 560.000
46.18379 555.000
46.20374 583.000
46.22368 562.000
46.24363 547.000
46.26358 506.000
46.28352 552.000
46.30347 530.000
46.32342 520.000
46.34336 502.000
46.36331 543.000
46.38326 541.000
46.40321 546.000
46.42315 549.000
46.44310 506.000
46.46305 520.000
46.48299 482.000
46.50294 485.000
46.52289 475.000
46.54283 485.000
46.56278 528.000
46.58273 501.000
46.60267 488.000
46.62262 495.000
46.64257 496.000
46.66252 502.000
46.68246 504.000
46.70241 524.000
46.72236 471.000
46.74230 493.000
46.76225 488.000
46.78220 523.000
46.80214 509.000
46.82209 493.000
46.84204 513.000
46.86199 502.000
46.88193 451.000
46.90188 516.000
46.92183 479.000
46.94177 501.000
46.96172 506.000
46.98167 495.000
47.00161 508.000
47.02156 467.000
47.04151 478.000
47.06146 496.000
47.08140 506.000
47.10135 498.000
47.12130 519.000
47.14124 470.000
47.16119 491.000
47.18114 526.000
47.20108 528.000
47.22103 532.000
47.24098 505.000
47.26092 491.000
47.28087 522.000
47.30082 496.000
47.32077 529.000
47.34071 491.000
47.36066 546.000
47.38061 543.000
47.40055 523.000
47.42050 512.000
47.44045 501.000
47.46039 512.000
47.48034 478.000
47.50029 546.000
47.52024 496.000
47.54018 466.000
47.56013 494.000
47.58008 520.000
47.60002 520.000
47.61997 518.000
47.63992 468.000
47.65986 496.000
47.67981 510.000
47.69976 434.000
47.71970 513.000
47.73965 497.000
47.75960 504.000
47.77955 505.000
47.79949 516.000
47.81944 501.000
47.83939 562.000
47.85933 519.000
47.87928 516.000
47.89923 514.000
47.91917 580.000
47.93912 525.000
47.95907 524.000
47.97902 555.000
47.99896 505.000
48.01891 513.000
48.03886 527.000
48.05880 496.000
48.07875 502.000
48.09870 502.000
48.11864 521.000
48.13859 540.000
48.15854 529.000
48.17848 532.000
48.19843 568.000
48.21838 556.000
48.23833 542.000
48.25827 517.000
48.27822 567.000
48.29817 551.000
48.31811 530.000
48.33806 532.000
48.35801 602.000
48.37795 590.000
48.39790 569.000
48.41785 625.000
48.43780 597.000
48.45774 639.000
48.47769 592.000
48.49764 643.000
48.51758 689.000
48.53753 634.000
48.55748 713.000
48.57742 643.000
48.59737 754.000
48.61732 750.000
48.63726 862.000
48.65721 824.000
48.67716 950.000
48.69711 1024.000
48.71705 1067.000
48.73700 1147.000
48.75695 1260.000
48.77689 1327.000
48.79684 1282.000
48.81679 1357.000
48.83673 1271.000
48.85668 1294.000
48.87663 1184.000
48.89658 1127.000
48.91652 1113.000
48.93647 947.000
48.95642 935.000
48.97636 887.000
48.99631 772.000
49.01626 784.000
49.03620 735.000
49.05615 675.000
49.07610 672.000
49.09605 609.000
49.11599 589.000
49.13594 590.000
49.15589 614.000
49.17583 592.000
49.19578 635.000
49.21573 632.000
49.23567 575.000
49.25562 585.000
49.27557 589.000
49.29551 585.000
49.31546 556.000
49.33541 563.000
49.35536 562.000
49.37530 580.000
49.39525 568.000
49.41520 551.000
49.43514 626.000
49.45509 562.000
49.47504 587.000
49.49498 513.000
49.51493 568.000
49.53488 539.000
49.55483 561.000
49.57477 511.000
49.59472 514.000
49.61467 524.000
49.63461 570.000
49.65456 530.000
49.67451 486.000
49.69445 525.000
49.71440 534.000
49.73435 574.000
49.75429 510.000
49.77424 522.000
49.79419 483.000
49.81414 505.000
49.83408 495.000
49.85403 500.000
49.87398 523.000
49.89392 525.000
49.91387 455.000
49.93382 535.000
49.95376 546.000
49.97371 513.000
49.99366 509.000
50.01361 480.000
50.03355 528.000
50.05350 484.000
50.07345 502.000
50.09339 540.000
50.11334 496.000
50.13329 526.000
50.15323 514.000
50.17318 525.000
50.19313 484.000
50.21307 481.000
50.23302 457.000
50.25297 512.000
50.27292 495.000
50.29286 475.000
50.31281 502.000
50.33276 538.000
50.35270 482.000
50.37265 488.000
50.39260 509.000
50.41254 509.000
50.43249 524.000
50.45244 484.000
50.47239 473.000
50.49233 492.000
50.51228 517.000
50.53223 489.000
50.55217 497.000
50.57212 524.000
50.59207 495.000
50.61201 498.000
50.63196 499.000
50.65191 498.000
50.67186 481.000
50.69180 459.000
50.71175 506.000
50.73170 485.000
50.75164 444.000
50.77159 501.000
50.79154 494.000
50.81148 474.000
50.83143 503.000
50.85138 539.000
50.87132 484.000
50.89127 492.000
50.91122 505.000
50.93117 520.000
50.95111 514.000
50.97106 493.000
50.99101 486.000
51.01095 502.000
51.03090 548.000
51.05085 539.000
51.07079 529.000
51.09074 500.000
51.11069 535.000
51.13064 534.000
51.15058 548.000
51.17053 519.000
51.19048 540.000
51.21042 511.000
51.23037 526.000
51.25032 553.000
51.27026 515.000
51.29021 512.000
51.31016 549.000
51.33010 499.000
51.35005 493.000
51.37000 522.000
51.38995 483.000
51.40989 534.000
51.42984 513.000
51.44979 528.000
51.46973 481.000
51.48968 503.000
51.50963 485.000
51.52957 483.000
51.54952 509.000
51.56947 498.000
51.58942 533.000
51.60936 509.000
51.62931 484.000
51.64926 518.000
51.66920 512.000
51.68915 496.000
51.70910 505.000
51.72904 508.000
51.74899 487.000
51.76894 480.000
51.78888 558.000
51.80883 534.000
51.82878 514.000
51.84873 533.000
51.86867 540.000
51.88862 479.000
51.90857 558.000
51.92851 510.000
51.94846 512.000
51.96841 519.000
51.98835 514.000
52.00830 499.000
52.02825 554.000
52.04820 498.000
52.06814 550.000
52.08809 535.000
52.10804 507.000
52.12798 523.000
52.14793 511.000
52.16788 536.000
52.18782 492.000
52.20777 554.000
52.22772 512.000
52.24767 502.000
52.26761 541.000
52.28756 503.000
52.30751 492.000
52.32745 506.000
52.34740 479.000
52.36735 526.000
52.38729 498.000
52.40724 515.000
52.42719 499.000
52.44713 515.000
52.46708 480.000
52.48703 544.000
52.50698 493.000
52.52692 562.000
52.54687 513.000
52.56682 543.000
52.58676 513.000
52.60671 504.000
52.62666 557.000
52.64660 500.000
52.66655 515.000
52.68650 550.000
52.70645 511.000
52.72639 527.000
52.74634 541.000
52.76629 539.000
52.78623 508.000
52.80618 506.000
52.82613 540.000
52.84607 574.000
52.86602 552.000
52.88597 548.000
52.90591 591.000
52.92586 556.000
52.94581 554.000
52.96576 576.000
52.98570 563.000
53.00565 583.000
53.02560 584.000
53.04554 626.000
53.06549 623.000
53.08544 681.000
53.10538 683.000
53.12533 689.000
53.14528 673.000
53.16523 679.000
53.18517 667.000
53.20512 693.000
53.22507 694.000
53.24501 629.000
53.26496 663.000
53.28491 696.000
53.30485 688.000
53.32480 670.000
53.34475 600.000
53.36469 649.000
53.38464 592.000
53.40459 611.000
53.42454 612.000
53.44448 607.000
53.46443 631.000
53.48438 587.000
53.50432 578.000
53.52427 552.000
53.54422 569.000
53.56416 574.000
53.58411 573.000
53.60406 534.000
53.62401 558.000
53.64395 568.000
53.66390 576.000
53.68385 597.000
53.70379 591.000
53.72374 526.000
53.74369 533.000
53.76363 563.000
53.78358 556.000
53.80353 532.000
53.82348 559.000
53.84342 563.000
53.86337 518.000
53.88332 513.000
53.90326 538.000
53.92321 521.000
53.94316 527.000
53.96310 499.000
53.98305 502.000
54.00300 525.000
54.02294 531.000
54.04289 519.000
54.06284 531.000
54.08279 532.000
54.10273 470.000
54.12268 507.000
54.14263 501.000
54.16257 501.000
54.18252 541.000
54.20247 478.000
54.22241 519.000
54.24236 490.000
54.26231 531.000
54.28226 512.000
54.30220 499.000
54.32215 534.000
54.34210 505.000
54.36204 489.000
54.38199 513.000
54.40194 532.000
54.42188 495.000
54.44183 496.000
54.46178 531.000
54.48172 503.000
54.50167 490.000
54.52162 483.000
54.54157 502.000
54.56151 507.000
54.58146 479.000
54.60141 495.000
54.62135 497.000
54.64130 524.000
54.66125 463.000
54.68119 501.000
54.70114 492.000
54.72109 485.000
54.74104 484.000
54.76098 464.000
54.78093 463.000
54.80088 515.000
54.82082 521.000
54.84077 491.000
54.86072 509.000
54.88066 474.000
54.90061 480.000
54.92056 498.000
54.94050 502.000
54.96045 485.000
54.98040 457.000
55.00035 487.000
55.02029 472.000
55.04024 490.000
55.06019 493.000
55.08013 475.000
55.10008 504.000
55.12003 525.000
55.13997 476.000
55.15992 489.000
55.17987 484.000
55.19982 554.000
55.21976 491.000
55.23971 504.000
55.25966 473.000
55.27960 510.000
55.29955 530.000
55.31950 490.000
55.33944 435.000
55.35939 519.000
55.37934 533.000
55.39929 493.000
55.41923 511.000
55.43918 484.000
55.45913 495.000
55.47907 476.000
55.49902 483.000
55.51897 504.000
55.53891 466.000
55.55886 545.000
55.57881 476.000
55.59875 502.000
55.61870 465.000
55.63865 499.000
55.65860 486.000
55.67854 512.000
55.69849 457.000
55.71844 489.000
55.73838 508.000
55.75833 456.000
55.77828 502.000
55.79822 508.000
55.81817 523.000
55.83812 482.000
55.85807 503.000
55.87801 482.000
55.89796 478.000
55.91791 518.000
55.93785 480.000
55.95780 516.000
55.97775 499.000
55.99769 493.000
56.01764 484.000
56.03759 469.000
56.05753 499.000
56.07748 489.000
56.09743 435.000
56.11738 473.000
56.13732 533.000
56.15727 498.000
56.17722 481.000
56.19716 451.000
56.21711 522.000
56.23706 481.000
56.25700 504.000
56.27695 520.000
56.29690 524.000
56.31685 546.000
56.33679 502.000
56.35674 505.000
56.37669 488.000
56.39663 535.000
56.41658 539.000
56.43653 478.000
56.45647 526.000
56.47642 512.000
56.49637 501.000
56.51631 531.000
56.53626 532.000
56.55621 515.000
56.57616 538.000
56.59610 503.000
56.61605 541.000
56.63600 513.000
56.65594 515.000
56.67589 512.000
56.69584 469.000
56.71578 519.000
56.73573 505.000
56.75568 497.000
56.77563 482.000
56.79557 534.000
56.81552 528.000
56.83547 548.000
56.85541 494.000
56.87536 531.000
56.89531 523.000
56.91525 526.000
56.93520 503.000
56.95515 553.000
56.97510 530.000
56.99504 556.000
57.01499 501.000
57.03494 553.000
57.05488 473.000
57.07483 594.000
57.09478 527.000
57.11472 545.000
57.13467 564.000
57.15462 573.000
57.17456 585.000
57.19451 627.000
57.21446 665.000
57.23441 681.000
57.25435 626.000
57.27430 637.000
57.29425 664.000
57.31419 581.000
57.33414 630.000
57.35409 606.000
57.37403 601.000
57.39398 608.000
57.41393 645.000
57.43388 546.000
57.45382 558.000
57.47377 598.000
57.49372 516.000
57.51366 564.000
57.53361 535.000
57.55356 496.000
57.57350 537.000
57.59345 496.000
57.61340 531.000
57.63334 519.000
57.65329 549.000
57.67324 565.000
57.69319 520.000
57.71313 567.000
57.73308 537.000
57.75303 547.000
57.77297 544.000
57.79292 558.000
57.81287 569.000
57.83281 566.000
57.85276 612.000
57.87271 580.000
57.89266 577.000
57.91260 596.000
57.93255 579.000
57.95250 629.000
57.97244 633.000
57.99239 626.000
58.01234 650.000
58.03228 690.000
58.05223 700.000
58.07218 791.000
58.09212 817.000
58.11207 926.000
58.13202 873.000
58.15197 944.000
58.17191 911.000
58.19186 863.000
58.21181 795.000
58.23175 826.000
58.25170 802.000
58.27165 717.000
58.29159 740.000
58.31154 760.000
58.33149 715.000
58.35144 676.000
58.37138 634.000
58.39133 644.000
58.41128 612.000
58.43122 589.000
58.45117 534.000
58.47112 539.000
58.49106 511.000
58.51101 500.000
58.53096 542.000
58.55090 496.000
58.57085 517.000
58.59080 541.000
58.61075 516.000
58.63069 507.000
58.65064 509.000
58.67059 506.000
58.69053 497.000
58.71048 493.000
58.73043 516.000
58.75037 464.000
58.77032 523.000
58.79027 486.000
58.81022 546.000
58.83016 497.000
58.85011 502.000
58.87006 477.000
58.89000 500.000
58.90995 440.000
58.92990 502.000
58.94984 518.000
58.96979 508.000
58.98974 480.000
59.00969 501.000
59.02963 491.000
59.04958 513.000
59.06953 519.000
59.08947 521.000
59.10942 513.000
59.12937 476.000
59.14931 505.000
59.16926 497.000
59.18921 517.000
59.20915 490.000
59.22910 484.000
59.24905 501.000
59.26900 489.000
59.28894 499.000
59.30889 530.000
59.32884 502.000
59.34878 469.000
59.36873 460.000
59.38868 496.000
59.40862 494.000
59.42857 542.000
59.44852 450.000
59.46847 486.000
59.48841 479.000
59.50836 537.000
59.52831 510.000
59.54825 532.000
59.56820 537.000
59.58815 531.000
59.60809 483.000
59.62804 511.000
59.64799 483.000
59.66793 503.000
59.68788 510.000
59.70783 491.000
59.72778 487.000
59.74772 493.000
59.76767 505.000
59.78762 544.000
59.80756 501.000
59.82751 526.000
59.84746 544.000
59.86740 488.000
59.88735 519.000
59.90730 482.000
59.92725 518.000
59.94719 512.000
59.96714 516.000
59.98709 476.000
60.00703 532.000
60.02698 521.000
60.04693 539.000
60.06687 520.000
60.08682 507.000
60.10677 497.000
60.12671 503.000
60.14666 487.000
60.16661 494.000
60.18656 514.000
60.20650 504.000
60.22645 514.000
60.24640 550.000
60.26634 493.000
60.28629 514.000
60.30624 505.000
60.32618 540.000
60.34613 490.000
60.36608 579.000
60.38603 525.000
60.40597 510.000
60.42592 516.000
60.44587 495.000
60.46581 545.000
60.48576 549.000
60.50571 538.000
60.52565 512.000
60.54560 543.000
60.56555 551.000
60.58550 544.000
60.60544 578.000
60.62539 540.000
60.64534 516.000
60.66528 547.000
60.68523 521.000
60.70518 496.000
60.72512 523.000
60.74507 535.000
60.76502 564.000
60.78496 549.000
60.80491 571.000
60.82486 546.000
60.84481 594.000
60.86475 602.000
60.88470 601.000
60.90465 556.000
60.92459 589.000
60.94454 595.000
60.96449 626.000
60.98443 580.000
61.00438 624.000
61.02433 603.000
61.04428 629.000
61.06422 640.000
61.08417 644.000
61.10412 663.000
61.12406 656.000
61.14401 717.000
61.16396 695.000
61.18390 768.000
61.20385 732.000
61.22380 735.000
61.24374 725.000
61.26369 801.000
61.28364 783.000
61.30359 855.000
61.32353 828.000
61.34348 890.000
61.36343 1007.000
61.38337 1061.000
61.40332 1060.000
61.42327 1216.000
61.44321 1152.000
61.46316 1232.000
61.48311 1142.000
61.50306 1055.000
61.52300 1060.000
61.54295 1006.000
61.56290 1000.000
61.58284 970.000
61.60279 1000.000
61.62274 982.000
61.64268 891.000
61.66263 881.000
61.68258 830.000
61.70252 792.000
61.72247 712.000
61.74242 708.000
61.76237 715.000
61.78231 640.000
61.80226 664.000
61.82221 610.000
61.84215 637.000
61.86210 644.000
61.88205 601.000
61.90199 669.000
61.92194 613.000
61.94189 652.000
61.96184 622.000
61.98178 600.000
62.00173 650.000
62.02168 603.000
62.04162 616.000
62.06157 628.000
62.08152 669.000
62.10146 646.000
62.12141 630.000
62.14136 650.000
62.16131 644.000
62.18125 676.000
62.20120 694.000
62.22115 601.000
62.24109 692.000
62.26104 696.000
62.28099 693.000
62.30093 712.000
62.32088 685.000
62.34083 731.000
62.36077 724.000
62.38072 734.000
62.40067 732.000
62.42062 682.000
62.44056 743.000
62.46051 785.000
62.48046 742.000
62.50040 749.000
62.52035 731.000
62.54030 728.000
62.56024 774.000
62.58019 717.000
62.60014 711.000
62.62009 710.000
62.64003 747.000
62.65998 709.000
62.67993 699.000
62.69987 665.000
62.71982 692.000
62.73977 682.000
62.75971 687.000
62.77966 696.000
62.79961 720.000
62.81955 774.000
62.83950 744.000
62.85945 760.000
62.87940 843.000
62.89934 774.000
62.91929 757.000
62.93924 645.000
62.95918 636.000
62.97913 634.000
62.99908 665.000
63.01902 716.000
63.03897 685.000
63.05892 668.000
63.07887 707.000
63.09881 603.000
63.11876 608.000
63.13871 580.000
63.15865 570.000
63.17860 559.000
63.19855 591.000
63.21849 529.000
63.23844 548.000
63.25839 534.000
63.27833 522.000
63.29828 515.000
63.31823 518.000
63.33818 518.000
63.35812 505.000
63.37807 521.000
63.39802 502.000
63.41796 523.000
63.43791 509.000
63.45786 496.000
63.47780 547.000
63.49775 497.000
63.51770 481.000
63.53765 507.000
63.55759 509.000
63.57754 486.000
63.59749 507.000
63.61743 523.000
63.63738 522.000
63.65733 522.000
63.67727 486.000
63.69722 498.000
63.71717 515.000
63.73712 496.000
63.75706 526.000
63.77701 479.000
63.79696 549.000
63.81690 526.000
63.83685 489.000
63.85680 549.000
63.87674 481.000
63.89669 489.000
63.91664 510.000
63.93658 481.000
63.95653 528.000
63.97648 488.000
63.99643 517.000
64.01637 491.000
64.03632 523.000
64.05627 518.000
64.07621 523.000
64.09616 557.000
64.11611 497.000
64.13605 538.000
64.15600 520.000
64.17595 517.000
64.19590 492.000
64.21584 475.000
64.23579 540.000
64.25574 487.000
64.27568 506.000
64.29563 532.000
64.31558 504.000
64.33552 539.000
64.35547 494.000
64.37542 479.000
64.39536 502.000
64.41531 516.000
64.43526 507.000
64.45521 522.000
64.47515 523.000
64.49510 508.000
64.51505 476.000
64.53499 495.000
64.55494 518.000
64.57489 501.000
64.59483 578.000
64.61478 510.000
64.63473 505.000
64.65468 529.000
64.67462 536.000
64.69457 503.000
64.71452 527.000
64.73446 552.000
64.75441 522.000
64.77436 476.000
64.79430 498.000
64.81425 509.000
64.83420 541.000
64.85414 575.000
64.87409 525.000
64.89404 531.000
64.91399 492.000
64.93393 519.000
64.95388 499.000
64.97383 520.000
64.99377 547.000
65.01372 501.000
65.03367 510.000
65.05361 539.000
65.07356 578.000
65.09351 535.000
65.11346 567.000
65.13340 567.000
65.15335 631.000
65.17330 603.000
65.19324 603.000
65.21319 587.000
65.23314 604.000
65.25308 606.000
65.27303 609.000
65.29298 620.000
65.31293 624.000
65.33287 671.000
65.35282 660.000
65.37277 659.000
65.39271 742.000
65.41266 717.000
65.43261 775.000
65.45255 798.000
65.47250 835.000
65.49245 806.000
65.51239 806.000
65.53234 810.000
65.55229 792.000
65.57224 829.000
65.59218 807.000
65.61213 817.000
65.63208 796.000
65.65202 853.000
65.67197 797.000
65.69192 808.000
65.71186 781.000
65.73181 741.000
65.75176 794.000
65.77171 713.000
65.79165 665.000
65.81160 719.000
65.83155 702.000
65.85149 670.000
65.87144 635.000
65.89139 618.000
65.91133 663.000
65.93128 654.000
65.95123 577.000
65.97117 625.000
65.99112 639.000
66.01107 660.000
66.03102 676.000
66.05096 602.000
66.07091 674.000
66.09086 641.000
66.11080 659.000
66.13075 696.000
66.15070 706.000
66.17064 750.000
66.19059 791.000
66.21054 850.000
66.23049 845.000
66.25043 949.000
66.27038 930.000
66.29033 920.000
66.31027 924.000
66.33022 871.000
66.35017 881.000
66.37011 862.000
66.39006 850.000
66.41001 795.000
66.42995 812.000
66.44990 812.000
66.46985 756.000
66.48980 743.000
66.50974 735.000
66.52969 691.000
66.54964 720.000
66.56958 657.000
66.58953 582.000
66.60948 623.000
66.62942 569.000
66.64937 616.000
66.66932 576.000
66.68927 530.000
66.70921 578.000
66.72916 542.000
66.74911 546.000
66.76905 541.000
66.78900 508.000
66.80895 516.000
66.82889 523.000
66.84884 527.000
66.86879 507.000
66.88874 521.000
66.90868 514.000
66.92863 515.000
66.94858 521.000
66.96852 538.000
66.98847 516.000
67.00842 510.000
67.02836 530.000
67.04831 482.000
67.06826 484.000
67.08820 533.000
67.10815 516.000
67.12810 556.000
67.14805 525.000
67.16799 505.000
67.18794 539.000
67.20789 555.000
67.22783 535.000
67.24778 517.000
67.26773 572.000
67.28767 549.000
67.30762 535.000
67.32757 549.000
67.34752 537.000
67.36746 555.000
67.38741 591.000
67.40736 563.000
67.42730 557.000
67.44725 552.000
67.46720 552.000
67.48714 612.000
67.50709 610.000
67.52704 628.000
67.54698 649.000
67.56693 670.000
67.58688 658.000
67.60683 744.000
67.62677 759.000
67.64672 768.000
67.66667 769.000
67.68661 822.000
67.70656 791.000
67.72651 850.000
67.74645 846.000
67.76640 837.000
67.78635 905.000
67.80630 889.000
67.82624 911.000
67.84619 891.000
67.86614 943.000
67.88608 936.000
67.90603 964.000
67.92598 883.000
67.94592 915.000
67.96587 910.000
67.98582 819.000
68.00576 820.000
68.02571 763.000
68.04566 728.000
68.06561 729.000
68.08555 768.000
68.10550 739.000
68.12545 722.000
68.14539 654.000
68.16534 653.000
68.18529 653.000
68.20523 572.000
68.22518 591.000
68.24513 589.000
68.26508 585.000
68.28502 578.000
68.30497 525.000
68.32492 537.000
68.34486 492.000
68.36481 540.000
68.38476 483.000
68.40470 523.000
68.42465 526.000
68.44460 494.000
68.46455 527.000
68.48449 517.000
68.50444 487.000
68.52439 495.000
68.54433 514.000
68.56428 492.000
68.58423 512.000
68.60417 482.000
68.62412 502.000
68.64407 515.000
68.66401 527.000
68.68396 478.000
68.70391 534.000
68.72386 480.000
68.74380 470.000
68.76375 473.000
68.78370 519.000
68.80364 484.000
68.82359 521.000
68.84354 536.000
68.86348 488.000
68.88343 475.000
68.90338 480.000
68.92333 508.000
68.94327 521.000
68.96322 473.000
68.98317 500.000
69.00311 480.000
69.02306 487.000
69.04301 492.000
69.06295 488.000
69.08290 529.000
69.10285 481.000
69.12279 498.000
69.14274 511.000
69.16269 490.000
69.18264 458.000
69.20258 495.000
69.22253 465.000
69.24248 461.000
69.26242 505.000
69.28237 483.000
69.30232 465.000
69.32226 526.000
69.34221 521.000
69.36216 502.000
69.38211 507.000
69.40205 512.000
69.42200 503.000
69.44195 479.000
69.46189 528.000
69.48184 483.000
69.50179 499.000
69.52173 418.000
69.54168 452.000
69.56163 477.000
69.58157 468.000
69.60152 474.000
69.62147 471.000
69.64142 456.000
69.66136 500.000
69.68131 463.000
69.70126 475.000
69.72120 468.000
69.74115 471.000
69.76110 472.000
69.78104 457.000
69.80099 517.000
69.82094 474.000
69.84089 496.000
69.86083 485.000
69.88078 481.000
69.90073 465.000
69.92067 497.000
69.94062 489.000
69.96057 470.000
69.98051 501.000
70.00046 504.000
70.02041 500.000
70.04035 484.000
70.06030 477.000
70.08025 490.000
70.10020 453.000
70.12014 436.000
70.14009 480.000
70.16004 489.000
70.17998 501.000
70.19993 485.000
70.21988 511.000
70.23982 467.000
70.25977 471.000
70.27972 522.000
70.29967 465.000
70.31961 454.000
70.33956 497.000
70.35951 502.000
70.37945 490.000
70.39940 480.000
70.41935 540.000
70.43929 526.000
70.45924 456.000
70.47919 477.000
70.49914 512.000
70.51908 481.000
70.53903 470.000
70.55898 494.000
70.57892 453.000
70.59887 479.000
70.61882 498.000
70.63876 468.000
70.65871 465.000
70.67866 487.000
70.69860 465.000
70.71855 477.000
70.73850 502.000
70.75845 525.000
70.77839 448.000
70.79834 495.000
70.81829 489.000
70.83823 462.000
70.85818 523.000
70.87813 485.000
70.89807 526.000
70.91802 490.000
70.93797 495.000
70.95792 512.000
70.97786 479.000
70.99781 492.000
71.01776 486.000
71.03770 500.000
71.05765 476.000
71.07760 506.000
71.09754 441.000
71.11749 491.000
71.13744 505.000
71.15738 480.000
71.17733 521.000
71.19728 471.000
71.21723 509.000
71.23717 498.000
71.25712 515.000
71.27707 512.000
71.29701 515.000
71.31696 464.000
71.33691 476.000
71.35685 516.000
71.37680 496.000
71.39675 474.000
71.41670 538.000
71.43664 505.000
71.45659 516.000
71.47654 546.000
71.49648 514.000
71.51643 532.000
71.53638 564.000
71.55632 532.000
71.57627 478.000
71.59622 532.000
71.61616 491.000
71.63611 508.000
71.65606 526.000
71.67601 503.000
71.69595 474.000
71.71590 504.000
71.73585 491.000
71.75579 516.000
71.77574 497.000
71.79569 545.000
71.81563 527.000
71.83558 511.000
71.85553 496.000
71.87548 576.000
71.89542 518.000
71.91537 571.000
71.93532 538.000
71.95526 527.000
71.97521 538.000
71.99516 497.000
72.01510 498.000
72.03505 586.000
72.05500 539.000
72.07495 556.000
72.09489 551.000
72.11484 526.000
72.13479 558.000
72.15473 574.000
72.17468 597.000
72.19463 609.000
72.21457 610.000
72.23452 613.000
72.25447 639.000
72.27441 669.000
72.29436 706.000
72.31431 637.000
72.33426 698.000
72.35420 684.000
72.37415 643.000
72.39410 628.000
72.41404 667.000
72.43399 632.000
72.45394 618.000
72.47388 585.000
72.49383 598.000
72.51378 637.000
72.53373 631.000
72.55367 581.000
72.57362 626.000
72.59357 578.000
72.61351 587.000
72.63346 619.000
72.65341 538.000
72.67335 541.000
72.69330 537.000
72.71325 529.000
72.73319 545.000
72.75314 525.000
72.77309 496.000
72.79304 513.000
72.81298 493.000
72.83293 512.000
72.85288 512.000
72.87282 529.000
72.89277 489.000
72.91272 509.000
72.93266 540.000
72.95261 487.000
72.97256 475.000
72.99251 478.000
73.01245 492.000
73.03240 470.000
73.05235 519.000
73.07229 528.000
73.09224 510.000
73.11219 508.000
73.13213 531.000
73.15208 506.000
73.17203 523.000
73.19197 490.000
73.21192 503.000
73.23187 486.000
73.25182 464.000
73.27176 513.000
73.29171 457.000
73.31166 513.000
73.33160 519.000
73.35155 482.000
73.37150 515.000
73.39144 510.000
73.41139 487.000
73.43134 451.000
73.45129 439.000
73.47123 527.000
73.49118 456.000
73.51113 492.000
73.53107 474.000
73.55102 495.000
73.57097 504.000
73.59091 504.000
73.61086 487.000
73.63081 507.000
73.65076 483.000
73.67070 515.000
73.69065 493.000
73.71060 488.000
73.73054 466.000
73.75049 503.000
73.77044 513.000
73.79038 495.000
73.81033 488.000
73.83028 537.000
73.85022 524.000
73.87017 490.000
73.89012 505.000
73.91007 481.000
73.93001 492.000
73.94996 498.000
73.96991 526.000
73.98985 529.000
74.00980 496.000
74.02975 558.000
74.04969 485.000
74.06964 507.000
74.08959 499.000
74.10954 507.000
74.12948 524.000
74.14943 460.000
74.16938 511.000
74.18932 505.000
74.20927 515.000
74.22922 507.000
74.24916 555.000
74.26911 482.000
74.28906 517.000
74.30900 507.000
74.32895 564.000
74.34890 557.000
74.36885 543.000
74.38879 573.000
74.40874 564.000
74.42869 543.000
74.44863 569.000
74.46858 591.000
74.48853 577.000
74.50847 587.000
74.52842 585.000
74.54837 617.000
74.56832 577.000
74.58826 578.000
74.60821 601.000
74.62816 594.000
74.64810 622.000
74.66805 641.000
74.68800 623.000
74.70794 640.000
74.72789 617.000
74.74784 642.000
74.76778 654.000
74.78773 697.000
74.80768 762.000
74.82763 753.000
74.84757 761.000
74.86752 826.000
74.88747 764.000
74.90741 715.000
74.92736 761.000
74.94731 742.000
74.96725 737.000
74.98720 741.000
75.00715 737.000
75.02710 735.000
75.04704 738.000
75.06699 797.000
75.08694 797.000
75.10688 723.000
75.12683 724.000
75.14678 775.000
75.16672 701.000
75.18667 685.000
75.20662 682.000
75.22657 660.000
75.24651 644.000
75.26646 648.000
75.28641 616.000
75.30635 660.000
75.32630 654.000
75.34625 617.000
75.36619 586.000
75.38614 601.000
75.40609 635.000
75.42603 557.000
75.44598 573.000
75.46593 547.000
75.48588 522.000
75.50582 514.000
75.52577 541.000
75.54572 543.000
75.56566 535.000
75.58561 499.000
75.60556 503.000
75.62550 522.000
75.64545 500.000
75.66540 495.000
75.68535 532.000
75.70529 521.000
75.72524 500.000
75.74519 521.000
75.76513 517.000
75.78508 485.000
75.80503 479.000
75.82497 532.000
75.84492 477.000
75.86487 505.000
75.88481 515.000
75.90476 507.000
75.92471 465.000
75.94466 502.000
75.96460 519.000
75.98455 505.000
76.00450 499.000
76.02444 497.000
76.04439 519.000
76.06434 464.000
76.08428 483.000
76.10423 523.000
76.12418 513.000
76.14413 530.000
76.16407 451.000
76.18402 519.000
76.20397 547.000
76.22391 512.000
76.24386 489.000
76.26381 459.000
76.28375 499.000
76.30370 482.000
76.32365 479.000
76.34359 490.000
76.36354 486.000
76.38349 516.000
76.40344 526.000
76.42338 493.000
76.44333 439.000
76.46328 523.000
76.48322 515.000
76.50317 486.000
76.52312 454.000
76.54306 472.000
76.56301 473.000
76.58296 493.000
76.60291 500.000
76.62285 486.000
76.64280 489.000
76.66275 499.000
76.68269 455.000
76.70264 413.000
76.72259 493.000
76.74253 527.000
76.76248 485.000
76.78243 477.000
76.80238 486.000
76.82232 498.000
76.84227 508.000
76.86222 449.000
76.88216 473.000
76.90211 481.000
76.92206 482.000
76.94200 488.000
76.96195 490.000
76.98190 468.000
77.00184 472.000
77.02179 454.000
77.04174 442.000
77.06169 487.000
77.08163 476.000
77.10158 505.000
77.12153 493.000
77.14147 478.000
77.16142 495.000
77.18137 486.000
77.20131 485.000
77.22126 453.000
77.24121 486.000
77.26116 466.000
77.28110 495.000
77.30105 476.000
77.32100 518.000
77.34094 481.000
77.36089 512.000
77.38084 450.000
77.40078 502.000
77.42073 470.000
77.44068 489.000
77.46062 495.000
77.48057 460.000
77.50052 490.000
77.52047 483.000
77.54041 499.000
77.56036 502.000
77.58031 490.000
77.60025 498.000
77.62020 514.000
77.64015 451.000
77.66009 489.000
77.68004 466.000
77.69999 503.000
77.71994 489.000
77.73988 479.000
77.75983 451.000
77.77978 480.000
77.79972 506.000
77.81967 514.000
77.83962 470.000
77.85956 493.000
77.87951 473.000
77.89946 485.000
77.91940 480.000
77.93935 504.000
77.95930 505.000
77.97925 508.000
77.99919 485.000
78.01914 507.000
78.03909 485.000
78.05903 513.000
78.07898 473.000
78.09893 530.000
78.11887 465.000
78.13882 493.000
78.15877 474.000
78.17872 499.000
78.19866 529.000
78.21861 484.000
78.23856 491.000
78.25850 463.000
78.27845 493.000
78.29840 511.000
78.31834 509.000
78.33829 468.000
78.35824 495.000
78.37819 504.000
78.39813 507.000
78.41808 506.000
78.43803 528.000
78.45797 507.000
78.47792 556.000
78.49787 505.000
78.51781 473.000
78.53776 491.000
78.55771 490.000
78.57765 489.000
78.59760 549.000
78.61755 528.000
78.63750 553.000
78.65744 525.000
78.67739 519.000
78.69734 531.000
78.71728 543.000
78.73723 542.000
78.75718 536.000
78.77712 541.000
78.79707 511.000
78.81702 502.000
78.83697 535.000
78.85691 554.000
78.87686 493.000
78.89681 527.000
78.91675 537.000
78.93670 522.000
78.95665 507.000
78.97659 545.000
78.99654 484.000
79.01649 546.000
79.03643 497.000
79.05638 515.000
79.07633 500.000
79.09628 506.000
79.11622 523.000
79.13617 494.000
79.15612 512.000
79.17606 538.000
79.19601 501.000
79.21596 513.000
79.23590 515.000
79.25585 505.000
79.27580 510.000
79.29575 520.000
79.31569 489.000
79.33564 481.000
79.35559 515.000
79.37553 468.000
79.39548 517.000
79.41543 487.000
79.43537 517.000
79.45532 487.000
79.47527 537.000
79.49521 497.000
79.51516 509.000
79.53511 470.000
79.55506 469.000
79.57500 494.000
79.59495 467.000
79.61490 488.000
79.63484 491.000
79.65479 490.000
79.67474 501.000
79.69468 521.000
79.71463 491.000
79.73458 478.000
79.75453 478.000
79.77447 527.000
79.79442 466.000
79.81437 480.000
79.83431 495.000
79.85426 464.000
79.87421 491.000
79.89415 509.000
79.91410 489.000
79.93405 507.000
79.95399 503.000
79.97394 505.000
79.99389 488.000
80.01384 463.000
80.03378 473.000
80.05373 478.000
80.07368 502.000
80.09362 485.000
80.11357 483.000
80.13352 557.000
80.15346 523.000
80.17341 519.000
80.19336 487.000
80.21331 550.000
80.23325 523.000
80.25320 602.000
80.27315 580.000
80.29309 549.000
80.31304 551.000
80.33299 494.000
80.35293 544.000
80.37288 523.000
80.39283 478.000
80.41278 505.000
80.43272 514.000
80.45267 543.000
80.47262 506.000
80.49256 508.000
80.51251 498.000
80.53246 526.000
80.55240 505.000
80.57235 522.000
80.59230 484.000
80.61224 501.000
80.63219 493.000
80.65214 507.000
80.67209 469.000
80.69203 459.000
80.71198 481.000
80.73193 426.000
80.75187 478.000
80.77182 459.000
80.79177 494.000
80.81171 479.000
80.83166 483.000
80.85161 501.000
80.87156 525.000
80.89150 535.000
80.91145 465.000
80.93140 479.000
80.95134 470.000
80.97129 478.000
80.99124 461.000
81.01118 488.000
81.03113 451.000
81.05108 450.000
81.07102 476.000
81.09097 472.000
81.11092 482.000
81.13087 486.000
81.15081 487.000
81.17076 498.000
81.19071 492.000
81.21065 468.000
81.23060 490.000
81.25055 517.000
81.27049 480.000
81.29044 495.000
81.31039 500.000
81.33034 471.000
81.35028 483.000
81.37023 476.000
81.39018 454.000
81.41012 472.000
81.43007 457.000
81.45002 508.000
81.46996 474.000
81.48991 473.000
81.50986 472.000
81.52980 517.000
81.54975 485.000
81.56970 436.000
81.58965 520.000
81.60959 480.000
81.62954 488.000
81.64949 482.000
81.66943 445.000
81.68938 481.000
81.70933 493.000
81.72927 495.000
81.74922 463.000
81.76917 509.000
81.78912 501.000
81.80906 502.000
81.82901 480.000
81.84896 525.000
81.86890 514.000
81.88885 463.000
81.90880 535.000
81.92874 493.000
81.94869 501.000
81.96864 464.000
81.98859 541.000
82.00853 505.000
82.02848 518.000
82.04843 488.000
82.06837 492.000
82.08832 538.000
82.10827 533.000
82.12821 485.000
82.14816 467.000
82.16811 557.000
82.18805 517.000
82.20800 518.000
82.22795 542.000
82.24790 537.000
82.26784 545.000
82.28779 560.000
82.30774 519.000
82.32768 577.000
82.34763 565.000
82.36758 610.000
82.38752 621.000
82.40747 634.000
82.42742 615.000
82.44737 602.000
82.46731 589.000
82.48726 595.000
82.50721 641.000
82.52715 631.000
82.54710 617.000
82.56705 612.000
82.58699 599.000
82.60694 592.000
82.62689 602.000
82.64683 588.000
82.66678 606.000
82.68673 631.000
82.70668 612.000
82.72662 629.000
82.74657 601.000
82.76652 622.000
82.78646 631.000
82.80641 605.000
82.82636 609.000
82.84630 585.000
82.86625 563.000
82.88620 591.000
82.90615 567.000
82.92609 559.000
82.94604 570.000
82.96599 610.000
82.98593 581.000
83.00588 560.000
83.02583 572.000
83.04577 583.000
83.06572 538.000
83.08567 515.000
83.10561 518.000
83.12556 539.000
83.14551 560.000
83.16546 570.000
83.18540 559.000
83.20535 526.000
83.22530 498.000
83.24524 504.000
83.26519 484.000
83.28514 542.000
83.30508 495.000
83.32503 488.000
83.34498 522.000
83.36493 486.000
83.38487 517.000
83.40482 479.000
83.42477 548.000
83.44471 490.000
83.46466 516.000
83.48461 506.000
83.50455 506.000
83.52450 527.000
83.54445 558.000
83.56440 546.000
83.58434 597.000
83.60429 523.000
83.62424 539.000
83.64418 558.000
83.66413 591.000
83.68408 579.000
83.70402 571.000
83.72397 531.000
83.74392 599.000
83.76386 578.000
83.78381 565.000
83.80376 549.000
83.82371 580.000
83.84365 535.000
83.86360 538.000
83.88355 553.000
83.90349 509.000
83.92344 530.000
83.94339 584.000
83.96333 553.000
83.98328 543.000
84.00323 525.000
84.02318 496.000
84.04312 544.000
84.06307 520.000
84.08302 491.000
84.10296 558.000
84.12291 490.000
84.14286 537.000
84.16280 510.000
84.18275 560.000
84.20270 506.000
84.22264 463.000
84.24259 426.000
84.26254 495.000
84.28249 506.000
84.30243 490.000
84.32238 492.000
84.34233 457.000
84.36227 523.000
84.38222 485.000
84.40217 507.000
84.42211 479.000
84.44206 465.000
84.46201 515.000
84.48196 498.000
84.50190 505.000
84.52185 490.000
84.54180 461.000
84.56174 449.000
84.58169 515.000
84.60164 456.000
84.62158 492.000
84.64153 487.000
84.66148 497.000
84.68142 457.000
84.70137 478.000
84.72132 518.000
84.74127 539.000
84.76121 500.000
84.78116 492.000
84.80111 493.000
84.82105 489.000
84.84100 501.000
84.86095 462.000
84.88089 531.000
84.90084 477.000
84.92079 561.000
84.94074 493.000
84.96068 522.000
84.98063 434.000
85.00058 494.000
85.02052 457.000
85.04047 458.000
85.06042 479.000
85.08036 454.000
85.10031 518.000
85.12026 466.000
85.14021 550.000
85.16015 514.000
85.18010 467.000
85.20005 467.000
85.21999 418.000
85.23994 432.000
85.25989 485.000
85.27983 491.000
85.29978 441.000
85.31973 486.000
85.33967 442.000
85.35962 488.000
85.37957 465.000
85.39952 500.000
85.41946 473.000
85.43941 502.000
85.45936 483.000
85.47930 499.000
85.49925 489.000
85.51920 479.000
85.53914 497.000
85.55909 490.000
85.57904 430.000
85.59899 472.000
85.61893 496.000
85.63888 469.000
85.65883 502.000
85.67877 481.000
85.69872 487.000
85.71867 493.000
85.73861 471.000
85.75856 480.000
85.77851 461.000
85.79845 483.000
85.81840 482.000
85.83835 477.000
85.85830 513.000
85.87824 495.000
85.89819 463.000
85.91814 458.000
85.93808 441.000
85.95803 483.000
85.97798 467.000
85.99792 493.000
86.01787 500.000
86.03782 446.000
86.05777 490.000
86.07771 456.000
86.09766 496.000
86.11761 457.000
86.13755 442.000
86.15750 514.000
86.17745 472.000
86.19739 495.000
86.21734 502.000
86.23729 494.000
86.25723 485.000
86.27718 512.000
86.29713 460.000
86.31708 499.000
86.33702 474.000
86.35697 489.000
86.37692 461.000
86.39686 488.000
86.41681 513.000
86.43676 474.000
86.45670 474.000
86.47665 462.000
86.49660 481.000
86.51655 495.000
86.53649 488.000
86.55644 478.000
86.57639 548.000
86.59633 522.000
86.61628 457.000
86.63623 512.000
86.65617 480.000
86.67612 500.000
86.69607 495.000
86.71602 518.000
86.73596 519.000
86.75591 514.000
86.77586 550.000
86.79580 538.000
86.81575 527.000
86.83570 498.000
86.85564 501.000
86.87559 544.000
86.89554 540.000
86.91548 506.000
86.93543 544.000
86.95538 494.000
86.97533 511.000
86.99527 508.000
87.01522 494.000
87.03517 506.000
87.05511 484.000
87.07506 526.000
87.09501 536.000
87.11495 503.000
87.13490 504.000
87.15485 508.000
87.17480 549.000
87.19474 550.000
87.21469 498.000
87.23464 513.000
87.25458 549.000
87.27453 521.000
87.29448 515.000
87.31442 530.000
87.33437 521.000
87.35432 520.000
87.37426 483.000
87.39421 532.000
87.41416 477.000
87.43411 475.000
87.45405 490.000
87.47400 509.000
87.49395 465.000
87.51389 467.000
87.53384 472.000
87.55379 468.000
87.57373 460.000
87.59368 498.000
87.61363 478.000
87.63358 567.000
87.65352 448.000
87.67347 510.000
87.69342 519.000
87.71336 473.000
87.73331 483.000
87.75326 488.000
87.77320 496.000
87.79315 526.000
87.81310 472.000
87.83304 480.000
87.85299 463.000
87.87294 455.000
87.89289 482.000
87.91283 473.000
87.93278 500.000
87.95273 470.000
87.97267 480.000
87.99262 481.000
88.01257 490.000
88.03251 502.000
88.05246 493.000
88.07241 516.000
88.09236 485.000
88.11230 470.000
88.13225 498.000
88.15220 504.000
88.17214 486.000
88.19209 511.000
88.21204 509.000
88.23198 477.000
88.25193 451.000
88.27188 476.000
88.29183 502.000
88.31177 462.000
88.33172 451.000
88.35167 494.000
88.37161 508.000
88.39156 444.000
88.41151 484.000
88.43145 476.000
88.45140 475.000
88.47135 473.000
88.49129 510.000
88.51124 482.000
88.53119 492.000
88.55114 463.000
88.57108 468.000
88.59103 478.000
88.61098 509.000
88.63092 501.000
88.65087 447.000
88.67082 492.000
88.69076 528.000
88.71071 496.000
88.73066 482.000
88.75061 483.000
88.77055 484.000
88.79050 470.000
88.81045 471.000
88.83039 519.000
88.85034 486.000
88.87029 498.000
88.89023 516.000
88.91018 502.000
88.93013 518.000
88.95007 511.000
88.97002 485.000
88.98997 491.000
89.00992 534.000
89.02986 519.000
89.04981 534.000
89.06976 533.000
89.08970 498.000
89.10965 491.000
89.12960 493.000
89.14954 509.000
89.16949 520.000
89.18944 525.000
89.20939 537.000
89.22933 514.000
89.24928 538.000
89.26923 518.000
89.28917 559.000
89.30912 538.000
89.32907 545.000
89.34901 529.000
89.36896 565.000
89.38891 552.000
89.40885 594.000
89.42880 578.000
89.44875 571.000
89.46870 557.000
89.48864 538.000
89.50859 542.000
89.52854 567.000
89.54848 546.000
89.56843 555.000
89.58838 508.000
89.60832 546.000
89.62827 536.000
89.64822 551.000
89.66817 545.000
89.68811 574.000
89.70806 532.000
89.72801 502.000
89.74795 533.000
89.76790 496.000
89.78785 559.000
89.80779 490.000
89.82774 508.000
89.84769 489.000
89.86764 490.000
89.88758 494.000
89.90753 530.000
89.92748 515.000
89.94742 502.000
89.96737 492.000
89.98732 500.000
90.00726 509.000
