10.00000 479.000
10.01995 543.000
10.03989 445.000
10.05984 431.000
10.07979 456.000
10.09973 471.000
10.11968 467.000
10.13963 487.000
10.15958 475.000
10.17952 445.000
10.19947 469.000
10.21942 468.000
10.23936 464.000
10.25931 470.000
10.27926 441.000
10.29920 468.000
10.31915 477.000
10.33910 476.000
10.35905 449.000
10.37899 439.000
10.39894 476.000
10.41889 497.000
10.43883 455.000
10.45878 458.000
10.47873 461.000
10.49867 475.000
10.51862 451.000
10.53857 464.000
10.55851 436.000
10.57846 454.000
10.59841 495.000
10.61836 522.000
10.63830 450.000
10.65825 486.000
10.67820 470.000
10.69814 477.000
10.71809 440.000
10.73804 481.000
10.75798 472.000
10.77793 512.000
10.79788 437.000
10.81783 440.000
10.83777 474.000
10.85772 481.000
10.87767 454.000
10.89761 456.000
10.91756 423.000
10.93751 516.000
10.95745 447.000
10.97740 469.000
10.99735 452.000
11.01730 484.000
11.03724 472.000
11.05719 462.000
11.07714 529.000
11.09708 494.000
11.11703 472.000
11.13698 462.000
11.15692 478.000
11.17687 450.000
11.19682 524.000
11.21676 517.000
11.23671 498.000
11.25666 468.000
11.27661 501.000
11.29655 477.000
11.31650 506.000
11.33645 515.000
11.35639 452.000
11.37634 519.000
11.39629 431.000
11.41623 474.000
11.43618 494.000
11.45613 496.000
11.47608 459.000
11.49602 477.000
11.51597 450.000
11.53592 466.000
11.55586 465.000
11.57581 453.000
11.59576 489.000
11.61570 477.000
11.63565 479.000
11.65560 440.000
11.67554 528.000
11.69549 467.000
11.71544 475.000
11.73539 470.000
11.75533 504.000
11.77528 502.000
11.79523 484.000
11.81517 491.000
11.83512 458.000
11.85507 451.000
11.87501 470.000
11.89496 476.000
11.91491 500.000
11.93486 437.000
11.95480 499.000
11.97475 486.000
11.99470 457.000
12.01464 487.000
12.03459 447.000
12.05454 488.000
12.07448 507.000
12.09443 486.000
12.11438 483.000
12.13432 493.000
12.15427 457.000
12.17422 491.000
12.19417 480.000
12.21411 513.000
12.23406 446.000
12.25401 469.000
12.27395 463.000
12.29390 459.000
12.31385 500.000
12.33379 505.000
12.35374 463.000
12.37369 478.000
12.39364 422.000
12.41358 469.000
12.43353 451.000
12.45348 460.000
12.47342 459.000
12.49337 453.000
12.51332 463.000
12.53326 497.000
12.55321 481.000
12.57316 496.000
12.59311 472.000
12.61305 476.000
12.63300 511.000
12.65295 480.000
12.67289 500.000
12.69284 447.000
12.71279 516.000
12.73273 489.000
12.75268 499.000
12.77263 430.000
12.79257 472.000
12.81252 482.000
12.83247 456.000
12.85242 489.000
12.87236 484.000
12.89231 492.000
12.91226 483.000
12.93220 477.000
12.95215 498.000
12.97210 458.000
12.99204 516.000
13.01199 474.000
13.03194 474.000
13.05189 437.000
13.07183 475.000
13.09178 413.000
13.11173 461.000
13.13167 490.000
13.15162 465.000
13.17157 472.000
13.19151 490.000
13.21146 498.000
13.23141 503.000
13.25135 489.000
13.27130 520.000
13.29125 466.000
13.31120 511.000
13.33114 487.000
13.35109 500.000
13.37104 505.000
13.39098 458.000
13.41093 438.000
13.43088 485.000
13.45082 489.000
13.47077 466.000
13.49072 457.000
13.51067 496.000
13.53061 478.000
13.55056 499.000
13.57051 452.000
13.59045 471.000
13.61040 473.000
13.63035 469.000
13.65029 467.000
13.67024 483.000
13.69019 433.000
13.71013 504.000
13.73008 479.000
13.75003 499.000
13.76998 455.000
13.78992 496.000
13.80987 447.000
13.82982 449.000
13.84976 498.000
13.86971 441.000
13.88966 480.000
13.90960 464.000
13.92955 497.000
13.94950 475.000
13.96945 450.000
13.98939 502.000
14.00934 485.000
14.02929 471.000
14.04923 452.000
14.06918 486.000
14.08913 461.000
14.10907 472.000
14.12902 500.000
14.14897 505.000
14.16892 484.000
14.18886 452.000
14.20881 475.000
14.22876 492.000
14.24870 483.000
14.26865 456.000
14.28860 454.000
14.30854 513.000
14.32849 463.000
14.34844 489.000
14.36838 498.000
14.38833 474.000
14.40828 457.000
14.42823 516.000
14.44817 479.000
14.46812 509.000
14.48807 516.000
14.50801 457.000
14.52796 474.000
14.54791 454.000
14.56785 474.000
14.58780 487.000
14.60775 444.000
14.62770 483.000
14.64764 464.000
14.66759 489.000
14.68754 447.000
14.70748 480.000
14.72743 522.000
14.74738 446.000
14.76732 474.000
14.78727 496.000
14.80722 466.000
14.82716 462.000
14.84711 469.000
14.86706 469.000
14.88701 484.000
14.90695 509.000
14.92690 459.000
14.94685 499.000
14.96679 523.000
14.98674 510.000
15.00669 478.000
15.02663 502.000
15.04658 524.000
15.06653 455.000
15.08648 478.000
15.10642 496.000
15.12637 514.000
15.14632 461.000
15.16626 495.000
15.18621 505.000
15.20616 469.000
15.22610 513.000
15.24605 472.000
15.26600 529.000
15.28594 511.000
15.30589 490.000
15.32584 508.000
15.34579 507.000
15.36573 478.000
15.38568 497.000
15.40563 524.000
15.42557 507.000
15.44552 483.000
15.46547 481.000
15.48541 538.000
15.50536 504.000
15.52531 508.000
15.54526 524.000
15.56520 523.000
15.58515 517.000
15.60510 536.000
15.62504 567.000
15.64499 557.000
15.66494 587.000
15.68488 563.000
15.70483 543.000
15.72478 599.000
15.74472 654.000
15.76467 752.000
15.78462 815.000
15.80457 952.000
15.82451 1298.000
15.84446 1814.000
15.86441 2595.000
15.88435 3900.000
15.90430 5421.000
15.92425 6325.000
15.94419 6505.000
15.96414 5768.000
15.98409 4086.000
16.00404 2700.000
16.02398 1545.000
16.04393 1074.000
16.06388 755.000
16.08382 689.000
16.10377 739.000
16.12372 707.000
16.14366 663.000
16.16361 709.000
16.18356 701.000
16.20351 689.000
16.22345 741.000
16.24340 734.000
16.26335 719.000
16.28329 735.000
16.30324 659.000
16.32319 703.000
16.34313 608.000
16.36308 612.000
16.38303 539.000
16.40297 513.000
16.42292 519.000
16.44287 554.000
16.46282 527.000
16.48276 569.000
16.50271 524.000
16.52266 537.000
16.54260 510.000
16.56255 524.000
16.58250 510.000
16.60244 494.000
16.62239 513.000
16.64234 506.000
16.66229 542.000
16.68223 503.000
16.70218 542.000
16.72213 507.000
16.74207 549.000
16.76202 553.000
16.78197 525.000
16.80191 660.000
16.82186 748.000
16.84181 823.000
16.86175 741.000
16.88170 781.000
16.90165 604.000
16.92160 554.000
16.94154 516.000
16.96149 541.000
16.98144 498.000
17.00138 506.000
17.02133 449.000
17.04128 486.000
17.06122 494.000
17.08117 454.000
17.10112 490.000
17.12107 456.000
17.14101 484.000
17.16096 478.000
17.18091 493.000
17.20085 511.000
17.22080 497.000
17.24075 476.000
17.26069 488.000
17.28064 476.000
17.30059 489.000
17.32053 488.000
17.34048 516.000
17.36043 483.000
17.38038 508.000
17.40032 470.000
17.42027 483.000
17.44022 453.000
17.46016 439.000
17.48011 501.000
17.50006 501.000
17.52000 456.000
17.53995 504.000
17.55990 496.000
17.57985 473.000
17.59979 477.000
17.61974 460.000
17.63969 478.000
17.65963 449.000
17.67958 431.000
17.69953 489.000
17.71947 478.000
17.73942 499.000
17.75937 455.000
17.77932 516.000
17.79926 521.000
17.81921 510.000
17.83916 456.000
17.85910 476.000
17.87905 449.000
17.89900 497.000
17.91894 523.000
17.93889 458.000
17.95884 474.000
17.97878 502.000
17.99873 487.000
18.01868 434.000
18.03863 476.000
18.05857 504.000
18.07852 481.000
18.09847 480.000
18.11841 485.000
18.13836 492.000
18.15831 482.000
18.17825 474.000
18.19820 451.000
18.21815 518.000
18.23810 511.000
18.25804 474.000
18.27799 497.000
18.29794 517.000
18.31788 497.000
18.33783 521.000
18.35778 506.000
18.37772 474.000
18.39767 466.000
18.41762 500.000
18.43756 491.000
18.45751 513.000
18.47746 497.000
18.49741 487.000
18.51735 489.000
18.53730 526.000
18.55725 485.000
18.57719 497.000
18.59714 492.000
18.61709 503.000
18.63703 494.000
18.65698 444.000
18.67693 486.000
18.69688 466.000
18.71682 507.000
18.73677 518.000
18.75672 460.000
18.77666 480.000
18.79661 475.000
18.81656 497.000
18.83650 504.000
18.85645 464.000
18.87640 449.000
18.89634 492.000
18.91629 501.000
18.93624 511.000
18.95619 501.000
18.97613 499.000
18.99608 534.000
19.01603 479.000
19.03597 458.000
19.05592 488.000
19.07587 487.000
19.09581 480.000
19.11576 510.000
19.13571 501.000
19.15566 460.000
19.17560 504.000
19.19555 436.000
19.21550 470.000
19.23544 474.000
19.25539 477.000
19.27534 508.000
19.29528 508.000
19.31523 477.000
19.33518 462.000
19.35513 460.000
19.37507 508.000
19.39502 469.000
19.41497 492.000
19.43491 479.000
19.45486 484.000
19.47481 495.000
19.49475 474.000
19.51470 534.000
19.53465 511.000
19.55459 541.000
19.57454 496.000
19.59449 509.000
19.61444 490.000
19.63438 477.000
19.65433 484.000
19.67428 503.000
19.69422 500.000
19.71417 492.000
19.73412 484.000
19.75406 475.000
19.77401 433.000
19.79396 524.000
19.81391 455.000
19.83385 494.000
19.85380 516.000
19.87375 508.000
19.89369 471.000
19.91364 445.000
19.93359 478.000
19.95353 495.000
19.97348 480.000
19.99343 439.000
20.01337 465.000
20.03332 494.000
20.05327 530.000
20.07322 468.000
20.09316 493.000
20.11311 507.000
20.13306 462.000
20.15300 529.000
20.17295 509.000
20.19290 491.000
20.21284 505.000
20.23279 493.000
20.25274 505.000
20.27269 482.000
20.29263 506.000
20.31258 476.000
20.33253 499.000
20.35247 509.000
20.37242 479.000
20.39237 490.000
20.41231 502.000
20.43226 490.000
20.45221 475.000
20.47215 516.000
20.49210 507.000
20.51205 481.000
20.53200 479.000
20.55194 473.000
20.57189 466.000
20.59184 522.000
20.61178 509.000
20.63173 498.000
20.65168 490.000
20.67162 499.000
20.69157 497.000
20.71152 462.000
20.73147 532.000
20.75141 537.000
20.77136 506.000
20.79131 526.000
20.81125 509.000
20.83120 546.000
20.85115 548.000
20.87109 585.000
20.89104 592.000
20.91099 615.000
20.93094 614.000
20.95088 686.000
20.97083 678.000
20.99078 646.000
21.01072 636.000
21.03067 609.000
21.05062 567.000
21.07056 500.000
21.09051 536.000
21.11046 506.000
21.13040 496.000
21.15035 468.000
21.17030 475.000
21.19025 520.000
21.21019 507.000
21.23014 509.000
21.25009 505.000
21.27003 473.000
21.28998 481.000
21.30993 500.000
21.32987 502.000
21.34982 485.000
21.36977 446.000
21.38972 498.000
21.40966 519.000
21.42961 476.000
21.44956 499.000
21.46950 481.000
21.48945 494.000
21.50940 482.000
21.52934 530.000
21.54929 476.000
21.56924 515.000
21.58918 489.000
21.60913 498.000
21.62908 488.000
21.64903 463.000
21.66897 466.000
21.68892 508.000
21.70887 530.000
21.72881 509.000
21.74876 482.000
21.76871 477.000
21.78865 481.000
21.80860 476.000
21.82855 482.000
21.84850 508.000
21.86844 472.000
21.88839 468.000
21.90834 484.000
21.92828 467.000
21.94823 496.000
21.96818 478.000
21.98812 503.000
22.00807 480.000
22.02802 484.000
22.04796 538.000
22.06791 502.000
22.08786 518.000
22.10781 511.000
22.12775 471.000
22.14770 475.000
22.16765 456.000
22.18759 519.000
22.20754 474.000
22.22749 510.000
22.24743 451.000
22.26738 499.000
22.28733 492.000
22.30728 514.000
22.32722 499.000
22.34717 479.000
22.36712 464.000
22.38706 482.000
22.40701 491.000
22.42696 499.000
22.44690 456.000
22.46685 513.000
22.48680 491.000
22.50675 472.000
22.52669 505.000
22.54664 503.000
22.56659 474.000
22.58653 489.000
22.60648 466.000
22.62643 460.000
22.64637 464.000
22.66632 480.000
22.68627 484.000
22.70621 472.000
22.72616 489.000
22.74611 485.000
22.76606 459.000
22.78600 552.000
22.80595 495.000
22.82590 508.000
22.84584 494.000
22.86579 529.000
22.88574 493.000
22.90568 458.000
22.92563 469.000
22.94558 511.000
22.96553 527.000
22.98547 536.000
23.00542 465.000
23.02537 482.000
23.04531 499.000
23.06526 516.000
23.08521 507.000
23.10515 510.000
23.12510 477.000
23.14505 531.000
23.16499 479.000
23.18494 538.000
23.20489 514.000
23.22484 478.000
23.24478 517.000
23.26473 486.000
23.28468 446.000
23.30462 495.000
23.32457 529.000
23.34452 499.000
23.36446 446.000
23.38441 492.000
23.40436 500.000
23.42431 463.000
23.44425 476.000
23.46420 496.000
23.48415 511.000
23.50409 502.000
23.52404 511.000
23.54399 521.000
23.56393 474.000
23.58388 486.000
23.60383 505.000
23.62377 486.000
23.64372 479.000
23.66367 465.000
23.68362 493.000
23.70356 486.000
23.72351 535.000
23.74346 492.000
23.76340 497.000
23.78335 502.000
23.80330 470.000
23.82324 532.000
23.84319 500.000
23.86314 504.000
23.88309 495.000
23.90303 496.000
23.92298 459.000
23.94293 476.000
23.96287 493.000
23.98282 511.000
24.00277 475.000
24.02271 523.000
24.04266 540.000
24.06261 509.000
24.08256 474.000
24.10250 501.000
24.12245 520.000
24.14240 476.000
24.16234 515.000
24.18229 478.000
24.20224 466.000
24.22218 504.000
24.24213 505.000
24.26208 495.000
24.28202 494.000
24.30197 510.000
24.32192 495.000
24.34187 540.000
24.36181 501.000
24.38176 524.000
24.40171 505.000
24.42165 493.000
24.44160 504.000
24.46155 499.000
24.48149 509.000
24.50144 482.000
24.52139 472.000
24.54134 490.000
24.56128 474.000
24.58123 488.000
24.60118 490.000
24.62112 516.000
24.64107 529.000
24.66102 513.000
24.68096 478.000
24.70091 490.000
24.72086 509.000
24.74080 480.000
24.76075 516.000
24.78070 484.000
24.80065 489.000
24.82059 500.000
24.84054 481.000
24.86049 505.000
24.88043 533.000
24.90038 554.000
24.92033 490.000
24.94027 575.000
24.96022 603.000
24.98017 646.000
25.00012 678.000
25.02006 663.000
25.04001 673.000
25.05996 680.000
25.07990 596.000
25.09985 578.000
25.11980 547.000
25.13974 542.000
25.15969 541.000
25.17964 501.000
25.19958 499.000
25.21953 503.000
25.23948 529.000
25.25943 502.000
25.27937 502.000
25.29932 487.000
25.31927 481.000
25.33921 544.000
25.35916 508.000
25.37911 508.000
25.39905 509.000
25.41900 487.000
25.43895 536.000
25.45890 475.000
25.47884 520.000
25.49879 515.000
25.51874 514.000
25.53868 509.000
25.55863 493.000
25.57858 523.000
25.59852 479.000
25.61847 557.000
25.63842 520.000
25.65837 495.000
25.67831 463.000
25.69826 517.000
25.71821 514.000
25.73815 503.000
25.75810 481.000
25.77805 492.000
25.79799 497.000
25.81794 490.000
25.83789 509.000
25.85783 502.000
25.87778 495.000
25.89773 524.000
25.91768 516.000
25.93762 479.000
25.95757 511.000
25.97752 517.000
25.99746 509.000
26.01741 461.000
26.03736 509.000
26.05730 556.000
26.07725 511.000
26.09720 533.000
26.11715 501.000
26.13709 512.000
26.15704 511.000
26.17699 522.000
26.19693 554.000
26.21688 497.000
26.23683 483.000
26.25677 512.000
26.27672 528.000
26.29667 502.000
26.31661 479.000
26.33656 467.000
26.35651 524.000
26.37646 504.000
26.39640 505.000
26.41635 493.000
26.43630 481.000
26.45624 509.000
26.47619 497.000
26.49614 546.000
26.51608 461.000
26.53603 518.000
26.55598 488.000
26.57593 478.000
26.59587 530.000
26.61582 534.000
26.63577 498.000
26.65571 529.000
26.67566 487.000
26.69561 497.000
26.71555 506.000
26.73550 504.000
26.75545 498.000
26.77539 502.000
26.79534 487.000
26.81529 523.000
26.83524 531.000
26.85518 515.000
26.87513 532.000
26.89508 478.000
26.91502 486.000
26.93497 506.000
26.95492 564.000
26.97486 502.000
26.99481 486.000
27.01476 479.000
27.03471 523.000
27.05465 506.000
27.07460 530.000
27.09455 543.000
27.11449 509.000
27.13444 510.000
27.15439 553.000
27.17433 546.000
27.19428 525.000
27.21423 528.000
27.23417 529.000
27.25412 559.000
27.27407 565.000
27.29402 543.000
27.31396 539.000
27.33391 529.000
27.35386 479.000
27.37380 472.000
27.39375 513.000
27.41370 496.000
27.43364 489.000
27.45359 521.000
27.47354 527.000
27.49349 492.000
27.51343 520.000
27.53338 534.000
27.55333 516.000
27.57327 521.000
27.59322 542.000
27.61317 509.000
27.63311 502.000
27.65306 527.000
27.67301 523.000
27.69296 514.000
27.71290 497.000
27.73285 531.000
27.75280 505.000
27.77274 493.000
27.79269 537.000
27.81264 554.000
27.83258 524.000
27.85253 530.000
27.87248 535.000
27.89242 515.000
27.91237 498.000
27.93232 529.000
27.95227 483.000
27.97221 509.000
27.99216 511.000
28.01211 499.000
28.03205 518.000
28.05200 514.000
28.07195 554.000
28.09189 488.000
28.11184 526.000
28.13179 536.000
28.15174 520.000
28.17168 521.000
28.19163 539.000
28.21158 541.000
28.23152 495.000
28.25147 482.000
28.27142 509.000
28.29136 535.000
28.31131 532.000
28.33126 527.000
28.35120 535.000
28.37115 555.000
28.39110 527.000
28.41105 525.000
28.43099 554.000
28.45094 535.000
28.47089 565.000
28.49083 511.000
28.51078 503.000
28.53073 531.000
28.55067 462.000
28.57062 519.000
28.59057 552.000
28.61052 541.000
28.63046 507.000
28.65041 466.000
28.67036 481.000
28.69030 508.000
28.71025 530.000
28.73020 521.000
28.75014 512.000
28.77009 534.000
28.79004 532.000
28.80998 544.000
28.82993 547.000
28.84988 542.000
28.86983 563.000
28.88977 525.000
28.90972 509.000
28.92967 484.000
28.94961 523.000
28.96956 539.000
28.98951 500.000
29.00945 495.000
29.02940 524.000
29.04935 517.000
29.06930 517.000
29.08924 518.000
29.10919 492.000
29.12914 537.000
29.14908 523.000
29.16903 548.000
29.18898 597.000
29.20892 559.000
29.22887 548.000
29.24882 619.000
29.26877 609.000
29.28871 720.000
29.30866 825.000
29.32861 954.000
29.34855 997.000
29.36850 1037.000
29.38845 1088.000
29.40839 1071.000
29.42834 969.000
29.44829 949.000
29.46823 857.000
29.48818 797.000
29.50813 642.000
29.52808 638.000
29.54802 613.000
29.56797 534.000
29.58792 550.000
29.60786 552.000
29.62781 594.000
29.64776 510.000
29.66770 566.000
29.68765 568.000
29.70760 579.000
29.72755 621.000
29.74749 579.000
29.76744 570.000
29.78739 542.000
29.80733 596.000
29.82728 542.000
29.84723 574.000
29.86717 587.000
29.88712 540.000
29.90707 558.000
29.92701 538.000
29.94696 569.000
29.96691 549.000
29.98686 516.000
30.00680 538.000
30.02675 541.000
30.04670 561.000
30.06664 515.000
30.08659 574.000
30.10654 568.000
30.12648 545.000
30.14643 515.000
30.16638 582.000
30.18633 542.000
30.20627 556.000
30.22622 524.000
30.24617 548.000
30.26611 541.000
30.28606 530.000
30.30601 547.000
30.32595 501.000
30.34590 506.000
30.36585 521.000
30.38579 576.000
30.40574 517.000
30.42569 554.000
30.44564 520.000
30.46558 506.000
30.48553 544.000
30.50548 490.000
30.52542 528.000
30.54537 504.000
30.56532 531.000
30.58526 536.000
30.60521 478.000
30.62516 508.000
30.64511 565.000
30.66505 512.000
30.68500 516.000
30.70495 551.000
30.72489 521.000
30.74484 539.000
30.76479 508.000
30.78473 486.000
30.80468 496.000
30.82463 484.000
30.84458 525.000
30.86452 532.000
30.88447 490.000
30.90442 507.000
30.92436 525.000
30.94431 469.000
30.96426 520.000
30.98420 503.000
31.00415 538.000
31.02410 522.000
31.04404 536.000
31.06399 492.000
31.08394 571.000
31.10389 502.000
31.12383 548.000
31.14378 533.000
31.16373 530.000
31.18367 526.000
31.20362 571.000
31.22357 561.000
31.24351 543.000
31.26346 549.000
31.28341 523.000
31.30336 578.000
31.32330 598.000
31.34325 579.000
31.36320 564.000
31.38314 525.000
31.40309 599.000
31.42304 544.000
31.44298 503.000
31.46293 530.000
31.48288 530.000
31.50282 519.000
31.52277 547.000
31.54272 519.000
31.56267 541.000
31.58261 578.000
31.60256 520.000
31.62251 496.000
31.64245 489.000
31.66240 548.000
31.68235 557.000
31.70229 532.000
31.72224 551.000
31.74219 527.000
31.76214 572.000
31.78208 507.000
31.80203 580.000
31.82198 525.000
31.84192 531.000
31.86187 504.000
31.88182 546.000
31.90176 536.000
31.92171 528.000
31.94166 543.000
31.96160 525.000
31.98155 568.000
32.00150 620.000
32.02145 567.000
32.04139 611.000
32.06134 631.000
32.08129 723.000
32.10123 859.000
32.12118 891.000
32.14113 873.000
32.16107 1036.000
32.18102 1013.000
32.20097 1086.000
32.22092 1071.000
32.24086 929.000
32.26081 885.000
32.28076 903.000
32.30070 769.000
32.32065 686.000
32.34060 674.000
32.36054 677.000
32.38049 676.000
32.40044 711.000
32.42039 802.000
32.44033 978.000
32.46028 1146.000
32.48023 1035.000
32.50017 1065.000
32.52012 1011.000
32.54007 949.000
32.56001 903.000
32.57996 738.000
32.59991 762.000
32.61985 677.000
32.63980 650.000
32.65975 612.000
32.67970 579.000
32.69964 548.000
32.71959 533.000
32.73954 506.000
32.75948 549.000
32.77943 553.000
32.79938 568.000
32.81932 536.000
32.83927 501.000
32.85922 523.000
32.87917 558.000
32.89911 577.000
32.91906 553.000
32.93901 586.000
32.95895 547.000
32.97890 561.000
32.99885 569.000
33.01879 566.000
33.03874 606.000
33.05869 505.000
33.07863 518.000
33.09858 545.000
33.11853 443.000
33.13848 549.000
33.15842 535.000
33.17837 511.000
33.19832 551.000
33.21826 518.000
33.23821 516.000
33.25816 497.000
33.27810 520.000
33.29805 525.000
33.31800 517.000
33.33795 536.000
33.35789 490.000
33.37784 502.000
33.39779 538.000
33.41773 531.000
33.43768 527.000
33.45763 550.000
33.47757 535.000
33.49752 517.000
33.51747 542.000
33.53741 496.000
33.55736 530.000
33.57731 539.000
33.59726 513.000
33.61720 533.000
33.63715 516.000
33.65710 525.000
33.67704 538.000
33.69699 505.000
33.71694 559.000
33.73688 558.000
33.75683 552.000
33.77678 549.000
33.79673 529.000
33.81667 575.000
33.83662 554.000
33.85657 560.000
33.87651 559.000
33.89646 553.000
33.91641 566.000
33.93635 572.000
33.95630 590.000
33.97625 578.000
33.99620 595.000
34.01614 619.000
34.03609 626.000
34.05604 613.000
34.07598 588.000
34.09593 596.000
34.11588 643.000
34.13582 600.000
34.15577 634.000
34.17572 618.000
34.19566 605.000
34.21561 608.000
34.23556 635.000
34.25551 651.000
34.27545 641.000
34.29540 694.000
34.31535 633.000
34.33529 655.000
34.35524 639.000
34.37519 674.000
34.39513 686.000
34.41508 676.000
34.43503 770.000
34.45498 738.000
34.47492 743.000
34.49487 758.000
34.51482 700.000
34.53476 728.000
34.55471 704.000
34.57466 758.000
34.59460 685.000
34.61455 720.000
34.63450 682.000
34.65444 648.000
34.67439 728.000
34.69434 696.000
34.71429 688.000
34.73423 715.000
34.75418 719.000
34.77413 754.000
34.79407 841.000
34.81402 835.000
34.83397 900.000
34.85391 918.000
34.87386 887.000
34.89381 923.000
34.91376 806.000
34.93370 875.000
34.95365 817.000
34.97360 793.000
34.99354 776.000
35.01349 682.000
35.03344 693.000
35.05338 704.000
35.07333 690.000
35.09328 681.000
35.11322 694.000
35.13317 722.000
35.15312 698.000
35.17307 748.000
35.19301 747.000
35.21296 781.000
35.23291 851.000
35.25285 806.000
35.27280 897.000
35.29275 963.000
35.31269 1025.000
35.33264 1159.000
35.35259 1466.000
35.37254 1806.000
35.39248 2418.000
35.41243 3190.000
35.43238 3763.000
35.45232 3534.000
35.47227 3763.000
35.49222 4728.000
35.51216 6221.000
35.53211 6972.000
35.55206 6464.000
35.57201 5307.000
35.59195 4658.000
35.61190 4551.000
35.63185 4173.000
35.65179 3271.000
35.67174 2472.000
35.69169 1915.000
35.71163 1485.000
35.73158 1325.000
35.75153 1096.000
35.77147 1036.000
35.79142 1092.000
35.81137 1029.000
35.83132 1054.000
35.85126 1104.000
35.87121 1189.000
35.89116 1070.000
35.91110 919.000
35.93105 890.000
35.95100 966.000
35.97094 866.000
35.99089 771.000
36.01084 728.000
36.03079 725.000
36.05073 678.000
36.07068 638.000
36.09063 647.000
36.11057 666.000
36.13052 627.000
36.15047 624.000
36.17041 619.000
36.19036 630.000
36.21031 664.000
36.23025 711.000
36.25020 720.000
36.27015 765.000
36.29010 688.000
36.31004 706.000
36.32999 673.000
36.34994 699.000
36.36988 735.000
36.38983 663.000
36.40978 634.000
36.42972 603.000
36.44967 620.000
36.46962 638.000
36.48957 611.000
36.50951 635.000
36.52946 598.000
36.54941 600.000
36.56935 619.000
36.58930 600.000
36.60925 595.000
36.62919 603.000
36.64914 624.000
36.66909 645.000
36.68903 630.000
36.70898 648.000
36.72893 669.000
36.74888 626.000
36.76882 688.000
36.78877 712.000
36.80872 726.000
36.82866 729.000
36.84861 695.000
36.86856 697.000
36.88850 733.000
36.90845 813.000
36.92840 830.000
36.94835 938.000
36.96829 937.000
36.98824 882.000
37.00819 998.000
37.02813 1033.000
37.04808 1139.000
37.06803 1136.000
37.08797 1171.000
37.10792 1182.000
37.12787 1156.000
37.14781 1149.000
37.16776 1150.000
37.18771 1094.000
37.20766 1109.000
37.22760 1020.000
37.24755 997.000
37.26750 991.000
37.28744 973.000
37.30739 844.000
37.32734 818.000
37.34728 779.000
37.36723 775.000
37.38718 776.000
37.40713 784.000
37.42707 800.000
37.44702 792.000
37.46697 801.000
37.48691 888.000
37.50686 928.000
37.52681 846.000
37.54675 818.000
37.56670 827.000
37.58665 739.000
37.60660 722.000
37.62654 806.000
37.64649 693.000
37.66644 694.000
37.68638 721.000
37.70633 658.000
37.72628 617.000
37.74622 651.000
37.76617 649.000
37.78612 618.000
37.80606 641.000
37.82601 701.000
37.84596 643.000
37.86591 607.000
37.88585 672.000
37.90580 646.000
37.92575 582.000
37.94569 668.000
37.96564 663.000
37.98559 714.000
38.00553 671.000
38.02548 670.000
38.04543 649.000
38.06538 701.000
38.08532 622.000
38.10527 727.000
38.12522 688.000
38.14516 680.000
38.16511 671.000
38.18506 699.000
38.20500 733.000
38.22495 682.000
38.24490 721.000
38.26484 702.000
38.28479 763.000
38.30474 797.000
38.32469 794.000
38.34463 764.000
38.36458 799.000
38.38453 856.000
38.40447 935.000
38.42442 1023.000
38.44437 1057.000
38.46431 1106.000
38.48426 1254.000
38.50421 1393.000
38.52416 1607.000
38.54410 1960.000
38.56405 2422.000
38.58400 3155.000
38.60394 4098.000
38.62389 5355.000
38.64384 5858.000
38.66378 5909.000
38.68373 5336.000
38.70368 5195.000
38.72362 4909.000
38.74357 4520.000
38.76352 4080.000
38.78347 3415.000
38.80341 2794.000
38.82336 2332.000
38.84331 1915.000
38.86325 1774.000
38.88320 1532.000
38.90315 1409.000
38.92309 1429.000
38.94304 1437.000
38.96299 1603.000
38.98294 1617.000
39.00288 1757.000
39.02283 1857.000
39.04278 1801.000
39.06272 1665.000
39.08267 1468.000
39.10262 1415.000
39.12256 1311.000
39.14251 1241.000
39.16246 1147.000
39.18241 960.000
39.20235 899.000
39.22230 764.000
39.24225 770.000
39.26219 750.000
39.28214 781.000
39.30209 757.000
39.32203 792.000
39.34198 838.000
39.36193 865.000
39.38187 1064.000
39.40182 1151.000
39.42177 1239.000
39.44172 1284.000
39.46166 1239.000
39.48161 1302.000
39.50156 1188.000
39.52150 1152.000
39.54145 1072.000
39.56140 957.000
39.58134 890.000
39.60129 848.000
39.62124 766.000
39.64119 687.000
39.66113 658.000
39.68108 636.000
39.70103 649.000
39.72097 602.000
39.74092 609.000
39.76087 562.000
39.78081 578.000
39.80076 571.000
39.82071 590.000
39.84065 601.000
39.86060 590.000
39.88055 588.000
39.90050 598.000
39.92044 586.000
39.94039 579.000
39.96034 587.000
39.98028 562.000
40.00023 580.000
40.02018 550.000
40.04012 560.000
40.06007 543.000
40.08002 578.000
40.09997 571.000
40.11991 549.000
40.13986 555.000
40.15981 561.000
40.17975 589.000
40.19970 607.000
40.21965 556.000
40.23959 546.000
40.25954 588.000
40.27949 566.000
40.29943 585.000
40.31938 544.000
40.33933 479.000
40.35928 515.000
40.37922 546.000
40.39917 502.000
40.41912 502.000
40.43906 526.000
40.45901 514.000
40.47896 563.000
40.49890 571.000
40.51885 549.000
40.53880 568.000
40.55875 573.000
40.57869 516.000
40.59864 548.000
40.61859 529.000
40.63853 563.000
40.65848 544.000
40.67843 547.000
40.69837 503.000
40.71832 536.000
40.73827 552.000
40.75822 532.000
40.77816 579.000
40.79811 527.000
40.81806 536.000
40.83800 538.000
40.85795 529.000
40.87790 529.000
40.89784 553.000
40.91779 546.000
40.93774 474.000
40.95768 536.000
40.97763 567.000
40.99758 534.000
41.01753 568.000
41.03747 571.000
41.05742 580.000
41.07737 583.000
41.09731 513.000
41.11726 538.000
41.13721 564.000
41.15715 549.000
41.17710 540.000
41.19705 533.000
41.21700 517.000
41.23694 566.000
41.25689 576.000
41.27684 548.000
41.29678 562.000
41.31673 561.000
41.33668 577.000
41.35662 547.000
41.37657 588.000
41.39652 535.000
41.41646 567.000
41.43641 572.000
41.45636 564.000
41.47631 541.000
41.49625 555.000
41.51620 514.000
41.53615 606.000
41.55609 511.000
41.57604 547.000
41.59599 558.000
41.61593 565.000
41.63588 518.000
41.65583 588.000
41.67578 566.000
41.69572 574.000
41.71567 587.000
41.73562 606.000
41.75556 640.000
41.77551 605.000
41.79546 586.000
41.81540 606.000
41.83535 625.000
41.85530 626.000
41.87524 623.000
41.89519 644.000
41.91514 696.000
41.93509 674.000
41.95503 696.000
41.97498 705.000
41.99493 760.000
42.01487 756.000
42.03482 685.000
42.05477 723.000
42.07471 691.000
42.09466 680.000
42.11461 639.000
42.13456 676.000
42.15450 616.000
42.17445 634.000
42.19440 603.000
42.21434 610.000
42.23429 617.000
42.25424 608.000
42.27418 593.000
42.29413 625.000
42.31408 561.000
42.33403 576.000
42.35397 616.000
42.37392 599.000
42.39387 564.000
42.41381 585.000
42.43376 591.000
42.45371 606.000
42.47365 607.000
42.49360 628.000
42.51355 571.000
42.53349 588.000
42.55344 635.000
42.57339 651.000
42.59334 587.000
42.61328 628.000
42.63323 653.000
42.65318 661.000
42.67312 646.000
42.69307 632.000
42.71302 637.000
42.73296 660.000
42.75291 668.000
42.77286 647.000
42.79281 756.000
42.81275 723.000
42.83270 714.000
42.85265 746.000
42.87259 731.000
42.89254 730.000
42.91249 776.000
42.93243 757.000
42.95238 770.000
42.97233 828.000
42.99227 818.000
43.01222 770.000
43.03217 840.000
43.05212 854.000
43.07206 846.000
43.09201 903.000
43.11196 912.000
43.13190 874.000
43.15185 901.000
43.17180 827.000
43.19174 855.000
43.21169 883.000
43.23164 866.000
43.25159 810.000
43.27153 806.000
43.29148 780.000
43.31143 786.000
43.33137 778.000
43.35132 738.000
43.37127 734.000
43.39121 732.000
43.41116 758.000
43.43111 681.000
43.45105 743.000
43.47100 720.000
43.49095 704.000
43.51090 787.000
43.53084 796.000
43.55079 831.000
43.57074 890.000
43.59068 891.000
43.61063 811.000
43.63058 828.000
43.65052 789.000
43.67047 777.000
43.69042 771.000
43.71037 770.000
43.73031 703.000
43.75026 669.000
43.77021 663.000
43.79015 628.000
43.81010 640.000
43.83005 596.000
43.84999 600.000
43.86994 613.000
43.88989 532.000
43.90984 579.000
43.92978 557.000
43.94973 546.000
43.96968 517.000
43.98962 567.000
44.00957 546.000
44.02952 556.000
44.04946 577.000
44.06941 534.000
44.08936 558.000
44.10930 611.000
44.12925 507.000
44.14920 562.000
44.16915 533.000
44.18909 574.000
44.20904 528.000
44.22899 570.000
44.24893 579.000
44.26888 523.000
44.28883 526.000
44.30877 550.000
44.32872 538.000
44.34867 546.000
44.36862 541.000
44.38856 568.000
44.40851 542.000
44.42846 560.000
44.44840 536.000
44.46835 536.000
44.48830 557.000
44.50824 539.000
44.52819 571.000
44.54814 580.000
44.56808 550.000
44.58803 589.000
44.60798 548.000
44.62793 550.000
44.64787 563.000
44.66782 577.000
44.68777 560.000
44.70771 515.000
44.72766 567.000
44.74761 556.000
44.76755 569.000
44.78750 603.000
44.80745 498.000
44.82740 539.000
44.84734 627.000
44.86729 557.000
44.88724 590.000
44.90718 573.000
44.92713 597.000
44.94708 576.000
44.96702 633.000
44.98697 546.000
45.00692 588.000
45.02686 616.000
45.04681 588.000
45.06676 596.000
45.08671 612.000
45.10665 670.000
45.12660 669.000
45.14655 698.000
45.16649 723.000
45.18644 756.000
45.20639 763.000
45.22633 816.000
45.24628 789.000
45.26623 750.000
45.28618 781.000
45.30612 701.000
45.32607 736.000
45.34602 751.000
45.36596 722.000
45.38591 739.000
45.40586 667.000
45.42580 620.000
45.44575 589.000
45.46570 651.000
45.48565 613.000
45.50559 589.000
45.52554 621.000
45.54549 647.000
45.56543 620.000
45.58538 617.000
45.60533 630.000
45.62527 626.000
45.64522 561.000
45.66517 595.000
45.68511 614.000
45.70506 580.000
45.72501 557.000
45.74496 526.000
45.76490 552.000
45.78485 521.000
45.80480 575.000
45.82474 567.000
45.84469 571.000
45.86464 496.000
45.88458 556.000
45.90453 595.000
45.92448 537.000
45.94443 562.000
45.96437 544.000
45.98432 502.000
46.00427 591.000
46.02421 550.000
46.04416 539.000
46.06411 549.000
46.08405 560.000
46.10400 552.000
46.12395 563.000
46.14389 578.000
46.16384 557.000
46.18379 564.000
46.20374 599.000
46.22368 625.000
46.24363 664.000
46.26358 638.000
46.28352 665.000
46.30347 654.000
46.32342 620.000
46.34336 649.000
46.36331 639.000
46.38326 644.000
46.40321 635.000
46.42315 575.000
46.44310 595.000
46.46305 580.000
46.48299 559.000
46.50294 568.000
46.52289 535.000
46.54283 525.000
46.56278 564.000
46.58273 527.000
46.60267 531.000
46.62262 538.000
46.64257 500.000
46.66252 521.000
46.68246 576.000
46.70241 521.000
46.72236 518.000
46.74230 551.000
46.76225 550.000
46.78220 582.000
46.80214 483.000
46.82209 532.000
46.84204 540.000
46.86199 505.000
46.88193 572.000
46.90188 525.000
46.92183 501.000
46.94177 536.000
46.96172 543.000
46.98167 544.000
47.00161 522.000
47.02156 467.000
47.04151 512.000
47.06146 529.000
47.08140 555.000
47.10135 514.000
47.12130 534.000
47.14124 550.000
47.16119 558.000
47.18114 564.000
47.20108 535.000
47.22103 581.000
47.24098 541.000
47.26092 568.000
47.28087 594.000
47.30082 551.000
47.32077 550.000
47.34071 535.000
47.36066 528.000
47.38061 473.000
47.40055 551.000
47.42050 533.000
47.44045 533.000
47.46039 534.000
47.48034 495.000
47.50029 536.000
47.52024 537.000
47.54018 472.000
47.56013 530.000
47.58008 509.000
47.60002 580.000
47.61997 560.000
47.63992 558.000
47.65986 521.000
47.67981 534.000
47.69976 518.000
47.71970 581.000
47.73965 550.000
47.75960 582.000
47.77955 532.000
47.79949 556.000
47.81944 571.000
47.83939 540.000
47.85933 526.000
47.87928 553.000
47.89923 560.000
47.91917 572.000
47.93912 581.000
47.95907 549.000
47.97902 610.000
47.99896 620.000
48.01891 608.000
48.03886 643.000
48.05880 606.000
48.07875 691.000
48.09870 682.000
48.11864 666.000
48.13859 658.000
48.15854 666.000
48.17848 623.000
48.19843 606.000
48.21838 634.000
48.23833 641.000
48.25827 572.000
48.27822 578.000
48.29817 623.000
48.31811 625.000
48.33806 644.000
48.35801 550.000
48.37795 558.000
48.39790 640.000
48.41785 551.000
48.43780 559.000
48.45774 623.000
48.47769 610.000
48.49764 585.000
48.51758 612.000
48.53753 638.000
48.55748 627.000
48.57742 623.000
48.59737 665.000
48.61732 675.000
48.63726 671.000
48.65721 731.000
48.67716 737.000
48.69711 794.000
48.71705 840.000
48.73700 998.000
48.75695 1002.000
48.77689 1220.000
48.79684 1274.000
48.81679 1503.000
48.83673 1721.000
48.85668 2002.000
48.87663 2156.000
48.89658 2337.000
48.91652 2437.000
48.93647 2363.000
48.95642 2106.000
48.97636 1919.000
48.99631 1825.000
49.01626 1655.000
49.03620 1589.000
49.05615 1580.000
49.07610 1327.000
49.09605 1186.000
49.11599 1055.000
49.13594 952.000
49.15589 846.000
49.17583 763.000
49.19578 751.000
49.21573 689.000
49.23567 619.000
49.25562 648.000
49.27557 648.000
49.29551 622.000
49.31546 648.000
49.33541 655.000
49.35536 576.000
49.37530 605.000
49.39525 606.000
49.41520 600.000
49.43514 614.000
49.45509 590.000
49.47504 601.000
49.49498 652.000
49.51493 611.000
49.53488 573.000
49.55483 592.000
49.57477 609.000
49.59472 582.000
49.61467 612.000
49.63461 651.000
49.65456 644.000
49.67451 608.000
49.69445 572.000
49.71440 590.000
49.73435 583.000
49.75429 548.000
49.77424 537.000
49.79419 576.000
49.81414 542.000
49.83408 608.000
49.85403 501.000
49.87398 547.000
49.89392 518.000
49.91387 578.000
49.93382 580.000
49.95376 593.000
49.97371 579.000
49.99366 573.000
50.01361 539.000
50.03355 567.000
50.05350 472.000
50.07345 582.000
50.09339 575.000
50.11334 547.000
50.13329 488.000
50.15323 541.000
50.17318 530.000
50.19313 498.000
50.21307 514.000
50.23302 533.000
50.25297 539.000
50.27292 496.000
50.29286 559.000
50.31281 522.000
50.33276 524.000
50.35270 555.000
50.37265 521.000
50.39260 500.000
50.41254 504.000
50.43249 517.000
50.45244 563.000
50.47239 536.000
50.49233 489.000
50.51228 517.000
50.53223 510.000
50.55217 523.000
50.57212 539.000
50.59207 516.000
50.61201 508.000
50.63196 519.000
50.65191 525.000
50.67186 536.000
50.69180 538.000
50.71175 513.000
50.73170 554.000
50.75164 565.000
50.77159 517.000
50.79154 492.000
50.81148 554.000
50.83143 553.000
50.85138 509.000
50.87132 492.000
50.89127 578.000
50.91122 520.000
50.93117 578.000
50.95111 482.000
50.97106 556.000
50.99101 543.000
51.01095 564.000
51.03090 535.000
51.05085 559.000
51.07079 543.000
51.09074 527.000
51.11069 579.000
51.13064 569.000
51.15058 572.000
51.17053 562.000
51.19048 572.000
51.21042 560.000
51.23037 591.000
51.25032 570.000
51.27026 580.000
51.29021 608.000
51.31016 591.000
51.33010 563.000
51.35005 586.000
51.37000 569.000
51.38995 575.000
51.40989 621.000
51.42984 581.000
51.44979 552.000
51.46973 575.000
51.48968 543.000
51.50963 546.000
51.52957 513.000
51.54952 531.000
51.56947 584.000
51.58942 533.000
51.60936 566.000
51.62931 573.000
51.64926 545.000
51.66920 487.000
51.68915 518.000
51.70910 546.000
51.72904 544.000
51.74899 569.000
51.76894 537.000
51.78888 519.000
51.80883 552.000
51.82878 544.000
51.84873 509.000
51.86867 567.000
51.88862 529.000
51.90857 533.000
51.92851 579.000
51.94846 578.000
51.96841 580.000
51.98835 637.000
52.00830 615.000
52.02825 638.000
52.04820 621.000
52.06814 716.000
52.08809 628.000
52.10804 671.000
52.12798 629.000
52.14793 628.000
52.16788 631.000
52.18782 609.000
52.20777 674.000
52.22772 629.000
52.24767 599.000
52.26761 555.000
52.28756 547.000
52.30751 559.000
52.32745 605.000
52.34740 570.000
52.36735 548.000
52.38729 542.000
52.40724 567.000
52.42719 562.000
52.44713 499.000
52.46708 558.000
52.48703 529.000
52.50698 581.000
52.52692 509.000
52.54687 581.000
52.56682 512.000
52.58676 542.000
52.60671 527.000
52.62666 580.000
52.64660 560.000
52.66655 518.000
52.68650 551.000
52.70645 559.000
52.72639 554.000
52.74634 561.000
52.76629 536.000
52.78623 574.000
52.80618 602.000
52.82613 590.000
52.84607 578.000
52.86602 584.000
52.88597 589.000
52.90591 606.000
52.92586 604.000
52.94581 633.000
52.96576 592.000
52.98570 631.000
53.00565 656.000
53.02560 663.000
53.04554 623.000
53.06549 656.000
53.08544 654.000
53.10538 657.000
53.12533 650.000
53.14528 702.000
53.16523 719.000
53.18517 783.000
53.20512 821.000
53.22507 814.000
53.24501 855.000
53.26496 812.000
53.28491 856.000
53.30485 838.000
53.32480 865.000
53.34475 877.000
53.36469 861.000
53.38464 816.000
53.40459 804.000
53.42454 798.000
53.44448 751.000
53.46443 769.000
53.48438 686.000
53.50432 754.000
53.52427 732.000
53.54422 699.000
53.56416 647.000
53.58411 682.000
53.60406 651.000
53.62401 632.000
53.64395 606.000
53.66390 563.000
53.68385 586.000
53.70379 547.000
53.72374 594.000
53.74369 589.000
53.76363 551.000
53.78358 550.000
53.80353 552.000
53.82348 545.000
53.84342 552.000
53.86337 499.000
53.88332 538.000
53.90326 576.000
53.92321 508.000
53.94316 553.000
53.96310 568.000
53.98305 550.000
54.00300 537.000
54.02294 521.000
54.04289 524.000
54.06284 540.000
54.08279 566.000
54.10273 533.000
54.12268 540.000
54.14263 513.000
54.16257 553.000
54.18252 550.000
54.20247 536.000
54.22241 532.000
54.24236 534.000
54.26231 550.000
54.28226 563.000
54.30220 505.000
54.32215 525.000
54.34210 526.000
54.36204 540.000
54.38199 525.000
54.40194 519.000
54.42188 573.000
54.44183 551.000
54.46178 512.000
54.48172 493.000
54.50167 536.000
54.52162 525.000
54.54157 573.000
54.56151 520.000
54.58146 560.000
54.60141 544.000
54.62135 472.000
54.64130 493.000
54.66125 563.000
54.68119 538.000
54.70114 517.000
54.72109 521.000
54.74104 534.000
54.76098 584.000
54.78093 538.000
54.80088 584.000
54.82082 514.000
54.84077 534.000
54.86072 520.000
54.88066 549.000
54.90061 503.000
54.92056 554.000
54.94050 516.000
54.96045 557.000
54.98040 519.000
55.00035 505.000
55.02029 571.000
55.04024 521.000
55.06019 567.000
55.08013 518.000
55.10008 524.000
55.12003 534.000
55.13997 523.000
55.15992 558.000
55.17987 536.000
55.19982 525.000
55.21976 502.000
55.23971 506.000
55.25966 542.000
55.27960 506.000
55.29955 537.000
55.31950 535.000
55.33944 562.000
55.35939 542.000
55.37934 584.000
55.39929 516.000
55.41923 515.000
55.43918 529.000
55.45913 498.000
55.47907 523.000
55.49902 555.000
55.51897 516.000
55.53891 526.000
55.55886 524.000
55.57881 524.000
55.59875 526.000
55.61870 533.000
55.63865 529.000
55.65860 565.000
55.67854 538.000
55.69849 520.000
55.71844 542.000
55.73838 510.000
55.75833 562.000
55.77828 532.000
55.79822 480.000
55.81817 541.000
55.83812 537.000
55.85807 520.000
55.87801 550.000
55.89796 556.000
55.91791 575.000
55.93785 525.000
55.95780 545.000
55.97775 567.000
55.99769 564.000
56.01764 532.000
56.03759 504.000
56.05753 496.000
56.07748 508.000
56.09743 520.000
56.11738 580.000
56.13732 516.000
56.15727 551.000
56.17722 508.000
56.19716 565.000
56.21711 512.000
56.23706 555.000
56.25700 559.000
56.27695 526.000
56.29690 529.000
56.31685 556.000
56.33679 511.000
56.35674 603.000
56.37669 519.000
56.39663 539.000
56.41658 550.000
56.43653 572.000
56.45647 525.000
56.47642 538.000
56.49637 593.000
56.51631 564.000
56.53626 569.000
56.55621 589.000
56.57616 549.000
56.59610 596.000
56.61605 562.000
56.63600 583.000
56.65594 577.000
56.67589 586.000
56.69584 532.000
56.71578 544.000
56.73573 576.000
56.75568 570.000
56.77563 540.000
56.79557 544.000
56.81552 541.000
56.83547 562.000
56.85541 553.000
56.87536 525.000
56.89531 516.000
56.91525 559.000
56.93520 551.000
56.95515 553.000
56.97510 514.000
56.99504 566.000
57.01499 550.000
57.03494 500.000
57.05488 497.000
57.07483 570.000
57.09478 560.000
57.11472 514.000
57.13467 551.000
57.15462 570.000
57.17456 574.000
57.19451 572.000
57.21446 543.000
57.23441 565.000
57.25435 555.000
57.27430 601.000
57.29425 540.000
57.31419 552.000
57.33414 575.000
57.35409 544.000
57.37403 546.000
57.39398 564.000
57.41393 554.000
57.43388 547.000
57.45382 583.000
57.47377 557.000
57.49372 608.000
57.51366 553.000
57.53361 545.000
57.55356 587.000
57.57350 560.000
57.59345 542.000
57.61340 574.000
57.63334 579.000
57.65329 528.000
57.67324 584.000
57.69319 575.000
57.71313 516.000
57.73308 505.000
57.75303 571.000
57.77297 549.000
57.79292 556.000
57.81287 580.000
57.83281 537.000
57.85276 550.000
57.87271 539.000
57.89266 586.000
57.91260 644.000
57.93255 565.000
57.95250 631.000
57.97244 588.000
57.99239 627.000
58.01234 607.000
58.03228 640.000
58.05223 641.000
58.07218 656.000
58.09212 733.000
58.11207 734.000
58.13202 825.000
58.15197 830.000
58.17191 913.000
58.19186 1041.000
58.21181 1068.000
58.23175 1171.000
58.25170 1182.000
58.27165 1221.000
58.29159 1070.000
58.31154 1002.000
58.33149 924.000
58.35144 947.000
58.37138 920.000
58.39133 916.000
58.41128 936.000
58.43122 847.000
58.45117 817.000
58.47112 738.000
58.49106 717.000
58.51101 685.000
58.53096 652.000
58.55090 635.000
58.57085 630.000
58.59080 577.000
58.61075 661.000
58.63069 569.000
58.65064 550.000
58.67059 549.000
58.69053 578.000
58.71048 597.000
58.73043 522.000
58.75037 563.000
58.77032 532.000
58.79027 526.000
58.81022 556.000
58.83016 560.000
58.85011 537.000
58.87006 503.000
58.89000 545.000
58.90995 488.000
58.92990 532.000
58.94984 562.000
58.96979 542.000
58.98974 546.000
59.00969 479.000
59.02963 589.000
59.04958 549.000
59.06953 535.000
59.08947 541.000
59.10942 501.000
59.12937 542.000
59.14931 559.000
59.16926 553.000
59.18921 566.000
59.20915 589.000
59.22910 498.000
59.24905 564.000
59.26900 546.000
59.28894 556.000
59.30889 548.000
59.32884 558.000
59.34878 544.000
59.36873 567.000
59.38868 476.000
59.40862 527.000
59.42857 562.000
59.44852 539.000
59.46847 572.000
59.48841 535.000
59.50836 529.000
59.52831 569.000
59.54825 547.000
59.56820 540.000
59.58815 521.000
59.60809 546.000
59.62804 551.000
59.64799 538.000
59.66793 534.000
59.68788 480.000
59.70783 557.000
59.72778 535.000
59.74772 510.000
59.76767 543.000
59.78762 521.000
59.80756 500.000
59.82751 557.000
59.84746 545.000
59.86740 556.000
59.88735 543.000
59.90730 562.000
59.92725 529.000
59.94719 549.000
59.96714 540.000
59.98709 521.000
60.00703 554.000
60.02698 536.000
60.04693 558.000
60.06687 552.000
60.08682 595.000
60.10677 526.000
60.12671 548.000
60.14666 561.000
60.16661 583.000
60.18656 562.000
60.20650 563.000
60.22645 529.000
60.24640 565.000
60.26634 558.000
60.28629 580.000
60.30624 551.000
60.32618 536.000
60.34613 543.000
60.36608 544.000
60.38603 541.000
60.40597 583.000
60.42592 527.000
60.44587 530.000
60.46581 583.000
60.48576 538.000
60.50571 539.000
60.52565 544.000
60.54560 587.000
60.56555 554.000
60.58550 562.000
60.60544 585.000
60.62539 546.000
60.64534 561.000
60.66528 565.000
60.68523 546.000
60.70518 565.000
60.72512 564.000
60.74507 548.000
60.76502 523.000
60.78496 560.000
60.80491 553.000
60.82486 556.000
60.84481 546.000
60.86475 548.000
60.88470 571.000
60.90465 607.000
60.92459 571.000
60.94454 606.000
60.96449 537.000
60.98443 524.000
61.00438 550.000
61.02433 573.000
61.04428 593.000
61.06422 559.000
61.08417 598.000
61.10412 588.000
61.12406 618.000
61.14401 576.000
61.16396 567.000
61.18390 617.000
61.20385 611.000
61.22380 630.000
61.24374 604.000
61.26369 606.000
61.28364 671.000
61.30359 675.000
61.32353 672.000
61.34348 719.000
61.36343 673.000
61.38337 685.000
61.40332 727.000
61.42327 829.000
61.44321 882.000
61.46316 916.000
61.48311 1098.000
61.50306 1200.000
61.52300 1433.000
61.54295 1526.000
61.56290 1486.000
61.58284 1445.000
61.60279 1308.000
61.62274 1186.000
61.64268 1159.000
61.66263 1091.000
61.68258 1101.000
61.70252 1168.000
61.72247 1134.000
61.74242 1047.000
61.76237 976.000
61.78231 884.000
61.80226 836.000
61.82221 805.000
61.84215 731.000
61.86210 721.000
61.88205 629.000
61.90199 713.000
61.92194 710.000
61.94189 705.000
61.96184 644.000
61.98178 602.000
62.00173 648.000
62.02168 703.000
62.04162 668.000
62.06157 653.000
62.08152 670.000
62.10146 631.000
62.12141 729.000
62.14136 690.000
62.16131 687.000
62.18125 751.000
62.20120 675.000
62.22115 766.000
62.24109 761.000
62.26104 864.000
62.28099 801.000
62.30093 816.000
62.32088 874.000
62.34083 834.000
62.36077 873.000
62.38072 824.000
62.40067 813.000
62.42062 786.000
62.44056 800.000
62.46051 803.000
62.48046 804.000
62.50040 803.000
62.52035 827.000
62.54030 784.000
62.56024 752.000
62.58019 776.000
62.60014 748.000
62.62009 691.000
62.64003 742.000
62.65998 757.000
62.67993 753.000
62.69987 733.000
62.71982 653.000
62.73977 686.000
62.75971 694.000
62.77966 695.000
62.79961 646.000
62.81955 678.000
62.83950 665.000
62.85945 624.000
62.87940 657.000
62.89934 610.000
62.91929 625.000
62.93924 644.000
62.95918 609.000
62.97913 620.000
62.99908 593.000
63.01902 616.000
63.03897 621.000
63.05892 585.000
63.07887 585.000
63.09881 619.000
63.11876 564.000
63.13871 592.000
63.15865 568.000
63.17860 570.000
63.19855 602.000
63.21849 573.000
63.23844 649.000
63.25839 594.000
63.27833 608.000
63.29828 575.000
63.31823 546.000
63.33818 593.000
63.35812 567.000
63.37807 565.000
63.39802 562.000
63.41796 587.000
63.43791 575.000
63.45786 545.000
63.47780 566.000
63.49775 596.000
63.51770 578.000
63.53765 563.000
63.55759 566.000
63.57754 578.000
63.59749 577.000
63.61743 596.000
63.63738 544.000
63.65733 590.000
63.67727 561.000
63.69722 602.000
63.71717 572.000
63.73712 591.000
63.75706 633.000
63.77701 583.000
63.79696 555.000
63.81690 550.000
63.83685 634.000
63.85680 592.000
63.87674 556.000
63.89669 565.000
63.91664 599.000
63.93658 520.000
63.95653 569.000
63.97648 589.000
63.99643 580.000
64.01637 537.000
64.03632 580.000
64.05627 549.000
64.07621 605.000
64.09616 579.000
64.11611 627.000
64.13605 587.000
64.15600 653.000
64.17595 638.000
64.19590 635.000
64.21584 639.000
64.23579 630.000
64.25574 697.000
64.27568 675.000
64.29563 636.000
64.31558 695.000
64.33552 749.000
64.35547 801.000
64.37542 776.000
64.39536 781.000
64.41531 800.000
64.43526 762.000
64.45521 754.000
64.47515 755.000
64.49510 708.000
64.51505 793.000
64.53499 780.000
64.55494 748.000
64.57489 741.000
64.59483 742.000
64.61478 677.000
64.63473 657.000
64.65468 638.000
64.67462 654.000
64.69457 579.000
64.71452 565.000
64.73446 617.000
64.75441 651.000
64.77436 613.000
64.79430 576.000
64.81425 634.000
64.83420 597.000
64.85414 509.000
64.87409 600.000
64.89404 558.000
64.91399 543.000
64.93393 548.000
64.95388 573.000
64.97383 521.000
64.99377 559.000
65.01372 565.000
65.03367 562.000
65.05361 595.000
65.07356 564.000
65.09351 613.000
65.11346 576.000
65.13340 568.000
65.15335 600.000
65.17330 587.000
65.19324 602.000
65.21319 650.000
65.23314 574.000
65.25308 558.000
65.27303 589.000
65.29298 630.000
65.31293 613.000
65.33287 589.000
65.35282 636.000
65.37277 708.000
65.39271 699.000
65.41266 753.000
65.43261 755.000
65.45255 735.000
65.47250 741.000
65.49245 802.000
65.51239 826.000
65.53234 918.000
65.55229 954.000
65.57224 923.000
65.59218 1003.000
65.61213 1062.000
65.63208 1019.000
65.65202 1035.000
65.67197 1089.000
65.69192 1063.000
65.71186 1014.000
65.73181 1039.000
65.75176 1051.000
65.77171 1028.000
65.79165 1010.000
65.81160 979.000
65.83155 925.000
65.85149 958.000
65.87144 876.000
65.89139 872.000
65.91133 839.000
65.93128 826.000
65.95123 834.000
65.97117 788.000
65.99112 736.000
66.01107 771.000
66.03102 698.000
66.05096 669.000
66.07091 706.000
66.09086 768.000
66.11080 711.000
66.13075 711.000
66.15070 688.000
66.17064 713.000
66.19059 758.000
66.21054 754.000
66.23049 753.000
66.25043 840.000
66.27038 834.000
66.29033 952.000
66.31027 1031.000
66.33022 1076.000
66.35017 1154.000
66.37011 1251.000
66.39006 1176.000
66.41001 1202.000
66.42995 1109.000
66.44990 1071.000
66.46985 1037.000
66.48980 986.000
66.50974 927.000
66.52969 947.000
66.54964 944.000
66.56958 963.000
66.58953 950.000
66.60948 946.000
66.62942 854.000
66.64937 818.000
66.66932 799.000
66.68927 724.000
66.70921 813.000
66.72916 820.000
66.74911 799.000
66.76905 774.000
66.78900 750.000
66.80895 750.000
66.82889 733.000
66.84884 725.000
66.86879 712.000
66.88874 703.000
66.90868 750.000
66.92863 717.000
66.94858 688.000
66.96852 674.000
66.98847 696.000
67.00842 712.000
67.02836 706.000
67.04831 707.000
67.06826 664.000
67.08820 655.000
67.10815 670.000
67.12810 659.000
67.14805 633.000
67.16799 689.000
67.18794 674.000
67.20789 660.000
67.22783 640.000
67.24778 661.000
67.26773 615.000
67.28767 677.000
67.30762 669.000
67.32757 653.000
67.34752 643.000
67.36746 675.000
67.38741 678.000
67.40736 659.000
67.42730 671.000
67.44725 622.000
67.46720 673.000
67.48714 652.000
67.50709 688.000
67.52704 702.000
67.54698 621.000
67.56693 658.000
67.58688 627.000
67.60683 687.000
67.62677 724.000
67.64672 700.000
67.66667 782.000
67.68661 729.000
67.70656 759.000
67.72651 827.000
67.74645 885.000
67.76640 955.000
67.78635 889.000
67.80630 952.000
67.82624 946.000
67.84619 941.000
67.86614 919.000
67.88608 1054.000
67.90603 1018.000
67.92598 1204.000
67.94592 1232.000
67.96587 1239.000
67.98582 1201.000
68.00576 1169.000
68.02571 1125.000
68.04566 1015.000
68.06561 1072.000
68.08555 1014.000
68.10550 959.000
68.12545 900.000
68.14539 911.000
68.16534 923.000
68.18529 923.000
68.20523 908.000
68.22518 800.000
68.24513 887.000
68.26508 784.000
68.28502 779.000
68.30497 732.000
68.32492 684.000
68.34486 696.000
68.36481 660.000
68.38476 657.000
68.40470 632.000
68.42465 629.000
68.44460 589.000
68.46455 587.000
68.48449 573.000
68.50444 549.000
68.52439 549.000
68.54433 591.000
68.56428 588.000
68.58423 543.000
68.60417 551.000
68.62412 513.000
68.64407 609.000
68.66401 592.000
68.68396 605.000
68.70391 582.000
68.72386 516.000
68.74380 581.000
68.76375 591.000
68.78370 544.000
68.80364 596.000
68.82359 589.000
68.84354 567.000
68.86348 542.000
68.88343 573.000
68.90338 551.000
68.92333 587.000
68.94327 565.000
68.96322 527.000
68.98317 554.000
69.00311 515.000
69.02306 552.000
69.04301 579.000
69.06295 585.000
69.08290 547.000
69.10285 547.000
69.12279 560.000
69.14274 536.000
69.16269 514.000
69.18264 536.000
69.20258 550.000
69.22253 559.000
69.24248 533.000
69.26242 533.000
69.28237 521.000
69.30232 545.000
69.32226 575.000
69.34221 550.000
69.36216 544.000
69.38211 550.000
69.40205 522.000
69.42200 601.000
69.44195 554.000
69.46189 521.000
69.48184 537.000
69.50179 529.000
69.52173 497.000
69.54168 575.000
69.56163 559.000
69.58157 511.000
69.60152 562.000
69.62147 523.000
69.64142 533.000
69.66136 546.000
69.68131 569.000
69.70126 527.000
69.72120 547.000
69.74115 566.000
69.76110 541.000
69.78104 524.000
69.80099 498.000
69.82094 499.000
69.84089 539.000
69.86083 591.000
69.88078 542.000
69.90073 516.000
69.92067 552.000
69.94062 548.000
69.96057 548.000
69.98051 522.000
70.00046 574.000
70.02041 538.000
70.04035 510.000
70.06030 549.000
70.08025 508.000
70.10020 544.000
70.12014 555.000
70.14009 546.000
70.16004 515.000
70.17998 544.000
70.19993 548.000
70.21988 549.000
70.23982 522.000
70.25977 574.000
70.27972 518.000
70.29967 513.000
70.31961 544.000
70.33956 547.000
70.35951 514.000
70.37945 545.000
70.39940 539.000
70.41935 517.000
70.43929 495.000
70.45924 564.000
70.47919 527.000
70.49914 575.000
70.51908 542.000
70.53903 512.000
70.55898 540.000
70.57892 504.000
70.59887 539.000
70.61882 555.000
70.63876 564.000
70.65871 537.000
70.67866 558.000
70.69860 524.000
70.71855 559.000
70.73850 540.000
70.75845 510.000
70.77839 484.000
70.79834 554.000
70.81829 540.000
70.83823 564.000
70.85818 546.000
70.87813 499.000
70.89807 570.000
70.91802 540.000
70.93797 567.000
70.95792 516.000
70.97786 501.000
70.99781 578.000
71.01776 556.000
71.03770 551.000
71.05765 555.000
71.07760 547.000
71.09754 513.000
71.11749 486.000
71.13744 539.000
71.15738 552.000
71.17733 561.000
71.19728 494.000
71.21723 575.000
71.23717 553.000
71.25712 538.000
71.27707 537.000
71.29701 520.000
71.31696 538.000
71.33691 593.000
71.35685 528.000
71.37680 574.000
71.39675 548.000
71.41670 502.000
71.43664 573.000
71.45659 543.000
71.47654 495.000
71.49648 544.000
71.51643 543.000
71.53638 536.000
71.55632 562.000
71.57627 532.000
71.59622 526.000
71.61616 533.000
71.63611 566.000
71.65606 534.000
71.67601 544.000
71.69595 574.000
71.71590 549.000
71.73585 516.000
71.75579 528.000
71.77574 591.000
71.79569 505.000
71.81563 547.000
71.83558 581.000
71.85553 543.000
71.87548 535.000
71.89542 564.000
71.91537 538.000
71.93532 576.000
71.95526 562.000
71.97521 565.000
71.99516 550.000
72.01510 619.000
72.03505 585.000
72.05500 559.000
72.07495 548.000
72.09489 582.000
72.11484 568.000
72.13479 583.000
72.15473 590.000
72.17468 588.000
72.19463 553.000
72.21457 573.000
72.23452 576.000
72.25447 580.000
72.27441 650.000
72.29436 652.000
72.31431 685.000
72.33426 686.000
72.35420 778.000
72.37415 772.000
72.39410 824.000
72.41404 860.000
72.43399 828.000
72.45394 749.000
72.47388 716.000
72.49383 688.000
72.51378 676.000
72.53373 703.000
72.55367 642.000
72.57362 671.000
72.59357 715.000
72.61351 699.000
72.63346 705.000
72.65341 703.000
72.67335 650.000
72.69330 571.000
72.71325 621.000
72.73319 637.000
72.75314 589.000
72.77309 601.000
72.79304 590.000
72.81298 572.000
72.83293 611.000
72.85288 590.000
72.87282 538.000
72.89277 569.000
72.91272 547.000
72.93266 551.000
72.95261 552.000
72.97256 551.000
72.99251 555.000
73.01245 555.000
73.03240 562.000
73.05235 586.000
73.07229 512.000
73.09224 560.000
73.11219 563.000
73.13213 577.000
73.15208 542.000
73.17203 561.000
73.19197 555.000
73.21192 571.000
73.23187 558.000
73.25182 584.000
73.27176 557.000
73.29171 538.000
73.31166 494.000
73.33160 540.000
73.35155 554.000
73.37150 592.000
73.39144 586.000
73.41139 565.000
73.43134 537.000
73.45129 578.000
73.47123 535.000
73.49118 606.000
73.51113 489.000
73.53107 585.000
73.55102 583.000
73.57097 567.000
73.59091 576.000
73.61086 561.000
73.63081 553.000
73.65076 567.000
73.67070 567.000
73.69065 585.000
73.71060 593.000
73.73054 615.000
73.75049 578.000
73.77044 579.000
73.79038 589.000
73.81033 648.000
73.83028 597.000
73.85022 636.000
73.87017 597.000
73.89012 581.000
73.91007 636.000
73.93001 595.000
73.94996 595.000
73.96991 619.000
73.98985 582.000
74.00980 556.000
74.02975 602.000
74.04969 608.000
74.06964 622.000
74.08959 524.000
74.10954 546.000
74.12948 586.000
74.14943 601.000
74.16938 568.000
74.18932 546.000
74.20927 556.000
74.22922 570.000
74.24916 552.000
74.26911 537.000
74.28906 557.000
74.30900 539.000
74.32895 564.000
74.34890 570.000
74.36885 575.000
74.38879 529.000
74.40874 599.000
74.42869 569.000
74.44863 576.000
74.46858 582.000
74.48853 584.000
74.50847 589.000
74.52842 574.000
74.54837 557.000
74.56832 555.000
74.58826 551.000
74.60821 581.000
74.62816 575.000
74.64810 574.000
74.66805 608.000
74.68800 557.000
74.70794 602.000
74.72789 612.000
74.74784 659.000
74.76778 615.000
74.78773 634.000
74.80768 643.000
74.82763 633.000
74.84757 686.000
74.86752 678.000
74.88747 717.000
74.90741 769.000
74.92736 879.000
74.94731 883.000
74.96725 895.000
74.98720 845.000
75.00715 800.000
75.02710 759.000
75.04704 771.000
75.06699 795.000
75.08694 778.000
75.10688 808.000
75.12683 873.000
75.14678 854.000
75.16672 907.000
75.18667 901.000
75.20662 879.000
75.22657 878.000
75.24651 890.000
75.26646 794.000
75.28641 854.000
75.30635 779.000
75.32630 720.000
75.34625 748.000
75.36619 716.000
75.38614 740.000
75.40609 718.000
75.42603 707.000
75.44598 716.000
75.46593 658.000
75.48588 650.000
75.50582 646.000
75.52577 612.000
75.54572 626.000
75.56566 589.000
75.58561 600.000
75.60556 588.000
75.62550 599.000
75.64545 576.000
75.66540 581.000
75.68535 549.000
75.70529 574.000
75.72524 602.000
75.74519 601.000
75.76513 570.000
75.78508 535.000
75.80503 568.000
75.82497 514.000
75.84492 620.000
75.86487 548.000
75.88481 604.000
75.90476 584.000
75.92471 526.000
75.94466 552.000
75.96460 583.000
75.98455 535.000
76.00450 564.000
76.02444 570.000
76.04439 585.000
76.06434 574.000
76.08428 530.000
76.10423 593.000
76.12418 562.000
76.14413 577.000
76.16407 535.000
76.18402 557.000
76.20397 607.000
76.22391 581.000
76.24386 523.000
76.26381 596.000
76.28375 566.000
76.30370 559.000
76.32365 550.000
76.34359 535.000
76.36354 593.000
76.38349 555.000
76.40344 502.000
76.42338 559.000
76.44333 530.000
76.46328 524.000
76.48322 549.000
76.50317 564.000
76.52312 593.000
76.54306 528.000
76.56301 552.000
76.58296 537.000
76.60291 520.000
76.62285 544.000
76.64280 558.000
76.66275 535.000
76.68269 531.000
76.70264 545.000
76.72259 569.000
76.74253 554.000
76.76248 532.000
76.78243 528.000
76.80238 576.000
76.82232 559.000
76.84227 576.000
76.86222 526.000
76.88216 556.000
76.90211 551.000
76.92206 551.000
76.94200 568.000
76.96195 615.000
76.98190 556.000
77.00184 540.000
77.02179 514.000
77.04174 571.000
77.06169 533.000
77.08163 545.000
77.10158 575.000
77.12153 522.000
77.14147 527.000
77.16142 567.000
77.18137 537.000
77.20131 553.000
77.22126 556.000
77.24121 549.000
77.26116 532.000
77.28110 517.000
77.30105 520.000
77.32100 550.000
77.34094 561.000
77.36089 542.000
77.38084 525.000
77.40078 551.000
77.42073 540.000
77.44068 523.000
77.46062 536.000
77.48057 550.000
77.50052 524.000
77.52047 555.000
77.54041 558.000
77.56036 538.000
77.58031 518.000
77.60025 526.000
77.62020 547.000
77.64015 532.000
77.66009 549.000
77.68004 512.000
77.69999 532.000
77.71994 552.000
77.73988 528.000
77.75983 533.000
77.77978 560.000
77.79972 537.000
77.81967 557.000
77.83962 541.000
77.85956 544.000
77.87951 575.000
77.89946 589.000
77.91940 549.000
77.93935 528.000
77.95930 522.000
77.97925 530.000
77.99919 568.000
78.01914 602.000
78.03909 596.000
78.05903 554.000
78.07898 565.000
78.09893 570.000
78.11887 579.000
78.13882 588.000
78.15877 548.000
78.17872 610.000
78.19866 589.000
78.21861 572.000
78.23856 613.000
78.25850 579.000
78.27845 623.000
78.29840 593.000
78.31834 567.000
78.33829 580.000
78.35824 647.000
78.37819 553.000
78.39813 565.000
78.41808 562.000
78.43803 587.000
78.45797 596.000
78.47792 612.000
78.49787 564.000
78.51781 604.000
78.53776 621.000
78.55771 532.000
78.57765 588.000
78.59760 604.000
78.61755 577.000
78.63750 568.000
78.65744 610.000
78.67739 615.000
78.69734 621.000
78.71728 636.000
78.73723 590.000
78.75718 619.000
78.77712 609.000
78.79707 595.000
78.81702 596.000
78.83697 602.000
78.85691 603.000
78.87686 621.000
78.89681 608.000
78.91675 607.000
78.93670 603.000
78.95665 620.000
78.97659 585.000
78.99654 584.000
79.01649 568.000
79.03643 574.000
79.05638 574.000
79.07633 579.000
79.09628 578.000
79.11622 570.000
79.13617 570.000
79.15612 572.000
79.17606 599.000
79.19601 614.000
79.21596 599.000
79.23590 609.000
79.25585 560.000
79.27580 575.000
79.29575 574.000
79.31569 532.000
79.33564 566.000
79.35559 568.000
79.37553 564.000
79.39548 597.000
79.41543 604.000
79.43537 549.000
79.45532 550.000
79.47527 550.000
79.49521 543.000
79.51516 576.000
79.53511 551.000
79.55506 551.000
79.57500 555.000
79.59495 568.000
79.61490 545.000
79.63484 523.000
79.65479 527.000
79.67474 581.000
79.69468 580.000
79.71463 552.000
79.73458 519.000
79.75453 547.000
79.77447 525.000
79.79442 543.000
79.81437 524.000
79.83431 553.000
79.85426 577.000
79.87421 559.000
79.89415 519.000
79.91410 541.000
79.93405 527.000
79.95399 537.000
79.97394 532.000
79.99389 545.000
80.01384 551.000
80.03378 586.000
80.05373 535.000
80.07368 526.000
80.09362 542.000
80.11357 575.000
80.13352 587.000
80.15346 536.000
80.17341 572.000
80.19336 549.000
80.21331 580.000
80.23325 623.000
80.25320 566.000
80.27315 615.000
80.29309 649.000
80.31304 641.000
80.33299 645.000
80.35293 631.000
80.37288 628.000
80.39283 602.000
80.41278 564.000
80.43272 546.000
80.45267 570.000
80.47262 583.000
80.49256 541.000
80.51251 584.000
80.53246 604.000
80.55240 603.000
80.57235 610.000
80.59230 585.000
80.61224 587.000
80.63219 547.000
80.65214 569.000
80.67209 532.000
80.69203 535.000
80.71198 543.000
80.73193 502.000
80.75187 523.000
80.77182 545.000
80.79177 533.000
80.81171 533.000
80.83166 609.000
80.85161 530.000
80.87156 598.000
80.89150 548.000
80.91145 559.000
80.93140 513.000
80.95134 533.000
80.97129 529.000
80.99124 555.000
81.01118 560.000
81.03113 589.000
81.05108 577.000
81.07102 562.000
81.09097 582.000
81.11092 565.000
81.13087 545.000
81.15081 562.000
81.17076 580.000
81.19071 531.000
81.21065 516.000
81.23060 512.000
81.25055 545.000
81.27049 531.000
81.29044 564.000
81.31039 557.000
81.33034 491.000
81.35028 565.000
81.37023 559.000
81.39018 540.000
81.41012 584.000
81.43007 506.000
81.45002 557.000
81.46996 508.000
81.48991 508.000
81.50986 554.000
81.52980 573.000
81.54975 522.000
81.56970 488.000
81.58965 526.000
81.60959 535.000
81.62954 517.000
81.64949 512.000
81.66943 533.000
81.68938 555.000
81.70933 541.000
81.72927 547.000
81.74922 540.000
81.76917 519.000
81.78912 560.000
81.80906 580.000
81.82901 528.000
81.84896 542.000
81.86890 501.000
81.88885 534.000
81.90880 552.000
81.92874 547.000
81.94869 534.000
81.96864 495.000
81.98859 566.000
82.00853 590.000
82.02848 547.000
82.04843 560.000
82.06837 555.000
82.08832 555.000
82.10827 561.000
82.12821 571.000
82.14816 561.000
82.16811 554.000
82.18805 561.000
82.20800 542.000
82.22795 577.000
82.24790 576.000
82.26784 546.000
82.28779 592.000
82.30774 525.000
82.32768 605.000
82.34763 572.000
82.36758 585.000
82.38752 593.000
82.40747 625.000
82.42742 604.000
82.44737 658.000
82.46731 645.000
82.48726 653.000
82.50721 651.000
82.52715 669.000
82.54710 725.000
82.56705 676.000
82.58699 733.000
82.60694 683.000
82.62689 725.000
82.64683 690.000
82.66678 685.000
82.68673 676.000
82.70668 658.000
82.72662 744.000
82.74657 750.000
82.76652 672.000
82.78646 678.000
82.80641 712.000
82.82636 755.000
82.84630 734.000
82.86625 754.000
82.88620 677.000
82.90615 706.000
82.92609 685.000
82.94604 690.000
82.96599 640.000
82.98593 661.000
83.00588 615.000
83.02583 653.000
83.04577 645.000
83.06572 618.000
83.08567 673.000
83.10561 629.000
83.12556 642.000
83.14551 606.000
83.16546 628.000
83.18540 601.000
83.20535 633.000
83.22530 610.000
83.24524 592.000
83.26519 593.000
83.28514 603.000
83.30508 590.000
83.32503 577.000
83.34498 579.000
83.36493 617.000
83.38487 568.000
83.40482 547.000
83.42477 574.000
83.44471 555.000
83.46466 587.000
83.48461 612.000
83.50455 573.000
83.52450 579.000
83.54445 586.000
83.56440 593.000
83.58434 632.000
83.60429 577.000
83.62424 566.000
83.64418 628.000
83.66413 603.000
83.68408 607.000
83.70402 591.000
83.72397 657.000
83.74392 620.000
83.76386 628.000
83.78381 666.000
83.80376 639.000
83.82371 655.000
83.84365 667.000
83.86360 644.000
83.88355 642.000
83.90349 664.000
83.92344 598.000
83.94339 560.000
83.96333 639.000
83.98328 622.000
84.00323 630.000
84.02318 606.000
84.04312 631.000
84.06307 593.000
84.08302 583.000
84.10296 616.000
84.12291 600.000
84.14286 609.000
84.16280 584.000
84.18275 593.000
84.20270 609.000
84.22264 591.000
84.24259 550.000
84.26254 571.000
84.28249 555.000
84.30243 532.000
84.32238 547.000
84.34233 635.000
84.36227 579.000
84.38222 600.000
84.40217 565.000
84.42211 562.000
84.44206 591.000
84.46201 567.000
84.48196 538.000
84.50190 587.000
84.52185 559.000
84.54180 569.000
84.56174 544.000
84.58169 553.000
84.60164 547.000
84.62158 564.000
84.64153 575.000
84.66148 569.000
84.68142 517.000
84.70137 563.000
84.72132 533.000
84.74127 554.000
84.76121 589.000
84.78116 622.000
84.80111 580.000
84.82105 588.000
84.84100 582.000
84.86095 554.000
84.88089 563.000
84.90084 638.000
84.92079 622.000
84.94074 594.000
84.96068 579.000
84.98063 544.000
85.00058 582.000
85.02052 593.000
85.04047 595.000
85.06042 561.000
85.08036 570.000
85.10031 599.000
85.12026 636.000
85.14021 589.000
85.16015 576.000
85.18010 586.000
85.20005 593.000
85.21999 539.000
85.23994 568.000
85.25989 550.000
85.27983 573.000
85.29978 534.000
85.31973 495.000
85.33967 568.000
85.35962 564.000
85.37957 591.000
85.39952 553.000
85.41946 542.000
85.43941 558.000
85.45936 586.000
85.47930 528.000
85.49925 536.000
85.51920 472.000
85.53914 502.000
85.55909 577.000
85.57904 533.000
85.59899 540.000
85.61893 569.000
85.63888 524.000
85.65883 501.000
85.67877 548.000
85.69872 505.000
85.71867 528.000
85.73861 552.000
85.75856 532.000
85.77851 537.000
85.79845 534.000
85.81840 546.000
85.83835 547.000
85.85830 512.000
85.87824 546.000
85.89819 522.000
85.91814 530.000
85.93808 529.000
85.95803 550.000
85.97798 559.000
85.99792 535.000
86.01787 546.000
86.03782 558.000
86.05777 527.000
86.07771 558.000
86.09766 536.000
86.11761 558.000
86.13755 555.000
86.15750 525.000
86.17745 572.000
86.19739 543.000
86.21734 535.000
86.23729 572.000
86.25723 537.000
86.27718 567.000
86.29713 541.000
86.31708 518.000
86.33702 566.000
86.35697 554.000
86.37692 536.000
86.39686 540.000
86.41681 517.000
86.43676 528.000
86.45670 524.000
86.47665 555.000
86.49660 547.000
86.51655 543.000
86.53649 565.000
86.55644 545.000
86.57639 606.000
86.59633 546.000
86.61628 537.000
86.63623 578.000
86.65617 586.000
86.67612 589.000
86.69607 581.000
86.71602 590.000
86.73596 552.000
86.75591 583.000
86.77586 596.000
86.79580 580.000
86.81575 552.000
86.83570 618.000
86.85564 568.000
86.87559 585.000
86.89554 574.000
86.91548 607.000
86.93543 639.000
86.95538 602.000
86.97533 599.000
86.99527 577.000
87.01522 620.000
87.03517 583.000
87.05511 570.000
87.07506 577.000
87.09501 594.000
87.11495 599.000
87.13490 599.000
87.15485 568.000
87.17480 617.000
87.19474 574.000
87.21469 652.000
87.23464 585.000
87.25458 607.000
87.27453 589.000
87.29448 584.000
87.31442 581.000
87.33437 608.000
87.35432 549.000
87.37426 560.000
87.39421 551.000
87.41416 600.000
87.43411 605.000
87.45405 580.000
87.47400 512.000
87.49395 554.000
87.51389 600.000
87.53384 543.000
87.55379 571.000
87.57373 553.000
87.59368 533.000
87.61363 615.000
87.63358 511.000
87.65352 602.000
87.67347 581.000
87.69342 541.000
87.71336 540.000
87.73331 563.000
87.75326 542.000
87.77320 527.000
87.79315 557.000
87.81310 583.000
87.83304 558.000
87.85299 566.000
87.87294 527.000
87.89289 569.000
87.91283 565.000
87.93278 504.000
87.95273 571.000
87.97267 564.000
87.99262 564.000
88.01257 543.000
88.03251 574.000
88.05246 518.000
88.07241 561.000
88.09236 514.000
88.11230 568.000
88.13225 507.000
88.15220 533.000
88.17214 539.000
88.19209 526.000
88.21204 585.000
88.23198 555.000
88.25193 530.000
88.27188 515.000
88.29183 529.000
88.31177 588.000
88.33172 605.000
88.35167 604.000
88.37161 535.000
88.39156 536.000
88.41151 594.000
88.43145 533.000
88.45140 501.000
88.47135 539.000
88.49129 561.000
88.51124 548.000
88.53119 584.000
88.55114 541.000
88.57108 574.000
88.59103 540.000
88.61098 560.000
88.63092 561.000
88.65087 547.000
88.67082 558.000
88.69076 529.000
88.71071 560.000
88.73066 505.000
88.75061 545.000
88.77055 509.000
88.79050 557.000
88.81045 577.000
88.83039 537.000
88.85034 543.000
88.87029 527.000
88.89023 542.000
88.91018 570.000
88.93013 559.000
88.95007 556.000
88.97002 576.000
88.98997 575.000
89.00992 533.000
89.02986 564.000
89.04981 563.000
89.06976 577.000
89.08970 552.000
89.10965 600.000
89.12960 579.000
89.14954 620.000
89.16949 540.000
89.18944 586.000
89.20939 542.000
89.22933 556.000
89.24928 594.000
89.26923 583.000
89.28917 621.000
89.30912 630.000
89.32907 588.000
89.34901 605.000
89.36896 655.000
89.38891 641.000
89.40885 662.000
89.42880 614.000
89.44875 676.000
89.46870 668.000
89.48864 636.000
89.50859 652.000
89.52854 617.000
89.54848 667.000
89.56843 653.000
89.58838 608.000
89.60832 629.000
89.62827 623.000
89.64822 627.000
89.66817 660.000
89.68811 659.000
89.70806 616.000
89.72801 617.000
89.74795 606.000
89.76790 643.000
89.78785 581.000
89.80779 588.000
89.82774 593.000
89.84769 589.000
89.86764 572.000
89.88758 626.000
89.90753 570.000
89.92748 585.000
89.94742 601.000
89.96737 533.000
89.98732 582.000
90.00726 535.000
