10.00000 205.000
10.01995 177.000
10.03989 229.000
10.05984 190.000
10.07979 185.000
10.09973 211.000
10.11968 226.000
10.13963 206.000
10.15958 188.000
10.17952 202.000
10.19947 190.000
10.21942 192.000
10.23936 201.000
10.25931 221.000
10.27926 181.000
10.29920 199.000
10.31915 185.000
10.33910 202.000
10.35905 188.000
10.37899 166.000
10.39894 189.000
10.41889 194.000
10.43883 189.000
10.45878 215.000
10.47873 198.000
10.49867 200.000
10.51862 192.000
10.53857 187.000
10.55851 183.000
10.57846 227.000
10.59841 193.000
10.61836 200.000
10.63830 204.000
10.65825 201.000
10.67820 198.000
10.69814 196.000
10.71809 190.000
10.73804 209.000
10.75798 198.000
10.77793 205.000
10.79788 204.000
10.81783 206.000
10.83777 203.000
10.85772 223.000
10.87767 221.000
10.89761 193.000
10.91756 194.000
10.93751 186.000
10.95745 232.000
10.97740 195.000
10.99735 185.000
11.01730 217.000
11.03724 200.000
11.05719 195.000
11.07714 201.000
11.09708 202.000
11.11703 214.000
11.13698 182.000
11.15692 174.000
11.17687 206.000
11.19682 177.000
11.21676 219.000
11.23671 198.000
11.25666 196.000
11.27661 221.000
11.29655 205.000
11.31650 211.000
11.33645 181.000
11.35639 200.000
11.37634 217.000
11.39629 206.000
11.41623 208.000
11.43618 197.000
11.45613 206.000
11.47608 216.000
11.49602 207.000
11.51597 224.000
11.53592 192.000
11.55586 199.000
11.57581 217.000
11.59576 187.000
11.61570 187.000
11.63565 214.000
11.65560 195.000
11.67554 195.000
11.69549 231.000
11.71544 207.000
11.73539 204.000
11.75533 203.000
11.77528 182.000
11.79523 204.000
11.81517 190.000
11.83512 190.000
11.85507 197.000
11.87501 193.000
11.89496 200.000
11.91491 186.000
11.93486 227.000
11.95480 183.000
11.97475 209.000
11.99470 214.000
12.01464 202.000
12.03459 212.000
12.05454 216.000
12.07448 203.000
12.09443 183.000
12.11438 202.000
12.13432 214.000
12.15427 204.000
12.17422 180.000
12.19417 195.000
12.21411 190.000
12.23406 191.000
12.25401 192.000
12.27395 209.000
12.29390 221.000
12.31385 214.000
12.33379 189.000
12.35374 221.000
12.37369 195.000
12.39364 229.000
12.41358 212.000
12.43353 191.000
12.45348 218.000
12.47342 186.000
12.49337 205.000
12.51332 205.000
12.53326 215.000
12.55321 165.000
12.57316 203.000
12.59311 186.000
12.61305 204.000
12.63300 201.000
12.65295 201.000
12.67289 175.000
12.69284 201.000
12.71279 182.000
12.73273 207.000
12.75268 219.000
12.77263 193.000
12.79257 182.000
12.81252 206.000
12.83247 189.000
12.85242 210.000
12.87236 204.000
12.89231 200.000
12.91226 220.000
12.93220 210.000
12.95215 194.000
12.97210 199.000
12.99204 226.000
13.01199 200.000
13.03194 199.000
13.05189 207.000
13.07183 179.000
13.09178 194.000
13.11173 196.000
13.13167 217.000
13.15162 203.000
13.17157 207.000
13.19151 217.000
13.21146 208.000
13.23141 213.000
13.25135 203.000
13.27130 210.000
13.29125 196.000
13.31120 195.000
13.33114 215.000
13.35109 202.000
13.37104 194.000
13.39098 214.000
13.41093 186.000
13.43088 200.000
13.45082 207.000
13.47077 196.000
13.49072 205.000
13.51067 202.000
13.53061 202.000
13.55056 199.000
13.57051 220.000
13.59045 219.000
13.61040 182.000
13.63035 203.000
13.65029 193.000
13.67024 212.000
13.69019 218.000
13.71013 205.000
13.73008 204.000
13.75003 202.000
13.76998 200.000
13.78992 192.000
13.80987 207.000
13.82982 208.000
13.84976 223.000
13.86971 215.000
13.88966 219.000
13.90960 190.000
13.92955 197.000
13.94950 216.000
13.96945 203.000
13.98939 202.000
14.00934 200.000
14.02929 207.000
14.04923 208.000
14.06918 207.000
14.08913 202.000
14.10907 189.000
14.12902 174.000
14.14897 221.000
14.16892 219.000
14.18886 205.000
14.20881 198.000
14.22876 191.000
14.24870 216.000
14.26865 204.000
14.28860 188.000
14.30854 220.000
14.32849 219.000
14.34844 194.000
14.36838 214.000
14.38833 195.000
14.40828 189.000
14.42823 210.000
14.44817 186.000
14.46812 195.000
14.48807 202.000
14.50801 223.000
14.52796 180.000
14.54791 206.000
14.56785 214.000
14.58780 231.000
14.60775 190.000
14.62770 202.000
14.64764 198.000
14.66759 209.000
14.68754 227.000
14.70748 194.000
14.72743 199.000
14.74738 192.000
14.76732 191.000
14.78727 224.000
14.80722 214.000
14.82716 225.000
14.84711 183.000
14.86706 182.000
14.88701 197.000
14.90695 215.000
14.92690 220.000
14.94685 203.000
14.96679 248.000
14.98674 194.000
15.00669 186.000
15.02663 229.000
15.04658 231.000
15.06653 195.000
15.08648 211.000
15.10642 220.000
15.12637 220.000
15.14632 217.000
15.16626 213.000
15.18621 198.000
15.20616 210.000
15.22610 208.000
15.24605 236.000
15.26600 213.000
15.28594 213.000
15.30589 226.000
15.32584 213.000
15.34579 203.000
15.36573 233.000
15.38568 228.000
15.40563 211.000
15.42557 229.000
15.44552 226.000
15.46547 239.000
15.48541 246.000
15.50536 220.000
15.52531 244.000
15.54526 242.000
15.56520 211.000
15.58515 283.000
15.60510 266.000
15.62504 302.000
15.64499 293.000
15.66494 329.000
15.68488 352.000
15.70483 423.000
15.72478 513.000
15.74472 613.000
15.76467 732.000
15.78462 804.000
15.80457 902.000
15.82451 926.000
15.84446 1058.000
15.86441 977.000
15.88435 820.000
15.90430 739.000
15.92425 538.000
15.94419 452.000
15.96414 377.000
15.98409 377.000
16.00404 417.000
16.02398 454.000
16.04393 533.000
16.06388 550.000
16.08382 670.000
16.10377 779.000
16.12372 842.000
16.14366 926.000
16.16361 978.000
16.18356 981.000
16.20351 1003.000
16.22345 892.000
16.24340 891.000
16.26335 828.000
16.28329 715.000
16.30324 590.000
16.32319 565.000
16.34313 519.000
16.36308 412.000
16.38303 331.000
16.40297 310.000
16.42292 306.000
16.44287 267.000
16.46282 263.000
16.48276 233.000
16.50271 240.000
16.52266 234.000
16.54260 220.000
16.56255 221.000
16.58250 212.000
16.60244 223.000
16.62239 231.000
16.64234 219.000
16.66229 211.000
16.68223 241.000
16.70218 244.000
16.72213 231.000
16.74207 245.000
16.76202 244.000
16.78197 285.000
16.80191 272.000
16.82186 251.000
16.84181 229.000
16.86175 263.000
16.88170 245.000
16.90165 228.000
16.92160 191.000
16.94154 209.000
16.96149 234.000
16.98144 225.000
17.00138 226.000
17.02133 256.000
17.04128 211.000
17.06122 212.000
17.08117 215.000
17.10112 205.000
17.12107 215.000
17.14101 194.000
17.16096 207.000
17.18091 207.000
17.20085 203.000
17.22080 224.000
17.24075 230.000
17.26069 211.000
17.28064 213.000
17.30059 235.000
17.32053 210.000
17.34048 193.000
17.36043 206.000
17.38038 201.000
17.40032 207.000
17.42027 229.000
17.44022 211.000
17.46016 202.000
17.48011 211.000
17.50006 201.000
17.52000 226.000
17.53995 218.000
17.55990 222.000
17.57985 191.000
17.59979 191.000
17.61974 223.000
17.63969 196.000
17.65963 190.000
17.67958 196.000
17.69953 212.000
17.71947 227.000
17.73942 196.000
17.75937 193.000
17.77932 220.000
17.79926 224.000
17.81921 199.000
17.83916 194.000
17.85910 220.000
17.87905 211.000
17.89900 190.000
17.91894 184.000
17.93889 186.000
17.95884 199.000
17.97878 198.000
17.99873 218.000
18.01868 228.000
18.03863 206.000
18.05857 188.000
18.07852 223.000
18.09847 220.000
18.11841 239.000
18.13836 205.000
18.15831 204.000
18.17825 216.000
18.19820 210.000
18.21815 219.000
18.23810 218.000
18.25804 240.000
18.27799 186.000
18.29794 250.000
18.31788 226.000
18.33783 246.000
18.35778 249.000
18.37772 247.000
18.39767 281.000
18.41762 270.000
18.43756 207.000
18.45751 233.000
18.47746 231.000
18.49741 213.000
18.51735 234.000
18.53730 226.000
18.55725 216.000
18.57719 199.000
18.59714 213.000
18.61709 219.000
18.63703 199.000
18.65698 216.000
18.67693 226.000
18.69688 203.000
18.71682 214.000
18.73677 196.000
18.75672 219.000
18.77666 229.000
18.79661 199.000
18.81656 223.000
18.83650 240.000
18.85645 230.000
18.87640 194.000
18.89634 233.000
18.91629 201.000
18.93624 211.000
18.95619 206.000
18.97613 201.000
18.99608 212.000
19.01603 201.000
19.03597 190.000
19.05592 212.000
19.07587 208.000
19.09581 214.000
19.11576 216.000
19.13571 209.000
19.15566 225.000
19.17560 184.000
19.19555 201.000
19.21550 190.000
19.23544 216.000
19.25539 188.000
19.27534 215.000
19.29528 204.000
19.31523 230.000
19.33518 198.000
19.35513 226.000
19.37507 248.000
19.39502 200.000
19.41497 227.000
19.43491 244.000
19.45486 209.000
19.47481 235.000
19.49475 182.000
19.51470 210.000
19.53465 230.000
19.55459 185.000
19.57454 171.000
19.59449 211.000
19.61444 215.000
19.63438 230.000
19.65433 226.000
19.67428 198.000
19.69422 229.000
19.71417 182.000
19.73412 198.000
19.75406 207.000
19.77401 218.000
19.79396 225.000
19.81391 209.000
19.83385 184.000
19.85380 221.000
19.87375 218.000
19.89369 197.000
19.91364 190.000
19.93359 213.000
19.95353 201.000
19.97348 226.000
19.99343 198.000
20.01337 214.000
20.03332 212.000
20.05327 197.000
20.07322 228.000
20.09316 216.000
20.11311 205.000
20.13306 189.000
20.15300 192.000
20.17295 210.000
20.19290 235.000
20.21284 207.000
20.23279 227.000
20.25274 214.000
20.27269 212.000
20.29263 209.000
20.31258 213.000
20.33253 223.000
20.35247 220.000
20.37242 207.000
20.39237 203.000
20.41231 210.000
20.43226 196.000
20.45221 214.000
20.47215 213.000
20.49210 211.000
20.51205 218.000
20.53200 202.000
20.55194 215.000
20.57189 225.000
20.59184 229.000
20.61178 214.000
20.63173 213.000
20.65168 188.000
20.67162 214.000
20.69157 195.000
20.71152 228.000
20.73147 218.000
20.75141 233.000
20.77136 252.000
20.79131 220.000
20.81125 258.000
20.83120 266.000
20.85115 295.000
20.87109 287.000
20.89104 265.000
20.91099 280.000
20.93094 284.000
20.95088 332.000
20.97083 265.000
20.99078 276.000
21.01072 286.000
21.03067 282.000
21.05062 278.000
21.07056 257.000
21.09051 231.000
21.11046 256.000
21.13040 236.000
21.15035 214.000
21.17030 234.000
21.19025 215.000
21.21019 222.000
21.23014 207.000
21.25009 208.000
21.27003 222.000
21.28998 226.000
21.30993 200.000
21.32987 194.000
21.34982 193.000
21.36977 224.000
21.38972 222.000
21.40966 198.000
21.42961 232.000
21.44956 213.000
21.46950 230.000
21.48945 192.000
21.50940 187.000
21.52934 192.000
21.54929 240.000
21.56924 231.000
21.58918 205.000
21.60913 211.000
21.62908 211.000
21.64903 236.000
21.66897 208.000
21.68892 203.000
21.70887 196.000
21.72881 226.000
21.74876 208.000
21.76871 216.000
21.78865 218.000
21.80860 205.000
21.82855 199.000
21.84850 208.000
21.86844 219.000
21.88839 208.000
21.90834 224.000
21.92828 216.000
21.94823 238.000
21.96818 202.000
21.98812 228.000
22.00807 227.000
22.02802 209.000
22.04796 197.000
22.06791 219.000
22.08786 211.000
22.10781 189.000
22.12775 226.000
22.14770 234.000
22.16765 240.000
22.18759 216.000
22.20754 208.000
22.22749 217.000
22.24743 213.000
22.26738 217.000
22.28733 204.000
22.30728 191.000
22.32722 223.000
22.34717 232.000
22.36712 205.000
22.38706 220.000
22.40701 221.000
22.42696 198.000
22.44690 206.000
22.46685 217.000
22.48680 221.000
22.50675 219.000
22.52669 219.000
22.54664 235.000
22.56659 214.000
22.58653 187.000
22.60648 192.000
22.62643 214.000
22.64637 191.000
22.66632 218.000
22.68627 222.000
22.70621 208.000
22.72616 219.000
22.74611 221.000
22.76606 230.000
22.78600 221.000
22.80595 216.000
22.82590 192.000
22.84584 213.000
22.86579 216.000
22.88574 210.000
22.90568 236.000
22.92563 216.000
22.94558 246.000
22.96553 213.000
22.98547 220.000
23.00542 203.000
23.02537 197.000
23.04531 212.000
23.06526 205.000
23.08521 183.000
23.10515 234.000
23.12510 204.000
23.14505 252.000
23.16499 200.000
23.18494 207.000
23.20489 228.000
23.22484 207.000
23.24478 241.000
23.26473 229.000
23.28468 230.000
23.30462 231.000
23.32457 203.000
23.34452 206.000
23.36446 206.000
23.38441 213.000
23.40436 215.000
23.42431 222.000
23.44425 205.000
23.46420 203.000
23.48415 198.000
23.50409 199.000
23.52404 226.000
23.54399 213.000
23.56393 212.000
23.58388 237.000
23.60383 213.000
23.62377 203.000
23.64372 233.000
23.66367 227.000
23.68362 233.000
23.70356 195.000
23.72351 218.000
23.74346 233.000
23.76340 219.000
23.78335 217.000
23.80330 190.000
23.82324 223.000
23.84319 223.000
23.86314 211.000
23.88309 211.000
23.90303 198.000
23.92298 227.000
23.94293 231.000
23.96287 189.000
23.98282 214.000
24.00277 212.000
24.02271 215.000
24.04266 196.000
24.06261 215.000
24.08256 224.000
24.10250 200.000
24.12245 183.000
24.14240 229.000
24.16234 208.000
24.18229 207.000
24.20224 219.000
24.22218 235.000
24.24213 210.000
24.26208 213.000
24.28202 208.000
24.30197 194.000
24.32192 208.000
24.34187 197.000
24.36181 181.000
24.38176 229.000
24.40171 219.000
24.42165 197.000
24.44160 207.000
24.46155 191.000
24.48149 262.000
24.50144 207.000
24.52139 221.000
24.54134 218.000
24.56128 238.000
24.58123 206.000
24.60118 203.000
24.62112 243.000
24.64107 215.000
24.66102 205.000
24.68096 235.000
24.70091 202.000
24.72086 206.000
24.74080 213.000
24.76075 197.000
24.78070 208.000
24.80065 225.000
24.82059 212.000
24.84054 216.000
24.86049 237.000
24.88043 233.000
24.90038 237.000
24.92033 241.000
24.94027 250.000
24.96022 243.000
24.98017 218.000
25.00012 218.000
25.02006 217.000
25.04001 220.000
25.05996 254.000
25.07990 235.000
25.09985 228.000
25.11980 228.000
25.13974 223.000
25.15969 223.000
25.17964 198.000
25.19958 206.000
25.21953 194.000
25.23948 215.000
25.25943 245.000
25.27937 230.000
25.29932 215.000
25.31927 237.000
25.33921 215.000
25.35916 228.000
25.37911 183.000
25.39905 227.000
25.41900 238.000
25.43895 228.000
25.45890 216.000
25.47884 194.000
25.49879 202.000
25.51874 205.000
25.53868 219.000
25.55863 209.000
25.57858 211.000
25.59852 229.000
25.61847 238.000
25.63842 175.000
25.65837 213.000
25.67831 228.000
25.69826 191.000
25.71821 211.000
25.73815 209.000
25.75810 219.000
25.77805 226.000
25.79799 198.000
25.81794 209.000
25.83789 226.000
25.85783 187.000
25.87778 237.000
25.89773 223.000
25.91768 231.000
25.93762 211.000
25.95757 230.000
25.97752 207.000
25.99746 220.000
26.01741 234.000
26.03736 199.000
26.05730 254.000
26.07725 201.000
26.09720 240.000
26.11715 220.000
26.13709 240.000
26.15704 224.000
26.17699 221.000
26.19693 216.000
26.21688 219.000
26.23683 232.000
26.25677 210.000
26.27672 251.000
26.29667 215.000
26.31661 233.000
26.33656 214.000
26.35651 207.000
26.37646 219.000
26.39640 187.000
26.41635 237.000
26.43630 218.000
26.45624 218.000
26.47619 242.000
26.49614 260.000
26.51608 216.000
26.53603 222.000
26.55598 227.000
26.57593 214.000
26.59587 223.000
26.61582 220.000
26.63577 229.000
26.65571 231.000
26.67566 232.000
26.69561 236.000
26.71555 202.000
26.73550 212.000
26.75545 214.000
26.77539 236.000
26.79534 218.000
26.81529 230.000
26.83524 199.000
26.85518 232.000
26.87513 217.000
26.89508 231.000
26.91502 223.000
26.93497 244.000
26.95492 199.000
26.97486 218.000
26.99481 208.000
27.01476 244.000
27.03471 237.000
27.05465 236.000
27.07460 238.000
27.09455 193.000
27.11449 216.000
27.13444 227.000
27.15439 215.000
27.17433 220.000
27.19428 224.000
27.21423 234.000
27.23417 211.000
27.25412 227.000
27.27407 234.000
27.29402 224.000
27.31396 209.000
27.33391 252.000
27.35386 215.000
27.37380 239.000
27.39375 217.000
27.41370 210.000
27.43364 224.000
27.45359 224.000
27.47354 220.000
27.49349 224.000
27.51343 224.000
27.53338 222.000
27.55333 209.000
27.57327 224.000
27.59322 276.000
27.61317 244.000
27.63311 241.000
27.65306 225.000
27.67301 210.000
27.69296 219.000
27.71290 210.000
27.73285 240.000
27.75280 198.000
27.77274 214.000
27.79269 211.000
27.81264 256.000
27.83258 232.000
27.85253 223.000
27.87248 229.000
27.89242 224.000
27.91237 217.000
27.93232 232.000
27.95227 264.000
27.97221 220.000
27.99216 217.000
28.01211 229.000
28.03205 209.000
28.05200 198.000
28.07195 224.000
28.09189 230.000
28.11184 205.000
28.13179 222.000
28.15174 213.000
28.17168 209.000
28.19163 234.000
28.21158 244.000
28.23152 218.000
28.25147 211.000
28.27142 227.000
28.29136 225.000
28.31131 217.000
28.33126 226.000
28.35120 252.000
28.37115 252.000
28.39110 229.000
28.41105 246.000
28.43099 227.000
28.45094 243.000
28.47089 237.000
28.49083 222.000
28.51078 232.000
28.53073 240.000
28.55067 228.000
28.57062 220.000
28.59057 217.000
28.61052 223.000
28.63046 229.000
28.65041 227.000
28.67036 199.000
28.69030 245.000
28.71025 237.000
28.73020 212.000
28.75014 240.000
28.77009 239.000
28.79004 200.000
28.80998 231.000
28.82993 238.000
28.84988 228.000
28.86983 234.000
28.88977 210.000
28.90972 217.000
28.92967 227.000
28.94961 200.000
28.96956 200.000
28.98951 215.000
29.00945 206.000
29.02940 215.000
29.04935 216.000
29.06930 235.000
29.08924 251.000
29.10919 243.000
29.12914 247.000
29.14908 250.000
29.16903 238.000
29.18898 272.000
29.20892 263.000
29.22887 253.000
29.24882 269.000
29.26877 306.000
29.28871 306.000
29.30866 272.000
29.32861 320.000
29.34855 328.000
29.36850 303.000
29.38845 285.000
29.40839 303.000
29.42834 280.000
29.44829 298.000
29.46823 238.000
29.48818 251.000
29.50813 242.000
29.52808 237.000
29.54802 247.000
29.56797 234.000
29.58792 270.000
29.60786 226.000
29.62781 230.000
29.64776 254.000
29.66770 235.000
29.68765 234.000
29.70760 229.000
29.72755 240.000
29.74749 209.000
29.76744 217.000
29.78739 229.000
29.80733 215.000
29.82728 256.000
29.84723 226.000
29.86717 229.000
29.88712 249.000
29.90707 228.000
29.92701 222.000
29.94696 235.000
29.96691 214.000
29.98686 259.000
30.00680 255.000
30.02675 245.000
30.04670 235.000
30.06664 259.000
30.08659 293.000
30.10654 252.000
30.12648 265.000
30.14643 280.000
30.16638 306.000
30.18633 316.000
30.20627 333.000
30.22622 340.000
30.24617 361.000
30.26611 330.000
30.28606 349.000
30.30601 316.000
30.32595 334.000
30.34590 315.000
30.36585 285.000
30.38579 289.000
30.40574 237.000
30.42569 254.000
30.44564 237.000
30.46558 248.000
30.48553 204.000
30.50548 254.000
30.52542 253.000
30.54537 256.000
30.56532 240.000
30.58526 237.000
30.60521 209.000
30.62516 241.000
30.64511 230.000
30.66505 233.000
30.68500 208.000
30.70495 208.000
30.72489 257.000
30.74484 251.000
30.76479 222.000
30.78473 224.000
30.80468 245.000
30.82463 242.000
30.84458 228.000
30.86452 218.000
30.88447 207.000
30.90442 238.000
30.92436 241.000
30.94431 214.000
30.96426 208.000
30.98420 240.000
31.00415 232.000
31.02410 229.000
31.04404 216.000
31.06399 194.000
31.08394 248.000
31.10389 247.000
31.12383 268.000
31.14378 249.000
31.16373 228.000
31.18367 223.000
31.20362 227.000
31.22357 215.000
31.24351 249.000
31.26346 243.000
31.28341 209.000
31.30336 256.000
31.32330 205.000
31.34325 237.000
31.36320 212.000
31.38314 223.000
31.40309 209.000
31.42304 224.000
31.44298 253.000
31.46293 226.000
31.48288 220.000
31.50282 242.000
31.52277 217.000
31.54272 232.000
31.56267 241.000
31.58261 223.000
31.60256 209.000
31.62251 231.000
31.64245 238.000
31.66240 240.000
31.68235 235.000
31.70229 243.000
31.72224 238.000
31.74219 234.000
31.76214 235.000
31.78208 250.000
31.80203 240.000
31.82198 233.000
31.84192 252.000
31.86187 230.000
31.88182 219.000
31.90176 249.000
31.92171 297.000
31.94166 252.000
31.96160 280.000
31.98155 287.000
32.00150 275.000
32.02145 274.000
32.04139 276.000
32.06134 300.000
32.08129 319.000
32.10123 279.000
32.12118 288.000
32.14113 272.000
32.16107 260.000
32.18102 258.000
32.20097 239.000
32.22092 262.000
32.24086 258.000
32.26081 226.000
32.28076 225.000
32.30070 223.000
32.32065 247.000
32.34060 223.000
32.36054 246.000
32.38049 230.000
32.40044 250.000
32.42039 224.000
32.44033 258.000
32.46028 246.000
32.48023 260.000
32.50017 245.000
32.52012 252.000
32.54007 286.000
32.56001 278.000
32.57996 287.000
32.59991 265.000
32.61985 300.000
32.63980 278.000
32.65975 277.000
32.67970 264.000
32.69964 310.000
32.71959 319.000
32.73954 282.000
32.75948 266.000
32.77943 280.000
32.79938 322.000
32.81932 309.000
32.83927 265.000
32.85922 262.000
32.87917 298.000
32.89911 301.000
32.91906 293.000
32.93901 291.000
32.95895 267.000
32.97890 258.000
32.99885 250.000
33.01879 266.000
33.03874 256.000
33.05869 263.000
33.07863 268.000
33.09858 241.000
33.11853 260.000
33.13848 249.000
33.15842 255.000
33.17837 226.000
33.19832 230.000
33.21826 228.000
33.23821 241.000
33.25816 216.000
33.27810 236.000
33.29805 239.000
33.31800 209.000
33.33795 260.000
33.35789 254.000
33.37784 222.000
33.39779 240.000
33.41773 233.000
33.43768 226.000
33.45763 202.000
33.47757 235.000
33.49752 251.000
33.51747 241.000
33.53741 221.000
33.55736 243.000
33.57731 234.000
33.59726 228.000
33.61720 232.000
33.63715 259.000
33.65710 218.000
33.67704 240.000
33.69699 222.000
33.71694 230.000
33.73688 235.000
33.75683 222.000
33.77678 240.000
33.79673 246.000
33.81667 242.000
33.83662 233.000
33.85657 246.000
33.87651 248.000
33.89646 224.000
33.91641 246.000
33.93635 251.000
33.95630 251.000
33.97625 239.000
33.99620 229.000
34.01614 214.000
34.03609 232.000
34.05604 223.000
34.07598 215.000
34.09593 245.000
34.11588 242.000
34.13582 239.000
34.15577 255.000
34.17572 264.000
34.19566 237.000
34.21561 222.000
34.23556 262.000
34.25551 272.000
34.27545 251.000
34.29540 269.000
34.31535 280.000
34.33529 266.000
34.35524 279.000
34.37519 280.000
34.39513 275.000
34.41508 299.000
34.43503 297.000
34.45498 298.000
34.47492 337.000
34.49487 299.000
34.51482 312.000
34.53476 313.000
34.55471 347.000
34.57466 315.000
34.59460 335.000
34.61455 321.000
34.63450 318.000
34.65444 312.000
34.67439 328.000
34.69434 319.000
34.71429 330.000
34.73423 330.000
34.75418 346.000
34.77413 342.000
34.79407 301.000
34.81402 314.000
34.83397 311.000
34.85391 317.000
34.87386 308.000
34.89381 268.000
34.91376 294.000
34.93370 298.000
34.95365 291.000
34.97360 261.000
34.99354 249.000
35.01349 257.000
35.03344 256.000
35.05338 242.000
35.07333 233.000
35.09328 267.000
35.11322 278.000
35.13317 266.000
35.15312 238.000
35.17307 323.000
35.19301 252.000
35.21296 296.000
35.23291 305.000
35.25285 279.000
35.27280 282.000
35.29275 331.000
35.31269 305.000
35.33264 351.000
35.35259 354.000
35.37254 394.000
35.39248 384.000
35.41243 406.000
35.43238 444.000
35.45232 505.000
35.47227 531.000
35.49222 586.000
35.51216 617.000
35.53211 617.000
35.55206 659.000
35.57201 705.000
35.59195 714.000
35.61190 745.000
35.63185 798.000
35.65179 767.000
35.67174 761.000
35.69169 696.000
35.71163 735.000
35.73158 644.000
35.75153 541.000
35.77147 560.000
35.79142 496.000
35.81137 422.000
35.83132 407.000
35.85126 353.000
35.87121 375.000
35.89116 355.000
35.91110 307.000
35.93105 321.000
35.95100 347.000
35.97094 310.000
35.99089 292.000
36.01084 291.000
36.03079 269.000
36.05073 271.000
36.07068 284.000
36.09063 276.000
36.11057 279.000
36.13052 253.000
36.15047 300.000
36.17041 268.000
36.19036 287.000
36.21031 280.000
36.23025 297.000
36.25020 279.000
36.27015 271.000
36.29010 282.000
36.31004 260.000
36.32999 273.000
36.34994 307.000
36.36988 320.000
36.38983 312.000
36.40978 298.000
36.42972 296.000
36.44967 314.000
36.46962 316.000
36.48957 295.000
36.50951 322.000
36.52946 332.000
36.54941 374.000
36.56935 345.000
36.58930 378.000
36.60925 352.000
36.62919 368.000
36.64914 453.000
36.66909 494.000
36.68903 538.000
36.70898 524.000
36.72893 577.000
36.74888 606.000
36.76882 720.000
36.78877 736.000
36.80872 837.000
36.82866 886.000
36.84861 972.000
36.86856 1059.000
36.88850 1200.000
36.90845 1392.000
36.92840 1560.000
36.94835 1906.000
36.96829 2154.000
36.98824 2406.000
37.00819 2642.000
37.02813 3010.000
37.04808 3406.000
37.06803 3531.000
37.08797 3604.000
37.10792 3658.000
37.12787 3433.000
37.14781 3021.000
37.16776 2755.000
37.18771 2303.000
37.20766 1888.000
37.22760 1585.000
37.24755 1310.000
37.26750 973.000
37.28744 771.000
37.30739 606.000
37.32734 535.000
37.34728 464.000
37.36723 408.000
37.38718 379.000
37.40713 360.000
37.42707 331.000
37.44702 339.000
37.46697 318.000
37.48691 304.000
37.50686 335.000
37.52681 293.000
37.54675 274.000
37.56670 292.000
37.58665 283.000
37.60660 270.000
37.62654 294.000
37.64649 260.000
37.66644 265.000
37.68638 308.000
37.70633 237.000
37.72628 262.000
37.74622 241.000
37.76617 231.000
37.78612 240.000
37.80606 256.000
37.82601 275.000
37.84596 231.000
37.86591 242.000
37.88585 235.000
37.90580 217.000
37.92575 261.000
37.94569 239.000
37.96564 256.000
37.98559 243.000
38.00553 227.000
38.02548 262.000
38.04543 247.000
38.06538 243.000
38.08532 231.000
38.10527 266.000
38.12522 243.000
38.14516 224.000
38.16511 243.000
38.18506 223.000
38.20500 219.000
38.22495 236.000
38.24490 247.000
38.26484 265.000
38.28479 232.000
38.30474 249.000
38.32469 262.000
38.34463 262.000
38.36458 236.000
38.38453 245.000
38.40447 246.000
38.42442 252.000
38.44437 262.000
38.46431 280.000
38.48426 251.000
38.50421 260.000
38.52416 289.000
38.54410 237.000
38.56405 291.000
38.58400 256.000
38.60394 284.000
38.62389 314.000
38.64384 312.000
38.66378 298.000
38.68373 325.000
38.70368 298.000
38.72362 301.000
38.74357 286.000
38.76352 283.000
38.78347 292.000
38.80341 319.000
38.82336 287.000
38.84331 288.000
38.86325 267.000
38.88320 279.000
38.90315 281.000
38.92309 272.000
38.94304 285.000
38.96299 289.000
38.98294 305.000
39.00288 308.000
39.02283 296.000
39.04278 300.000
39.06272 314.000
39.08267 326.000
39.10262 331.000
39.12256 339.000
39.14251 416.000
39.16246 387.000
39.18241 367.000
39.20235 379.000
39.22230 391.000
39.24225 399.000
39.26219 389.000
39.28214 414.000
39.30209 394.000
39.32203 376.000
39.34198 390.000
39.36193 346.000
39.38187 317.000
39.40182 330.000
39.42177 316.000
39.44172 272.000
39.46166 328.000
39.48161 322.000
39.50156 290.000
39.52150 248.000
39.54145 286.000
39.56140 254.000
39.58134 239.000
39.60129 236.000
39.62124 252.000
39.64119 242.000
39.66113 240.000
39.68108 257.000
39.70103 241.000
39.72097 243.000
39.74092 219.000
39.76087 247.000
39.78081 250.000
39.80076 266.000
39.82071 246.000
39.84065 228.000
39.86060 239.000
39.88055 245.000
39.90050 243.000
39.92044 225.000
39.94039 211.000
39.96034 241.000
39.98028 234.000
40.00023 231.000
40.02018 247.000
40.04012 196.000
40.06007 250.000
40.08002 245.000
40.09997 232.000
40.11991 262.000
40.13986 250.000
40.15981 224.000
40.17975 200.000
40.19970 233.000
40.21965 239.000
40.23959 242.000
40.25954 245.000
40.27949 229.000
40.29943 220.000
40.31938 260.000
40.33933 228.000
40.35928 248.000
40.37922 237.000
40.39917 241.000
40.41912 227.000
40.43906 279.000
40.45901 245.000
40.47896 229.000
40.49890 250.000
40.51885 234.000
40.53880 248.000
40.55875 231.000
40.57869 225.000
40.59864 239.000
40.61859 219.000
40.63853 247.000
40.65848 249.000
40.67843 216.000
40.69837 232.000
40.71832 247.000
40.73827 272.000
40.75822 221.000
40.77816 229.000
40.79811 258.000
40.81806 214.000
40.83800 214.000
40.85795 219.000
40.87790 266.000
40.89784 289.000
40.91779 262.000
40.93774 268.000
40.95768 264.000
40.97763 249.000
40.99758 254.000
41.01753 231.000
41.03747 239.000
41.05742 242.000
41.07737 260.000
41.09731 276.000
41.11726 260.000
41.13721 264.000
41.15715 270.000
41.17710 213.000
41.19705 287.000
41.21700 273.000
41.23694 258.000
41.25689 269.000
41.27684 307.000
41.29678 280.000
41.31673 296.000
41.33668 282.000
41.35662 305.000
41.37657 311.000
41.39652 326.000
41.41646 358.000
41.43641 369.000
41.45636 398.000
41.47631 393.000
41.49625 450.000
41.51620 527.000
41.53615 574.000
41.55609 601.000
41.57604 681.000
41.59599 773.000
41.61593 913.000
41.63588 911.000
41.65583 961.000
41.67578 1028.000
41.69572 980.000
41.71567 925.000
41.73562 863.000
41.75556 791.000
41.77551 769.000
41.79546 649.000
41.81540 578.000
41.83535 517.000
41.85530 453.000
41.87524 399.000
41.89519 377.000
41.91514 313.000
41.93509 276.000
41.95503 294.000
41.97498 311.000
41.99493 316.000
42.01487 300.000
42.03482 287.000
42.05477 284.000
42.07471 314.000
42.09466 268.000
42.11461 307.000
42.13456 274.000
42.15450 249.000
42.17445 277.000
42.19440 343.000
42.21434 278.000
42.23429 289.000
42.25424 277.000
42.27418 300.000
42.29413 291.000
42.31408 280.000
42.33403 307.000
42.35397 295.000
42.37392 310.000
42.39387 292.000
42.41381 300.000
42.43376 356.000
42.45371 370.000
42.47365 353.000
42.49360 360.000
42.51355 343.000
42.53349 361.000
42.55344 412.000
42.57339 442.000
42.59334 432.000
42.61328 436.000
42.63323 436.000
42.65318 483.000
42.67312 492.000
42.69307 588.000
42.71302 551.000
42.73296 694.000
42.75291 667.000
42.77286 802.000
42.79281 858.000
42.81275 933.000
42.83270 1086.000
42.85265 1180.000
42.87259 1357.000
42.89254 1520.000
42.91249 1766.000
42.93243 2107.000
42.95238 2331.000
42.97233 2746.000
42.99227 3029.000
43.01222 3501.000
43.03217 3856.000
43.05212 4256.000
43.07206 4493.000
43.09201 4689.000
43.11196 4953.000
43.13190 4681.000
43.15185 4468.000
43.17180 4126.000
43.19174 3750.000
43.21169 3412.000
43.23164 2924.000
43.25159 2581.000
43.27153 2116.000
43.29148 1778.000
43.31143 1595.000
43.33137 1228.000
43.35132 993.000
43.37127 828.000
43.39121 790.000
43.41116 611.000
43.43111 607.000
43.45105 575.000
43.47100 521.000
43.49095 491.000
43.51090 482.000
43.53084 409.000
43.55079 441.000
43.57074 386.000
43.59068 371.000
43.61063 358.000
43.63058 319.000
43.65052 311.000
43.67047 330.000
43.69042 328.000
43.71037 305.000
43.73031 298.000
43.75026 315.000
43.77021 297.000
43.79015 301.000
43.81010 274.000
43.83005 280.000
43.84999 270.000
43.86994 283.000
43.88989 275.000
43.90984 277.000
43.92978 266.000
43.94973 287.000
43.96968 260.000
43.98962 254.000
44.00957 268.000
44.02952 244.000
44.04946 256.000
44.06941 268.000
44.08936 257.000
44.10930 266.000
44.12925 264.000
44.14920 241.000
44.16915 272.000
44.18909 258.000
44.20904 257.000
44.22899 239.000
44.24893 239.000
44.26888 251.000
44.28883 244.000
44.30877 265.000
44.32872 238.000
44.34867 272.000
44.36862 245.000
44.38856 248.000
44.40851 250.000
44.42846 248.000
44.44840 261.000
44.46835 261.000
44.48830 260.000
44.50824 239.000
44.52819 242.000
44.54814 235.000
44.56808 246.000
44.58803 256.000
44.60798 237.000
44.62793 262.000
44.64787 237.000
44.66782 232.000
44.68777 234.000
44.70771 271.000
44.72766 256.000
44.74761 258.000
44.76755 259.000
44.78750 247.000
44.80745 212.000
44.82740 274.000
44.84734 246.000
44.86729 264.000
44.88724 255.000
44.90718 293.000
44.92713 285.000
44.94708 269.000
44.96702 279.000
44.98697 296.000
45.00692 265.000
45.02686 261.000
45.04681 306.000
45.06676 271.000
45.08671 271.000
45.10665 272.000
45.12660 257.000
45.14655 281.000
45.16649 287.000
45.18644 246.000
45.20639 271.000
45.22633 257.000
45.24628 291.000
45.26623 243.000
45.28618 257.000
45.30612 230.000
45.32607 250.000
45.34602 237.000
45.36596 252.000
45.38591 251.000
45.40586 232.000
45.42580 261.000
45.44575 246.000
45.46570 243.000
45.48565 241.000
45.50559 259.000
45.52554 223.000
45.54549 244.000
45.56543 241.000
45.58538 249.000
45.60533 238.000
45.62527 223.000
45.64522 230.000
45.66517 264.000
45.68511 221.000
45.70506 243.000
45.72501 247.000
45.74496 245.000
45.76490 250.000
45.78485 214.000
45.80480 214.000
45.82474 205.000
45.84469 214.000
45.86464 232.000
45.88458 223.000
45.90453 246.000
45.92448 215.000
45.94443 207.000
45.96437 248.000
45.98432 239.000
46.00427 234.000
46.02421 241.000
46.04416 249.000
46.06411 233.000
46.08405 234.000
46.10400 250.000
46.12395 216.000
46.14389 218.000
46.16384 221.000
46.18379 249.000
46.20374 243.000
46.22368 224.000
46.24363 222.000
46.26358 214.000
46.28352 251.000
46.30347 236.000
46.32342 227.000
46.34336 253.000
46.36331 231.000
46.38326 218.000
46.40321 238.000
46.42315 230.000
46.44310 243.000
46.46305 226.000
46.48299 221.000
46.50294 233.000
46.52289 231.000
46.54283 208.000
46.56278 249.000
46.58273 229.000
46.60267 232.000
46.62262 289.000
46.64257 248.000
46.66252 245.000
46.68246 228.000
46.70241 209.000
46.72236 244.000
46.74230 220.000
46.76225 234.000
46.78220 229.000
46.80214 214.000
46.82209 248.000
46.84204 222.000
46.86199 221.000
46.88193 236.000
46.90188 242.000
46.92183 228.000
46.94177 206.000
46.96172 213.000
46.98167 220.000
47.00161 219.000
47.02156 227.000
47.04151 217.000
47.06146 225.000
47.08140 220.000
47.10135 263.000
47.12130 207.000
47.14124 239.000
47.16119 209.000
47.18114 239.000
47.20108 246.000
47.22103 222.000
47.24098 224.000
47.26092 219.000
47.28087 242.000
47.30082 235.000
47.32077 215.000
47.34071 234.000
47.36066 240.000
47.38061 236.000
47.40055 225.000
47.42050 242.000
47.44045 217.000
47.46039 240.000
47.48034 229.000
47.50029 217.000
47.52024 235.000
47.54018 248.000
47.56013 222.000
47.58008 207.000
47.60002 230.000
47.61997 220.000
47.63992 240.000
47.65986 228.000
47.67981 260.000
47.69976 218.000
47.71970 240.000
47.73965 229.000
47.75960 215.000
47.77955 236.000
47.79949 224.000
47.81944 206.000
47.83939 228.000
47.85933 222.000
47.87928 247.000
47.89923 257.000
47.91917 239.000
47.93912 227.000
47.95907 247.000
47.97902 260.000
47.99896 251.000
48.01891 250.000
48.03886 267.000
48.05880 226.000
48.07875 257.000
48.09870 252.000
48.11864 245.000
48.13859 239.000
48.15854 209.000
48.17848 233.000
48.19843 243.000
48.21838 268.000
48.23833 234.000
48.25827 254.000
48.27822 267.000
48.29817 213.000
48.31811 247.000
48.33806 244.000
48.35801 229.000
48.37795 256.000
48.39790 240.000
48.41785 245.000
48.43780 237.000
48.45774 260.000
48.47769 276.000
48.49764 296.000
48.51758 260.000
48.53753 270.000
48.55748 260.000
48.57742 317.000
48.59737 363.000
48.61732 338.000
48.63726 368.000
48.65721 370.000
48.67716 417.000
48.69711 405.000
48.71705 403.000
48.73700 391.000
48.75695 406.000
48.77689 373.000
48.79684 377.000
48.81679 378.000
48.83673 367.000
48.85668 315.000
48.87663 328.000
48.89658 290.000
48.91652 269.000
48.93647 282.000
48.95642 274.000
48.97636 271.000
48.99631 236.000
49.01626 278.000
49.03620 221.000
49.05615 236.000
49.07610 251.000
49.09605 247.000
49.11599 241.000
49.13594 247.000
49.15589 224.000
49.17583 223.000
49.19578 234.000
49.21573 215.000
49.23567 262.000
49.25562 215.000
49.27557 238.000
49.29551 203.000
49.31546 203.000
49.33541 252.000
49.35536 232.000
49.37530 240.000
49.39525 238.000
49.41520 243.000
49.43514 245.000
49.45509 245.000
49.47504 248.000
49.49498 248.000
49.51493 266.000
49.53488 242.000
49.55483 233.000
49.57477 228.000
49.59472 219.000
49.61467 247.000
49.63461 235.000
49.65456 224.000
49.67451 231.000
49.69445 276.000
49.71440 233.000
49.73435 240.000
49.75429 242.000
49.77424 238.000
49.79419 218.000
49.81414 212.000
49.83408 234.000
49.85403 215.000
49.87398 225.000
49.89392 218.000
49.91387 193.000
49.93382 206.000
49.95376 234.000
49.97371 245.000
49.99366 252.000
50.01361 228.000
50.03355 215.000
50.05350 224.000
50.07345 229.000
50.09339 231.000
50.11334 228.000
50.13329 211.000
50.15323 232.000
50.17318 256.000
50.19313 237.000
50.21307 206.000
50.23302 268.000
50.25297 226.000
50.27292 232.000
50.29286 220.000
50.31281 218.000
50.33276 219.000
50.35270 214.000
50.37265 223.000
50.39260 233.000
50.41254 218.000
50.43249 220.000
50.45244 232.000
50.47239 230.000
50.49233 210.000
50.51228 215.000
50.53223 214.000
50.55217 214.000
50.57212 257.000
50.59207 219.000
50.61201 208.000
50.63196 230.000
50.65191 261.000
50.67186 239.000
50.69180 190.000
50.71175 199.000
50.73170 218.000
50.75164 225.000
50.77159 218.000
50.79154 224.000
50.81148 210.000
50.83143 241.000
50.85138 228.000
50.87132 237.000
50.89127 218.000
50.91122 215.000
50.93117 229.000
50.95111 246.000
50.97106 240.000
50.99101 210.000
51.01095 221.000
51.03090 228.000
51.05085 220.000
51.07079 223.000
51.09074 229.000
51.11069 228.000
51.13064 226.000
51.15058 228.000
51.17053 202.000
51.19048 241.000
51.21042 218.000
51.23037 243.000
51.25032 243.000
51.27026 224.000
51.29021 219.000
51.31016 209.000
51.33010 248.000
51.35005 235.000
51.37000 245.000
51.38995 228.000
51.40989 209.000
51.42984 241.000
51.44979 210.000
51.46973 262.000
51.48968 255.000
51.50963 240.000
51.52957 215.000
51.54952 225.000
51.56947 228.000
51.58942 225.000
51.60936 249.000
51.62931 242.000
51.64926 240.000
51.66920 219.000
51.68915 215.000
51.70910 246.000
51.72904 238.000
51.74899 240.000
51.76894 231.000
51.78888 205.000
51.80883 250.000
51.82878 247.000
51.84873 234.000
51.86867 234.000
51.88862 251.000
51.90857 243.000
51.92851 230.000
51.94846 276.000
51.96841 257.000
51.98835 252.000
52.00830 278.000
52.02825 245.000
52.04820 260.000
52.06814 263.000
52.08809 247.000
52.10804 253.000
52.12798 224.000
52.14793 241.000
52.16788 251.000
52.18782 244.000
52.20777 270.000
52.22772 274.000
52.24767 230.000
52.26761 232.000
52.28756 221.000
52.30751 206.000
52.32745 230.000
52.34740 217.000
52.36735 226.000
52.38729 228.000
52.40724 241.000
52.42719 222.000
52.44713 220.000
52.46708 234.000
52.48703 252.000
52.50698 224.000
52.52692 226.000
52.54687 252.000
52.56682 240.000
52.58676 238.000
52.60671 249.000
52.62666 229.000
52.64660 266.000
52.66655 235.000
52.68650 248.000
52.70645 260.000
52.72639 243.000
52.74634 243.000
52.76629 236.000
52.78623 270.000
52.80618 232.000
52.82613 228.000
52.84607 261.000
52.86602 285.000
52.88597 254.000
52.90591 264.000
52.92586 284.000
52.94581 293.000
52.96576 298.000
52.98570 319.000
53.00565 323.000
53.02560 270.000
53.04554 322.000
53.06549 363.000
53.08544 322.000
53.10538 341.000
53.12533 337.000
53.14528 326.000
53.16523 285.000
53.18517 305.000
53.20512 308.000
53.22507 307.000
53.24501 297.000
53.26496 292.000
53.28491 268.000
53.30485 258.000
53.32480 282.000
53.34475 267.000
53.36469 249.000
53.38464 262.000
53.40459 245.000
53.42454 240.000
53.44448 245.000
53.46443 249.000
53.48438 222.000
53.50432 244.000
53.52427 244.000
53.54422 252.000
53.56416 226.000
53.58411 188.000
53.60406 231.000
53.62401 250.000
53.64395 251.000
53.66390 268.000
53.68385 248.000
53.70379 271.000
53.72374 271.000
53.74369 249.000
53.76363 262.000
53.78358 227.000
53.80353 262.000
53.82348 250.000
53.84342 231.000
53.86337 256.000
53.88332 239.000
53.90326 240.000
53.92321 231.000
53.94316 246.000
53.96310 232.000
53.98305 278.000
54.00300 239.000
54.02294 211.000
54.04289 246.000
54.06284 254.000
54.08279 218.000
54.10273 220.000
54.12268 226.000
54.14263 240.000
54.16257 242.000
54.18252 222.000
54.20247 247.000
54.22241 237.000
54.24236 226.000
54.26231 223.000
54.28226 216.000
54.30220 236.000
54.32215 226.000
54.34210 208.000
54.36204 250.000
54.38199 216.000
54.40194 231.000
54.42188 231.000
54.44183 246.000
54.46178 209.000
54.48172 226.000
54.50167 223.000
54.52162 220.000
54.54157 211.000
54.56151 239.000
54.58146 202.000
54.60141 245.000
54.62135 242.000
54.64130 241.000
54.66125 234.000
54.68119 215.000
54.70114 220.000
54.72109 237.000
54.74104 228.000
54.76098 250.000
54.78093 195.000
54.80088 219.000
54.82082 200.000
54.84077 240.000
54.86072 232.000
54.88066 213.000
54.90061 207.000
54.92056 236.000
54.94050 233.000
54.96045 231.000
54.98040 206.000
55.00035 252.000
55.02029 206.000
55.04024 223.000
55.06019 237.000
55.08013 237.000
55.10008 224.000
55.12003 251.000
55.13997 215.000
55.15992 236.000
55.17987 227.000
55.19982 226.000
55.21976 232.000
55.23971 249.000
55.25966 213.000
55.27960 238.000
55.29955 236.000
55.31950 205.000
55.33944 215.000
55.35939 201.000
55.37934 235.000
55.39929 192.000
55.41923 241.000
55.43918 189.000
55.45913 237.000
55.47907 236.000
55.49902 225.000
55.51897 223.000
55.53891 231.000
55.55886 229.000
55.57881 233.000
55.59875 179.000
55.61870 216.000
55.63865 222.000
55.65860 239.000
55.67854 236.000
55.69849 215.000
55.71844 215.000
55.73838 225.000
55.75833 238.000
55.77828 215.000
55.79822 219.000
55.81817 270.000
55.83812 232.000
55.85807 239.000
55.87801 231.000
55.89796 218.000
55.91791 222.000
55.93785 232.000
55.95780 214.000
55.97775 230.000
55.99769 241.000
56.01764 279.000
56.03759 219.000
56.05753 239.000
56.07748 245.000
56.09743 235.000
56.11738 242.000
56.13732 240.000
56.15727 224.000
56.17722 210.000
56.19716 221.000
56.21711 219.000
56.23706 227.000
56.25700 210.000
56.27695 236.000
56.29690 213.000
56.31685 223.000
56.33679 209.000
56.35674 220.000
56.37669 234.000
56.39663 225.000
56.41658 263.000
56.43653 208.000
56.45647 234.000
56.47642 230.000
56.49637 254.000
56.51631 231.000
56.53626 216.000
56.55621 202.000
56.57616 231.000
56.59610 229.000
56.61605 238.000
56.63600 249.000
56.65594 243.000
56.67589 248.000
56.69584 235.000
56.71578 229.000
56.73573 247.000
56.75568 227.000
56.77563 246.000
56.79557 213.000
56.81552 244.000
56.83547 250.000
56.85541 253.000
56.87536 251.000
56.89531 244.000
56.91525 259.000
56.93520 238.000
56.95515 243.000
56.97510 256.000
56.99504 286.000
57.01499 263.000
57.03494 251.000
57.05488 296.000
57.07483 235.000
57.09478 257.000
57.11472 270.000
57.13467 288.000
57.15462 267.000
57.17456 253.000
57.19451 308.000
57.21446 302.000
57.23441 311.000
57.25435 316.000
57.27430 313.000
57.29425 326.000
57.31419 319.000
57.33414 326.000
57.35409 337.000
57.37403 346.000
57.39398 335.000
57.41393 324.000
57.43388 343.000
57.45382 340.000
57.47377 353.000
57.49372 334.000
57.51366 356.000
57.53361 314.000
57.55356 356.000
57.57350 314.000
57.59345 335.000
57.61340 340.000
57.63334 341.000
57.65329 344.000
57.67324 329.000
57.69319 384.000
57.71313 379.000
57.73308 365.000
57.75303 392.000
57.77297 352.000
57.79292 366.000
57.81287 362.000
57.83281 357.000
57.85276 324.000
57.87271 324.000
57.89266 303.000
57.91260 300.000
57.93255 306.000
57.95250 277.000
57.97244 279.000
57.99239 277.000
58.01234 291.000
58.03228 304.000
58.05223 275.000
58.07218 228.000
58.09212 261.000
58.11207 235.000
58.13202 262.000
58.15197 256.000
58.17191 257.000
58.19186 233.000
58.21181 236.000
58.23175 259.000
58.25170 276.000
58.27165 263.000
58.29159 257.000
58.31154 257.000
58.33149 238.000
58.35144 216.000
58.37138 251.000
58.39133 230.000
58.41128 220.000
58.43122 246.000
58.45117 229.000
58.47112 239.000
58.49106 249.000
58.51101 212.000
58.53096 253.000
58.55090 228.000
58.57085 213.000
58.59080 230.000
58.61075 257.000
58.63069 249.000
58.65064 240.000
58.67059 238.000
58.69053 246.000
58.71048 241.000
58.73043 241.000
58.75037 221.000
58.77032 216.000
58.79027 219.000
58.81022 225.000
58.83016 215.000
58.85011 245.000
58.87006 233.000
58.89000 253.000
58.90995 231.000
58.92990 267.000
58.94984 227.000
58.96979 267.000
58.98974 235.000
59.00969 230.000
59.02963 244.000
59.04958 246.000
59.06953 217.000
59.08947 217.000
59.10942 233.000
59.12937 229.000
59.14931 223.000
59.16926 249.000
59.18921 248.000
59.20915 238.000
59.22910 250.000
59.24905 236.000
59.26900 248.000
59.28894 227.000
59.30889 231.000
59.32884 235.000
59.34878 249.000
59.36873 223.000
59.38868 239.000
59.40862 225.000
59.42857 235.000
59.44852 228.000
59.46847 242.000
59.48841 245.000
59.50836 230.000
59.52831 240.000
59.54825 242.000
59.56820 227.000
59.58815 250.000
59.60809 226.000
59.62804 237.000
59.64799 241.000
59.66793 238.000
59.68788 242.000
59.70783 226.000
59.72778 247.000
59.74772 252.000
59.76767 240.000
59.78762 230.000
59.80756 256.000
59.82751 233.000
59.84746 221.000
59.86740 234.000
59.88735 268.000
59.90730 202.000
59.92725 232.000
59.94719 214.000
59.96714 252.000
59.98709 227.000
60.00703 231.000
60.02698 245.000
60.04693 245.000
60.06687 244.000
60.08682 278.000
60.10677 261.000
60.12671 248.000
60.14666 236.000
60.16661 225.000
60.18656 255.000
60.20650 224.000
60.22645 212.000
60.24640 242.000
60.26634 241.000
60.28629 234.000
60.30624 247.000
60.32618 260.000
60.34613 274.000
60.36608 238.000
60.38603 225.000
60.40597 254.000
60.42592 247.000
60.44587 226.000
60.46581 250.000
60.48576 280.000
60.50571 248.000
60.52565 243.000
60.54560 230.000
60.56555 254.000
60.58550 245.000
60.60544 247.000
60.62539 234.000
60.64534 240.000
60.66528 259.000
60.68523 261.000
60.70518 236.000
60.72512 259.000
60.74507 257.000
60.76502 247.000
60.78496 219.000
60.80491 210.000
60.82486 253.000
60.84481 251.000
60.86475 252.000
60.88470 232.000
60.90465 244.000
60.92459 219.000
60.94454 259.000
60.96449 261.000
60.98443 231.000
61.00438 243.000
61.02433 255.000
61.04428 249.000
61.06422 236.000
61.08417 256.000
61.10412 236.000
61.12406 250.000
61.14401 239.000
61.16396 253.000
61.18390 266.000
61.20385 239.000
61.22380 271.000
61.24374 261.000
61.26369 249.000
61.28364 248.000
61.30359 281.000
61.32353 281.000
61.34348 245.000
61.36343 254.000
61.38337 244.000
61.40332 254.000
61.42327 260.000
61.44321 257.000
61.46316 270.000
61.48311 274.000
61.50306 314.000
61.52300 272.000
61.54295 285.000
61.56290 273.000
61.58284 268.000
61.60279 303.000
61.62274 307.000
61.64268 256.000
61.66263 246.000
61.68258 241.000
61.70252 271.000
61.72247 275.000
61.74242 282.000
61.76237 283.000
61.78231 274.000
61.80226 326.000
61.82221 301.000
61.84215 298.000
61.86210 312.000
61.88205 298.000
61.90199 326.000
61.92194 314.000
61.94189 373.000
61.96184 358.000
61.98178 367.000
62.00173 374.000
62.02168 379.000
62.04162 393.000
62.06157 416.000
62.08152 429.000
62.10146 423.000
62.12141 426.000
62.14136 453.000
62.16131 451.000
62.18125 491.000
62.20120 498.000
62.22115 499.000
62.24109 562.000
62.26104 561.000
62.28099 666.000
62.30093 688.000
62.32088 760.000
62.34083 761.000
62.36077 861.000
62.38072 892.000
62.40067 1105.000
62.42062 1154.000
62.44056 1228.000
62.46051 1300.000
62.48046 1447.000
62.50040 1557.000
62.52035 1706.000
62.54030 1833.000
62.56024 1919.000
62.58019 2114.000
62.60014 2149.000
62.62009 2116.000
62.64003 2119.000
62.65998 2088.000
62.67993 2055.000
62.69987 1971.000
62.71982 1884.000
62.73977 1790.000
62.75971 1680.000
62.77966 1542.000
62.79961 1400.000
62.81955 1342.000
62.83950 1235.000
62.85945 1147.000
62.87940 1069.000
62.89934 932.000
62.91929 898.000
62.93924 789.000
62.95918 697.000
62.97913 655.000
62.99908 620.000
63.01902 595.000
63.03897 584.000
63.05892 505.000
63.07887 469.000
63.09881 522.000
63.11876 490.000
63.13871 465.000
63.15865 462.000
63.17860 445.000
63.19855 412.000
63.21849 413.000
63.23844 379.000
63.25839 359.000
63.27833 353.000
63.29828 357.000
63.31823 337.000
63.33818 345.000
63.35812 336.000
63.37807 329.000
63.39802 311.000
63.41796 330.000
63.43791 302.000
63.45786 319.000
63.47780 305.000
63.49775 265.000
63.51770 253.000
63.53765 260.000
63.55759 315.000
63.57754 317.000
63.59749 241.000
63.61743 255.000
63.63738 231.000
63.65733 263.000
63.67727 287.000
63.69722 264.000
63.71717 273.000
63.73712 260.000
63.75706 286.000
63.77701 290.000
63.79696 246.000
63.81690 273.000
63.83685 257.000
63.85680 267.000
63.87674 264.000
63.89669 287.000
63.91664 279.000
63.93658 279.000
63.95653 273.000
63.97648 246.000
63.99643 286.000
64.01637 286.000
64.03632 282.000
64.05627 260.000
64.07621 311.000
64.09616 317.000
64.11611 277.000
64.13605 312.000
64.15600 297.000
64.17595 274.000
64.19590 310.000
64.21584 285.000
64.23579 269.000
64.25574 272.000
64.27568 273.000
64.29563 266.000
64.31558 260.000
64.33552 282.000
64.35547 257.000
64.37542 246.000
64.39536 271.000
64.41531 265.000
64.43526 264.000
64.45521 269.000
64.47515 255.000
64.49510 280.000
64.51505 263.000
64.53499 269.000
64.55494 257.000
64.57489 266.000
64.59483 253.000
64.61478 236.000
64.63473 238.000
64.65468 232.000
64.67462 263.000
64.69457 271.000
64.71452 253.000
64.73446 248.000
64.75441 239.000
64.77436 254.000
64.79430 235.000
64.81425 217.000
64.83420 248.000
64.85414 218.000
64.87409 257.000
64.89404 268.000
64.91399 238.000
64.93393 212.000
64.95388 255.000
64.97383 239.000
64.99377 230.000
65.01372 242.000
65.03367 231.000
65.05361 214.000
65.07356 249.000
65.09351 262.000
65.11346 266.000
65.13340 252.000
65.15335 273.000
65.17330 260.000
65.19324 247.000
65.21319 264.000
65.23314 242.000
65.25308 246.000
65.27303 262.000
65.29298 260.000
65.31293 274.000
65.33287 257.000
65.35282 291.000
65.37277 278.000
65.39271 282.000
65.41266 306.000
65.43261 274.000
65.45255 264.000
65.47250 266.000
65.49245 286.000
65.51239 310.000
65.53234 319.000
65.55229 317.000
65.57224 306.000
65.59218 283.000
65.61213 307.000
65.63208 292.000
65.65202 331.000
65.67197 317.000
65.69192 296.000
65.71186 270.000
65.73181 268.000
65.75176 289.000
65.77171 277.000
65.79165 297.000
65.81160 266.000
65.83155 260.000
65.85149 275.000
65.87144 262.000
65.89139 283.000
65.91133 253.000
65.93128 290.000
65.95123 274.000
65.97117 261.000
65.99112 270.000
66.01107 277.000
66.03102 259.000
66.05096 247.000
66.07091 229.000
66.09086 280.000
66.11080 253.000
66.13075 251.000
66.15070 258.000
66.17064 282.000
66.19059 285.000
66.21054 277.000
66.23049 270.000
66.25043 276.000
66.27038 251.000
66.29033 270.000
66.31027 257.000
66.33022 287.000
66.35017 255.000
66.37011 275.000
66.39006 259.000
66.41001 274.000
66.42995 271.000
66.44990 260.000
66.46985 269.000
66.48980 266.000
66.50974 260.000
66.52969 267.000
66.54964 279.000
66.56958 252.000
66.58953 292.000
66.60948 267.000
66.62942 245.000
66.64937 301.000
66.66932 269.000
66.68927 246.000
66.70921 274.000
66.72916 261.000
66.74911 282.000
66.76905 258.000
66.78900 280.000
66.80895 258.000
66.82889 266.000
66.84884 252.000
66.86879 289.000
66.88874 250.000
66.90868 244.000
66.92863 206.000
66.94858 298.000
66.96852 261.000
66.98847 250.000
67.00842 305.000
67.02836 265.000
67.04831 255.000
67.06826 258.000
67.08820 251.000
67.10815 249.000
67.12810 222.000
67.14805 246.000
67.16799 240.000
67.18794 243.000
67.20789 246.000
67.22783 253.000
67.24778 248.000
67.26773 236.000
67.28767 229.000
67.30762 238.000
67.32757 244.000
67.34752 246.000
67.36746 231.000
67.38741 249.000
67.40736 235.000
67.42730 252.000
67.44725 245.000
67.46720 225.000
67.48714 258.000
67.50709 267.000
67.52704 235.000
67.54698 262.000
67.56693 244.000
67.58688 249.000
67.60683 252.000
67.62677 240.000
67.64672 251.000
67.66667 261.000
67.68661 262.000
67.70656 233.000
67.72651 255.000
67.74645 250.000
67.76640 264.000
67.78635 266.000
67.80630 260.000
67.82624 281.000
67.84619 284.000
67.86614 261.000
67.88608 267.000
67.90603 241.000
67.92598 285.000
67.94592 271.000
67.96587 246.000
67.98582 271.000
68.00576 273.000
68.02571 262.000
68.04566 263.000
68.06561 278.000
68.08555 258.000
68.10550 286.000
68.12545 261.000
68.14539 255.000
68.16534 298.000
68.18529 245.000
68.20523 287.000
68.22518 263.000
68.24513 245.000
68.26508 238.000
68.28502 260.000
68.30497 262.000
68.32492 256.000
68.34486 259.000
68.36481 240.000
68.38476 292.000
68.40470 244.000
68.42465 239.000
68.44460 258.000
68.46455 265.000
68.48449 232.000
68.50444 246.000
68.52439 258.000
68.54433 290.000
68.56428 260.000
68.58423 245.000
68.60417 238.000
68.62412 244.000
68.64407 224.000
68.66401 263.000
68.68396 261.000
68.70391 253.000
68.72386 264.000
68.74380 268.000
68.76375 244.000
68.78370 238.000
68.80364 260.000
68.82359 220.000
68.84354 229.000
68.86348 254.000
68.88343 245.000
68.90338 241.000
68.92333 220.000
68.94327 246.000
68.96322 224.000
68.98317 228.000
69.00311 224.000
69.02306 248.000
69.04301 229.000
69.06295 232.000
69.08290 241.000
69.10285 226.000
69.12279 232.000
69.14274 244.000
69.16269 261.000
69.18264 274.000
69.20258 235.000
69.22253 244.000
69.24248 243.000
69.26242 247.000
69.28237 238.000
69.30232 217.000
69.32226 267.000
69.34221 254.000
69.36216 217.000
69.38211 235.000
69.40205 257.000
69.42200 222.000
69.44195 240.000
69.46189 207.000
69.48184 244.000
69.50179 256.000
69.52173 246.000
69.54168 239.000
69.56163 242.000
69.58157 258.000
69.60152 238.000
69.62147 235.000
69.64142 244.000
69.66136 255.000
69.68131 227.000
69.70126 256.000
69.72120 255.000
69.74115 221.000
69.76110 263.000
69.78104 256.000
69.80099 211.000
69.82094 260.000
69.84089 227.000
69.86083 235.000
69.88078 229.000
69.90073 225.000
69.92067 250.000
69.94062 248.000
69.96057 236.000
69.98051 209.000
70.00046 256.000
70.02041 232.000
70.04035 211.000
70.06030 248.000
70.08025 230.000
70.10020 230.000
70.12014 229.000
70.14009 250.000
70.16004 237.000
70.17998 230.000
70.19993 229.000
70.21988 238.000
70.23982 226.000
70.25977 211.000
70.27972 233.000
70.29967 249.000
70.31961 263.000
70.33956 256.000
70.35951 227.000
70.37945 234.000
70.39940 232.000
70.41935 261.000
70.43929 221.000
70.45924 214.000
70.47919 220.000
70.49914 232.000
70.51908 229.000
70.53903 259.000
70.55898 236.000
70.57892 236.000
70.59887 227.000
70.61882 234.000
70.63876 214.000
70.65871 202.000
70.67866 208.000
70.69860 238.000
70.71855 219.000
70.73850 232.000
70.75845 255.000
70.77839 234.000
70.79834 257.000
70.81829 210.000
70.83823 216.000
70.85818 252.000
70.87813 231.000
70.89807 241.000
70.91802 211.000
70.93797 230.000
70.95792 251.000
70.97786 250.000
70.99781 240.000
71.01776 256.000
71.03770 239.000
71.05765 226.000
71.07760 252.000
71.09754 236.000
71.11749 234.000
71.13744 222.000
71.15738 232.000
71.17733 224.000
71.19728 233.000
71.21723 238.000
71.23717 199.000
71.25712 240.000
71.27707 228.000
71.29701 243.000
71.31696 261.000
71.33691 249.000
71.35685 219.000
71.37680 254.000
71.39675 244.000
71.41670 258.000
71.43664 233.000
71.45659 242.000
71.47654 248.000
71.49648 234.000
71.51643 233.000
71.53638 221.000
71.55632 254.000
71.57627 220.000
71.59622 244.000
71.61616 226.000
71.63611 230.000
71.65606 241.000
71.67601 232.000
71.69595 267.000
71.71590 268.000
71.73585 248.000
71.75579 221.000
71.77574 231.000
71.79569 255.000
71.81563 255.000
71.83558 233.000
71.85553 233.000
71.87548 243.000
71.89542 209.000
71.91537 252.000
71.93532 232.000
71.95526 235.000
71.97521 238.000
71.99516 260.000
72.01510 254.000
72.03505 236.000
72.05500 248.000
72.07495 244.000
72.09489 252.000
72.11484 228.000
72.13479 213.000
72.15473 245.000
72.17468 247.000
72.19463 224.000
72.21457 249.000
72.23452 238.000
72.25447 260.000
72.27441 250.000
72.29436 251.000
72.31431 225.000
72.33426 259.000
72.35420 222.000
72.37415 222.000
72.39410 234.000
72.41404 248.000
72.43399 233.000
72.45394 226.000
72.47388 255.000
72.49383 247.000
72.51378 275.000
72.53373 259.000
72.55367 241.000
72.57362 232.000
72.59357 258.000
72.61351 229.000
72.63346 249.000
72.65341 229.000
72.67335 261.000
72.69330 276.000
72.71325 269.000
72.73319 242.000
72.75314 253.000
72.77309 265.000
72.79304 265.000
72.81298 283.000
72.83293 232.000
72.85288 254.000
72.87282 297.000
72.89277 268.000
72.91272 263.000
72.93266 267.000
72.95261 262.000
72.97256 271.000
72.99251 256.000
73.01245 287.000
73.03240 272.000
73.05235 261.000
73.07229 263.000
73.09224 281.000
73.11219 256.000
73.13213 262.000
73.15208 247.000
73.17203 256.000
73.19197 277.000
73.21192 259.000
73.23187 230.000
73.25182 242.000
73.27176 241.000
73.29171 264.000
73.31166 269.000
73.33160 288.000
73.35155 274.000
73.37150 260.000
73.39144 250.000
73.41139 248.000
73.43134 252.000
73.45129 285.000
73.47123 258.000
73.49118 274.000
73.51113 259.000
73.53107 262.000
73.55102 274.000
73.57097 282.000
73.59091 283.000
73.61086 277.000
73.63081 266.000
73.65076 240.000
73.67070 285.000
73.69065 269.000
73.71060 259.000
73.73054 296.000
73.75049 256.000
73.77044 278.000
73.79038 281.000
73.81033 293.000
73.83028 262.000
73.85022 255.000
73.87017 250.000
73.89012 259.000
73.91007 217.000
73.93001 286.000
73.94996 279.000
73.96991 295.000
73.98985 276.000
74.00980 294.000
74.02975 240.000
74.04969 260.000
74.06964 255.000
74.08959 249.000
74.10954 251.000
74.12948 238.000
74.14943 263.000
74.16938 286.000
74.18932 242.000
74.20927 267.000
74.22922 243.000
74.24916 272.000
74.26911 257.000
74.28906 237.000
74.30900 268.000
74.32895 273.000
74.34890 250.000
74.36885 298.000
74.38879 294.000
74.40874 292.000
74.42869 330.000
74.44863 299.000
74.46858 332.000
74.48853 296.000
74.50847 314.000
74.52842 276.000
74.54837 335.000
74.56832 273.000
74.58826 344.000
74.60821 341.000
74.62816 351.000
74.64810 343.000
74.66805 357.000
74.68800 371.000
74.70794 405.000
74.72789 347.000
74.74784 378.000
74.76778 416.000
74.78773 448.000
74.80768 489.000
74.82763 473.000
74.84757 520.000
74.86752 515.000
74.88747 527.000
74.90741 580.000
74.92736 590.000
74.94731 643.000
74.96725 696.000
74.98720 738.000
75.00715 761.000
75.02710 782.000
75.04704 799.000
75.06699 826.000
75.08694 868.000
75.10688 827.000
75.12683 823.000
75.14678 854.000
75.16672 811.000
75.18667 905.000
75.20662 811.000
75.22657 782.000
75.24651 728.000
75.26646 673.000
75.28641 648.000
75.30635 706.000
75.32630 599.000
75.34625 624.000
75.36619 586.000
75.38614 530.000
75.40609 505.000
75.42603 467.000
75.44598 486.000
75.46593 430.000
75.48588 407.000
75.50582 346.000
75.52577 351.000
75.54572 333.000
75.56566 328.000
75.58561 308.000
75.60556 285.000
75.62550 279.000
75.64545 264.000
75.66540 295.000
75.68535 297.000
75.70529 301.000
75.72524 271.000
75.74519 265.000
75.76513 273.000
75.78508 297.000
75.80503 249.000
75.82497 261.000
75.84492 279.000
75.86487 281.000
75.88481 272.000
75.90476 238.000
75.92471 272.000
75.94466 244.000
75.96460 266.000
75.98455 246.000
76.00450 257.000
76.02444 241.000
76.04439 230.000
76.06434 256.000
76.08428 257.000
76.10423 243.000
76.12418 273.000
76.14413 225.000
76.16407 265.000
76.18402 245.000
76.20397 256.000
76.22391 239.000
76.24386 223.000
76.26381 240.000
76.28375 267.000
76.30370 254.000
76.32365 219.000
76.34359 262.000
76.36354 226.000
76.38349 228.000
76.40344 232.000
76.42338 231.000
76.44333 235.000
76.46328 271.000
76.48322 208.000
76.50317 244.000
76.52312 229.000
76.54306 235.000
76.56301 237.000
76.58296 244.000
76.60291 251.000
76.62285 226.000
76.64280 214.000
76.66275 213.000
76.68269 267.000
76.70264 229.000
76.72259 252.000
76.74253 244.000
76.76248 217.000
76.78243 223.000
76.80238 251.000
76.82232 251.000
76.84227 264.000
76.86222 229.000
76.88216 238.000
76.90211 239.000
76.92206 246.000
76.94200 247.000
76.96195 228.000
76.98190 244.000
77.00184 214.000
77.02179 246.000
77.04174 227.000
77.06169 235.000
77.08163 264.000
77.10158 247.000
77.12153 228.000
77.14147 249.000
77.16142 246.000
77.18137 250.000
77.20131 255.000
77.22126 248.000
77.24121 231.000
77.26116 251.000
77.28110 244.000
77.30105 252.000
77.32100 217.000
77.34094 239.000
77.36089 239.000
77.38084 273.000
77.40078 255.000
77.42073 242.000
77.44068 212.000
77.46062 245.000
77.48057 232.000
77.50052 229.000
77.52047 247.000
77.54041 238.000
77.56036 231.000
77.58031 222.000
77.60025 254.000
77.62020 255.000
77.64015 248.000
77.66009 241.000
77.68004 250.000
77.69999 257.000
77.71994 207.000
77.73988 262.000
77.75983 269.000
77.77978 259.000
77.79972 248.000
77.81967 244.000
77.83962 271.000
77.85956 273.000
77.87951 284.000
77.89946 279.000
77.91940 261.000
77.93935 262.000
77.95930 273.000
77.97925 257.000
77.99919 264.000
78.01914 257.000
78.03909 285.000
78.05903 246.000
78.07898 278.000
78.09893 274.000
78.11887 272.000
78.13882 266.000
78.15877 288.000
78.17872 268.000
78.19866 272.000
78.21861 295.000
78.23856 283.000
78.25850 264.000
78.27845 289.000
78.29840 278.000
78.31834 296.000
78.33829 299.000
78.35824 297.000
78.37819 308.000
78.39813 290.000
78.41808 305.000
78.43803 298.000
78.45797 305.000
78.47792 326.000
78.49787 317.000
78.51781 334.000
78.53776 309.000
78.55771 335.000
78.57765 346.000
78.59760 332.000
78.61755 340.000
78.63750 365.000
78.65744 369.000
78.67739 346.000
78.69734 413.000
78.71728 415.000
78.73723 435.000
78.75718 380.000
78.77712 413.000
78.79707 439.000
78.81702 420.000
78.83697 449.000
78.85691 510.000
78.87686 468.000
78.89681 532.000
78.91675 568.000
78.93670 505.000
78.95665 605.000
78.97659 611.000
78.99654 650.000
79.01649 622.000
79.03643 666.000
79.05638 683.000
79.07633 685.000
79.09628 686.000
79.11622 629.000
79.13617 666.000
79.15612 672.000
79.17606 614.000
79.19601 588.000
79.21596 573.000
79.23590 580.000
79.25585 524.000
79.27580 533.000
79.29575 525.000
79.31569 475.000
79.33564 461.000
79.35559 459.000
79.37553 447.000
79.39548 413.000
79.41543 404.000
79.43537 364.000
79.45532 338.000
79.47527 344.000
79.49521 353.000
79.51516 371.000
79.53511 299.000
79.55506 290.000
79.57500 300.000
79.59495 293.000
79.61490 249.000
79.63484 257.000
79.65479 268.000
79.67474 267.000
79.69468 260.000
79.71463 265.000
79.73458 243.000
79.75453 259.000
79.77447 230.000
79.79442 269.000
79.81437 277.000
79.83431 255.000
79.85426 268.000
79.87421 262.000
79.89415 217.000
79.91410 245.000
79.93405 261.000
79.95399 229.000
79.97394 243.000
79.99389 266.000
80.01384 257.000
80.03378 253.000
80.05373 264.000
80.07368 255.000
80.09362 242.000
80.11357 249.000
80.13352 244.000
80.15346 230.000
80.17341 234.000
80.19336 253.000
80.21331 235.000
80.23325 271.000
80.25320 234.000
80.27315 268.000
80.29309 231.000
80.31304 221.000
80.33299 237.000
80.35293 252.000
80.37288 255.000
80.39283 220.000
80.41278 251.000
80.43272 241.000
80.45267 205.000
80.47262 259.000
80.49256 228.000
80.51251 233.000
80.53246 228.000
80.55240 215.000
80.57235 257.000
80.59230 225.000
80.61224 217.000
80.63219 238.000
80.65214 250.000
80.67209 221.000
80.69203 274.000
80.71198 244.000
80.73193 236.000
80.75187 235.000
80.77182 251.000
80.79177 225.000
80.81171 237.000
80.83166 236.000
80.85161 260.000
80.87156 245.000
80.89150 247.000
80.91145 235.000
80.93140 219.000
80.95134 245.000
80.97129 229.000
80.99124 228.000
81.01118 251.000
81.03113 247.000
81.05108 266.000
81.07102 229.000
81.09097 211.000
81.11092 237.000
81.13087 268.000
81.15081 236.000
81.17076 242.000
81.19071 231.000
81.21065 248.000
81.23060 212.000
81.25055 211.000
81.27049 251.000
81.29044 223.000
81.31039 235.000
81.33034 235.000
81.35028 262.000
81.37023 222.000
81.39018 256.000
81.41012 255.000
81.43007 271.000
81.45002 218.000
81.46996 218.000
81.48991 211.000
81.50986 218.000
81.52980 246.000
81.54975 227.000
81.56970 246.000
81.58965 256.000
81.60959 230.000
81.62954 244.000
81.64949 223.000
81.66943 230.000
81.68938 236.000
81.70933 226.000
81.72927 224.000
81.74922 240.000
81.76917 241.000
81.78912 218.000
81.80906 208.000
81.82901 219.000
81.84896 223.000
81.86890 226.000
81.88885 208.000
81.90880 247.000
81.92874 238.000
81.94869 235.000
81.96864 230.000
81.98859 230.000
82.00853 231.000
82.02848 265.000
82.04843 251.000
82.06837 229.000
82.08832 205.000
82.10827 224.000
82.12821 214.000
82.14816 220.000
82.16811 245.000
82.18805 227.000
82.20800 213.000
82.22795 259.000
82.24790 224.000
82.26784 235.000
82.28779 223.000
82.30774 235.000
82.32768 221.000
82.34763 245.000
82.36758 221.000
82.38752 220.000
82.40747 258.000
82.42742 237.000
82.44737 230.000
82.46731 232.000
82.48726 221.000
82.50721 261.000
82.52715 237.000
82.54710 225.000
82.56705 245.000
82.58699 226.000
82.60694 227.000
82.62689 225.000
82.64683 220.000
82.66678 259.000
82.68673 216.000
82.70668 241.000
82.72662 234.000
82.74657 237.000
82.76652 237.000
82.78646 242.000
82.80641 225.000
82.82636 234.000
82.84630 244.000
82.86625 254.000
82.88620 227.000
82.90615 255.000
82.92609 209.000
82.94604 255.000
82.96599 259.000
82.98593 237.000
83.00588 271.000
83.02583 223.000
83.04577 228.000
83.06572 235.000
83.08567 243.000
83.10561 262.000
83.12556 241.000
83.14551 227.000
83.16546 239.000
83.18540 251.000
83.20535 255.000
83.22530 248.000
83.24524 238.000
83.26519 249.000
83.28514 241.000
83.30508 229.000
83.32503 244.000
83.34498 228.000
83.36493 240.000
83.38487 251.000
83.40482 228.000
83.42477 232.000
83.44471 260.000
83.46466 236.000
83.48461 256.000
83.50455 248.000
83.52450 233.000
83.54445 250.000
83.56440 220.000
83.58434 254.000
83.60429 233.000
83.62424 248.000
83.64418 204.000
83.66413 231.000
83.68408 225.000
83.70402 245.000
83.72397 220.000
83.74392 227.000
83.76386 237.000
83.78381 222.000
83.80376 252.000
83.82371 228.000
83.84365 236.000
83.86360 246.000
83.88355 256.000
83.90349 246.000
83.92344 217.000
83.94339 227.000
83.96333 247.000
83.98328 224.000
84.00323 255.000
84.02318 237.000
84.04312 251.000
84.06307 243.000
84.08302 238.000
84.10296 237.000
84.12291 236.000
84.14286 229.000
84.16280 232.000
84.18275 243.000
84.20270 224.000
84.22264 213.000
84.24259 267.000
84.26254 277.000
84.28249 233.000
84.30243 270.000
84.32238 255.000
84.34233 260.000
84.36227 246.000
84.38222 266.000
84.40217 241.000
84.42211 263.000
84.44206 263.000
84.46201 209.000
84.48196 251.000
84.50190 263.000
84.52185 234.000
84.54180 245.000
84.56174 274.000
84.58169 256.000
84.60164 268.000
84.62158 289.000
84.64153 261.000
84.66148 217.000
84.68142 253.000
84.70137 233.000
84.72132 260.000
84.74127 237.000
84.76121 239.000
84.78116 244.000
84.80111 249.000
84.82105 243.000
84.84100 261.000
84.86095 247.000
84.88089 226.000
84.90084 246.000
84.92079 242.000
84.94074 221.000
84.96068 227.000
84.98063 245.000
85.00058 234.000
85.02052 243.000
85.04047 216.000
85.06042 245.000
85.08036 236.000
85.10031 213.000
85.12026 259.000
85.14021 200.000
85.16015 264.000
85.18010 256.000
85.20005 235.000
85.21999 224.000
85.23994 204.000
85.25989 245.000
85.27983 225.000
85.29978 232.000
85.31973 219.000
85.33967 228.000
85.35962 225.000
85.37957 214.000
85.39952 240.000
85.41946 221.000
85.43941 223.000
85.45936 258.000
85.47930 256.000
85.49925 262.000
85.51920 219.000
85.53914 243.000
85.55909 265.000
85.57904 236.000
85.59899 241.000
85.61893 241.000
85.63888 246.000
85.65883 244.000
85.67877 254.000
85.69872 253.000
85.71867 230.000
85.73861 222.000
85.75856 258.000
85.77851 254.000
85.79845 223.000
85.81840 220.000
85.83835 241.000
85.85830 209.000
85.87824 230.000
85.89819 257.000
85.91814 232.000
85.93808 231.000
85.95803 222.000
85.97798 244.000
85.99792 210.000
86.01787 239.000
86.03782 240.000
86.05777 254.000
86.07771 233.000
86.09766 228.000
86.11761 254.000
86.13755 251.000
86.15750 238.000
86.17745 251.000
86.19739 242.000
86.21734 245.000
86.23729 216.000
86.25723 252.000
86.27718 243.000
86.29713 223.000
86.31708 215.000
86.33702 224.000
86.35697 256.000
86.37692 231.000
86.39686 236.000
86.41681 241.000
86.43676 250.000
86.45670 237.000
86.47665 230.000
86.49660 239.000
86.51655 277.000
86.53649 224.000
86.55644 246.000
86.57639 220.000
86.59633 236.000
86.61628 241.000
86.63623 214.000
86.65617 228.000
86.67612 234.000
86.69607 235.000
86.71602 277.000
86.73596 240.000
86.75591 241.000
86.77586 259.000
86.79580 246.000
86.81575 247.000
86.83570 246.000
86.85564 257.000
86.87559 250.000
86.89554 250.000
86.91548 226.000
86.93543 258.000
86.95538 249.000
86.97533 222.000
86.99527 270.000
87.01522 237.000
87.03517 267.000
87.05511 244.000
87.07506 248.000
87.09501 232.000
87.11495 250.000
87.13490 254.000
87.15485 273.000
87.17480 262.000
87.19474 233.000
87.21469 278.000
87.23464 279.000
87.25458 241.000
87.27453 251.000
87.29448 223.000
87.31442 228.000
87.33437 268.000
87.35432 225.000
87.37426 244.000
87.39421 238.000
87.41416 230.000
87.43411 240.000
87.45405 233.000
87.47400 254.000
87.49395 246.000
87.51389 240.000
87.53384 257.000
87.55379 255.000
87.57373 231.000
87.59368 242.000
87.61363 224.000
87.63358 212.000
87.65352 238.000
87.67347 235.000
87.69342 237.000
87.71336 275.000
87.73331 268.000
87.75326 223.000
87.77320 265.000
87.79315 261.000
87.81310 260.000
87.83304 249.000
87.85299 224.000
87.87294 263.000
87.89289 284.000
87.91283 233.000
87.93278 221.000
87.95273 239.000
87.97267 220.000
87.99262 214.000
88.01257 263.000
88.03251 255.000
88.05246 221.000
88.07241 235.000
88.09236 256.000
88.11230 249.000
88.13225 264.000
88.15220 231.000
88.17214 224.000
88.19209 218.000
88.21204 242.000
88.23198 240.000
88.25193 238.000
88.27188 226.000
88.29183 248.000
88.31177 237.000
88.33172 212.000
88.35167 245.000
88.37161 240.000
88.39156 221.000
88.41151 249.000
88.43145 257.000
88.45140 259.000
88.47135 266.000
88.49129 224.000
88.51124 243.000
88.53119 240.000
88.55114 241.000
88.57108 224.000
88.59103 238.000
88.61098 229.000
88.63092 231.000
88.65087 253.000
88.67082 233.000
88.69076 236.000
88.71071 247.000
88.73066 219.000
88.75061 240.000
88.77055 230.000
88.79050 232.000
88.81045 252.000
88.83039 253.000
88.85034 221.000
88.87029 227.000
88.89023 223.000
88.91018 237.000
88.93013 233.000
88.95007 226.000
88.97002 237.000
88.98997 223.000
89.00992 251.000
89.02986 235.000
89.04981 250.000
89.06976 233.000
89.08970 254.000
89.10965 237.000
89.12960 233.000
89.14954 251.000
89.16949 238.000
89.18944 225.000
89.20939 232.000
89.22933 260.000
89.24928 254.000
89.26923 247.000
89.28917 242.000
89.30912 236.000
89.32907 254.000
89.34901 221.000
89.36896 219.000
89.38891 226.000
89.40885 243.000
89.42880 232.000
89.44875 226.000
89.46870 240.000
89.48864 278.000
89.50859 277.000
89.52854 231.000
89.54848 196.000
89.56843 222.000
89.58838 236.000
89.60832 221.000
89.62827 254.000
89.64822 254.000
89.66817 224.000
89.68811 255.000
89.70806 258.000
89.72801 222.000
89.74795 235.000
89.76790 257.000
89.78785 258.000
89.80779 237.000
89.82774 278.000
89.84769 242.000
89.86764 246.000
89.88758 234.000
89.90753 248.000
89.92748 264.000
89.94742 234.000
89.96737 243.000
89.98732 255.000
90.00726 248.000
