10.00000 53.000
10.01995 70.000
10.03989 65.000
10.05984 69.000
10.07979 66.000
10.09973 56.000
10.11968 67.000
10.13963 60.000
10.15958 57.000
10.17952 61.000
10.19947 64.000
10.21942 61.000
10.23936 56.000
10.25931 60.000
10.27926 71.000
10.29920 66.000
10.31915 56.000
10.33910 63.000
10.35905 56.000
10.37899 79.000
10.39894 72.000
10.41889 47.000
10.43883 59.000
10.45878 65.000
10.47873 69.000
10.49867 59.000
10.51862 62.000
10.53857 73.000
10.55851 61.000
10.57846 68.000
10.59841 63.000
10.61836 77.000
10.63830 61.000
10.65825 73.000
10.67820 72.000
10.69814 67.000
10.71809 61.000
10.73804 55.000
10.75798 58.000
10.77793 60.000
10.79788 65.000
10.81783 62.000
10.83777 57.000
10.85772 63.000
10.87767 71.000
10.89761 70.000
10.91756 62.000
10.93751 78.000
10.95745 64.000
10.97740 75.000
10.99735 63.000
11.01730 66.000
11.03724 88.000
11.05719 71.000
11.07714 56.000
11.09708 69.000
11.11703 54.000
11.13698 54.000
11.15692 70.000
11.17687 73.000
11.19682 75.000
11.21676 68.000
11.23671 69.000
11.25666 63.000
11.27661 66.000
11.29655 63.000
11.31650 45.000
11.33645 61.000
11.35639 74.000
11.37634 67.000
11.39629 75.000
11.41623 73.000
11.43618 60.000
11.45613 78.000
11.47608 62.000
11.49602 65.000
11.51597 69.000
11.53592 60.000
11.55586 52.000
11.57581 71.000
11.59576 64.000
11.61570 72.000
11.63565 67.000
11.65560 67.000
11.67554 61.000
11.69549 59.000
11.71544 63.000
11.73539 73.000
11.75533 63.000
11.77528 74.000
11.79523 56.000
11.81517 70.000
11.83512 86.000
11.85507 83.000
11.87501 69.000
11.89496 51.000
11.91491 63.000
11.93486 51.000
11.95480 65.000
11.97475 75.000
11.99470 70.000
12.01464 63.000
12.03459 64.000
12.05454 84.000
12.07448 72.000
12.09443 71.000
12.11438 67.000
12.13432 69.000
12.15427 77.000
12.17422 72.000
12.19417 67.000
12.21411 56.000
12.23406 68.000
12.25401 72.000
12.27395 86.000
12.29390 59.000
12.31385 73.000
12.33379 54.000
12.35374 64.000
12.37369 72.000
12.39364 71.000
12.41358 61.000
12.43353 73.000
12.45348 71.000
12.47342 78.000
12.49337 72.000
12.51332 72.000
12.53326 65.000
12.55321 60.000
12.57316 82.000
12.59311 71.000
12.61305 66.000
12.63300 72.000
12.65295 79.000
12.67289 67.000
12.69284 72.000
12.71279 62.000
12.73273 56.000
12.75268 76.000
12.77263 70.000
12.79257 61.000
12.81252 68.000
12.83247 71.000
12.85242 81.000
12.87236 74.000
12.89231 75.000
12.91226 65.000
12.93220 54.000
12.95215 74.000
12.97210 70.000
12.99204 58.000
13.01199 58.000
13.03194 81.000
13.05189 81.000
13.07183 69.000
13.09178 77.000
13.11173 74.000
13.13167 66.000
13.15162 64.000
13.17157 59.000
13.19151 66.000
13.21146 59.000
13.23141 68.000
13.25135 62.000
13.27130 70.000
13.29125 69.000
13.31120 65.000
13.33114 65.000
13.35109 76.000
13.37104 73.000
13.39098 73.000
13.41093 84.000
13.43088 60.000
13.45082 58.000
13.47077 72.000
13.49072 68.000
13.51067 80.000
13.53061 68.000
13.55056 60.000
13.57051 71.000
13.59045 87.000
13.61040 69.000
13.63035 72.000
13.65029 73.000
13.67024 72.000
13.69019 75.000
13.71013 66.000
13.73008 69.000
13.75003 79.000
13.76998 76.000
13.78992 78.000
13.80987 80.000
13.82982 85.000
13.84976 69.000
13.86971 62.000
13.88966 82.000
13.90960 60.000
13.92955 87.000
13.94950 59.000
13.96945 74.000
13.98939 70.000
14.00934 71.000
14.02929 72.000
14.04923 72.000
14.06918 75.000
14.08913 58.000
14.10907 78.000
14.12902 64.000
14.14897 76.000
14.16892 80.000
14.18886 87.000
14.20881 68.000
14.22876 69.000
14.24870 66.000
14.26865 71.000
14.28860 74.000
14.30854 87.000
14.32849 73.000
14.34844 75.000
14.36838 93.000
14.38833 72.000
14.40828 88.000
14.42823 76.000
14.44817 77.000
14.46812 90.000
14.48807 89.000
14.50801 78.000
14.52796 63.000
14.54791 73.000
14.56785 78.000
14.58780 82.000
14.60775 72.000
14.62770 80.000
14.64764 88.000
14.66759 60.000
14.68754 63.000
14.70748 76.000
14.72743 85.000
14.74738 81.000
14.76732 79.000
14.78727 88.000
14.80722 79.000
14.82716 60.000
14.84711 68.000
14.86706 75.000
14.88701 85.000
14.90695 87.000
14.92690 63.000
14.94685 78.000
14.96679 88.000
14.98674 92.000
15.00669 81.000
15.02663 73.000
15.04658 73.000
15.06653 106.000
15.08648 79.000
15.10642 85.000
15.12637 67.000
15.14632 83.000
15.16626 97.000
15.18621 87.000
15.20616 72.000
15.22610 99.000
15.24605 80.000
15.26600 80.000
15.28594 81.000
15.30589 90.000
15.32584 110.000
15.34579 83.000
15.36573 99.000
15.38568 86.000
15.40563 82.000
15.42557 91.000
15.44552 94.000
15.46547 93.000
15.48541 104.000
15.50536 101.000
15.52531 111.000
15.54526 89.000
15.56520 119.000
15.58515 120.000
15.60510 113.000
15.62504 132.000
15.64499 110.000
15.66494 114.000
15.68488 125.000
15.70483 136.000
15.72478 127.000
15.74472 143.000
15.76467 173.000
15.78462 195.000
15.80457 213.000
15.82451 258.000
15.84446 423.000
15.86441 518.000
15.88435 709.000
15.90430 1027.000
15.92425 1234.000
15.94419 1306.000
15.96414 1199.000
15.98409 1159.000
16.00404 1238.000
16.02398 1345.000
16.04393 1426.000
16.06388 1170.000
16.08382 824.000
16.10377 568.000
16.12372 407.000
16.14366 390.000
16.16361 442.000
16.18356 486.000
16.20351 607.000
16.22345 743.000
16.24340 877.000
16.26335 1067.000
16.28329 1172.000
16.30324 1209.000
16.32319 1215.000
16.34313 1227.000
16.36308 1245.000
16.38303 1157.000
16.40297 1088.000
16.42292 886.000
16.44287 690.000
16.46282 466.000
16.48276 349.000
16.50271 259.000
16.52266 189.000
16.54260 166.000
16.56255 154.000
16.58250 126.000
16.60244 113.000
16.62239 121.000
16.64234 132.000
16.66229 98.000
16.68223 121.000
16.70218 123.000
16.72213 109.000
16.74207 87.000
16.76202 114.000
16.78197 87.000
16.80191 93.000
16.82186 115.000
16.84181 84.000
16.86175 93.000
16.88170 97.000
16.90165 76.000
16.92160 102.000
16.94154 83.000
16.96149 90.000
16.98144 89.000
17.00138 108.000
17.02133 100.000
17.04128 95.000
17.06122 93.000
17.08117 101.000
17.10112 87.000
17.12107 110.000
17.14101 73.000
17.16096 104.000
17.18091 77.000
17.20085 85.000
17.22080 90.000
17.24075 97.000
17.26069 63.000
17.28064 99.000
17.30059 92.000
17.32053 79.000
17.34048 84.000
17.36043 92.000
17.38038 84.000
17.40032 101.000
17.42027 87.000
17.44022 77.000
17.46016 92.000
17.48011 89.000
17.50006 80.000
17.52000 79.000
17.53995 76.000
17.55990 85.000
17.57985 85.000
17.59979 103.000
17.61974 88.000
17.63969 85.000
17.65963 70.000
17.67958 75.000
17.69953 86.000
17.71947 95.000
17.73942 87.000
17.75937 84.000
17.77932 96.000
17.79926 101.000
17.81921 86.000
17.83916 96.000
17.85910 96.000
17.87905 75.000
17.89900 92.000
17.91894 78.000
17.93889 84.000
17.95884 82.000
17.97878 82.000
17.99873 103.000
18.01868 82.000
18.03863 90.000
18.05857 87.000
18.07852 86.000
18.09847 103.000
18.11841 74.000
18.13836 83.000
18.15831 87.000
18.17825 94.000
18.19820 82.000
18.21815 91.000
18.23810 100.000
18.25804 100.000
18.27799 73.000
18.29794 85.000
18.31788 79.000
18.33783 88.000
18.35778 91.000
18.37772 87.000
18.39767 88.000
18.41762 105.000
18.43756 141.000
18.45751 120.000
18.47746 127.000
18.49741 119.000
18.51735 108.000
18.53730 118.000
18.55725 99.000
18.57719 118.000
18.59714 108.000
18.61709 88.000
18.63703 105.000
18.65698 86.000
18.67693 78.000
18.69688 88.000
18.71682 65.000
18.73677 87.000
18.75672 110.000
18.77666 80.000
18.79661 90.000
18.81656 83.000
18.83650 87.000
18.85645 79.000
18.87640 101.000
18.89634 69.000
18.91629 66.000
18.93624 90.000
18.95619 90.000
18.97613 74.000
18.99608 86.000
19.01603 75.000
19.03597 80.000
19.05592 88.000
19.07587 89.000
19.09581 82.000
19.11576 70.000
19.13571 104.000
19.15566 95.000
19.17560 97.000
19.19555 71.000
19.21550 96.000
19.23544 94.000
19.25539 80.000
19.27534 75.000
19.29528 85.000
19.31523 91.000
19.33518 98.000
19.35513 109.000
19.37507 98.000
19.39502 73.000
19.41497 81.000
19.43491 99.000
19.45486 81.000
19.47481 96.000
19.49475 86.000
19.51470 84.000
19.53465 84.000
19.55459 75.000
19.57454 93.000
19.59449 81.000
19.61444 70.000
19.63438 73.000
19.65433 82.000
19.67428 98.000
19.69422 106.000
19.71417 76.000
19.73412 93.000
19.75406 88.000
19.77401 93.000
19.79396 90.000
19.81391 97.000
19.83385 83.000
19.85380 75.000
19.87375 92.000
19.89369 95.000
19.91364 90.000
19.93359 102.000
19.95353 80.000
19.97348 102.000
19.99343 90.000
20.01337 104.000
20.03332 98.000
20.05327 98.000
20.07322 78.000
20.09316 101.000
20.11311 88.000
20.13306 82.000
20.15300 91.000
20.17295 85.000
20.19290 83.000
20.21284 75.000
20.23279 99.000
20.25274 88.000
20.27269 82.000
20.29263 90.000
20.31258 75.000
20.33253 96.000
20.35247 72.000
20.37242 92.000
20.39237 87.000
20.41231 89.000
20.43226 88.000
20.45221 82.000
20.47215 90.000
20.49210 89.000
20.51205 87.000
20.53200 89.000
20.55194 97.000
20.57189 85.000
20.59184 101.000
20.61178 84.000
20.63173 88.000
20.65168 100.000
20.67162 76.000
20.69157 74.000
20.71152 94.000
20.73147 105.000
20.75141 83.000
20.77136 98.000
20.79131 96.000
20.81125 107.000
20.83120 120.000
20.85115 103.000
20.87109 111.000
20.89104 107.000
20.91099 123.000
20.93094 118.000
20.95088 139.000
20.97083 123.000
20.99078 117.000
21.01072 151.000
21.03067 142.000
21.05062 168.000
21.07056 144.000
21.09051 132.000
21.11046 153.000
21.13040 156.000
21.15035 163.000
21.17030 127.000
21.19025 131.000
21.21019 136.000
21.23014 116.000
21.25009 95.000
21.27003 101.000
21.28998 81.000
21.30993 99.000
21.32987 96.000
21.34982 109.000
21.36977 87.000
21.38972 72.000
21.40966 89.000
21.42961 92.000
21.44956 96.000
21.46950 90.000
21.48945 69.000
21.50940 88.000
21.52934 84.000
21.54929 103.000
21.56924 112.000
21.58918 89.000
21.60913 90.000
21.62908 95.000
21.64903 101.000
21.66897 91.000
21.68892 97.000
21.70887 86.000
21.72881 95.000
21.74876 89.000
21.76871 85.000
21.78865 92.000
21.80860 89.000
21.82855 96.000
21.84850 95.000
21.86844 99.000
21.88839 79.000
21.90834 77.000
21.92828 89.000
21.94823 83.000
21.96818 101.000
21.98812 88.000
22.00807 82.000
22.02802 97.000
22.04796 63.000
22.06791 95.000
22.08786 110.000
22.10781 89.000
22.12775 95.000
22.14770 103.000
22.16765 82.000
22.18759 74.000
22.20754 88.000
22.22749 91.000
22.24743 85.000
22.26738 82.000
22.28733 102.000
22.30728 99.000
22.32722 95.000
22.34717 100.000
22.36712 92.000
22.38706 103.000
22.40701 105.000
22.42696 94.000
22.44690 114.000
22.46685 78.000
22.48680 87.000
22.50675 108.000
22.52669 83.000
22.54664 86.000
22.56659 88.000
22.58653 109.000
22.60648 92.000
22.62643 95.000
22.64637 93.000
22.66632 83.000
22.68627 86.000
22.70621 81.000
22.72616 96.000
22.74611 89.000
22.76606 98.000
22.78600 109.000
22.80595 94.000
22.82590 96.000
22.84584 97.000
22.86579 100.000
22.88574 90.000
22.90568 81.000
22.92563 102.000
22.94558 104.000
22.96553 89.000
22.98547 102.000
23.00542 86.000
23.02537 94.000
23.04531 95.000
23.06526 87.000
23.08521 88.000
23.10515 95.000
23.12510 88.000
23.14505 86.000
23.16499 103.000
23.18494 86.000
23.20489 107.000
23.22484 99.000
23.24478 83.000
23.26473 84.000
23.28468 102.000
23.30462 96.000
23.32457 87.000
23.34452 117.000
23.36446 93.000
23.38441 86.000
23.40436 104.000
23.42431 99.000
23.44425 90.000
23.46420 104.000
23.48415 97.000
23.50409 97.000
23.52404 100.000
23.54399 95.000
23.56393 103.000
23.58388 99.000
23.60383 94.000
23.62377 91.000
23.64372 95.000
23.66367 85.000
23.68362 107.000
23.70356 115.000
23.72351 107.000
23.74346 112.000
23.76340 109.000
23.78335 101.000
23.80330 101.000
23.82324 81.000
23.84319 91.000
23.86314 80.000
23.88309 100.000
23.90303 109.000
23.92298 83.000
23.94293 95.000
23.96287 96.000
23.98282 87.000
24.00277 93.000
24.02271 101.000
24.04266 93.000
24.06261 105.000
24.08256 97.000
24.10250 86.000
24.12245 80.000
24.14240 96.000
24.16234 90.000
24.18229 103.000
24.20224 106.000
24.22218 104.000
24.24213 96.000
24.26208 106.000
24.28202 115.000
24.30197 111.000
24.32192 94.000
24.34187 99.000
24.36181 91.000
24.38176 99.000
24.40171 95.000
24.42165 94.000
24.44160 124.000
24.46155 111.000
24.48149 102.000
24.50144 106.000
24.52139 117.000
24.54134 102.000
24.56128 82.000
24.58123 110.000
24.60118 99.000
24.62112 102.000
24.64107 96.000
24.66102 92.000
24.68096 101.000
24.70091 91.000
24.72086 100.000
24.74080 113.000
24.76075 93.000
24.78070 90.000
24.80065 104.000
24.82059 100.000
24.84054 100.000
24.86049 106.000
24.88043 100.000
24.90038 104.000
24.92033 106.000
24.94027 105.000
24.96022 103.000
24.98017 92.000
25.00012 88.000
25.02006 104.000
25.04001 96.000
25.05996 124.000
25.07990 103.000
25.09985 114.000
25.11980 115.000
25.13974 121.000
25.15969 110.000
25.17964 106.000
25.19958 103.000
25.21953 111.000
25.23948 100.000
25.25943 103.000
25.27937 123.000
25.29932 112.000
25.31927 102.000
25.33921 103.000
25.35916 106.000
25.37911 89.000
25.39905 109.000
25.41900 93.000
25.43895 118.000
25.45890 110.000
25.47884 97.000
25.49879 90.000
25.51874 102.000
25.53868 90.000
25.55863 116.000
25.57858 119.000
25.59852 101.000
25.61847 105.000
25.63842 95.000
25.65837 85.000
25.67831 101.000
25.69826 95.000
25.71821 96.000
25.73815 94.000
25.75810 97.000
25.77805 122.000
25.79799 96.000
25.81794 104.000
25.83789 106.000
25.85783 111.000
25.87778 95.000
25.89773 101.000
25.91768 117.000
25.93762 94.000
25.95757 100.000
25.97752 110.000
25.99746 127.000
26.01741 104.000
26.03736 79.000
26.05730 102.000
26.07725 108.000
26.09720 106.000
26.11715 108.000
26.13709 77.000
26.15704 98.000
26.17699 93.000
26.19693 102.000
26.21688 105.000
26.23683 99.000
26.25677 85.000
26.27672 102.000
26.29667 112.000
26.31661 100.000
26.33656 94.000
26.35651 101.000
26.37646 107.000
26.39640 99.000
26.41635 90.000
26.43630 104.000
26.45624 100.000
26.47619 81.000
26.49614 111.000
26.51608 103.000
26.53603 98.000
26.55598 97.000
26.57593 98.000
26.59587 112.000
26.61582 97.000
26.63577 110.000
26.65571 97.000
26.67566 100.000
26.69561 124.000
26.71555 113.000
26.73550 119.000
26.75545 109.000
26.77539 101.000
26.79534 110.000
26.81529 93.000
26.83524 103.000
26.85518 96.000
26.87513 105.000
26.89508 116.000
26.91502 116.000
26.93497 107.000
26.95492 106.000
26.97486 123.000
26.99481 107.000
27.01476 94.000
27.03471 123.000
27.05465 89.000
27.07460 124.000
27.09455 91.000
27.11449 124.000
27.13444 119.000
27.15439 113.000
27.17433 106.000
27.19428 115.000
27.21423 123.000
27.23417 107.000
27.25412 121.000
27.27407 120.000
27.29402 104.000
27.31396 125.000
27.33391 107.000
27.35386 104.000
27.37380 111.000
27.39375 108.000
27.41370 107.000
27.43364 115.000
27.45359 87.000
27.47354 118.000
27.49349 104.000
27.51343 89.000
27.53338 118.000
27.55333 113.000
27.57327 113.000
27.59322 106.000
27.61317 115.000
27.63311 105.000
27.65306 111.000
27.67301 108.000
27.69296 121.000
27.71290 100.000
27.73285 98.000
27.75280 130.000
27.77274 127.000
27.79269 114.000
27.81264 107.000
27.83258 115.000
27.85253 106.000
27.87248 107.000
27.89242 137.000
27.91237 109.000
27.93232 124.000
27.95227 120.000
27.97221 92.000
27.99216 120.000
28.01211 128.000
28.03205 125.000
28.05200 101.000
28.07195 115.000
28.09189 100.000
28.11184 117.000
28.13179 120.000
28.15174 119.000
28.17168 123.000
28.19163 116.000
28.21158 118.000
28.23152 113.000
28.25147 103.000
28.27142 93.000
28.29136 127.000
28.31131 118.000
28.33126 123.000
28.35120 112.000
28.37115 102.000
28.39110 115.000
28.41105 116.000
28.43099 115.000
28.45094 107.000
28.47089 103.000
28.49083 115.000
28.51078 119.000
28.53073 120.000
28.55067 114.000
28.57062 122.000
28.59057 129.000
28.61052 99.000
28.63046 112.000
28.65041 103.000
28.67036 107.000
28.69030 112.000
28.71025 111.000
28.73020 124.000
28.75014 112.000
28.77009 112.000
28.79004 141.000
28.80998 120.000
28.82993 94.000
28.84988 112.000
28.86983 99.000
28.88977 120.000
28.90972 110.000
28.92967 92.000
28.94961 93.000
28.96956 128.000
28.98951 90.000
29.00945 119.000
29.02940 102.000
29.04935 120.000
29.06930 113.000
29.08924 111.000
29.10919 124.000
29.12914 116.000
29.14908 114.000
29.16903 123.000
29.18898 129.000
29.20892 108.000
29.22887 108.000
29.24882 136.000
29.26877 130.000
29.28871 122.000
29.30866 115.000
29.32861 112.000
29.34855 135.000
29.36850 118.000
29.38845 124.000
29.40839 138.000
29.42834 124.000
29.44829 117.000
29.46823 145.000
29.48818 147.000
29.50813 126.000
29.52808 134.000
29.54802 150.000
29.56797 134.000
29.58792 151.000
29.60786 113.000
29.62781 121.000
29.64776 108.000
29.66770 121.000
29.68765 118.000
29.70760 121.000
29.72755 121.000
29.74749 124.000
29.76744 90.000
29.78739 114.000
29.80733 113.000
29.82728 108.000
29.84723 107.000
29.86717 130.000
29.88712 114.000
29.90707 105.000
29.92701 126.000
29.94696 115.000
29.96691 130.000
29.98686 106.000
30.00680 135.000
30.02675 140.000
30.04670 117.000
30.06664 110.000
30.08659 131.000
30.10654 145.000
30.12648 144.000
30.14643 136.000
30.16638 115.000
30.18633 139.000
30.20627 122.000
30.22622 168.000
30.24617 141.000
30.26611 170.000
30.28606 166.000
30.30601 230.000
30.32595 224.000
30.34590 212.000
30.36585 229.000
30.38579 275.000
30.40574 290.000
30.42569 272.000
30.44564 220.000
30.46558 206.000
30.48553 205.000
30.50548 182.000
30.52542 186.000
30.54537 171.000
30.56532 136.000
30.58526 138.000
30.60521 128.000
30.62516 128.000
30.64511 118.000
30.66505 139.000
30.68500 117.000
30.70495 118.000
30.72489 136.000
30.74484 118.000
30.76479 111.000
30.78473 138.000
30.80468 125.000
30.82463 138.000
30.84458 105.000
30.86452 97.000
30.88447 117.000
30.90442 138.000
30.92436 125.000
30.94431 116.000
30.96426 131.000
30.98420 120.000
31.00415 132.000
31.02410 119.000
31.04404 109.000
31.06399 151.000
31.08394 134.000
31.10389 131.000
31.12383 120.000
31.14378 116.000
31.16373 127.000
31.18367 120.000
31.20362 118.000
31.22357 120.000
31.24351 136.000
31.26346 131.000
31.28341 124.000
31.30336 154.000
31.32330 136.000
31.34325 119.000
31.36320 129.000
31.38314 128.000
31.40309 117.000
31.42304 137.000
31.44298 127.000
31.46293 131.000
31.48288 120.000
31.50282 128.000
31.52277 134.000
31.54272 105.000
31.56267 113.000
31.58261 124.000
31.60256 106.000
31.62251 128.000
31.64245 146.000
31.66240 153.000
31.68235 125.000
31.70229 122.000
31.72224 102.000
31.74219 128.000
31.76214 112.000
31.78208 120.000
31.80203 129.000
31.82198 119.000
31.84192 121.000
31.86187 114.000
31.88182 124.000
31.90176 142.000
31.92171 156.000
31.94166 118.000
31.96160 135.000
31.98155 136.000
32.00150 142.000
32.02145 123.000
32.04139 133.000
32.06134 156.000
32.08129 187.000
32.10123 194.000
32.12118 214.000
32.14113 278.000
32.16107 267.000
32.18102 281.000
32.20097 271.000
32.22092 329.000
32.24086 322.000
32.26081 320.000
32.28076 315.000
32.30070 267.000
32.32065 243.000
32.34060 198.000
32.36054 194.000
32.38049 180.000
32.40044 161.000
32.42039 158.000
32.44033 137.000
32.46028 143.000
32.48023 123.000
32.50017 133.000
32.52012 132.000
32.54007 149.000
32.56001 150.000
32.57996 162.000
32.59991 144.000
32.61985 158.000
32.63980 137.000
32.65975 179.000
32.67970 158.000
32.69964 166.000
32.71959 178.000
32.73954 181.000
32.75948 221.000
32.77943 226.000
32.79938 224.000
32.81932 206.000
32.83927 244.000
32.85922 267.000
32.87917 280.000
32.89911 279.000
32.91906 308.000
32.93901 297.000
32.95895 291.000
32.97890 307.000
32.99885 308.000
33.01879 261.000
33.03874 273.000
33.05869 295.000
33.07863 244.000
33.09858 203.000
33.11853 194.000
33.13848 189.000
33.15842 153.000
33.17837 144.000
33.19832 146.000
33.21826 143.000
33.23821 136.000
33.25816 121.000
33.27810 131.000
33.29805 142.000
33.31800 128.000
33.33795 121.000
33.35789 140.000
33.37784 141.000
33.39779 120.000
33.41773 136.000
33.43768 124.000
33.45763 119.000
33.47757 136.000
33.49752 127.000
33.51747 123.000
33.53741 129.000
33.55736 114.000
33.57731 126.000
33.59726 127.000
33.61720 111.000
33.63715 113.000
33.65710 125.000
33.67704 114.000
33.69699 129.000
33.71694 122.000
33.73688 150.000
33.75683 118.000
33.77678 117.000
33.79673 136.000
33.81667 101.000
33.83662 126.000
33.85657 127.000
33.87651 133.000
33.89646 121.000
33.91641 120.000
33.93635 126.000
33.95630 137.000
33.97625 143.000
33.99620 118.000
34.01614 136.000
34.03609 138.000
34.05604 112.000
34.07598 150.000
34.09593 138.000
34.11588 129.000
34.13582 144.000
34.15577 120.000
34.17572 130.000
34.19566 122.000
34.21561 113.000
34.23556 153.000
34.25551 140.000
34.27545 134.000
34.29540 157.000
34.31535 165.000
34.33529 170.000
34.35524 174.000
34.37519 141.000
34.39513 167.000
34.41508 168.000
34.43503 157.000
34.45498 172.000
34.47492 208.000
34.49487 185.000
34.51482 185.000
34.53476 183.000
34.55471 189.000
34.57466 200.000
34.59460 197.000
34.61455 189.000
34.63450 184.000
34.65444 183.000
34.67439 190.000
34.69434 199.000
34.71429 211.000
34.73423 176.000
34.75418 173.000
34.77413 182.000
34.79407 179.000
34.81402 165.000
34.83397 183.000
34.85391 159.000
34.87386 219.000
34.89381 184.000
34.91376 197.000
34.93370 180.000
34.95365 179.000
34.97360 154.000
34.99354 144.000
35.01349 185.000
35.03344 163.000
35.05338 154.000
35.07333 149.000
35.09328 161.000
35.11322 141.000
35.13317 141.000
35.15312 151.000
35.17307 181.000
35.19301 161.000
35.21296 158.000
35.23291 170.000
35.25285 190.000
35.27280 160.000
35.29275 188.000
35.31269 190.000
35.33264 190.000
35.35259 213.000
35.37254 215.000
35.39248 226.000
35.41243 246.000
35.43238 267.000
35.45232 307.000
35.47227 328.000
35.49222 372.000
35.51216 441.000
35.53211 457.000
35.55206 530.000
35.57201 579.000
35.59195 646.000
35.61190 660.000
35.63185 727.000
35.65179 814.000
35.67174 905.000
35.69169 893.000
35.71163 955.000
35.73158 985.000
35.75153 960.000
35.77147 952.000
35.79142 1043.000
35.81137 997.000
35.83132 837.000
35.85126 707.000
35.87121 626.000
35.89116 575.000
35.91110 545.000
35.93105 410.000
35.95100 370.000
35.97094 279.000
35.99089 237.000
36.01084 252.000
36.03079 250.000
36.05073 208.000
36.07068 224.000
36.09063 184.000
36.11057 195.000
36.13052 187.000
36.15047 178.000
36.17041 188.000
36.19036 192.000
36.21031 168.000
36.23025 168.000
36.25020 181.000
36.27015 165.000
36.29010 157.000
36.31004 149.000
36.32999 163.000
36.34994 169.000
36.36988 164.000
36.38983 183.000
36.40978 151.000
36.42972 161.000
36.44967 185.000
36.46962 169.000
36.48957 165.000
36.50951 174.000
36.52946 141.000
36.54941 197.000
36.56935 181.000
36.58930 166.000
36.60925 180.000
36.62919 188.000
36.64914 195.000
36.66909 201.000
36.68903 229.000
36.70898 226.000
36.72893 241.000
36.74888 230.000
36.76882 263.000
36.78877 263.000
36.80872 327.000
36.82866 356.000
36.84861 415.000
36.86856 474.000
36.88850 480.000
36.90845 545.000
36.92840 565.000
36.94835 607.000
36.96829 579.000
36.98824 629.000
37.00819 659.000
37.02813 639.000
37.04808 620.000
37.06803 646.000
37.08797 665.000
37.10792 655.000
37.12787 596.000
37.14781 622.000
37.16776 609.000
37.18771 533.000
37.20766 568.000
37.22760 468.000
37.24755 490.000
37.26750 414.000
37.28744 402.000
37.30739 337.000
37.32734 381.000
37.34728 326.000
37.36723 295.000
37.38718 293.000
37.40713 224.000
37.42707 215.000
37.44702 213.000
37.46697 206.000
37.48691 166.000
37.50686 199.000
37.52681 188.000
37.54675 188.000
37.56670 195.000
37.58665 168.000
37.60660 146.000
37.62654 135.000
37.64649 151.000
37.66644 161.000
37.68638 148.000
37.70633 135.000
37.72628 170.000
37.74622 158.000
37.76617 146.000
37.78612 152.000
37.80606 147.000
37.82601 138.000
37.84596 141.000
37.86591 153.000
37.88585 131.000
37.90580 142.000
37.92575 143.000
37.94569 157.000
37.96564 153.000
37.98559 120.000
38.00553 138.000
38.02548 116.000
38.04543 146.000
38.06538 150.000
38.08532 147.000
38.10527 139.000
38.12522 136.000
38.14516 146.000
38.16511 129.000
38.18506 165.000
38.20500 165.000
38.22495 137.000
38.24490 147.000
38.26484 132.000
38.28479 138.000
38.30474 159.000
38.32469 151.000
38.34463 130.000
38.36458 155.000
38.38453 142.000
38.40447 140.000
38.42442 164.000
38.44437 152.000
38.46431 147.000
38.48426 153.000
38.50421 148.000
38.52416 166.000
38.54410 168.000
38.56405 170.000
38.58400 174.000
38.60394 151.000
38.62389 156.000
38.64384 164.000
38.66378 179.000
38.68373 208.000
38.70368 210.000
38.72362 225.000
38.74357 204.000
38.76352 263.000
38.78347 222.000
38.80341 236.000
38.82336 258.000
38.84331 213.000
38.86325 238.000
38.88320 267.000
38.90315 261.000
38.92309 251.000
38.94304 249.000
38.96299 248.000
38.98294 236.000
39.00288 226.000
39.02283 260.000
39.04278 248.000
39.06272 307.000
39.08267 278.000
39.10262 337.000
39.12256 375.000
39.14251 366.000
39.16246 423.000
39.18241 478.000
39.20235 525.000
39.22230 532.000
39.24225 532.000
39.26219 595.000
39.28214 601.000
39.30209 593.000
39.32203 579.000
39.34198 572.000
39.36193 475.000
39.38187 487.000
39.40182 465.000
39.42177 425.000
39.44172 402.000
39.46166 336.000
39.48161 274.000
39.50156 322.000
39.52150 294.000
39.54145 268.000
39.56140 235.000
39.58134 242.000
39.60129 207.000
39.62124 188.000
39.64119 165.000
39.66113 179.000
39.68108 179.000
39.70103 159.000
39.72097 164.000
39.74092 157.000
39.76087 168.000
39.78081 148.000
39.80076 146.000
39.82071 147.000
39.84065 133.000
39.86060 143.000
39.88055 123.000
39.90050 146.000
39.92044 160.000
39.94039 130.000
39.96034 127.000
39.98028 154.000
40.00023 156.000
40.02018 127.000
40.04012 138.000
40.06007 167.000
40.08002 139.000
40.09997 147.000
40.11991 146.000
40.13986 147.000
40.15981 147.000
40.17975 133.000
40.19970 140.000
40.21965 143.000
40.23959 135.000
40.25954 148.000
40.27949 128.000
40.29943 137.000
40.31938 133.000
40.33933 141.000
40.35928 155.000
40.37922 125.000
40.39917 147.000
40.41912 131.000
40.43906 135.000
40.45901 133.000
40.47896 140.000
40.49890 128.000
40.51885 132.000
40.53880 145.000
40.55875 140.000
40.57869 129.000
40.59864 145.000
40.61859 131.000
40.63853 126.000
40.65848 179.000
40.67843 154.000
40.69837 117.000
40.71832 147.000
40.73827 153.000
40.75822 124.000
40.77816 136.000
40.79811 140.000
40.81806 155.000
40.83800 147.000
40.85795 141.000
40.87790 135.000
40.89784 144.000
40.91779 159.000
40.93774 143.000
40.95768 134.000
40.97763 165.000
40.99758 170.000
41.01753 160.000
41.03747 159.000
41.05742 152.000
41.07737 140.000
41.09731 143.000
41.11726 162.000
41.13721 176.000
41.15715 166.000
41.17710 158.000
41.19705 146.000
41.21700 194.000
41.23694 169.000
41.25689 158.000
41.27684 157.000
41.29678 193.000
41.31673 184.000
41.33668 177.000
41.35662 177.000
41.37657 180.000
41.39652 178.000
41.41646 185.000
41.43641 200.000
41.45636 222.000
41.47631 252.000
41.49625 244.000
41.51620 266.000
41.53615 340.000
41.55609 318.000
41.57604 388.000
41.59599 455.000
41.61593 542.000
41.63588 693.000
41.65583 822.000
41.67578 943.000
41.69572 1068.000
41.71567 1270.000
41.73562 1471.000
41.75556 1472.000
41.77551 1527.000
41.79546 1452.000
41.81540 1390.000
41.83535 1384.000
41.85530 1253.000
41.87524 1062.000
41.89519 929.000
41.91514 745.000
41.93509 653.000
41.95503 576.000
41.97498 476.000
41.99493 374.000
42.01487 294.000
42.03482 297.000
42.05477 249.000
42.07471 245.000
42.09466 239.000
42.11461 200.000
42.13456 212.000
42.15450 211.000
42.17445 154.000
42.19440 177.000
42.21434 207.000
42.23429 167.000
42.25424 181.000
42.27418 164.000
42.29413 162.000
42.31408 174.000
42.33403 166.000
42.35397 177.000
42.37392 161.000
42.39387 167.000
42.41381 171.000
42.43376 178.000
42.45371 177.000
42.47365 163.000
42.49360 189.000
42.51355 187.000
42.53349 187.000
42.55344 191.000
42.57339 178.000
42.59334 193.000
42.61328 211.000
42.63323 199.000
42.65318 202.000
42.67312 180.000
42.69307 210.000
42.71302 215.000
42.73296 200.000
42.75291 253.000
42.77286 210.000
42.79281 254.000
42.81275 274.000
42.83270 243.000
42.85265 273.000
42.87259 275.000
42.89254 321.000
42.91249 319.000
42.93243 378.000
42.95238 351.000
42.97233 350.000
42.99227 402.000
43.01222 438.000
43.03217 462.000
43.05212 505.000
43.07206 529.000
43.09201 507.000
43.11196 579.000
43.13190 592.000
43.15185 566.000
43.17180 633.000
43.19174 668.000
43.21169 580.000
43.23164 599.000
43.25159 578.000
43.27153 627.000
43.29148 608.000
43.31143 597.000
43.33137 603.000
43.35132 592.000
43.37127 596.000
43.39121 572.000
43.41116 634.000
43.43111 604.000
43.45105 569.000
43.47100 509.000
43.49095 542.000
43.51090 507.000
43.53084 434.000
43.55079 467.000
43.57074 407.000
43.59068 346.000
43.61063 306.000
43.63058 324.000
43.65052 282.000
43.67047 237.000
43.69042 198.000
43.71037 226.000
43.73031 181.000
43.75026 203.000
43.77021 174.000
43.79015 176.000
43.81010 182.000
43.83005 189.000
43.84999 139.000
43.86994 154.000
43.88989 155.000
43.90984 169.000
43.92978 135.000
43.94973 147.000
43.96968 133.000
43.98962 123.000
44.00957 154.000
44.02952 147.000
44.04946 153.000
44.06941 158.000
44.08936 142.000
44.10930 173.000
44.12925 124.000
44.14920 121.000
44.16915 130.000
44.18909 140.000
44.20904 145.000
44.22899 156.000
44.24893 137.000
44.26888 152.000
44.28883 168.000
44.30877 128.000
44.32872 132.000
44.34867 116.000
44.36862 118.000
44.38856 136.000
44.40851 143.000
44.42846 138.000
44.44840 130.000
44.46835 123.000
44.48830 118.000
44.50824 122.000
44.52819 104.000
44.54814 142.000
44.56808 129.000
44.58803 127.000
44.60798 100.000
44.62793 142.000
44.64787 135.000
44.66782 148.000
44.68777 141.000
44.70771 127.000
44.72766 145.000
44.74761 138.000
44.76755 156.000
44.78750 138.000
44.80745 150.000
44.82740 133.000
44.84734 129.000
44.86729 144.000
44.88724 152.000
44.90718 137.000
44.92713 139.000
44.94708 148.000
44.96702 146.000
44.98697 167.000
45.00692 141.000
45.02686 157.000
45.04681 171.000
45.06676 184.000
45.08671 156.000
45.10665 162.000
45.12660 176.000
45.14655 171.000
45.16649 145.000
45.18644 161.000
45.20639 163.000
45.22633 158.000
45.24628 122.000
45.26623 166.000
45.28618 132.000
45.30612 121.000
45.32607 127.000
45.34602 146.000
45.36596 120.000
45.38591 157.000
45.40586 105.000
45.42580 151.000
45.44575 137.000
45.46570 119.000
45.48565 110.000
45.50559 110.000
45.52554 138.000
45.54549 145.000
45.56543 137.000
45.58538 129.000
45.60533 122.000
45.62527 131.000
45.64522 125.000
45.66517 127.000
45.68511 110.000
45.70506 128.000
45.72501 129.000
45.74496 133.000
45.76490 135.000
45.78485 120.000
45.80480 117.000
45.82474 120.000
45.84469 118.000
45.86464 110.000
45.88458 146.000
45.90453 112.000
45.92448 117.000
45.94443 108.000
45.96437 129.000
45.98432 124.000
46.00427 114.000
46.02421 116.000
46.04416 119.000
46.06411 119.000
46.08405 132.000
46.10400 110.000
46.12395 139.000
46.14389 129.000
46.16384 141.000
46.18379 110.000
46.20374 135.000
46.22368 114.000
46.24363 113.000
46.26358 127.000
46.28352 123.000
46.30347 146.000
46.32342 123.000
46.34336 117.000
46.36331 129.000
46.38326 109.000
46.40321 101.000
46.42315 134.000
46.44310 129.000
46.46305 114.000
46.48299 131.000
46.50294 123.000
46.52289 112.000
46.54283 123.000
46.56278 148.000
46.58273 136.000
46.60267 123.000
46.62262 137.000
46.64257 122.000
46.66252 122.000
46.68246 124.000
46.70241 109.000
46.72236 128.000
46.74230 109.000
46.76225 113.000
46.78220 140.000
46.80214 143.000
46.82209 117.000
46.84204 128.000
46.86199 156.000
46.88193 124.000
46.90188 120.000
46.92183 131.000
46.94177 127.000
46.96172 137.000
46.98167 121.000
47.00161 126.000
47.02156 113.000
47.04151 135.000
47.06146 134.000
47.08140 109.000
47.10135 128.000
47.12130 123.000
47.14124 128.000
47.16119 119.000
47.18114 142.000
47.20108 133.000
47.22103 114.000
47.24098 102.000
47.26092 135.000
47.28087 119.000
47.30082 138.000
47.32077 154.000
47.34071 126.000
47.36066 132.000
47.38061 106.000
47.40055 141.000
47.42050 115.000
47.44045 120.000
47.46039 133.000
47.48034 130.000
47.50029 120.000
47.52024 128.000
47.54018 139.000
47.56013 128.000
47.58008 107.000
47.60002 129.000
47.61997 120.000
47.63992 120.000
47.65986 125.000
47.67981 123.000
47.69976 125.000
47.71970 127.000
47.73965 147.000
47.75960 106.000
47.77955 127.000
47.79949 131.000
47.81944 112.000
47.83939 117.000
47.85933 152.000
47.87928 111.000
47.89923 134.000
47.91917 120.000
47.93912 121.000
47.95907 143.000
47.97902 117.000
47.99896 129.000
48.01891 152.000
48.03886 126.000
48.05880 160.000
48.07875 143.000
48.09870 145.000
48.11864 139.000
48.13859 154.000
48.15854 138.000
48.17848 119.000
48.19843 152.000
48.21838 138.000
48.23833 147.000
48.25827 150.000
48.27822 147.000
48.29817 124.000
48.31811 156.000
48.33806 130.000
48.35801 145.000
48.37795 141.000
48.39790 152.000
48.41785 181.000
48.43780 158.000
48.45774 172.000
48.47769 169.000
48.49764 175.000
48.51758 213.000
48.53753 192.000
48.55748 195.000
48.57742 216.000
48.59737 249.000
48.61732 254.000
48.63726 332.000
48.65721 348.000
48.67716 374.000
48.69711 427.000
48.71705 511.000
48.73700 498.000
48.75695 496.000
48.77689 521.000
48.79684 547.000
48.81679 487.000
48.83673 476.000
48.85668 443.000
48.87663 440.000
48.89658 491.000
48.91652 414.000
48.93647 397.000
48.95642 343.000
48.97636 321.000
48.99631 268.000
49.01626 255.000
49.03620 211.000
49.05615 212.000
49.07610 198.000
49.09605 223.000
49.11599 187.000
49.13594 192.000
49.15589 149.000
49.17583 180.000
49.19578 162.000
49.21573 149.000
49.23567 137.000
49.25562 139.000
49.27557 152.000
49.29551 144.000
49.31546 119.000
49.33541 147.000
49.35536 148.000
49.37530 134.000
49.39525 134.000
49.41520 143.000
49.43514 171.000
49.45509 151.000
49.47504 125.000
49.49498 122.000
49.51493 128.000
49.53488 145.000
49.55483 127.000
49.57477 137.000
49.59472 144.000
49.61467 135.000
49.63461 131.000
49.65456 149.000
49.67451 147.000
49.69445 141.000
49.71440 137.000
49.73435 123.000
49.75429 165.000
49.77424 146.000
49.79419 100.000
49.81414 121.000
49.83408 132.000
49.85403 138.000
49.87398 133.000
49.89392 124.000
49.91387 130.000
49.93382 138.000
49.95376 137.000
49.97371 140.000
49.99366 142.000
50.01361 120.000
50.03355 111.000
50.05350 125.000
50.07345 130.000
50.09339 114.000
50.11334 127.000
50.13329 130.000
50.15323 126.000
50.17318 127.000
50.19313 115.000
50.21307 130.000
50.23302 139.000
50.25297 132.000
50.27292 116.000
50.29286 126.000
50.31281 130.000
50.33276 118.000
50.35270 142.000
50.37265 140.000
50.39260 129.000
50.41254 130.000
50.43249 113.000
50.45244 120.000
50.47239 117.000
50.49233 113.000
50.51228 138.000
50.53223 127.000
50.55217 121.000
50.57212 132.000
50.59207 134.000
50.61201 130.000
50.63196 102.000
50.65191 113.000
50.67186 138.000
50.69180 107.000
50.71175 126.000
50.73170 131.000
50.75164 91.000
50.77159 115.000
50.79154 119.000
50.81148 111.000
50.83143 125.000
50.85138 145.000
50.87132 115.000
50.89127 119.000
50.91122 123.000
50.93117 113.000
50.95111 120.000
50.97106 115.000
50.99101 116.000
51.01095 121.000
51.03090 107.000
51.05085 135.000
51.07079 133.000
51.09074 124.000
51.11069 106.000
51.13064 132.000
51.15058 135.000
51.17053 145.000
51.19048 136.000
51.21042 114.000
51.23037 128.000
51.25032 113.000
51.27026 135.000
51.29021 131.000
51.31016 123.000
51.33010 126.000
51.35005 109.000
51.37000 101.000
51.38995 132.000
51.40989 103.000
51.42984 114.000
51.44979 133.000
51.46973 126.000
51.48968 115.000
51.50963 116.000
51.52957 101.000
51.54952 113.000
51.56947 107.000
51.58942 115.000
51.60936 143.000
51.62931 115.000
51.64926 121.000
51.66920 102.000
51.68915 105.000
51.70910 124.000
51.72904 107.000
51.74899 130.000
51.76894 120.000
51.78888 126.000
51.80883 123.000
51.82878 111.000
51.84873 136.000
51.86867 134.000
51.88862 124.000
51.90857 126.000
51.92851 109.000
51.94846 123.000
51.96841 128.000
51.98835 119.000
52.00830 119.000
52.02825 139.000
52.04820 119.000
52.06814 116.000
52.08809 113.000
52.10804 128.000
52.12798 115.000
52.14793 126.000
52.16788 152.000
52.18782 146.000
52.20777 127.000
52.22772 115.000
52.24767 145.000
52.26761 121.000
52.28756 121.000
52.30751 123.000
52.32745 142.000
52.34740 122.000
52.36735 120.000
52.38729 134.000
52.40724 136.000
52.42719 128.000
52.44713 145.000
52.46708 135.000
52.48703 126.000
52.50698 120.000
52.52692 136.000
52.54687 117.000
52.56682 103.000
52.58676 117.000
52.60671 133.000
52.62666 110.000
52.64660 119.000
52.66655 137.000
52.68650 157.000
52.70645 124.000
52.72639 121.000
52.74634 123.000
52.76629 135.000
52.78623 116.000
52.80618 139.000
52.82613 127.000
52.84607 135.000
52.86602 142.000
52.88597 147.000
52.90591 136.000
52.92586 138.000
52.94581 168.000
52.96576 168.000
52.98570 174.000
53.00565 161.000
53.02560 175.000
53.04554 203.000
53.06549 208.000
53.08544 243.000
53.10538 253.000
53.12533 267.000
53.14528 272.000
53.16523 324.000
53.18517 337.000
53.20512 328.000
53.22507 323.000
53.24501 292.000
53.26496 301.000
53.28491 291.000
53.30485 254.000
53.32480 287.000
53.34475 236.000
53.36469 210.000
53.38464 240.000
53.40459 184.000
53.42454 177.000
53.44448 163.000
53.46443 134.000
53.48438 151.000
53.50432 170.000
53.52427 169.000
53.54422 129.000
53.56416 148.000
53.58411 139.000
53.60406 121.000
53.62401 134.000
53.64395 144.000
53.66390 147.000
53.68385 143.000
53.70379 143.000
53.72374 146.000
53.74369 145.000
53.76363 153.000
53.78358 165.000
53.80353 166.000
53.82348 155.000
53.84342 168.000
53.86337 169.000
53.88332 153.000
53.90326 164.000
53.92321 187.000
53.94316 159.000
53.96310 146.000
53.98305 163.000
54.00300 155.000
54.02294 149.000
54.04289 161.000
54.06284 144.000
54.08279 153.000
54.10273 146.000
54.12268 147.000
54.14263 122.000
54.16257 153.000
54.18252 132.000
54.20247 128.000
54.22241 141.000
54.24236 114.000
54.26231 131.000
54.28226 137.000
54.30220 128.000
54.32215 131.000
54.34210 130.000
54.36204 117.000
54.38199 139.000
54.40194 120.000
54.42188 124.000
54.44183 131.000
54.46178 134.000
54.48172 126.000
54.50167 143.000
54.52162 96.000
54.54157 121.000
54.56151 139.000
54.58146 130.000
54.60141 129.000
54.62135 144.000
54.64130 131.000
54.66125 133.000
54.68119 99.000
54.70114 132.000
54.72109 129.000
54.74104 135.000
54.76098 128.000
54.78093 119.000
54.80088 121.000
54.82082 124.000
54.84077 122.000
54.86072 137.000
54.88066 107.000
54.90061 129.000
54.92056 123.000
54.94050 119.000
54.96045 110.000
54.98040 127.000
55.00035 132.000
55.02029 119.000
55.04024 128.000
55.06019 111.000
55.08013 143.000
55.10008 116.000
55.12003 129.000
55.13997 109.000
55.15992 106.000
55.17987 113.000
55.19982 102.000
55.21976 133.000
55.23971 130.000
55.25966 109.000
55.27960 112.000
55.29955 139.000
55.31950 118.000
55.33944 133.000
55.35939 128.000
55.37934 131.000
55.39929 134.000
55.41923 114.000
55.43918 121.000
55.45913 123.000
55.47907 131.000
55.49902 123.000
55.51897 115.000
55.53891 129.000
55.55886 124.000
55.57881 125.000
55.59875 128.000
55.61870 128.000
55.63865 122.000
55.65860 110.000
55.67854 128.000
55.69849 129.000
55.71844 133.000
55.73838 143.000
55.75833 118.000
55.77828 117.000
55.79822 128.000
55.81817 132.000
55.83812 120.000
55.85807 133.000
55.87801 124.000
55.89796 118.000
55.91791 134.000
55.93785 140.000
55.95780 129.000
55.97775 128.000
55.99769 138.000
56.01764 137.000
56.03759 114.000
56.05753 148.000
56.07748 116.000
56.09743 132.000
56.11738 115.000
56.13732 133.000
56.15727 115.000
56.17722 110.000
56.19716 122.000
56.21711 107.000
56.23706 128.000
56.25700 125.000
56.27695 132.000
56.29690 126.000
56.31685 127.000
56.33679 126.000
56.35674 118.000
56.37669 120.000
56.39663 118.000
56.41658 131.000
56.43653 114.000
56.45647 128.000
56.47642 122.000
56.49637 128.000
56.51631 123.000
56.53626 121.000
56.55621 115.000
56.57616 146.000
56.59610 123.000
56.61605 137.000
56.63600 136.000
56.65594 118.000
56.67589 120.000
56.69584 117.000
56.71578 121.000
56.73573 112.000
56.75568 128.000
56.77563 112.000
56.79557 130.000
56.81552 156.000
56.83547 129.000
56.85541 159.000
56.87536 134.000
56.89531 116.000
56.91525 130.000
56.93520 115.000
56.95515 126.000
56.97510 110.000
56.99504 133.000
57.01499 139.000
57.03494 117.000
57.05488 141.000
57.07483 147.000
57.09478 131.000
57.11472 120.000
57.13467 146.000
57.15462 126.000
57.17456 124.000
57.19451 172.000
57.21446 164.000
57.23441 146.000
57.25435 165.000
57.27430 172.000
57.29425 180.000
57.31419 190.000
57.33414 197.000
57.35409 223.000
57.37403 227.000
57.39398 249.000
57.41393 270.000
57.43388 259.000
57.45382 251.000
57.47377 281.000
57.49372 285.000
57.51366 291.000
57.53361 257.000
57.55356 252.000
57.57350 257.000
57.59345 278.000
57.61340 287.000
57.63334 257.000
57.65329 261.000
57.67324 285.000
57.69319 281.000
57.71313 332.000
57.73308 318.000
57.75303 355.000
57.77297 388.000
57.79292 384.000
57.81287 374.000
57.83281 405.000
57.85276 416.000
57.87271 397.000
57.89266 376.000
57.91260 387.000
57.93255 345.000
57.95250 332.000
57.97244 281.000
57.99239 282.000
58.01234 274.000
58.03228 272.000
58.05223 227.000
58.07218 221.000
58.09212 226.000
58.11207 180.000
58.13202 170.000
58.15197 156.000
58.17191 185.000
58.19186 155.000
58.21181 129.000
58.23175 168.000
58.25170 145.000
58.27165 152.000
58.29159 151.000
58.31154 150.000
58.33149 173.000
58.35144 157.000
58.37138 162.000
58.39133 140.000
58.41128 138.000
58.43122 156.000
58.45117 140.000
58.47112 159.000
58.49106 139.000
58.51101 132.000
58.53096 132.000
58.55090 137.000
58.57085 138.000
58.59080 119.000
58.61075 146.000
58.63069 134.000
58.65064 137.000
58.67059 148.000
58.69053 140.000
58.71048 135.000
58.73043 155.000
58.75037 130.000
58.77032 146.000
58.79027 131.000
58.81022 128.000
58.83016 122.000
58.85011 156.000
58.87006 123.000
58.89000 131.000
58.90995 128.000
58.92990 126.000
58.94984 125.000
58.96979 130.000
58.98974 137.000
59.00969 128.000
59.02963 137.000
59.04958 142.000
59.06953 134.000
59.08947 138.000
59.10942 117.000
59.12937 120.000
59.14931 108.000
59.16926 132.000
59.18921 149.000
59.20915 139.000
59.22910 125.000
59.24905 123.000
59.26900 127.000
59.28894 144.000
59.30889 116.000
59.32884 132.000
59.34878 130.000
59.36873 112.000
59.38868 136.000
59.40862 137.000
59.42857 125.000
59.44852 122.000
59.46847 119.000
59.48841 124.000
59.50836 109.000
59.52831 126.000
59.54825 130.000
59.56820 113.000
59.58815 141.000
59.60809 136.000
59.62804 135.000
59.64799 129.000
59.66793 134.000
59.68788 134.000
59.70783 124.000
59.72778 127.000
59.74772 120.000
59.76767 127.000
59.78762 126.000
59.80756 124.000
59.82751 136.000
59.84746 117.000
59.86740 131.000
59.88735 137.000
59.90730 139.000
59.92725 129.000
59.94719 133.000
59.96714 125.000
59.98709 118.000
60.00703 118.000
60.02698 110.000
60.04693 120.000
60.06687 118.000
60.08682 115.000
60.10677 150.000
60.12671 143.000
60.14666 111.000
60.16661 120.000
60.18656 110.000
60.20650 129.000
60.22645 125.000
60.24640 111.000
60.26634 135.000
60.28629 133.000
60.30624 120.000
60.32618 136.000
60.34613 130.000
60.36608 128.000
60.38603 144.000
60.40597 140.000
60.42592 118.000
60.44587 135.000
60.46581 119.000
60.48576 112.000
60.50571 134.000
60.52565 121.000
60.54560 119.000
60.56555 121.000
60.58550 133.000
60.60544 136.000
60.62539 132.000
60.64534 143.000
60.66528 136.000
60.68523 113.000
60.70518 123.000
60.72512 113.000
60.74507 117.000
60.76502 147.000
60.78496 145.000
60.80491 154.000
60.82486 117.000
60.84481 134.000
60.86475 142.000
60.88470 121.000
60.90465 167.000
60.92459 137.000
60.94454 132.000
60.96449 126.000
60.98443 137.000
61.00438 132.000
61.02433 155.000
61.04428 121.000
61.06422 123.000
61.08417 124.000
61.10412 154.000
61.12406 159.000
61.14401 155.000
61.16396 117.000
61.18390 140.000
61.20385 147.000
61.22380 146.000
61.24374 142.000
61.26369 130.000
61.28364 133.000
61.30359 141.000
61.32353 134.000
61.34348 141.000
61.36343 148.000
61.38337 158.000
61.40332 122.000
61.42327 143.000
61.44321 140.000
61.46316 150.000
61.48311 155.000
61.50306 137.000
61.52300 161.000
61.54295 156.000
61.56290 137.000
61.58284 160.000
61.60279 161.000
61.62274 151.000
61.64268 176.000
61.66263 172.000
61.68258 156.000
61.70252 202.000
61.72247 165.000
61.74242 200.000
61.76237 183.000
61.78231 165.000
61.80226 186.000
61.82221 168.000
61.84215 175.000
61.86210 216.000
61.88205 185.000
61.90199 210.000
61.92194 216.000
61.94189 248.000
61.96184 217.000
61.98178 237.000
62.00173 238.000
62.02168 276.000
62.04162 327.000
62.06157 333.000
62.08152 313.000
62.10146 362.000
62.12141 369.000
62.14136 365.000
62.16131 377.000
62.18125 337.000
62.20120 332.000
62.22115 337.000
62.24109 328.000
62.26104 289.000
62.28099 353.000
62.30093 323.000
62.32088 336.000
62.34083 293.000
62.36077 324.000
62.38072 309.000
62.40067 329.000
62.42062 308.000
62.44056 313.000
62.46051 314.000
62.48046 311.000
62.50040 314.000
62.52035 315.000
62.54030 362.000
62.56024 354.000
62.58019 334.000
62.60014 342.000
62.62009 346.000
62.64003 375.000
62.65998 404.000
62.67993 370.000
62.69987 398.000
62.71982 393.000
62.73977 383.000
62.75971 331.000
62.77966 341.000
62.79961 347.000
62.81955 366.000
62.83950 361.000
62.85945 420.000
62.87940 359.000
62.89934 397.000
62.91929 387.000
62.93924 391.000
62.95918 419.000
62.97913 389.000
62.99908 483.000
63.01902 506.000
63.03897 504.000
63.05892 501.000
63.07887 536.000
63.09881 496.000
63.11876 494.000
63.13871 446.000
63.15865 462.000
63.17860 456.000
63.19855 411.000
63.21849 411.000
63.23844 367.000
63.25839 371.000
63.27833 373.000
63.29828 351.000
63.31823 336.000
63.33818 317.000
63.35812 307.000
63.37807 275.000
63.39802 225.000
63.41796 239.000
63.43791 214.000
63.45786 220.000
63.47780 216.000
63.49775 192.000
63.51770 163.000
63.53765 179.000
63.55759 169.000
63.57754 166.000
63.59749 176.000
63.61743 144.000
63.63738 188.000
63.65733 170.000
63.67727 172.000
63.69722 191.000
63.71717 200.000
63.73712 215.000
63.75706 199.000
63.77701 190.000
63.79696 200.000
63.81690 225.000
63.83685 217.000
63.85680 207.000
63.87674 212.000
63.89669 258.000
63.91664 255.000
63.93658 254.000
63.95653 235.000
63.97648 221.000
63.99643 205.000
64.01637 200.000
64.03632 212.000
64.05627 209.000
64.07621 242.000
64.09616 217.000
64.11611 227.000
64.13605 199.000
64.15600 185.000
64.17595 201.000
64.19590 175.000
64.21584 200.000
64.23579 169.000
64.25574 186.000
64.27568 166.000
64.29563 176.000
64.31558 184.000
64.33552 172.000
64.35547 176.000
64.37542 162.000
64.39536 186.000
64.41531 159.000
64.43526 152.000
64.45521 163.000
64.47515 176.000
64.49510 168.000
64.51505 173.000
64.53499 147.000
64.55494 135.000
64.57489 138.000
64.59483 117.000
64.61478 147.000
64.63473 132.000
64.65468 131.000
64.67462 124.000
64.69457 134.000
64.71452 118.000
64.73446 153.000
64.75441 119.000
64.77436 150.000
64.79430 115.000
64.81425 143.000
64.83420 123.000
64.85414 125.000
64.87409 146.000
64.89404 116.000
64.91399 137.000
64.93393 122.000
64.95388 128.000
64.97383 134.000
64.99377 86.000
65.01372 172.000
65.03367 154.000
65.05361 132.000
65.07356 133.000
65.09351 136.000
65.11346 150.000
65.13340 146.000
65.15335 136.000
65.17330 117.000
65.19324 133.000
65.21319 147.000
65.23314 128.000
65.25308 150.000
65.27303 161.000
65.29298 141.000
65.31293 177.000
65.33287 150.000
65.35282 153.000
65.37277 168.000
65.39271 192.000
65.41266 156.000
65.43261 171.000
65.45255 192.000
65.47250 182.000
65.49245 180.000
65.51239 219.000
65.53234 198.000
65.55229 232.000
65.57224 211.000
65.59218 237.000
65.61213 230.000
65.63208 230.000
65.65202 229.000
65.67197 222.000
65.69192 234.000
65.71186 239.000
65.73181 242.000
65.75176 222.000
65.77171 196.000
65.79165 213.000
65.81160 213.000
65.83155 185.000
65.85149 210.000
65.87144 197.000
65.89139 206.000
65.91133 177.000
65.93128 168.000
65.95123 178.000
65.97117 180.000
65.99112 183.000
66.01107 179.000
66.03102 177.000
66.05096 169.000
66.07091 167.000
66.09086 157.000
66.11080 155.000
66.13075 167.000
66.15070 189.000
66.17064 177.000
66.19059 182.000
66.21054 169.000
66.23049 200.000
66.25043 232.000
66.27038 188.000
66.29033 207.000
66.31027 196.000
66.33022 242.000
66.35017 193.000
66.37011 208.000
66.39006 193.000
66.41001 195.000
66.42995 204.000
66.44990 218.000
66.46985 199.000
66.48980 194.000
66.50974 196.000
66.52969 203.000
66.54964 187.000
66.56958 163.000
66.58953 174.000
66.60948 169.000
66.62942 181.000
66.64937 161.000
66.66932 193.000
66.68927 171.000
66.70921 182.000
66.72916 187.000
66.74911 155.000
66.76905 140.000
66.78900 158.000
66.80895 150.000
66.82889 167.000
66.84884 130.000
66.86879 146.000
66.88874 153.000
66.90868 134.000
66.92863 177.000
66.94858 131.000
66.96852 155.000
66.98847 137.000
67.00842 150.000
67.02836 138.000
67.04831 137.000
67.06826 156.000
67.08820 159.000
67.10815 157.000
67.12810 144.000
67.14805 132.000
67.16799 160.000
67.18794 159.000
67.20789 172.000
67.22783 165.000
67.24778 154.000
67.26773 159.000
67.28767 157.000
67.30762 158.000
67.32757 166.000
67.34752 163.000
67.36746 151.000
67.38741 150.000
67.40736 140.000
67.42730 147.000
67.44725 148.000
67.46720 133.000
67.48714 149.000
67.50709 151.000
67.52704 129.000
67.54698 131.000
67.56693 129.000
67.58688 136.000
67.60683 133.000
67.62677 137.000
67.64672 126.000
67.66667 122.000
67.68661 134.000
67.70656 120.000
67.72651 136.000
67.74645 128.000
67.76640 133.000
67.78635 148.000
67.80630 155.000
67.82624 136.000
67.84619 141.000
67.86614 137.000
67.88608 145.000
67.90603 141.000
67.92598 159.000
67.94592 150.000
67.96587 161.000
67.98582 174.000
68.00576 174.000
68.02571 195.000
68.04566 202.000
68.06561 194.000
68.08555 185.000
68.10550 207.000
68.12545 193.000
68.14539 230.000
68.16534 199.000
68.18529 193.000
68.20523 194.000
68.22518 181.000
68.24513 191.000
68.26508 193.000
68.28502 191.000
68.30497 190.000
68.32492 208.000
68.34486 168.000
68.36481 171.000
68.38476 159.000
68.40470 151.000
68.42465 155.000
68.44460 169.000
68.46455 152.000
68.48449 130.000
68.50444 143.000
68.52439 146.000
68.54433 145.000
68.56428 152.000
68.58423 133.000
68.60417 136.000
68.62412 122.000
68.64407 146.000
68.66401 136.000
68.68396 166.000
68.70391 147.000
68.72386 137.000
68.74380 144.000
68.76375 144.000
68.78370 145.000
68.80364 120.000
68.82359 131.000
68.84354 149.000
68.86348 123.000
68.88343 121.000
68.90338 151.000
68.92333 154.000
68.94327 149.000
68.96322 135.000
68.98317 135.000
69.00311 131.000
69.02306 149.000
69.04301 141.000
69.06295 128.000
69.08290 156.000
69.10285 131.000
69.12279 146.000
69.14274 146.000
69.16269 130.000
69.18264 131.000
69.20258 153.000
69.22253 118.000
69.24248 119.000
69.26242 129.000
69.28237 138.000
69.30232 142.000
69.32226 97.000
69.34221 161.000
69.36216 135.000
69.38211 126.000
69.40205 145.000
69.42200 129.000
69.44195 132.000
69.46189 126.000
69.48184 125.000
69.50179 151.000
69.52173 127.000
69.54168 115.000
69.56163 122.000
69.58157 145.000
69.60152 105.000
69.62147 134.000
69.64142 124.000
69.66136 124.000
69.68131 115.000
69.70126 124.000
69.72120 124.000
69.74115 119.000
69.76110 139.000
69.78104 134.000
69.80099 118.000
69.82094 122.000
69.84089 123.000
69.86083 111.000
69.88078 120.000
69.90073 109.000
69.92067 120.000
69.94062 122.000
69.96057 117.000
69.98051 103.000
70.00046 135.000
70.02041 106.000
70.04035 124.000
70.06030 120.000
70.08025 114.000
70.10020 129.000
70.12014 129.000
70.14009 131.000
70.16004 123.000
70.17998 111.000
70.19993 126.000
70.21988 127.000
70.23982 106.000
70.25977 129.000
70.27972 119.000
70.29967 126.000
70.31961 123.000
70.33956 134.000
70.35951 132.000
70.37945 126.000
70.39940 128.000
70.41935 138.000
70.43929 134.000
70.45924 117.000
70.47919 119.000
70.49914 99.000
70.51908 123.000
70.53903 103.000
70.55898 117.000
70.57892 121.000
70.59887 138.000
70.61882 98.000
70.63876 132.000
70.65871 125.000
70.67866 115.000
70.69860 133.000
70.71855 127.000
70.73850 126.000
70.75845 120.000
70.77839 113.000
70.79834 140.000
70.81829 117.000
70.83823 124.000
70.85818 125.000
70.87813 129.000
70.89807 125.000
70.91802 118.000
70.93797 145.000
70.95792 121.000
70.97786 125.000
70.99781 122.000
71.01776 135.000
71.03770 129.000
71.05765 108.000
71.07760 126.000
71.09754 116.000
71.11749 119.000
71.13744 141.000
71.15738 119.000
71.17733 128.000
71.19728 122.000
71.21723 123.000
71.23717 150.000
71.25712 110.000
71.27707 141.000
71.29701 128.000
71.31696 127.000
71.33691 123.000
71.35685 115.000
71.37680 110.000
71.39675 126.000
71.41670 113.000
71.43664 114.000
71.45659 115.000
71.47654 127.000
71.49648 143.000
71.51643 145.000
71.53638 137.000
71.55632 143.000
71.57627 142.000
71.59622 127.000
71.61616 152.000
71.63611 136.000
71.65606 140.000
71.67601 123.000
71.69595 123.000
71.71590 123.000
71.73585 135.000
71.75579 113.000
71.77574 128.000
71.79569 153.000
71.81563 133.000
71.83558 137.000
71.85553 132.000
71.87548 141.000
71.89542 135.000
71.91537 125.000
71.93532 124.000
71.95526 126.000
71.97521 134.000
71.99516 136.000
72.01510 132.000
72.03505 116.000
72.05500 119.000
72.07495 143.000
72.09489 117.000
72.11484 125.000
72.13479 139.000
72.15473 125.000
72.17468 129.000
72.19463 141.000
72.21457 106.000
72.23452 133.000
72.25447 117.000
72.27441 140.000
72.29436 127.000
72.31431 118.000
72.33426 142.000
72.35420 108.000
72.37415 125.000
72.39410 143.000
72.41404 124.000
72.43399 136.000
72.45394 139.000
72.47388 139.000
72.49383 103.000
72.51378 141.000
72.53373 149.000
72.55367 143.000
72.57362 141.000
72.59357 131.000
72.61351 125.000
72.63346 138.000
72.65341 139.000
72.67335 156.000
72.69330 142.000
72.71325 157.000
72.73319 132.000
72.75314 144.000
72.77309 156.000
72.79304 160.000
72.81298 196.000
72.83293 173.000
72.85288 166.000
72.87282 184.000
72.89277 176.000
72.91272 213.000
72.93266 193.000
72.95261 205.000
72.97256 200.000
72.99251 200.000
73.01245 200.000
73.03240 203.000
73.05235 190.000
73.07229 183.000
73.09224 154.000
73.11219 188.000
73.13213 183.000
73.15208 182.000
73.17203 188.000
73.19197 186.000
73.21192 196.000
73.23187 160.000
73.25182 184.000
73.27176 182.000
73.29171 185.000
73.31166 160.000
73.33160 178.000
73.35155 180.000
73.37150 159.000
73.39144 180.000
73.41139 168.000
73.43134 169.000
73.45129 182.000
73.47123 173.000
73.49118 176.000
73.51113 165.000
73.53107 146.000
73.55102 185.000
73.57097 175.000
73.59091 187.000
73.61086 185.000
73.63081 156.000
73.65076 163.000
73.67070 170.000
73.69065 201.000
73.71060 204.000
73.73054 190.000
73.75049 181.000
73.77044 198.000
73.79038 177.000
73.81033 162.000
73.83028 185.000
73.85022 203.000
73.87017 189.000
73.89012 174.000
73.91007 165.000
73.93001 181.000
73.94996 148.000
73.96991 155.000
73.98985 159.000
74.00980 161.000
74.02975 154.000
74.04969 143.000
74.06964 150.000
74.08959 140.000
74.10954 164.000
74.12948 133.000
74.14943 126.000
74.16938 168.000
74.18932 146.000
74.20927 143.000
74.22922 155.000
74.24916 153.000
74.26911 146.000
74.28906 162.000
74.30900 164.000
74.32895 160.000
74.34890 146.000
74.36885 156.000
74.38879 137.000
74.40874 158.000
74.42869 152.000
74.44863 156.000
74.46858 172.000
74.48853 165.000
74.50847 171.000
74.52842 209.000
74.54837 212.000
74.56832 185.000
74.58826 190.000
74.60821 191.000
74.62816 207.000
74.64810 193.000
74.66805 194.000
74.68800 197.000
74.70794 177.000
74.72789 186.000
74.74784 174.000
74.76778 174.000
74.78773 197.000
74.80768 194.000
74.82763 194.000
74.84757 205.000
74.86752 196.000
74.88747 185.000
74.90741 230.000
74.92736 193.000
74.94731 202.000
74.96725 201.000
74.98720 195.000
75.00715 202.000
75.02710 207.000
75.04704 171.000
75.06699 208.000
75.08694 220.000
75.10688 227.000
75.12683 233.000
75.14678 215.000
75.16672 213.000
75.18667 185.000
75.20662 213.000
75.22657 187.000
75.24651 199.000
75.26646 190.000
75.28641 222.000
75.30635 200.000
75.32630 198.000
75.34625 197.000
75.36619 195.000
75.38614 189.000
75.40609 201.000
75.42603 178.000
75.44598 196.000
75.46593 175.000
75.48588 188.000
75.50582 199.000
75.52577 195.000
75.54572 162.000
75.56566 176.000
75.58561 196.000
75.60556 172.000
75.62550 173.000
75.64545 146.000
75.66540 155.000
75.68535 178.000
75.70529 171.000
75.72524 156.000
75.74519 141.000
75.76513 160.000
75.78508 161.000
75.80503 144.000
75.82497 145.000
75.84492 143.000
75.86487 132.000
75.88481 124.000
75.90476 146.000
75.92471 138.000
75.94466 132.000
75.96460 143.000
75.98455 144.000
76.00450 139.000
76.02444 134.000
76.04439 141.000
76.06434 135.000
76.08428 158.000
76.10423 138.000
76.12418 136.000
76.14413 130.000
76.16407 136.000
76.18402 121.000
76.20397 111.000
76.22391 134.000
76.24386 127.000
76.26381 122.000
76.28375 122.000
76.30370 153.000
76.32365 117.000
76.34359 136.000
76.36354 133.000
76.38349 132.000
76.40344 136.000
76.42338 123.000
76.44333 122.000
76.46328 134.000
76.48322 125.000
76.50317 125.000
76.52312 122.000
76.54306 115.000
76.56301 106.000
76.58296 108.000
76.60291 116.000
76.62285 117.000
76.64280 134.000
76.66275 127.000
76.68269 114.000
76.70264 134.000
76.72259 128.000
76.74253 112.000
76.76248 129.000
76.78243 128.000
76.80238 149.000
76.82232 137.000
76.84227 135.000
76.86222 130.000
76.88216 122.000
76.90211 139.000
76.92206 118.000
76.94200 128.000
76.96195 117.000
76.98190 129.000
77.00184 116.000
77.02179 114.000
77.04174 136.000
77.06169 133.000
77.08163 116.000
77.10158 132.000
77.12153 127.000
77.14147 122.000
77.16142 116.000
77.18137 132.000
77.20131 152.000
77.22126 125.000
77.24121 119.000
77.26116 141.000
77.28110 130.000
77.30105 141.000
77.32100 128.000
77.34094 130.000
77.36089 129.000
77.38084 145.000
77.40078 158.000
77.42073 150.000
77.44068 154.000
77.46062 157.000
77.48057 127.000
77.50052 158.000
77.52047 119.000
77.54041 137.000
77.56036 167.000
77.58031 139.000
77.60025 147.000
77.62020 131.000
77.64015 138.000
77.66009 133.000
77.68004 150.000
77.69999 150.000
77.71994 145.000
77.73988 146.000
77.75983 147.000
77.77978 141.000
77.79972 164.000
77.81967 156.000
77.83962 147.000
77.85956 139.000
77.87951 142.000
77.89946 166.000
77.91940 139.000
77.93935 130.000
77.95930 136.000
77.97925 163.000
77.99919 147.000
78.01914 142.000
78.03909 152.000
78.05903 167.000
78.07898 140.000
78.09893 155.000
78.11887 165.000
78.13882 147.000
78.15877 183.000
78.17872 175.000
78.19866 161.000
78.21861 192.000
78.23856 167.000
78.25850 187.000
78.27845 214.000
78.29840 220.000
78.31834 174.000
78.33829 214.000
78.35824 212.000
78.37819 224.000
78.39813 228.000
78.41808 253.000
78.43803 230.000
78.45797 224.000
78.47792 236.000
78.49787 246.000
78.51781 243.000
78.53776 239.000
78.55771 230.000
78.57765 234.000
78.59760 225.000
78.61755 217.000
78.63750 194.000
78.65744 205.000
78.67739 204.000
78.69734 232.000
78.71728 209.000
78.73723 228.000
78.75718 196.000
78.77712 209.000
78.79707 200.000
78.81702 210.000
78.83697 197.000
78.85691 207.000
78.87686 161.000
78.89681 187.000
78.91675 203.000
78.93670 190.000
78.95665 205.000
78.97659 190.000
78.99654 184.000
79.01649 179.000
79.03643 198.000
79.05638 183.000
79.07633 173.000
79.09628 184.000
79.11622 163.000
79.13617 176.000
79.15612 149.000
79.17606 148.000
79.19601 143.000
79.21596 158.000
79.23590 160.000
79.25585 150.000
79.27580 166.000
79.29575 141.000
79.31569 146.000
79.33564 131.000
79.35559 145.000
79.37553 139.000
79.39548 143.000
79.41543 150.000
79.43537 146.000
79.45532 166.000
79.47527 136.000
79.49521 136.000
79.51516 154.000
79.53511 157.000
79.55506 141.000
79.57500 140.000
79.59495 173.000
79.61490 139.000
79.63484 161.000
79.65479 125.000
79.67474 132.000
79.69468 131.000
79.71463 131.000
79.73458 134.000
79.75453 116.000
79.77447 136.000
79.79442 145.000
79.81437 145.000
79.83431 122.000
79.85426 126.000
79.87421 151.000
79.89415 144.000
79.91410 131.000
79.93405 119.000
79.95399 127.000
79.97394 121.000
79.99389 124.000
80.01384 133.000
80.03378 127.000
80.05373 134.000
80.07368 135.000
80.09362 121.000
80.11357 125.000
80.13352 131.000
80.15346 126.000
80.17341 134.000
80.19336 117.000
80.21331 160.000
80.23325 142.000
80.25320 147.000
80.27315 131.000
80.29309 131.000
80.31304 117.000
80.33299 110.000
80.35293 128.000
80.37288 126.000
80.39283 117.000
80.41278 129.000
80.43272 129.000
80.45267 133.000
80.47262 120.000
80.49256 138.000
80.51251 122.000
80.53246 142.000
80.55240 114.000
80.57235 124.000
80.59230 136.000
80.61224 123.000
80.63219 138.000
80.65214 134.000
80.67209 136.000
80.69203 125.000
80.71198 140.000
80.73193 124.000
80.75187 121.000
80.77182 135.000
80.79177 128.000
80.81171 112.000
80.83166 115.000
80.85161 125.000
80.87156 106.000
80.89150 136.000
80.91145 143.000
80.93140 121.000
80.95134 140.000
80.97129 141.000
80.99124 129.000
81.01118 131.000
81.03113 132.000
81.05108 122.000
81.07102 128.000
81.09097 124.000
81.11092 146.000
81.13087 126.000
81.15081 123.000
81.17076 123.000
81.19071 107.000
81.21065 122.000
81.23060 109.000
81.25055 106.000
81.27049 114.000
81.29044 130.000
81.31039 104.000
81.33034 132.000
81.35028 129.000
81.37023 140.000
81.39018 121.000
81.41012 104.000
81.43007 138.000
81.45002 130.000
81.46996 127.000
81.48991 122.000
81.50986 124.000
81.52980 115.000
81.54975 103.000
81.56970 119.000
81.58965 107.000
81.60959 106.000
81.62954 121.000
81.64949 126.000
81.66943 114.000
81.68938 127.000
81.70933 129.000
81.72927 128.000
81.74922 118.000
81.76917 136.000
81.78912 107.000
81.80906 119.000
81.82901 124.000
81.84896 124.000
81.86890 134.000
81.88885 118.000
81.90880 108.000
81.92874 109.000
81.94869 122.000
81.96864 110.000
81.98859 133.000
82.00853 130.000
82.02848 130.000
82.04843 128.000
82.06837 116.000
82.08832 125.000
82.10827 122.000
82.12821 108.000
82.14816 109.000
82.16811 131.000
82.18805 133.000
82.20800 128.000
82.22795 121.000
82.24790 104.000
82.26784 109.000
82.28779 118.000
82.30774 109.000
82.32768 119.000
82.34763 138.000
82.36758 108.000
82.38752 107.000
82.40747 114.000
82.42742 119.000
82.44737 123.000
82.46731 122.000
82.48726 120.000
82.50721 113.000
82.52715 121.000
82.54710 131.000
82.56705 118.000
82.58699 122.000
82.60694 135.000
82.62689 116.000
82.64683 112.000
82.66678 116.000
82.68673 130.000
82.70668 122.000
82.72662 120.000
82.74657 124.000
82.76652 111.000
82.78646 124.000
82.80641 148.000
82.82636 135.000
82.84630 125.000
82.86625 112.000
82.88620 113.000
82.90615 138.000
82.92609 126.000
82.94604 119.000
82.96599 113.000
82.98593 139.000
83.00588 96.000
83.02583 111.000
83.04577 135.000
83.06572 122.000
83.08567 131.000
83.10561 135.000
83.12556 125.000
83.14551 113.000
83.16546 124.000
83.18540 133.000
83.20535 127.000
83.22530 137.000
83.24524 138.000
83.26519 130.000
83.28514 130.000
83.30508 117.000
83.32503 127.000
83.34498 97.000
83.36493 136.000
83.38487 114.000
83.40482 122.000
83.42477 148.000
83.44471 105.000
83.46466 131.000
83.48461 117.000
83.50455 126.000
83.52450 118.000
83.54445 134.000
83.56440 127.000
83.58434 128.000
83.60429 128.000
83.62424 122.000
83.64418 127.000
83.66413 111.000
83.68408 130.000
83.70402 130.000
83.72397 123.000
83.74392 133.000
83.76386 123.000
83.78381 122.000
83.80376 115.000
83.82371 139.000
83.84365 119.000
83.86360 128.000
83.88355 140.000
83.90349 147.000
83.92344 131.000
83.94339 140.000
83.96333 157.000
83.98328 140.000
84.00323 127.000
84.02318 116.000
84.04312 148.000
84.06307 153.000
84.08302 156.000
84.10296 132.000
84.12291 134.000
84.14286 157.000
84.16280 147.000
84.18275 139.000
84.20270 168.000
84.22264 148.000
84.24259 136.000
84.26254 154.000
84.28249 134.000
84.30243 159.000
84.32238 157.000
84.34233 168.000
84.36227 140.000
84.38222 168.000
84.40217 128.000
84.42211 151.000
84.44206 149.000
84.46201 165.000
84.48196 127.000
84.50190 141.000
84.52185 156.000
84.54180 140.000
84.56174 150.000
84.58169 141.000
84.60164 150.000
84.62158 134.000
84.64153 144.000
84.66148 169.000
84.68142 134.000
84.70137 115.000
84.72132 148.000
84.74127 156.000
84.76121 165.000
84.78116 146.000
84.80111 139.000
84.82105 146.000
84.84100 145.000
84.86095 143.000
84.88089 129.000
84.90084 139.000
84.92079 123.000
84.94074 134.000
84.96068 121.000
84.98063 121.000
85.00058 125.000
85.02052 135.000
85.04047 134.000
85.06042 151.000
85.08036 138.000
85.10031 118.000
85.12026 118.000
85.14021 132.000
85.16015 138.000
85.18010 115.000
85.20005 129.000
85.21999 115.000
85.23994 103.000
85.25989 116.000
85.27983 121.000
85.29978 133.000
85.31973 115.000
85.33967 104.000
85.35962 117.000
85.37957 123.000
85.39952 124.000
85.41946 120.000
85.43941 130.000
85.45936 120.000
85.47930 128.000
85.49925 130.000
85.51920 119.000
85.53914 116.000
85.55909 128.000
85.57904 119.000
85.59899 111.000
85.61893 126.000
85.63888 112.000
85.65883 109.000
85.67877 101.000
85.69872 133.000
85.71867 110.000
85.73861 128.000
85.75856 122.000
85.77851 121.000
85.79845 102.000
85.81840 107.000
85.83835 133.000
85.85830 136.000
85.87824 143.000
85.89819 93.000
85.91814 114.000
85.93808 119.000
85.95803 116.000
85.97798 142.000
85.99792 121.000
86.01787 118.000
86.03782 117.000
86.05777 125.000
86.07771 110.000
86.09766 139.000
86.11761 137.000
86.13755 128.000
86.15750 131.000
86.17745 125.000
86.19739 135.000
86.21734 119.000
86.23729 125.000
86.25723 127.000
86.27718 127.000
86.29713 144.000
86.31708 112.000
86.33702 135.000
86.35697 121.000
86.37692 127.000
86.39686 129.000
86.41681 133.000
86.43676 116.000
86.45670 140.000
86.47665 122.000
86.49660 127.000
86.51655 131.000
86.53649 145.000
86.55644 124.000
86.57639 115.000
86.59633 124.000
86.61628 125.000
86.63623 146.000
86.65617 112.000
86.67612 122.000
86.69607 120.000
86.71602 127.000
86.73596 128.000
86.75591 128.000
86.77586 150.000
86.79580 132.000
86.81575 143.000
86.83570 135.000
86.85564 128.000
86.87559 143.000
86.89554 176.000
86.91548 152.000
86.93543 129.000
86.95538 160.000
86.97533 148.000
86.99527 154.000
87.01522 139.000
87.03517 168.000
87.05511 146.000
87.07506 147.000
87.09501 168.000
87.11495 129.000
87.13490 118.000
87.15485 134.000
87.17480 141.000
87.19474 128.000
87.21469 140.000
87.23464 156.000
87.25458 134.000
87.27453 131.000
87.29448 170.000
87.31442 140.000
87.33437 117.000
87.35432 143.000
87.37426 153.000
87.39421 140.000
87.41416 150.000
87.43411 137.000
87.45405 130.000
87.47400 143.000
87.49395 139.000
87.51389 136.000
87.53384 137.000
87.55379 159.000
87.57373 118.000
87.59368 130.000
87.61363 152.000
87.63358 163.000
87.65352 159.000
87.67347 137.000
87.69342 138.000
87.71336 161.000
87.73331 132.000
87.75326 134.000
87.77320 148.000
87.79315 127.000
87.81310 132.000
87.83304 156.000
87.85299 121.000
87.87294 126.000
87.89289 167.000
87.91283 143.000
87.93278 104.000
87.95273 153.000
87.97267 134.000
87.99262 113.000
88.01257 129.000
88.03251 115.000
88.05246 128.000
88.07241 129.000
88.09236 134.000
88.11230 114.000
88.13225 125.000
88.15220 110.000
88.17214 119.000
88.19209 112.000
88.21204 113.000
88.23198 131.000
88.25193 122.000
88.27188 115.000
88.29183 111.000
88.31177 106.000
88.33172 116.000
88.35167 117.000
88.37161 109.000
88.39156 115.000
88.41151 124.000
88.43145 121.000
88.45140 133.000
88.47135 108.000
88.49129 116.000
88.51124 135.000
88.53119 109.000
88.55114 121.000
88.57108 125.000
88.59103 118.000
88.61098 106.000
88.63092 108.000
88.65087 130.000
88.67082 126.000
88.69076 125.000
88.71071 111.000
88.73066 122.000
88.75061 130.000
88.77055 116.000
88.79050 120.000
88.81045 107.000
88.83039 126.000
88.85034 130.000
88.87029 113.000
88.89023 132.000
88.91018 109.000
88.93013 127.000
88.95007 112.000
88.97002 147.000
88.98997 130.000
89.00992 126.000
89.02986 105.000
89.04981 124.000
89.06976 123.000
89.08970 126.000
89.10965 112.000
89.12960 111.000
89.14954 133.000
89.16949 136.000
89.18944 97.000
89.20939 122.000
89.22933 114.000
89.24928 117.000
89.26923 121.000
89.28917 104.000
89.30912 119.000
89.32907 131.000
89.34901 123.000
89.36896 147.000
89.38891 123.000
89.40885 127.000
89.42880 118.000
89.44875 107.000
89.46870 148.000
89.48864 143.000
89.50859 138.000
89.52854 113.000
89.54848 130.000
89.56843 120.000
89.58838 125.000
89.60832 116.000
89.62827 134.000
89.64822 126.000
89.66817 126.000
89.68811 132.000
89.70806 142.000
89.72801 125.000
89.74795 131.000
89.76790 133.000
89.78785 130.000
89.80779 121.000
89.82774 146.000
89.84769 111.000
89.86764 145.000
89.88758 125.000
89.90753 134.000
89.92748 95.000
89.94742 123.000
89.96737 142.000
89.98732 154.000
90.00726 98.000
