10.00000 30.000
10.01995 33.000
10.03989 38.000
10.05984 43.000
10.07979 38.000
10.09973 26.000
10.11968 26.000
10.13963 36.000
10.15958 33.000
10.17952 32.000
10.19947 35.000
10.21942 29.000
10.23936 39.000
10.25931 37.000
10.27926 37.000
10.29920 51.000
10.31915 34.000
10.33910 44.000
10.35905 35.000
10.37899 24.000
10.39894 42.000
10.41889 49.000
10.43883 43.000
10.45878 38.000
10.47873 29.000
10.49867 29.000
10.51862 39.000
10.53857 38.000
10.55851 36.000
10.57846 38.000
10.59841 39.000
10.61836 37.000
10.63830 38.000
10.65825 44.000
10.67820 32.000
10.69814 36.000
10.71809 45.000
10.73804 40.000
10.75798 45.000
10.77793 40.000
10.79788 41.000
10.81783 40.000
10.83777 46.000
10.85772 45.000
10.87767 32.000
10.89761 58.000
10.91756 41.000
10.93751 43.000
10.95745 36.000
10.97740 46.000
10.99735 33.000
11.01730 44.000
11.03724 39.000
11.05719 38.000
11.07714 33.000
11.09708 47.000
11.11703 43.000
11.13698 35.000
11.15692 49.000
11.17687 48.000
11.19682 51.000
11.21676 45.000
11.23671 45.000
11.25666 39.000
11.27661 49.000
11.29655 47.000
11.31650 39.000
11.33645 38.000
11.35639 50.000
11.37634 44.000
11.39629 44.000
11.41623 45.000
11.43618 50.000
11.45613 55.000
11.47608 42.000
11.49602 39.000
11.51597 49.000
11.53592 38.000
11.55586 40.000
11.57581 46.000
11.59576 52.000
11.61570 42.000
11.63565 53.000
11.65560 46.000
11.67554 42.000
11.69549 48.000
11.71544 42.000
11.73539 61.000
11.75533 52.000
11.77528 47.000
11.79523 33.000
11.81517 41.000
11.83512 59.000
11.85507 53.000
11.87501 53.000
11.89496 50.000
11.91491 46.000
11.93486 58.000
11.95480 50.000
11.97475 59.000
11.99470 56.000
12.01464 49.000
12.03459 46.000
12.05454 61.000
12.07448 44.000
12.09443 47.000
12.11438 42.000
12.13432 55.000
12.15427 37.000
12.17422 54.000
12.19417 48.000
12.21411 62.000
12.23406 51.000
12.25401 49.000
12.27395 61.000
12.29390 51.000
12.31385 66.000
12.33379 47.000
12.35374 54.000
12.37369 58.000
12.39364 54.000
12.41358 65.000
12.43353 44.000
12.45348 70.000
12.47342 50.000
12.49337 55.000
12.51332 48.000
12.53326 54.000
12.55321 55.000
12.57316 45.000
12.59311 63.000
12.61305 58.000
12.63300 44.000
12.65295 54.000
12.67289 55.000
12.69284 50.000
12.71279 62.000
12.73273 59.000
12.75268 67.000
12.77263 64.000
12.79257 60.000
12.81252 66.000
12.83247 61.000
12.85242 50.000
12.87236 66.000
12.89231 60.000
12.91226 52.000
12.93220 55.000
12.95215 47.000
12.97210 51.000
12.99204 57.000
13.01199 49.000
13.03194 59.000
13.05189 60.000
13.07183 66.000
13.09178 65.000
13.11173 55.000
13.13167 29.000
13.15162 61.000
13.17157 63.000
13.19151 49.000
13.21146 51.000
13.23141 49.000
13.25135 69.000
13.27130 57.000
13.29125 64.000
13.31120 56.000
13.33114 55.000
13.35109 65.000
13.37104 61.000
13.39098 48.000
13.41093 63.000
13.43088 64.000
13.45082 50.000
13.47077 59.000
13.49072 60.000
13.51067 48.000
13.53061 52.000
13.55056 59.000
13.57051 52.000
13.59045 61.000
13.61040 67.000
13.63035 55.000
13.65029 57.000
13.67024 54.000
13.69019 66.000
13.71013 52.000
13.73008 47.000
13.75003 59.000
13.76998 58.000
13.78992 73.000
13.80987 65.000
13.82982 59.000
13.84976 61.000
13.86971 59.000
13.88966 72.000
13.90960 58.000
13.92955 70.000
13.94950 61.000
13.96945 63.000
13.98939 68.000
14.00934 70.000
14.02929 67.000
14.04923 67.000
14.06918 63.000
14.08913 56.000
14.10907 63.000
14.12902 61.000
14.14897 59.000
14.16892 60.000
14.18886 63.000
14.20881 56.000
14.22876 60.000
14.24870 54.000
14.26865 78.000
14.28860 83.000
14.30854 64.000
14.32849 54.000
14.34844 65.000
14.36838 63.000
14.38833 55.000
14.40828 67.000
14.42823 63.000
14.44817 81.000
14.46812 49.000
14.48807 62.000
14.50801 59.000
14.52796 70.000
14.54791 63.000
14.56785 79.000
14.58780 64.000
14.60775 69.000
14.62770 69.000
14.64764 64.000
14.66759 60.000
14.68754 61.000
14.70748 58.000
14.72743 63.000
14.74738 44.000
14.76732 73.000
14.78727 62.000
14.80722 64.000
14.82716 57.000
14.84711 65.000
14.86706 80.000
14.88701 61.000
14.90695 56.000
14.92690 68.000
14.94685 87.000
14.96679 70.000
14.98674 55.000
15.00669 75.000
15.02663 76.000
15.04658 65.000
15.06653 71.000
15.08648 65.000
15.10642 87.000
15.12637 72.000
15.14632 74.000
15.16626 72.000
15.18621 80.000
15.20616 59.000
15.22610 62.000
15.24605 82.000
15.26600 82.000
15.28594 67.000
15.30589 76.000
15.32584 76.000
15.34579 99.000
15.36573 100.000
15.38568 87.000
15.40563 73.000
15.42557 87.000
15.44552 96.000
15.46547 69.000
15.48541 69.000
15.50536 81.000
15.52531 92.000
15.54526 78.000
15.56520 99.000
15.58515 79.000
15.60510 79.000
15.62504 84.000
15.64499 87.000
15.66494 87.000
15.68488 122.000
15.70483 101.000
15.72478 149.000
15.74472 155.000
15.76467 165.000
15.78462 191.000
15.80457 208.000
15.82451 251.000
15.84446 289.000
15.86441 311.000
15.88435 363.000
15.90430 455.000
15.92425 690.000
15.94419 1034.000
15.96414 1413.000
15.98409 1827.000
16.00404 2061.000
16.02398 1955.000
16.04393 1631.000
16.06388 1099.000
16.08382 694.000
16.10377 413.000
16.12372 276.000
16.14366 226.000
16.16361 210.000
16.18356 209.000
16.20351 213.000
16.22345 219.000
16.24340 237.000
16.26335 211.000
16.28329 217.000
16.30324 235.000
16.32319 168.000
16.34313 172.000
16.36308 156.000
16.38303 155.000
16.40297 116.000
16.42292 113.000
16.44287 115.000
16.46282 117.000
16.48276 99.000
16.50271 89.000
16.52266 74.000
16.54260 97.000
16.56255 79.000
16.58250 100.000
16.60244 88.000
16.62239 81.000
16.64234 80.000
16.66229 81.000
16.68223 82.000
16.70218 84.000
16.72213 90.000
16.74207 76.000
16.76202 71.000
16.78197 73.000
16.80191 75.000
16.82186 89.000
16.84181 85.000
16.86175 81.000
16.88170 80.000
16.90165 96.000
16.92160 86.000
16.94154 93.000
16.96149 77.000
16.98144 55.000
17.00138 83.000
17.02133 82.000
17.04128 91.000
17.06122 88.000
17.08117 88.000
17.10112 72.000
17.12107 93.000
17.14101 79.000
17.16096 89.000
17.18091 80.000
17.20085 68.000
17.22080 90.000
17.24075 66.000
17.26069 77.000
17.28064 82.000
17.30059 81.000
17.32053 82.000
17.34048 79.000
17.36043 93.000
17.38038 87.000
17.40032 99.000
17.42027 96.000
17.44022 79.000
17.46016 57.000
17.48011 84.000
17.50006 69.000
17.52000 73.000
17.53995 75.000
17.55990 87.000
17.57985 74.000
17.59979 82.000
17.61974 64.000
17.63969 81.000
17.65963 84.000
17.67958 84.000
17.69953 70.000
17.71947 77.000
17.73942 90.000
17.75937 76.000
17.77932 75.000
17.79926 85.000
17.81921 77.000
17.83916 77.000
17.85910 62.000
17.87905 68.000
17.89900 100.000
17.91894 89.000
17.93889 102.000
17.95884 93.000
17.97878 88.000
17.99873 70.000
18.01868 79.000
18.03863 97.000
18.05857 83.000
18.07852 77.000
18.09847 87.000
18.11841 77.000
18.13836 94.000
18.15831 85.000
18.17825 97.000
18.19820 83.000
18.21815 79.000
18.23810 100.000
18.25804 92.000
18.27799 94.000
18.29794 94.000
18.31788 96.000
18.33783 81.000
18.35778 79.000
18.37772 81.000
18.39767 66.000
18.41762 101.000
18.43756 92.000
18.45751 93.000
18.47746 64.000
18.49741 104.000
18.51735 103.000
18.53730 80.000
18.55725 88.000
18.57719 93.000
18.59714 87.000
18.61709 92.000
18.63703 89.000
18.65698 93.000
18.67693 108.000
18.69688 98.000
18.71682 91.000
18.73677 105.000
18.75672 84.000
18.77666 90.000
18.79661 89.000
18.81656 80.000
18.83650 75.000
18.85645 101.000
18.87640 95.000
18.89634 93.000
18.91629 93.000
18.93624 90.000
18.95619 93.000
18.97613 89.000
18.99608 95.000
19.01603 83.000
19.03597 100.000
19.05592 101.000
19.07587 97.000
19.09581 94.000
19.11576 79.000
19.13571 84.000
19.15566 88.000
19.17560 87.000
19.19555 91.000
19.21550 88.000
19.23544 79.000
19.25539 89.000
19.27534 86.000
19.29528 85.000
19.31523 84.000
19.33518 92.000
19.35513 104.000
19.37507 97.000
19.39502 86.000
19.41497 88.000
19.43491 70.000
19.45486 93.000
19.47481 72.000
19.49475 99.000
19.51470 85.000
19.53465 86.000
19.55459 89.000
19.57454 91.000
19.59449 90.000
19.61444 90.000
19.63438 95.000
19.65433 87.000
19.67428 91.000
19.69422 85.000
19.71417 98.000
19.73412 110.000
19.75406 105.000
19.77401 77.000
19.79396 97.000
19.81391 90.000
19.83385 93.000
19.85380 96.000
19.87375 113.000
19.89369 97.000
19.91364 90.000
19.93359 110.000
19.95353 101.000
19.97348 101.000
19.99343 75.000
20.01337 96.000
20.03332 102.000
20.05327 83.000
20.07322 78.000
20.09316 90.000
20.11311 97.000
20.13306 90.000
20.15300 95.000
20.17295 96.000
20.19290 101.000
20.21284 90.000
20.23279 104.000
20.25274 84.000
20.27269 99.000
20.29263 98.000
20.31258 92.000
20.33253 112.000
20.35247 91.000
20.37242 104.000
20.39237 102.000
20.41231 101.000
20.43226 101.000
20.45221 103.000
20.47215 102.000
20.49210 85.000
20.51205 102.000
20.53200 101.000
20.55194 107.000
20.57189 92.000
20.59184 76.000
20.61178 103.000
20.63173 95.000
20.65168 103.000
20.67162 114.000
20.69157 126.000
20.71152 112.000
20.73147 106.000
20.75141 89.000
20.77136 97.000
20.79131 75.000
20.81125 84.000
20.83120 104.000
20.85115 102.000
20.87109 106.000
20.89104 100.000
20.91099 118.000
20.93094 96.000
20.95088 98.000
20.97083 123.000
20.99078 113.000
21.01072 113.000
21.03067 101.000
21.05062 110.000
21.07056 108.000
21.09051 119.000
21.11046 120.000
21.13040 103.000
21.15035 114.000
21.17030 118.000
21.19025 94.000
21.21019 101.000
21.23014 91.000
21.25009 86.000
21.27003 100.000
21.28998 109.000
21.30993 114.000
21.32987 94.000
21.34982 107.000
21.36977 112.000
21.38972 96.000
21.40966 85.000
21.42961 92.000
21.44956 93.000
21.46950 112.000
21.48945 90.000
21.50940 104.000
21.52934 109.000
21.54929 110.000
21.56924 100.000
21.58918 116.000
21.60913 105.000
21.62908 99.000
21.64903 104.000
21.66897 107.000
21.68892 113.000
21.70887 120.000
21.72881 108.000
21.74876 101.000
21.76871 110.000
21.78865 90.000
21.80860 130.000
21.82855 99.000
21.84850 110.000
21.86844 114.000
21.88839 105.000
21.90834 104.000
21.92828 110.000
21.94823 99.000
21.96818 98.000
21.98812 102.000
22.00807 106.000
22.02802 84.000
22.04796 114.000
22.06791 122.000
22.08786 95.000
22.10781 118.000
22.12775 112.000
22.14770 79.000
22.16765 106.000
22.18759 121.000
22.20754 117.000
22.22749 91.000
22.24743 109.000
22.26738 78.000
22.28733 104.000
22.30728 107.000
22.32722 107.000
22.34717 115.000
22.36712 81.000
22.38706 102.000
22.40701 93.000
22.42696 94.000
22.44690 105.000
22.46685 113.000
22.48680 95.000
22.50675 129.000
22.52669 102.000
22.54664 93.000
22.56659 98.000
22.58653 115.000
22.60648 109.000
22.62643 119.000
22.64637 120.000
22.66632 109.000
22.68627 89.000
22.70621 113.000
22.72616 114.000
22.74611 103.000
22.76606 124.000
22.78600 105.000
22.80595 101.000
22.82590 110.000
22.84584 110.000
22.86579 97.000
22.88574 100.000
22.90568 94.000
22.92563 100.000
22.94558 94.000
22.96553 101.000
22.98547 109.000
23.00542 123.000
23.02537 122.000
23.04531 121.000
23.06526 104.000
23.08521 97.000
23.10515 107.000
23.12510 113.000
23.14505 119.000
23.16499 109.000
23.18494 118.000
23.20489 111.000
23.22484 105.000
23.24478 106.000
23.26473 106.000
23.28468 101.000
23.30462 111.000
23.32457 102.000
23.34452 114.000
23.36446 109.000
23.38441 119.000
23.40436 127.000
23.42431 119.000
23.44425 102.000
23.46420 99.000
23.48415 116.000
23.50409 102.000
23.52404 125.000
23.54399 133.000
23.56393 109.000
23.58388 101.000
23.60383 92.000
23.62377 107.000
23.64372 124.000
23.66367 124.000
23.68362 121.000
23.70356 107.000
23.72351 119.000
23.74346 107.000
23.76340 126.000
23.78335 105.000
23.80330 116.000
23.82324 111.000
23.84319 107.000
23.86314 107.000
23.88309 121.000
23.90303 118.000
23.92298 118.000
23.94293 125.000
23.96287 106.000
23.98282 125.000
24.00277 110.000
24.02271 99.000
24.04266 142.000
24.06261 132.000
24.08256 101.000
24.10250 138.000
24.12245 97.000
24.14240 115.000
24.16234 80.000
24.18229 115.000
24.20224 109.000
24.22218 106.000
24.24213 114.000
24.26208 145.000
24.28202 129.000
24.30197 118.000
24.32192 113.000
24.34187 123.000
24.36181 132.000
24.38176 106.000
24.40171 101.000
24.42165 110.000
24.44160 126.000
24.46155 125.000
24.48149 100.000
24.50144 121.000
24.52139 95.000
24.54134 118.000
24.56128 113.000
24.58123 107.000
24.60118 117.000
24.62112 122.000
24.64107 114.000
24.66102 115.000
24.68096 118.000
24.70091 120.000
24.72086 105.000
24.74080 120.000
24.76075 128.000
24.78070 117.000
24.80065 122.000
24.82059 117.000
24.84054 125.000
24.86049 112.000
24.88043 112.000
24.90038 131.000
24.92033 104.000
24.94027 116.000
24.96022 112.000
24.98017 147.000
25.00012 118.000
25.02006 121.000
25.04001 125.000
25.05996 120.000
25.07990 116.000
25.09985 138.000
25.11980 119.000
25.13974 118.000
25.15969 136.000
25.17964 133.000
25.19958 126.000
25.21953 132.000
25.23948 131.000
25.25943 143.000
25.27937 125.000
25.29932 137.000
25.31927 131.000
25.33921 119.000
25.35916 114.000
25.37911 134.000
25.39905 119.000
25.41900 118.000
25.43895 139.000
25.45890 137.000
25.47884 135.000
25.49879 104.000
25.51874 133.000
25.53868 145.000
25.55863 112.000
25.57858 123.000
25.59852 118.000
25.61847 117.000
25.63842 120.000
25.65837 134.000
25.67831 114.000
25.69826 122.000
25.71821 119.000
25.73815 120.000
25.75810 119.000
25.77805 132.000
25.79799 113.000
25.81794 132.000
25.83789 144.000
25.85783 131.000
25.87778 129.000
25.89773 133.000
25.91768 141.000
25.93762 123.000
25.95757 131.000
25.97752 119.000
25.99746 131.000
26.01741 150.000
26.03736 140.000
26.05730 141.000
26.07725 131.000
26.09720 118.000
26.11715 112.000
26.13709 126.000
26.15704 130.000
26.17699 122.000
26.19693 165.000
26.21688 130.000
26.23683 129.000
26.25677 113.000
26.27672 114.000
26.29667 126.000
26.31661 136.000
26.33656 134.000
26.35651 116.000
26.37646 140.000
26.39640 159.000
26.41635 149.000
26.43630 140.000
26.45624 133.000
26.47619 136.000
26.49614 120.000
26.51608 113.000
26.53603 134.000
26.55598 139.000
26.57593 119.000
26.59587 142.000
26.61582 136.000
26.63577 132.000
26.65571 131.000
26.67566 147.000
26.69561 142.000
26.71555 129.000
26.73550 128.000
26.75545 152.000
26.77539 123.000
26.79534 138.000
26.81529 121.000
26.83524 140.000
26.85518 127.000
26.87513 114.000
26.89508 126.000
26.91502 148.000
26.93497 144.000
26.95492 133.000
26.97486 149.000
26.99481 137.000
27.01476 143.000
27.03471 132.000
27.05465 133.000
27.07460 129.000
27.09455 131.000
27.11449 139.000
27.13444 163.000
27.15439 136.000
27.17433 128.000
27.19428 144.000
27.21423 140.000
27.23417 155.000
27.25412 160.000
27.27407 156.000
27.29402 153.000
27.31396 139.000
27.33391 151.000
27.35386 150.000
27.37380 126.000
27.39375 122.000
27.41370 159.000
27.43364 128.000
27.45359 141.000
27.47354 137.000
27.49349 145.000
27.51343 157.000
27.53338 135.000
27.55333 123.000
27.57327 145.000
27.59322 118.000
27.61317 178.000
27.63311 128.000
27.65306 143.000
27.67301 145.000
27.69296 153.000
27.71290 145.000
27.73285 146.000
27.75280 141.000
27.77274 139.000
27.79269 123.000
27.81264 132.000
27.83258 127.000
27.85253 149.000
27.87248 132.000
27.89242 136.000
27.91237 140.000
27.93232 145.000
27.95227 137.000
27.97221 152.000
27.99216 151.000
28.01211 118.000
28.03205 173.000
28.05200 131.000
28.07195 149.000
28.09189 146.000
28.11184 169.000
28.13179 141.000
28.15174 146.000
28.17168 148.000
28.19163 146.000
28.21158 122.000
28.23152 149.000
28.25147 156.000
28.27142 151.000
28.29136 147.000
28.31131 162.000
28.33126 143.000
28.35120 157.000
28.37115 141.000
28.39110 152.000
28.41105 153.000
28.43099 152.000
28.45094 146.000
28.47089 171.000
28.49083 160.000
28.51078 151.000
28.53073 152.000
28.55067 132.000
28.57062 164.000
28.59057 161.000
28.61052 159.000
28.63046 171.000
28.65041 138.000
28.67036 136.000
28.69030 146.000
28.71025 137.000
28.73020 159.000
28.75014 139.000
28.77009 137.000
28.79004 139.000
28.80998 152.000
28.82993 126.000
28.84988 134.000
28.86983 129.000
28.88977 162.000
28.90972 137.000
28.92967 148.000
28.94961 134.000
28.96956 147.000
28.98951 127.000
29.00945 140.000
29.02940 143.000
29.04935 161.000
29.06930 154.000
29.08924 152.000
29.10919 160.000
29.12914 130.000
29.14908 132.000
29.16903 119.000
29.18898 135.000
29.20892 146.000
29.22887 148.000
29.24882 162.000
29.26877 155.000
29.28871 126.000
29.30866 138.000
29.32861 141.000
29.34855 166.000
29.36850 151.000
29.38845 153.000
29.40839 157.000
29.42834 144.000
29.44829 173.000
29.46823 165.000
29.48818 171.000
29.50813 163.000
29.52808 176.000
29.54802 175.000
29.56797 177.000
29.58792 155.000
29.60786 179.000
29.62781 169.000
29.64776 185.000
29.66770 153.000
29.68765 151.000
29.70760 147.000
29.72755 166.000
29.74749 157.000
29.76744 161.000
29.78739 164.000
29.80733 174.000
29.82728 139.000
29.84723 131.000
29.86717 152.000
29.88712 171.000
29.90707 134.000
29.92701 154.000
29.94696 155.000
29.96691 180.000
29.98686 150.000
30.00680 133.000
30.02675 152.000
30.04670 148.000
30.06664 150.000
30.08659 166.000
30.10654 153.000
30.12648 151.000
30.14643 170.000
30.16638 177.000
30.18633 146.000
30.20627 143.000
30.22622 150.000
30.24617 172.000
30.26611 168.000
30.28606 154.000
30.30601 163.000
30.32595 148.000
30.34590 161.000
30.36585 145.000
30.38579 134.000
30.40574 182.000
30.42569 161.000
30.44564 157.000
30.46558 162.000
30.48553 134.000
30.50548 165.000
30.52542 131.000
30.54537 134.000
30.56532 151.000
30.58526 135.000
30.60521 162.000
30.62516 163.000
30.64511 154.000
30.66505 139.000
30.68500 159.000
30.70495 153.000
30.72489 149.000
30.74484 154.000
30.76479 160.000
30.78473 151.000
30.80468 161.000
30.82463 162.000
30.84458 134.000
30.86452 172.000
30.88447 134.000
30.90442 167.000
30.92436 145.000
30.94431 151.000
30.96426 160.000
30.98420 142.000
31.00415 137.000
31.02410 151.000
31.04404 152.000
31.06399 155.000
31.08394 164.000
31.10389 153.000
31.12383 142.000
31.14378 159.000
31.16373 156.000
31.18367 150.000
31.20362 140.000
31.22357 155.000
31.24351 129.000
31.26346 151.000
31.28341 129.000
31.30336 167.000
31.32330 157.000
31.34325 167.000
31.36320 153.000
31.38314 161.000
31.40309 146.000
31.42304 179.000
31.44298 143.000
31.46293 150.000
31.48288 179.000
31.50282 150.000
31.52277 171.000
31.54272 164.000
31.56267 165.000
31.58261 149.000
31.60256 194.000
31.62251 155.000
31.64245 175.000
31.66240 184.000
31.68235 166.000
31.70229 158.000
31.72224 165.000
31.74219 184.000
31.76214 159.000
31.78208 144.000
31.80203 164.000
31.82198 167.000
31.84192 167.000
31.86187 176.000
31.88182 157.000
31.90176 183.000
31.92171 175.000
31.94166 189.000
31.96160 224.000
31.98155 193.000
32.00150 237.000
32.02145 245.000
32.04139 244.000
32.06134 316.000
32.08129 344.000
32.10123 436.000
32.12118 474.000
32.14113 505.000
32.16107 509.000
32.18102 520.000
32.20097 558.000
32.22092 444.000
32.24086 462.000
32.26081 368.000
32.28076 347.000
32.30070 286.000
32.32065 233.000
32.34060 218.000
32.36054 213.000
32.38049 197.000
32.40044 205.000
32.42039 186.000
32.44033 187.000
32.46028 197.000
32.48023 191.000
32.50017 188.000
32.52012 225.000
32.54007 225.000
32.56001 190.000
32.57996 195.000
32.59991 252.000
32.61985 291.000
32.63980 247.000
32.65975 263.000
32.67970 264.000
32.69964 266.000
32.71959 233.000
32.73954 231.000
32.75948 203.000
32.77943 210.000
32.79938 194.000
32.81932 175.000
32.83927 203.000
32.85922 180.000
32.87917 186.000
32.89911 168.000
32.91906 157.000
32.93901 189.000
32.95895 183.000
32.97890 161.000
32.99885 162.000
33.01879 146.000
33.03874 178.000
33.05869 172.000
33.07863 175.000
33.09858 172.000
33.11853 150.000
33.13848 171.000
33.15842 178.000
33.17837 174.000
33.19832 190.000
33.21826 157.000
33.23821 182.000
33.25816 157.000
33.27810 176.000
33.29805 169.000
33.31800 163.000
33.33795 186.000
33.35789 154.000
33.37784 177.000
33.39779 172.000
33.41773 156.000
33.43768 159.000
33.45763 175.000
33.47757 169.000
33.49752 153.000
33.51747 157.000
33.53741 151.000
33.55736 165.000
33.57731 172.000
33.59726 172.000
33.61720 152.000
33.63715 173.000
33.65710 173.000
33.67704 158.000
33.69699 162.000
33.71694 185.000
33.73688 147.000
33.75683 156.000
33.77678 166.000
33.79673 173.000
33.81667 160.000
33.83662 148.000
33.85657 172.000
33.87651 154.000
33.89646 185.000
33.91641 162.000
33.93635 173.000
33.95630 177.000
33.97625 167.000
33.99620 161.000
34.01614 168.000
34.03609 171.000
34.05604 180.000
34.07598 166.000
34.09593 139.000
34.11588 155.000
34.13582 175.000
34.15577 172.000
34.17572 199.000
34.19566 190.000
34.21561 180.000
34.23556 165.000
34.25551 151.000
34.27545 178.000
34.29540 179.000
34.31535 186.000
34.33529 172.000
34.35524 202.000
34.37519 190.000
34.39513 179.000
34.41508 202.000
34.43503 206.000
34.45498 224.000
34.47492 188.000
34.49487 186.000
34.51482 201.000
34.53476 186.000
34.55471 193.000
34.57466 206.000
34.59460 202.000
34.61455 206.000
34.63450 209.000
34.65444 213.000
34.67439 234.000
34.69434 215.000
34.71429 216.000
34.73423 209.000
34.75418 224.000
34.77413 205.000
34.79407 194.000
34.81402 179.000
34.83397 208.000
34.85391 227.000
34.87386 211.000
34.89381 205.000
34.91376 203.000
34.93370 219.000
34.95365 241.000
34.97360 204.000
34.99354 201.000
35.01349 180.000
35.03344 227.000
35.05338 183.000
35.07333 212.000
35.09328 201.000
35.11322 208.000
35.13317 215.000
35.15312 196.000
35.17307 183.000
35.19301 168.000
35.21296 195.000
35.23291 187.000
35.25285 201.000
35.27280 185.000
35.29275 197.000
35.31269 228.000
35.33264 223.000
35.35259 195.000
35.37254 219.000
35.39248 242.000
35.41243 237.000
35.43238 275.000
35.45232 296.000
35.47227 357.000
35.49222 382.000
35.51216 472.000
35.53211 567.000
35.55206 705.000
35.57201 811.000
35.59195 852.000
35.61190 978.000
35.63185 1032.000
35.65179 1081.000
35.67174 1219.000
35.69169 1295.000
35.71163 1244.000
35.73158 1105.000
35.75153 1095.000
35.77147 1065.000
35.79142 1016.000
35.81137 929.000
35.83132 868.000
35.85126 847.000
35.87121 765.000
35.89116 690.000
35.91110 638.000
35.93105 562.000
35.95100 481.000
35.97094 429.000
35.99089 431.000
36.01084 351.000
36.03079 316.000
36.05073 335.000
36.07068 293.000
36.09063 277.000
36.11057 294.000
36.13052 272.000
36.15047 284.000
36.17041 292.000
36.19036 265.000
36.21031 271.000
36.23025 246.000
36.25020 240.000
36.27015 259.000
36.29010 241.000
36.31004 234.000
36.32999 237.000
36.34994 228.000
36.36988 238.000
36.38983 194.000
36.40978 221.000
36.42972 211.000
36.44967 180.000
36.46962 210.000
36.48957 203.000
36.50951 195.000
36.52946 182.000
36.54941 199.000
36.56935 194.000
36.58930 224.000
36.60925 223.000
36.62919 219.000
36.64914 223.000
36.66909 232.000
36.68903 221.000
36.70898 259.000
36.72893 238.000
36.74888 247.000
36.76882 256.000
36.78877 253.000
36.80872 219.000
36.82866 217.000
36.84861 229.000
36.86856 254.000
36.88850 250.000
36.90845 203.000
36.92840 207.000
36.94835 256.000
36.96829 227.000
36.98824 203.000
37.00819 253.000
37.02813 214.000
37.04808 256.000
37.06803 265.000
37.08797 258.000
37.10792 277.000
37.12787 310.000
37.14781 299.000
37.16776 289.000
37.18771 287.000
37.20766 275.000
37.22760 284.000
37.24755 272.000
37.26750 278.000
37.28744 250.000
37.30739 287.000
37.32734 264.000
37.34728 299.000
37.36723 292.000
37.38718 262.000
37.40713 287.000
37.42707 315.000
37.44702 285.000
37.46697 299.000
37.48691 302.000
37.50686 286.000
37.52681 281.000
37.54675 300.000
37.56670 295.000
37.58665 262.000
37.60660 280.000
37.62654 266.000
37.64649 218.000
37.66644 211.000
37.68638 251.000
37.70633 243.000
37.72628 181.000
37.74622 226.000
37.76617 188.000
37.78612 192.000
37.80606 192.000
37.82601 180.000
37.84596 198.000
37.86591 213.000
37.88585 212.000
37.90580 207.000
37.92575 224.000
37.94569 183.000
37.96564 210.000
37.98559 218.000
38.00553 220.000
38.02548 216.000
38.04543 217.000
38.06538 199.000
38.08532 204.000
38.10527 225.000
38.12522 202.000
38.14516 190.000
38.16511 246.000
38.18506 195.000
38.20500 211.000
38.22495 223.000
38.24490 234.000
38.26484 213.000
38.28479 232.000
38.30474 225.000
38.32469 220.000
38.34463 220.000
38.36458 214.000
38.38453 200.000
38.40447 219.000
38.42442 242.000
38.44437 227.000
38.46431 274.000
38.48426 222.000
38.50421 226.000
38.52416 248.000
38.54410 262.000
38.56405 254.000
38.58400 271.000
38.60394 282.000
38.62389 320.000
38.64384 347.000
38.66378 382.000
38.68373 435.000
38.70368 470.000
38.72362 622.000
38.74357 667.000
38.76352 812.000
38.78347 967.000
38.80341 1037.000
38.82336 1172.000
38.84331 1216.000
38.86325 1101.000
38.88320 1057.000
38.90315 981.000
38.92309 914.000
38.94304 814.000
38.96299 789.000
38.98294 671.000
39.00288 577.000
39.02283 566.000
39.04278 520.000
39.06272 526.000
39.08267 540.000
39.10262 520.000
39.12256 520.000
39.14251 499.000
39.16246 475.000
39.18241 393.000
39.20235 462.000
39.22230 441.000
39.24225 470.000
39.26219 499.000
39.28214 517.000
39.30209 570.000
39.32203 647.000
39.34198 740.000
39.36193 838.000
39.38187 936.000
39.40182 992.000
39.42177 1009.000
39.44172 994.000
39.46166 997.000
39.48161 887.000
39.50156 882.000
39.52150 727.000
39.54145 638.000
39.56140 621.000
39.58134 532.000
39.60129 430.000
39.62124 352.000
39.64119 372.000
39.66113 310.000
39.68108 275.000
39.70103 254.000
39.72097 240.000
39.74092 256.000
39.76087 228.000
39.78081 222.000
39.80076 220.000
39.82071 238.000
39.84065 219.000
39.86060 215.000
39.88055 231.000
39.90050 221.000
39.92044 213.000
39.94039 226.000
39.96034 203.000
39.98028 202.000
40.00023 207.000
40.02018 215.000
40.04012 195.000
40.06007 191.000
40.08002 190.000
40.09997 188.000
40.11991 185.000
40.13986 162.000
40.15981 212.000
40.17975 195.000
40.19970 198.000
40.21965 208.000
40.23959 182.000
40.25954 192.000
40.27949 190.000
40.29943 206.000
40.31938 195.000
40.33933 185.000
40.35928 204.000
40.37922 219.000
40.39917 203.000
40.41912 190.000
40.43906 195.000
40.45901 180.000
40.47896 173.000
40.49890 181.000
40.51885 174.000
40.53880 172.000
40.55875 184.000
40.57869 175.000
40.59864 200.000
40.61859 182.000
40.63853 163.000
40.65848 199.000
40.67843 163.000
40.69837 205.000
40.71832 216.000
40.73827 187.000
40.75822 207.000
40.77816 189.000
40.79811 190.000
40.81806 189.000
40.83800 197.000
40.85795 169.000
40.87790 202.000
40.89784 186.000
40.91779 183.000
40.93774 177.000
40.95768 184.000
40.97763 201.000
40.99758 207.000
41.01753 171.000
41.03747 199.000
41.05742 195.000
41.07737 179.000
41.09731 211.000
41.11726 180.000
41.13721 200.000
41.15715 193.000
41.17710 195.000
41.19705 228.000
41.21700 192.000
41.23694 186.000
41.25689 196.000
41.27684 188.000
41.29678 183.000
41.31673 190.000
41.33668 204.000
41.35662 178.000
41.37657 195.000
41.39652 191.000
41.41646 180.000
41.43641 184.000
41.45636 200.000
41.47631 194.000
41.49625 190.000
41.51620 205.000
41.53615 194.000
41.55609 200.000
41.57604 229.000
41.59599 200.000
41.61593 217.000
41.63588 213.000
41.65583 219.000
41.67578 254.000
41.69572 225.000
41.71567 284.000
41.73562 227.000
41.75556 270.000
41.77551 264.000
41.79546 293.000
41.81540 346.000
41.83535 351.000
41.85530 385.000
41.87524 370.000
41.89519 419.000
41.91514 437.000
41.93509 425.000
41.95503 369.000
41.97498 381.000
41.99493 341.000
42.01487 351.000
42.03482 323.000
42.05477 295.000
42.07471 290.000
42.09466 244.000
42.11461 239.000
42.13456 248.000
42.15450 242.000
42.17445 217.000
42.19440 196.000
42.21434 239.000
42.23429 224.000
42.25424 232.000
42.27418 202.000
42.29413 190.000
42.31408 183.000
42.33403 183.000
42.35397 185.000
42.37392 189.000
42.39387 220.000
42.41381 236.000
42.43376 194.000
42.45371 199.000
42.47365 215.000
42.49360 195.000
42.51355 190.000
42.53349 224.000
42.55344 199.000
42.57339 199.000
42.59334 209.000
42.61328 209.000
42.63323 207.000
42.65318 181.000
42.67312 217.000
42.69307 210.000
42.71302 176.000
42.73296 210.000
42.75291 199.000
42.77286 232.000
42.79281 202.000
42.81275 226.000
42.83270 199.000
42.85265 191.000
42.87259 222.000
42.89254 191.000
42.91249 196.000
42.93243 203.000
42.95238 203.000
42.97233 193.000
42.99227 212.000
43.01222 214.000
43.03217 218.000
43.05212 213.000
43.07206 201.000
43.09201 222.000
43.11196 223.000
43.13190 232.000
43.15185 217.000
43.17180 225.000
43.19174 212.000
43.21169 229.000
43.23164 229.000
43.25159 248.000
43.27153 240.000
43.29148 220.000
43.31143 234.000
43.33137 247.000
43.35132 279.000
43.37127 254.000
43.39121 258.000
43.41116 324.000
43.43111 338.000
43.45105 345.000
43.47100 412.000
43.49095 443.000
43.51090 449.000
43.53084 517.000
43.55079 556.000
43.57074 503.000
43.59068 476.000
43.61063 456.000
43.63058 429.000
43.65052 392.000
43.67047 397.000
43.69042 358.000
43.71037 328.000
43.73031 296.000
43.75026 297.000
43.77021 258.000
43.79015 225.000
43.81010 233.000
43.83005 243.000
43.84999 247.000
43.86994 223.000
43.88989 204.000
43.90984 205.000
43.92978 216.000
43.94973 227.000
43.96968 222.000
43.98962 220.000
44.00957 204.000
44.02952 198.000
44.04946 192.000
44.06941 229.000
44.08936 207.000
44.10930 187.000
44.12925 227.000
44.14920 187.000
44.16915 204.000
44.18909 194.000
44.20904 186.000
44.22899 204.000
44.24893 206.000
44.26888 199.000
44.28883 207.000
44.30877 182.000
44.32872 212.000
44.34867 220.000
44.36862 221.000
44.38856 225.000
44.40851 210.000
44.42846 224.000
44.44840 205.000
44.46835 239.000
44.48830 247.000
44.50824 223.000
44.52819 211.000
44.54814 246.000
44.56808 233.000
44.58803 255.000
44.60798 256.000
44.62793 224.000
44.64787 238.000
44.66782 222.000
44.68777 250.000
44.70771 268.000
44.72766 230.000
44.74761 258.000
44.76755 229.000
44.78750 243.000
44.80745 250.000
44.82740 239.000
44.84734 236.000
44.86729 266.000
44.88724 224.000
44.90718 217.000
44.92713 215.000
44.94708 243.000
44.96702 234.000
44.98697 233.000
45.00692 234.000
45.02686 224.000
45.04681 269.000
45.06676 226.000
45.08671 251.000
45.10665 235.000
45.12660 262.000
45.14655 262.000
45.16649 268.000
45.18644 290.000
45.20639 243.000
45.22633 254.000
45.24628 276.000
45.26623 255.000
45.28618 278.000
45.30612 272.000
45.32607 302.000
45.34602 275.000
45.36596 312.000
45.38591 276.000
45.40586 276.000
45.42580 259.000
45.44575 265.000
45.46570 235.000
45.48565 223.000
45.50559 247.000
45.52554 245.000
45.54549 230.000
45.56543 234.000
45.58538 214.000
45.60533 200.000
45.62527 202.000
45.64522 219.000
45.66517 210.000
45.68511 218.000
45.70506 206.000
45.72501 234.000
45.74496 202.000
45.76490 208.000
45.78485 232.000
45.80480 196.000
45.82474 197.000
45.84469 219.000
45.86464 197.000
45.88458 192.000
45.90453 206.000
45.92448 195.000
45.94443 185.000
45.96437 221.000
45.98432 188.000
46.00427 204.000
46.02421 206.000
46.04416 208.000
46.06411 191.000
46.08405 189.000
46.10400 179.000
46.12395 186.000
46.14389 197.000
46.16384 181.000
46.18379 198.000
46.20374 206.000
46.22368 202.000
46.24363 194.000
46.26358 216.000
46.28352 200.000
46.30347 266.000
46.32342 211.000
46.34336 177.000
46.36331 193.000
46.38326 254.000
46.40321 234.000
46.42315 189.000
46.44310 232.000
46.46305 213.000
46.48299 207.000
46.50294 186.000
46.52289 206.000
46.54283 188.000
46.56278 203.000
46.58273 202.000
46.60267 205.000
46.62262 214.000
46.64257 168.000
46.66252 240.000
46.68246 216.000
46.70241 213.000
46.72236 195.000
46.74230 199.000
46.76225 197.000
46.78220 192.000
46.80214 174.000
46.82209 208.000
46.84204 214.000
46.86199 200.000
46.88193 217.000
46.90188 174.000
46.92183 175.000
46.94177 192.000
46.96172 185.000
46.98167 172.000
47.00161 196.000
47.02156 190.000
47.04151 187.000
47.06146 195.000
47.08140 195.000
47.10135 219.000
47.12130 203.000
47.14124 201.000
47.16119 175.000
47.18114 191.000
47.20108 197.000
47.22103 193.000
47.24098 194.000
47.26092 182.000
47.28087 182.000
47.30082 171.000
47.32077 220.000
47.34071 181.000
47.36066 198.000
47.38061 200.000
47.40055 195.000
47.42050 182.000
47.44045 172.000
47.46039 216.000
47.48034 183.000
47.50029 179.000
47.52024 193.000
47.54018 167.000
47.56013 172.000
47.58008 213.000
47.60002 215.000
47.61997 183.000
47.63992 181.000
47.65986 186.000
47.67981 222.000
47.69976 189.000
47.71970 173.000
47.73965 177.000
47.75960 181.000
47.77955 194.000
47.79949 195.000
47.81944 181.000
47.83939 186.000
47.85933 171.000
47.87928 189.000
47.89923 181.000
47.91917 195.000
47.93912 182.000
47.95907 211.000
47.97902 191.000
47.99896 176.000
48.01891 183.000
48.03886 205.000
48.05880 192.000
48.07875 194.000
48.09870 213.000
48.11864 215.000
48.13859 223.000
48.15854 241.000
48.17848 224.000
48.19843 221.000
48.21838 221.000
48.23833 214.000
48.25827 215.000
48.27822 257.000
48.29817 210.000
48.31811 243.000
48.33806 213.000
48.35801 220.000
48.37795 233.000
48.39790 239.000
48.41785 205.000
48.43780 222.000
48.45774 263.000
48.47769 248.000
48.49764 262.000
48.51758 246.000
48.53753 271.000
48.55748 264.000
48.57742 303.000
48.59737 318.000
48.61732 357.000
48.63726 339.000
48.65721 350.000
48.67716 412.000
48.69711 461.000
48.71705 539.000
48.73700 637.000
48.75695 740.000
48.77689 862.000
48.79684 972.000
48.81679 993.000
48.83673 1047.000
48.85668 1063.000
48.87663 1135.000
48.89658 1070.000
48.91652 1065.000
48.93647 978.000
48.95642 952.000
48.97636 951.000
48.99631 818.000
49.01626 751.000
49.03620 705.000
49.05615 615.000
49.07610 478.000
49.09605 475.000
49.11599 443.000
49.13594 397.000
49.15589 352.000
49.17583 324.000
49.19578 305.000
49.21573 275.000
49.23567 272.000
49.25562 263.000
49.27557 231.000
49.29551 248.000
49.31546 219.000
49.33541 225.000
49.35536 235.000
49.37530 217.000
49.39525 214.000
49.41520 194.000
49.43514 223.000
49.45509 213.000
49.47504 233.000
49.49498 222.000
49.51493 226.000
49.53488 193.000
49.55483 225.000
49.57477 195.000
49.59472 200.000
49.61467 208.000
49.63461 201.000
49.65456 211.000
49.67451 185.000
49.69445 221.000
49.71440 190.000
49.73435 223.000
49.75429 198.000
49.77424 200.000
49.79419 201.000
49.81414 183.000
49.83408 199.000
49.85403 198.000
49.87398 207.000
49.89392 198.000
49.91387 205.000
49.93382 189.000
49.95376 188.000
49.97371 185.000
49.99366 207.000
50.01361 203.000
50.03355 187.000
50.05350 176.000
50.07345 184.000
50.09339 203.000
50.11334 203.000
50.13329 178.000
50.15323 199.000
50.17318 165.000
50.19313 199.000
50.21307 218.000
50.23302 182.000
50.25297 200.000
50.27292 199.000
50.29286 195.000
50.31281 183.000
50.33276 202.000
50.35270 220.000
50.37265 210.000
50.39260 214.000
50.41254 182.000
50.43249 191.000
50.45244 180.000
50.47239 217.000
50.49233 178.000
50.51228 170.000
50.53223 197.000
50.55217 206.000
50.57212 187.000
50.59207 190.000
50.61201 162.000
50.63196 185.000
50.65191 180.000
50.67186 188.000
50.69180 180.000
50.71175 177.000
50.73170 178.000
50.75164 195.000
50.77159 212.000
50.79154 205.000
50.81148 174.000
50.83143 192.000
50.85138 188.000
50.87132 192.000
50.89127 188.000
50.91122 196.000
50.93117 185.000
50.95111 178.000
50.97106 189.000
50.99101 181.000
51.01095 184.000
51.03090 182.000
51.05085 208.000
51.07079 186.000
51.09074 191.000
51.11069 196.000
51.13064 196.000
51.15058 194.000
51.17053 200.000
51.19048 174.000
51.21042 205.000
51.23037 199.000
51.25032 190.000
51.27026 215.000
51.29021 186.000
51.31016 177.000
51.33010 220.000
51.35005 191.000
51.37000 213.000
51.38995 211.000
51.40989 217.000
51.42984 200.000
51.44979 214.000
51.46973 218.000
51.48968 220.000
51.50963 208.000
51.52957 190.000
51.54952 194.000
51.56947 212.000
51.58942 185.000
51.60936 205.000
51.62931 203.000
51.64926 204.000
51.66920 172.000
51.68915 181.000
51.70910 207.000
51.72904 193.000
51.74899 188.000
51.76894 225.000
51.78888 170.000
51.80883 182.000
51.82878 204.000
51.84873 217.000
51.86867 209.000
51.88862 155.000
51.90857 180.000
51.92851 196.000
51.94846 175.000
51.96841 181.000
51.98835 190.000
52.00830 192.000
52.02825 201.000
52.04820 172.000
52.06814 208.000
52.08809 203.000
52.10804 216.000
52.12798 190.000
52.14793 204.000
52.16788 205.000
52.18782 204.000
52.20777 210.000
52.22772 210.000
52.24767 198.000
52.26761 190.000
52.28756 190.000
52.30751 205.000
52.32745 198.000
52.34740 203.000
52.36735 198.000
52.38729 208.000
52.40724 203.000
52.42719 217.000
52.44713 231.000
52.46708 224.000
52.48703 216.000
52.50698 208.000
52.52692 222.000
52.54687 212.000
52.56682 238.000
52.58676 248.000
52.60671 228.000
52.62666 209.000
52.64660 203.000
52.66655 207.000
52.68650 217.000
52.70645 202.000
52.72639 202.000
52.74634 213.000
52.76629 203.000
52.78623 196.000
52.80618 203.000
52.82613 213.000
52.84607 199.000
52.86602 197.000
52.88597 183.000
52.90591 204.000
52.92586 182.000
52.94581 214.000
52.96576 215.000
52.98570 208.000
53.00565 236.000
53.02560 206.000
53.04554 238.000
53.06549 238.000
53.08544 231.000
53.10538 238.000
53.12533 217.000
53.14528 236.000
53.16523 222.000
53.18517 243.000
53.20512 233.000
53.22507 215.000
53.24501 246.000
53.26496 255.000
53.28491 235.000
53.30485 245.000
53.32480 249.000
53.34475 244.000
53.36469 240.000
53.38464 258.000
53.40459 272.000
53.42454 259.000
53.44448 277.000
53.46443 255.000
53.48438 304.000
53.50432 294.000
53.52427 273.000
53.54422 257.000
53.56416 267.000
53.58411 262.000
53.60406 278.000
53.62401 265.000
53.64395 252.000
53.66390 267.000
53.68385 251.000
53.70379 252.000
53.72374 245.000
53.74369 214.000
53.76363 222.000
53.78358 235.000
53.80353 225.000
53.82348 224.000
53.84342 216.000
53.86337 210.000
53.88332 209.000
53.90326 216.000
53.92321 208.000
53.94316 208.000
53.96310 189.000
53.98305 214.000
54.00300 222.000
54.02294 181.000
54.04289 199.000
54.06284 202.000
54.08279 193.000
54.10273 194.000
54.12268 191.000
54.14263 201.000
54.16257 185.000
54.18252 194.000
54.20247 194.000
54.22241 186.000
54.24236 190.000
54.26231 197.000
54.28226 222.000
54.30220 162.000
54.32215 198.000
54.34210 172.000
54.36204 188.000
54.38199 183.000
54.40194 192.000
54.42188 202.000
54.44183 199.000
54.46178 177.000
54.48172 186.000
54.50167 187.000
54.52162 183.000
54.54157 185.000
54.56151 176.000
54.58146 188.000
54.60141 201.000
54.62135 209.000
54.64130 213.000
54.66125 195.000
54.68119 193.000
54.70114 205.000
54.72109 190.000
54.74104 188.000
54.76098 178.000
54.78093 199.000
54.80088 181.000
54.82082 180.000
54.84077 218.000
54.86072 200.000
54.88066 183.000
54.90061 203.000
54.92056 212.000
54.94050 181.000
54.96045 202.000
54.98040 222.000
55.00035 174.000
55.02029 193.000
55.04024 171.000
55.06019 185.000
55.08013 200.000
55.10008 213.000
55.12003 214.000
55.13997 213.000
55.15992 169.000
55.17987 194.000
55.19982 166.000
55.21976 206.000
55.23971 214.000
55.25966 193.000
55.27960 201.000
55.29955 192.000
55.31950 207.000
55.33944 211.000
55.35939 189.000
55.37934 179.000
55.39929 175.000
55.41923 201.000
55.43918 194.000
55.45913 177.000
55.47907 221.000
55.49902 210.000
55.51897 200.000
55.53891 198.000
55.55886 157.000
55.57881 198.000
55.59875 178.000
55.61870 199.000
55.63865 195.000
55.65860 183.000
55.67854 180.000
55.69849 196.000
55.71844 189.000
55.73838 187.000
55.75833 209.000
55.77828 184.000
55.79822 196.000
55.81817 204.000
55.83812 179.000
55.85807 169.000
55.87801 192.000
55.89796 169.000
55.91791 198.000
55.93785 206.000
55.95780 174.000
55.97775 215.000
55.99769 202.000
56.01764 184.000
56.03759 205.000
56.05753 190.000
56.07748 179.000
56.09743 209.000
56.11738 192.000
56.13732 193.000
56.15727 212.000
56.17722 202.000
56.19716 223.000
56.21711 190.000
56.23706 196.000
56.25700 188.000
56.27695 179.000
56.29690 218.000
56.31685 210.000
56.33679 211.000
56.35674 209.000
56.37669 194.000
56.39663 188.000
56.41658 199.000
56.43653 202.000
56.45647 197.000
56.47642 212.000
56.49637 217.000
56.51631 198.000
56.53626 180.000
56.55621 212.000
56.57616 184.000
56.59610 217.000
56.61605 205.000
56.63600 213.000
56.65594 221.000
56.67589 212.000
56.69584 221.000
56.71578 210.000
56.73573 193.000
56.75568 196.000
56.77563 208.000
56.79557 186.000
56.81552 213.000
56.83547 214.000
56.85541 218.000
56.87536 201.000
56.89531 225.000
56.91525 202.000
56.93520 216.000
56.95515 196.000
56.97510 224.000
56.99504 198.000
57.01499 199.000
57.03494 221.000
57.05488 220.000
57.07483 224.000
57.09478 176.000
57.11472 197.000
57.13467 205.000
57.15462 205.000
57.17456 210.000
57.19451 229.000
57.21446 215.000
57.23441 248.000
57.25435 204.000
57.27430 216.000
57.29425 197.000
57.31419 207.000
57.33414 198.000
57.35409 197.000
57.37403 223.000
57.39398 236.000
57.41393 220.000
57.43388 232.000
57.45382 198.000
57.47377 247.000
57.49372 209.000
57.51366 212.000
57.53361 210.000
57.55356 232.000
57.57350 218.000
57.59345 214.000
57.61340 252.000
57.63334 233.000
57.65329 217.000
57.67324 256.000
57.69319 233.000
57.71313 236.000
57.73308 264.000
57.75303 229.000
57.77297 232.000
57.79292 250.000
57.81287 229.000
57.83281 221.000
57.85276 244.000
57.87271 205.000
57.89266 241.000
57.91260 240.000
57.93255 215.000
57.95250 247.000
57.97244 203.000
57.99239 246.000
58.01234 208.000
58.03228 233.000
58.05223 208.000
58.07218 215.000
58.09212 242.000
58.11207 226.000
58.13202 217.000
58.15197 221.000
58.17191 214.000
58.19186 224.000
58.21181 240.000
58.23175 230.000
58.25170 244.000
58.27165 234.000
58.29159 293.000
58.31154 278.000
58.33149 322.000
58.35144 285.000
58.37138 313.000
58.39133 321.000
58.41128 321.000
58.43122 330.000
58.45117 283.000
58.47112 314.000
58.49106 302.000
58.51101 258.000
58.53096 279.000
58.55090 272.000
58.57085 267.000
58.59080 254.000
58.61075 256.000
58.63069 220.000
58.65064 235.000
58.67059 255.000
58.69053 185.000
58.71048 192.000
58.73043 196.000
58.75037 232.000
58.77032 215.000
58.79027 214.000
58.81022 232.000
58.83016 219.000
58.85011 194.000
58.87006 203.000
58.89000 184.000
58.90995 210.000
58.92990 212.000
58.94984 193.000
58.96979 203.000
58.98974 192.000
59.00969 182.000
59.02963 203.000
59.04958 183.000
59.06953 198.000
59.08947 201.000
59.10942 197.000
59.12937 187.000
59.14931 204.000
59.16926 214.000
59.18921 215.000
59.20915 173.000
59.22910 206.000
59.24905 190.000
59.26900 192.000
59.28894 194.000
59.30889 206.000
59.32884 207.000
59.34878 213.000
59.36873 206.000
59.38868 203.000
59.40862 178.000
59.42857 197.000
59.44852 198.000
59.46847 202.000
59.48841 202.000
59.50836 198.000
59.52831 207.000
59.54825 188.000
59.56820 194.000
59.58815 193.000
59.60809 218.000
59.62804 204.000
59.64799 217.000
59.66793 200.000
59.68788 194.000
59.70783 187.000
59.72778 164.000
59.74772 200.000
59.76767 211.000
59.78762 180.000
59.80756 203.000
59.82751 190.000
59.84746 200.000
59.86740 203.000
59.88735 185.000
59.90730 219.000
59.92725 213.000
59.94719 210.000
59.96714 183.000
59.98709 209.000
60.00703 191.000
60.02698 210.000
60.04693 211.000
60.06687 194.000
60.08682 196.000
60.10677 210.000
60.12671 185.000
60.14666 182.000
60.16661 209.000
60.18656 186.000
60.20650 200.000
60.22645 202.000
60.24640 174.000
60.26634 171.000
60.28629 185.000
60.30624 220.000
60.32618 190.000
60.34613 215.000
60.36608 176.000
60.38603 187.000
60.40597 209.000
60.42592 216.000
60.44587 191.000
60.46581 201.000
60.48576 190.000
60.50571 202.000
60.52565 198.000
60.54560 196.000
60.56555 216.000
60.58550 195.000
60.60544 231.000
60.62539 212.000
60.64534 187.000
60.66528 206.000
60.68523 219.000
60.70518 201.000
60.72512 179.000
60.74507 199.000
60.76502 209.000
60.78496 221.000
60.80491 194.000
60.82486 186.000
60.84481 202.000
60.86475 204.000
60.88470 197.000
60.90465 195.000
60.92459 242.000
60.94454 189.000
60.96449 199.000
60.98443 206.000
61.00438 239.000
61.02433 192.000
61.04428 215.000
61.06422 204.000
61.08417 189.000
61.10412 212.000
61.12406 227.000
61.14401 230.000
61.16396 194.000
61.18390 242.000
61.20385 221.000
61.22380 219.000
61.24374 218.000
61.26369 200.000
61.28364 207.000
61.30359 224.000
61.32353 213.000
61.34348 223.000
61.36343 208.000
61.38337 213.000
61.40332 203.000
61.42327 236.000
61.44321 233.000
61.46316 225.000
61.48311 274.000
61.50306 265.000
61.52300 281.000
61.54295 278.000
61.56290 333.000
61.58284 317.000
61.60279 356.000
61.62274 416.000
61.64268 404.000
61.66263 415.000
61.68258 415.000
61.70252 419.000
61.72247 372.000
61.74242 364.000
61.76237 341.000
61.78231 401.000
61.80226 362.000
61.82221 355.000
61.84215 383.000
61.86210 340.000
61.88205 360.000
61.90199 332.000
61.92194 341.000
61.94189 357.000
61.96184 400.000
61.98178 412.000
62.00173 404.000
62.02168 473.000
62.04162 469.000
62.06157 495.000
62.08152 496.000
62.10146 502.000
62.12141 536.000
62.14136 481.000
62.16131 507.000
62.18125 479.000
62.20120 463.000
62.22115 467.000
62.24109 434.000
62.26104 425.000
62.28099 416.000
62.30093 397.000
62.32088 360.000
62.34083 378.000
62.36077 330.000
62.38072 307.000
62.40067 301.000
62.42062 265.000
62.44056 268.000
62.46051 256.000
62.48046 268.000
62.50040 247.000
62.52035 236.000
62.54030 224.000
62.56024 246.000
62.58019 210.000
62.60014 253.000
62.62009 243.000
62.64003 238.000
62.65998 215.000
62.67993 235.000
62.69987 207.000
62.71982 229.000
62.73977 223.000
62.75971 233.000
62.77966 204.000
62.79961 235.000
62.81955 223.000
62.83950 216.000
62.85945 227.000
62.87940 202.000
62.89934 191.000
62.91929 224.000
62.93924 233.000
62.95918 238.000
62.97913 223.000
62.99908 209.000
63.01902 221.000
63.03897 223.000
63.05892 202.000
63.07887 198.000
63.09881 221.000
63.11876 216.000
63.13871 215.000
63.15865 225.000
63.17860 183.000
63.19855 209.000
63.21849 233.000
63.23844 235.000
63.25839 234.000
63.27833 234.000
63.29828 220.000
63.31823 233.000
63.33818 238.000
63.35812 233.000
63.37807 211.000
63.39802 217.000
63.41796 249.000
63.43791 207.000
63.45786 252.000
63.47780 239.000
63.49775 244.000
63.51770 265.000
63.53765 271.000
63.55759 211.000
63.57754 275.000
63.59749 240.000
63.61743 247.000
63.63738 241.000
63.65733 270.000
63.67727 267.000
63.69722 226.000
63.71717 251.000
63.73712 226.000
63.75706 232.000
63.77701 216.000
63.79696 243.000
63.81690 255.000
63.83685 255.000
63.85680 239.000
63.87674 228.000
63.89669 253.000
63.91664 270.000
63.93658 267.000
63.95653 263.000
63.97648 316.000
63.99643 278.000
64.01637 287.000
64.03632 298.000
64.05627 306.000
64.07621 342.000
64.09616 339.000
64.11611 389.000
64.13605 376.000
64.15600 404.000
64.17595 420.000
64.19590 451.000
64.21584 401.000
64.23579 457.000
64.25574 449.000
64.27568 434.000
64.29563 479.000
64.31558 462.000
64.33552 389.000
64.35547 427.000
64.37542 391.000
64.39536 357.000
64.41531 348.000
64.43526 356.000
64.45521 297.000
64.47515 355.000
64.49510 306.000
64.51505 288.000
64.53499 281.000
64.55494 273.000
64.57489 271.000
64.59483 284.000
64.61478 243.000
64.63473 270.000
64.65468 248.000
64.67462 236.000
64.69457 234.000
64.71452 208.000
64.73446 210.000
64.75441 216.000
64.77436 243.000
64.79430 241.000
64.81425 233.000
64.83420 211.000
64.85414 219.000
64.87409 229.000
64.89404 234.000
64.91399 213.000
64.93393 209.000
64.95388 222.000
64.97383 218.000
64.99377 204.000
65.01372 235.000
65.03367 225.000
65.05361 234.000
65.07356 195.000
65.09351 198.000
65.11346 204.000
65.13340 212.000
65.15335 205.000
65.17330 219.000
65.19324 201.000
65.21319 211.000
65.23314 188.000
65.25308 195.000
65.27303 196.000
65.29298 199.000
65.31293 233.000
65.33287 204.000
65.35282 224.000
65.37277 237.000
65.39271 228.000
65.41266 219.000
65.43261 206.000
65.45255 213.000
65.47250 245.000
65.49245 216.000
65.51239 256.000
65.53234 233.000
65.55229 229.000
65.57224 233.000
65.59218 239.000
65.61213 253.000
65.63208 248.000
65.65202 253.000
65.67197 273.000
65.69192 264.000
65.71186 286.000
65.73181 251.000
65.75176 294.000
65.77171 302.000
65.79165 322.000
65.81160 331.000
65.83155 320.000
65.85149 321.000
65.87144 309.000
65.89139 345.000
65.91133 359.000
65.93128 325.000
65.95123 299.000
65.97117 332.000
65.99112 335.000
66.01107 314.000
66.03102 330.000
66.05096 372.000
66.07091 297.000
66.09086 280.000
66.11080 304.000
66.13075 301.000
66.15070 282.000
66.17064 291.000
66.19059 298.000
66.21054 300.000
66.23049 298.000
66.25043 309.000
66.27038 314.000
66.29033 317.000
66.31027 313.000
66.33022 355.000
66.35017 383.000
66.37011 425.000
66.39006 400.000
66.41001 415.000
66.42995 392.000
66.44990 412.000
66.46985 398.000
66.48980 419.000
66.50974 417.000
66.52969 403.000
66.54964 372.000
66.56958 416.000
66.58953 416.000
66.60948 438.000
66.62942 446.000
66.64937 423.000
66.66932 412.000
66.68927 379.000
66.70921 423.000
66.72916 386.000
66.74911 386.000
66.76905 407.000
66.78900 380.000
66.80895 333.000
66.82889 340.000
66.84884 360.000
66.86879 331.000
66.88874 302.000
66.90868 326.000
66.92863 337.000
66.94858 302.000
66.96852 285.000
66.98847 289.000
67.00842 299.000
67.02836 323.000
67.04831 311.000
67.06826 281.000
67.08820 309.000
67.10815 289.000
67.12810 278.000
67.14805 262.000
67.16799 273.000
67.18794 236.000
67.20789 263.000
67.22783 239.000
67.24778 239.000
67.26773 260.000
67.28767 241.000
67.30762 243.000
67.32757 256.000
67.34752 241.000
67.36746 254.000
67.38741 242.000
67.40736 259.000
67.42730 244.000
67.44725 210.000
67.46720 243.000
67.48714 237.000
67.50709 226.000
67.52704 214.000
67.54698 221.000
67.56693 229.000
67.58688 218.000
67.60683 221.000
67.62677 227.000
67.64672 217.000
67.66667 210.000
67.68661 252.000
67.70656 238.000
67.72651 241.000
67.74645 222.000
67.76640 227.000
67.78635 244.000
67.80630 276.000
67.82624 279.000
67.84619 286.000
67.86614 287.000
67.88608 282.000
67.90603 294.000
67.92598 248.000
67.94592 296.000
67.96587 328.000
67.98582 307.000
68.00576 333.000
68.02571 334.000
68.04566 329.000
68.06561 330.000
68.08555 350.000
68.10550 363.000
68.12545 339.000
68.14539 380.000
68.16534 379.000
68.18529 338.000
68.20523 332.000
68.22518 337.000
68.24513 342.000
68.26508 349.000
68.28502 312.000
68.30497 333.000
68.32492 306.000
68.34486 303.000
68.36481 302.000
68.38476 294.000
68.40470 299.000
68.42465 260.000
68.44460 252.000
68.46455 248.000
68.48449 229.000
68.50444 255.000
68.52439 269.000
68.54433 238.000
68.56428 219.000
68.58423 232.000
68.60417 214.000
68.62412 215.000
68.64407 223.000
68.66401 211.000
68.68396 185.000
68.70391 198.000
68.72386 220.000
68.74380 218.000
68.76375 194.000
68.78370 216.000
68.80364 200.000
68.82359 229.000
68.84354 216.000
68.86348 200.000
68.88343 222.000
68.90338 233.000
68.92333 227.000
68.94327 210.000
68.96322 231.000
68.98317 176.000
69.00311 212.000
69.02306 212.000
69.04301 230.000
69.06295 198.000
69.08290 219.000
69.10285 232.000
69.12279 205.000
69.14274 208.000
69.16269 198.000
69.18264 200.000
69.20258 205.000
69.22253 193.000
69.24248 206.000
69.26242 201.000
69.28237 217.000
69.30232 198.000
69.32226 176.000
69.34221 210.000
69.36216 229.000
69.38211 212.000
69.40205 180.000
69.42200 215.000
69.44195 186.000
69.46189 206.000
69.48184 204.000
69.50179 193.000
69.52173 191.000
69.54168 186.000
69.56163 185.000
69.58157 203.000
69.60152 220.000
69.62147 214.000
69.64142 208.000
69.66136 209.000
69.68131 220.000
69.70126 207.000
69.72120 223.000
69.74115 224.000
69.76110 190.000
69.78104 198.000
69.80099 201.000
69.82094 174.000
69.84089 222.000
69.86083 202.000
69.88078 230.000
69.90073 226.000
69.92067 194.000
69.94062 243.000
69.96057 192.000
69.98051 207.000
70.00046 195.000
70.02041 192.000
70.04035 186.000
70.06030 212.000
70.08025 210.000
70.10020 213.000
70.12014 207.000
70.14009 233.000
70.16004 215.000
70.17998 207.000
70.19993 229.000
70.21988 231.000
70.23982 212.000
70.25977 180.000
70.27972 195.000
70.29967 191.000
70.31961 229.000
70.33956 197.000
70.35951 195.000
70.37945 201.000
70.39940 193.000
70.41935 189.000
70.43929 195.000
70.45924 197.000
70.47919 201.000
70.49914 196.000
70.51908 151.000
70.53903 194.000
70.55898 191.000
70.57892 195.000
70.59887 204.000
70.61882 194.000
70.63876 226.000
70.65871 204.000
70.67866 195.000
70.69860 184.000
70.71855 200.000
70.73850 200.000
70.75845 195.000
70.77839 200.000
70.79834 190.000
70.81829 195.000
70.83823 208.000
70.85818 195.000
70.87813 192.000
70.89807 200.000
70.91802 222.000
70.93797 182.000
70.95792 215.000
70.97786 190.000
70.99781 193.000
71.01776 214.000
71.03770 201.000
71.05765 187.000
71.07760 181.000
71.09754 230.000
71.11749 189.000
71.13744 207.000
71.15738 203.000
71.17733 216.000
71.19728 205.000
71.21723 198.000
71.23717 210.000
71.25712 190.000
71.27707 206.000
71.29701 179.000
71.31696 236.000
71.33691 195.000
71.35685 220.000
71.37680 210.000
71.39675 189.000
71.41670 194.000
71.43664 194.000
71.45659 225.000
71.47654 211.000
71.49648 186.000
71.51643 226.000
71.53638 187.000
71.55632 201.000
71.57627 223.000
71.59622 182.000
71.61616 224.000
71.63611 214.000
71.65606 202.000
71.67601 214.000
71.69595 209.000
71.71590 195.000
71.73585 223.000
71.75579 181.000
71.77574 216.000
71.79569 194.000
71.81563 213.000
71.83558 184.000
71.85553 217.000
71.87548 181.000
71.89542 221.000
71.91537 199.000
71.93532 213.000
71.95526 216.000
71.97521 208.000
71.99516 180.000
72.01510 182.000
72.03505 188.000
72.05500 198.000
72.07495 205.000
72.09489 229.000
72.11484 213.000
72.13479 225.000
72.15473 211.000
72.17468 199.000
72.19463 216.000
72.21457 211.000
72.23452 209.000
72.25447 181.000
72.27441 235.000
72.29436 190.000
72.31431 202.000
72.33426 219.000
72.35420 227.000
72.37415 263.000
72.39410 234.000
72.41404 242.000
72.43399 264.000
72.45394 294.000
72.47388 283.000
72.49383 270.000
72.51378 289.000
72.53373 283.000
72.55367 271.000
72.57362 262.000
72.59357 250.000
72.61351 228.000
72.63346 243.000
72.65341 237.000
72.67335 267.000
72.69330 252.000
72.71325 227.000
72.73319 253.000
72.75314 244.000
72.77309 208.000
72.79304 238.000
72.81298 225.000
72.83293 242.000
72.85288 218.000
72.87282 221.000
72.89277 224.000
72.91272 213.000
72.93266 223.000
72.95261 228.000
72.97256 220.000
72.99251 278.000
73.01245 238.000
73.03240 219.000
73.05235 217.000
73.07229 212.000
73.09224 237.000
73.11219 231.000
73.13213 212.000
73.15208 198.000
73.17203 238.000
73.19197 231.000
73.21192 239.000
73.23187 222.000
73.25182 247.000
73.27176 224.000
73.29171 237.000
73.31166 233.000
73.33160 242.000
73.35155 244.000
73.37150 260.000
73.39144 224.000
73.41139 269.000
73.43134 260.000
73.45129 263.000
73.47123 248.000
73.49118 279.000
73.51113 291.000
73.53107 275.000
73.55102 272.000
73.57097 244.000
73.59091 283.000
73.61086 296.000
73.63081 276.000
73.65076 274.000
73.67070 246.000
73.69065 269.000
73.71060 282.000
73.73054 268.000
73.75049 252.000
73.77044 251.000
73.79038 247.000
73.81033 228.000
73.83028 252.000
73.85022 233.000
73.87017 255.000
73.89012 229.000
73.91007 267.000
73.93001 253.000
73.94996 239.000
73.96991 215.000
73.98985 223.000
74.00980 235.000
74.02975 235.000
74.04969 255.000
74.06964 204.000
74.08959 172.000
74.10954 215.000
74.12948 208.000
74.14943 209.000
74.16938 217.000
74.18932 214.000
74.20927 227.000
74.22922 216.000
74.24916 227.000
74.26911 222.000
74.28906 206.000
74.30900 204.000
74.32895 207.000
74.34890 189.000
74.36885 196.000
74.38879 213.000
74.40874 204.000
74.42869 195.000
74.44863 213.000
74.46858 206.000
74.48853 206.000
74.50847 207.000
74.52842 205.000
74.54837 213.000
74.56832 195.000
74.58826 205.000
74.60821 225.000
74.62816 223.000
74.64810 197.000
74.66805 187.000
74.68800 201.000
74.70794 205.000
74.72789 196.000
74.74784 219.000
74.76778 224.000
74.78773 240.000
74.80768 244.000
74.82763 225.000
74.84757 235.000
74.86752 237.000
74.88747 239.000
74.90741 220.000
74.92736 218.000
74.94731 233.000
74.96725 235.000
74.98720 236.000
75.00715 254.000
75.02710 263.000
75.04704 280.000
75.06699 274.000
75.08694 280.000
75.10688 283.000
75.12683 267.000
75.14678 274.000
75.16672 280.000
75.18667 269.000
75.20662 289.000
75.22657 240.000
75.24651 286.000
75.26646 270.000
75.28641 271.000
75.30635 294.000
75.32630 297.000
75.34625 275.000
75.36619 310.000
75.38614 281.000
75.40609 275.000
75.42603 272.000
75.44598 266.000
75.46593 245.000
75.48588 271.000
75.50582 256.000
75.52577 279.000
75.54572 238.000
75.56566 241.000
75.58561 255.000
75.60556 255.000
75.62550 232.000
75.64545 272.000
75.66540 270.000
75.68535 239.000
75.70529 247.000
75.72524 259.000
75.74519 252.000
75.76513 228.000
75.78508 233.000
75.80503 222.000
75.82497 241.000
75.84492 225.000
75.86487 232.000
75.88481 214.000
75.90476 218.000
75.92471 230.000
75.94466 215.000
75.96460 224.000
75.98455 230.000
76.00450 244.000
76.02444 233.000
76.04439 246.000
76.06434 222.000
76.08428 251.000
76.10423 226.000
76.12418 201.000
76.14413 235.000
76.16407 219.000
76.18402 209.000
76.20397 227.000
76.22391 168.000
76.24386 238.000
76.26381 214.000
76.28375 247.000
76.30370 221.000
76.32365 202.000
76.34359 201.000
76.36354 206.000
76.38349 214.000
76.40344 200.000
76.42338 205.000
76.44333 192.000
76.46328 214.000
76.48322 230.000
76.50317 209.000
76.52312 249.000
76.54306 214.000
76.56301 216.000
76.58296 203.000
76.60291 208.000
76.62285 217.000
76.64280 224.000
76.66275 234.000
76.68269 228.000
76.70264 211.000
76.72259 231.000
76.74253 217.000
76.76248 224.000
76.78243 213.000
76.80238 192.000
76.82232 166.000
76.84227 189.000
76.86222 197.000
76.88216 177.000
76.90211 229.000
76.92206 210.000
76.94200 213.000
76.96195 192.000
76.98190 197.000
77.00184 224.000
77.02179 214.000
77.04174 184.000
77.06169 228.000
77.08163 203.000
77.10158 202.000
77.12153 208.000
77.14147 204.000
77.16142 197.000
77.18137 212.000
77.20131 229.000
77.22126 217.000
77.24121 201.000
77.26116 215.000
77.28110 208.000
77.30105 207.000
77.32100 198.000
77.34094 213.000
77.36089 218.000
77.38084 206.000
77.40078 201.000
77.42073 212.000
77.44068 200.000
77.46062 195.000
77.48057 190.000
77.50052 209.000
77.52047 209.000
77.54041 189.000
77.56036 191.000
77.58031 171.000
77.60025 242.000
77.62020 206.000
77.64015 223.000
77.66009 211.000
77.68004 247.000
77.69999 203.000
77.71994 228.000
77.73988 231.000
77.75983 238.000
77.77978 248.000
77.79972 237.000
77.81967 265.000
77.83962 241.000
77.85956 231.000
77.87951 253.000
77.89946 251.000
77.91940 242.000
77.93935 289.000
77.95930 248.000
77.97925 272.000
77.99919 241.000
78.01914 265.000
78.03909 274.000
78.05903 264.000
78.07898 277.000
78.09893 280.000
78.11887 254.000
78.13882 311.000
78.15877 292.000
78.17872 290.000
78.19866 265.000
78.21861 269.000
78.23856 289.000
78.25850 292.000
78.27845 245.000
78.29840 290.000
78.31834 294.000
78.33829 302.000
78.35824 336.000
78.37819 248.000
78.39813 318.000
78.41808 253.000
78.43803 265.000
78.45797 265.000
78.47792 244.000
78.49787 277.000
78.51781 241.000
78.53776 258.000
78.55771 240.000
78.57765 261.000
78.59760 239.000
78.61755 245.000
78.63750 223.000
78.65744 219.000
78.67739 246.000
78.69734 225.000
78.71728 230.000
78.73723 213.000
78.75718 220.000
78.77712 228.000
78.79707 222.000
78.81702 226.000
78.83697 225.000
78.85691 228.000
78.87686 233.000
78.89681 229.000
78.91675 235.000
78.93670 256.000
78.95665 235.000
78.97659 203.000
78.99654 180.000
79.01649 199.000
79.03643 250.000
79.05638 221.000
79.07633 219.000
79.09628 219.000
79.11622 202.000
79.13617 208.000
79.15612 229.000
79.17606 232.000
79.19601 205.000
79.21596 197.000
79.23590 214.000
79.25585 219.000
79.27580 226.000
79.29575 200.000
79.31569 242.000
79.33564 193.000
79.35559 195.000
79.37553 192.000
79.39548 206.000
79.41543 205.000
79.43537 193.000
79.45532 183.000
79.47527 222.000
79.49521 206.000
79.51516 209.000
79.53511 225.000
79.55506 203.000
79.57500 207.000
79.59495 187.000
79.61490 212.000
79.63484 206.000
79.65479 186.000
79.67474 186.000
79.69468 224.000
79.71463 212.000
79.73458 214.000
79.75453 218.000
79.77447 193.000
79.79442 231.000
79.81437 195.000
79.83431 194.000
79.85426 231.000
79.87421 218.000
79.89415 215.000
79.91410 205.000
79.93405 216.000
79.95399 214.000
79.97394 232.000
79.99389 196.000
80.01384 211.000
80.03378 219.000
80.05373 208.000
80.07368 206.000
80.09362 214.000
80.11357 216.000
80.13352 239.000
80.15346 175.000
80.17341 211.000
80.19336 227.000
80.21331 200.000
80.23325 222.000
80.25320 229.000
80.27315 222.000
80.29309 234.000
80.31304 226.000
80.33299 241.000
80.35293 243.000
80.37288 236.000
80.39283 199.000
80.41278 237.000
80.43272 225.000
80.45267 207.000
80.47262 259.000
80.49256 206.000
80.51251 210.000
80.53246 213.000
80.55240 205.000
80.57235 229.000
80.59230 233.000
80.61224 221.000
80.63219 188.000
80.65214 224.000
80.67209 224.000
80.69203 222.000
80.71198 230.000
80.73193 201.000
80.75187 231.000
80.77182 217.000
80.79177 221.000
80.81171 197.000
80.83166 216.000
80.85161 235.000
80.87156 234.000
80.89150 212.000
80.91145 188.000
80.93140 183.000
80.95134 223.000
80.97129 230.000
80.99124 193.000
81.01118 232.000
81.03113 224.000
81.05108 234.000
81.07102 211.000
81.09097 214.000
81.11092 228.000
81.13087 206.000
81.15081 226.000
81.17076 224.000
81.19071 196.000
81.21065 224.000
81.23060 218.000
81.25055 214.000
81.27049 205.000
81.29044 190.000
81.31039 235.000
81.33034 222.000
81.35028 225.000
81.37023 196.000
81.39018 222.000
81.41012 193.000
81.43007 225.000
81.45002 234.000
81.46996 249.000
81.48991 188.000
81.50986 199.000
81.52980 219.000
81.54975 237.000
81.56970 196.000
81.58965 210.000
81.60959 208.000
81.62954 223.000
81.64949 203.000
81.66943 210.000
81.68938 217.000
81.70933 210.000
81.72927 187.000
81.74922 218.000
81.76917 179.000
81.78912 230.000
81.80906 197.000
81.82901 217.000
81.84896 181.000
81.86890 206.000
81.88885 194.000
81.90880 188.000
81.92874 233.000
81.94869 232.000
81.96864 219.000
81.98859 244.000
82.00853 199.000
82.02848 200.000
82.04843 198.000
82.06837 222.000
82.08832 184.000
82.10827 205.000
82.12821 195.000
82.14816 216.000
82.16811 240.000
82.18805 214.000
82.20800 239.000
82.22795 210.000
82.24790 194.000
82.26784 230.000
82.28779 211.000
82.30774 208.000
82.32768 242.000
82.34763 198.000
82.36758 224.000
82.38752 216.000
82.40747 207.000
82.42742 230.000
82.44737 258.000
82.46731 229.000
82.48726 228.000
82.50721 215.000
82.52715 266.000
82.54710 257.000
82.56705 232.000
82.58699 235.000
82.60694 226.000
82.62689 219.000
82.64683 249.000
82.66678 228.000
82.68673 237.000
82.70668 242.000
82.72662 220.000
82.74657 216.000
82.76652 241.000
82.78646 251.000
82.80641 200.000
82.82636 226.000
82.84630 223.000
82.86625 237.000
82.88620 237.000
82.90615 223.000
82.92609 226.000
82.94604 210.000
82.96599 257.000
82.98593 224.000
83.00588 225.000
83.02583 240.000
83.04577 254.000
83.06572 235.000
83.08567 234.000
83.10561 220.000
83.12556 229.000
83.14551 230.000
83.16546 223.000
83.18540 209.000
83.20535 240.000
83.22530 225.000
83.24524 212.000
83.26519 235.000
83.28514 234.000
83.30508 228.000
83.32503 243.000
83.34498 237.000
83.36493 247.000
83.38487 226.000
83.40482 218.000
83.42477 218.000
83.44471 209.000
83.46466 240.000
83.48461 211.000
83.50455 216.000
83.52450 237.000
83.54445 241.000
83.56440 240.000
83.58434 237.000
83.60429 238.000
83.62424 237.000
83.64418 236.000
83.66413 253.000
83.68408 231.000
83.70402 237.000
83.72397 215.000
83.74392 219.000
83.76386 262.000
83.78381 239.000
83.80376 229.000
83.82371 206.000
83.84365 246.000
83.86360 202.000
83.88355 205.000
83.90349 229.000
83.92344 219.000
83.94339 244.000
83.96333 233.000
83.98328 226.000
84.00323 235.000
84.02318 260.000
84.04312 222.000
84.06307 233.000
84.08302 191.000
84.10296 265.000
84.12291 234.000
84.14286 209.000
84.16280 238.000
84.18275 242.000
84.20270 217.000
84.22264 255.000
84.24259 250.000
84.26254 209.000
84.28249 224.000
84.30243 210.000
84.32238 240.000
84.34233 253.000
84.36227 247.000
84.38222 223.000
84.40217 228.000
84.42211 227.000
84.44206 237.000
84.46201 268.000
84.48196 238.000
84.50190 262.000
84.52185 282.000
84.54180 264.000
84.56174 237.000
84.58169 277.000
84.60164 277.000
84.62158 282.000
84.64153 296.000
84.66148 282.000
84.68142 267.000
84.70137 262.000
84.72132 286.000
84.74127 253.000
84.76121 269.000
84.78116 258.000
84.80111 270.000
84.82105 229.000
84.84100 253.000
84.86095 245.000
84.88089 216.000
84.90084 242.000
84.92079 274.000
84.94074 241.000
84.96068 280.000
84.98063 204.000
85.00058 262.000
85.02052 258.000
85.04047 229.000
85.06042 214.000
85.08036 219.000
85.10031 223.000
85.12026 212.000
85.14021 215.000
85.16015 215.000
85.18010 196.000
85.20005 221.000
85.21999 219.000
85.23994 239.000
85.25989 216.000
85.27983 228.000
85.29978 219.000
85.31973 219.000
85.33967 239.000
85.35962 229.000
85.37957 224.000
85.39952 188.000
85.41946 207.000
85.43941 223.000
85.45936 213.000
85.47930 236.000
85.49925 187.000
85.51920 217.000
85.53914 208.000
85.55909 216.000
85.57904 193.000
85.59899 222.000
85.61893 228.000
85.63888 200.000
85.65883 208.000
85.67877 235.000
85.69872 225.000
85.71867 219.000
85.73861 219.000
85.75856 225.000
85.77851 201.000
85.79845 210.000
85.81840 207.000
85.83835 197.000
85.85830 204.000
85.87824 228.000
85.89819 230.000
85.91814 192.000
85.93808 208.000
85.95803 207.000
85.97798 199.000
85.99792 207.000
86.01787 220.000
86.03782 200.000
86.05777 227.000
86.07771 229.000
86.09766 212.000
86.11761 212.000
86.13755 201.000
86.15750 185.000
86.17745 200.000
86.19739 174.000
86.21734 202.000
86.23729 200.000
86.25723 211.000
86.27718 196.000
86.29713 188.000
86.31708 209.000
86.33702 207.000
86.35697 191.000
86.37692 213.000
86.39686 195.000
86.41681 199.000
86.43676 223.000
86.45670 217.000
86.47665 230.000
86.49660 220.000
86.51655 210.000
86.53649 208.000
86.55644 188.000
86.57639 210.000
86.59633 218.000
86.61628 198.000
86.63623 210.000
86.65617 195.000
86.67612 199.000
86.69607 221.000
86.71602 236.000
86.73596 229.000
86.75591 245.000
86.77586 224.000
86.79580 234.000
86.81575 205.000
86.83570 205.000
86.85564 228.000
86.87559 234.000
86.89554 225.000
86.91548 237.000
86.93543 204.000
86.95538 214.000
86.97533 227.000
86.99527 222.000
87.01522 237.000
87.03517 232.000
87.05511 231.000
87.07506 226.000
87.09501 216.000
87.11495 234.000
87.13490 236.000
87.15485 234.000
87.17480 238.000
87.19474 223.000
87.21469 226.000
87.23464 235.000
87.25458 197.000
87.27453 219.000
87.29448 266.000
87.31442 221.000
87.33437 229.000
87.35432 240.000
87.37426 221.000
87.39421 247.000
87.41416 220.000
87.43411 223.000
87.45405 235.000
87.47400 241.000
87.49395 228.000
87.51389 207.000
87.53384 248.000
87.55379 229.000
87.57373 208.000
87.59368 221.000
87.61363 243.000
87.63358 224.000
87.65352 232.000
87.67347 217.000
87.69342 238.000
87.71336 234.000
87.73331 198.000
87.75326 185.000
87.77320 205.000
87.79315 236.000
87.81310 241.000
87.83304 207.000
87.85299 207.000
87.87294 213.000
87.89289 232.000
87.91283 195.000
87.93278 208.000
87.95273 200.000
87.97267 197.000
87.99262 251.000
88.01257 200.000
88.03251 209.000
88.05246 237.000
88.07241 240.000
88.09236 214.000
88.11230 208.000
88.13225 226.000
88.15220 212.000
88.17214 210.000
88.19209 215.000
88.21204 238.000
88.23198 213.000
88.25193 219.000
88.27188 206.000
88.29183 226.000
88.31177 230.000
88.33172 192.000
88.35167 251.000
88.37161 240.000
88.39156 219.000
88.41151 256.000
88.43145 254.000
88.45140 211.000
88.47135 212.000
88.49129 199.000
88.51124 220.000
88.53119 215.000
88.55114 226.000
88.57108 176.000
88.59103 197.000
88.61098 227.000
88.63092 207.000
88.65087 203.000
88.67082 212.000
88.69076 209.000
88.71071 209.000
88.73066 215.000
88.75061 238.000
88.77055 197.000
88.79050 203.000
88.81045 204.000
88.83039 196.000
88.85034 209.000
88.87029 192.000
88.89023 224.000
88.91018 206.000
88.93013 199.000
88.95007 189.000
88.97002 229.000
88.98997 240.000
89.00992 220.000
89.02986 207.000
89.04981 190.000
89.06976 205.000
89.08970 204.000
89.10965 216.000
89.12960 207.000
89.14954 201.000
89.16949 208.000
89.18944 243.000
89.20939 229.000
89.22933 219.000
89.24928 204.000
89.26923 218.000
89.28917 209.000
89.30912 204.000
89.32907 219.000
89.34901 205.000
89.36896 209.000
89.38891 221.000
89.40885 221.000
89.42880 193.000
89.44875 221.000
89.46870 220.000
89.48864 270.000
89.50859 212.000
89.52854 202.000
89.54848 227.000
89.56843 239.000
89.58838 219.000
89.60832 208.000
89.62827 208.000
89.64822 251.000
89.66817 224.000
89.68811 207.000
89.70806 212.000
89.72801 234.000
89.74795 227.000
89.76790 222.000
89.78785 234.000
89.80779 237.000
89.82774 243.000
89.84769 244.000
89.86764 210.000
89.88758 219.000
89.90753 238.000
89.92748 232.000
89.94742 263.000
89.96737 230.000
89.98732 251.000
90.00726 234.000
