10.00000 221.000
10.01995 210.000
10.03989 208.000
10.05984 225.000
10.07979 243.000
10.09973 199.000
10.11968 210.000
10.13963 217.000
10.15958 240.000
10.17952 239.000
10.19947 205.000
10.21942 208.000
10.23936 217.000
10.25931 238.000
10.27926 180.000
10.29920 203.000
10.31915 200.000
10.33910 214.000
10.35905 205.000
10.37899 216.000
10.39894 220.000
10.41889 232.000
10.43883 233.000
10.45878 203.000
10.47873 244.000
10.49867 205.000
10.51862 224.000
10.53857 218.000
10.55851 212.000
10.57846 228.000
10.59841 224.000
10.61836 231.000
10.63830 215.000
10.65825 205.000
10.67820 225.000
10.69814 226.000
10.71809 230.000
10.73804 228.000
10.75798 224.000
10.77793 226.000
10.79788 216.000
10.81783 225.000
10.83777 190.000
10.85772 236.000
10.87767 212.000
10.89761 220.000
10.91756 213.000
10.93751 215.000
10.95745 215.000
10.97740 194.000
10.99735 239.000
11.01730 199.000
11.03724 208.000
11.05719 220.000
11.07714 214.000
11.09708 205.000
11.11703 240.000
11.13698 199.000
11.15692 201.000
11.17687 168.000
11.19682 202.000
11.21676 213.000
11.23671 199.000
11.25666 188.000
11.27661 226.000
11.29655 217.000
11.31650 214.000
11.33645 196.000
11.35639 229.000
11.37634 231.000
11.39629 203.000
11.41623 203.000
11.43618 203.000
11.45613 208.000
11.47608 229.000
11.49602 205.000
11.51597 220.000
11.53592 213.000
11.55586 193.000
11.57581 248.000
11.59576 206.000
11.61570 226.000
11.63565 222.000
11.65560 226.000
11.67554 214.000
11.69549 210.000
11.71544 221.000
11.73539 247.000
11.75533 248.000
11.77528 224.000
11.79523 207.000
11.81517 231.000
11.83512 230.000
11.85507 227.000
11.87501 218.000
11.89496 221.000
11.91491 194.000
11.93486 249.000
11.95480 198.000
11.97475 203.000
11.99470 212.000
12.01464 229.000
12.03459 184.000
12.05454 202.000
12.07448 226.000
12.09443 188.000
12.11438 186.000
12.13432 219.000
12.15427 208.000
12.17422 203.000
12.19417 224.000
12.21411 240.000
12.23406 211.000
12.25401 242.000
12.27395 233.000
12.29390 201.000
12.31385 215.000
12.33379 211.000
12.35374 232.000
12.37369 236.000
12.39364 207.000
12.41358 204.000
12.43353 234.000
12.45348 206.000
12.47342 217.000
12.49337 200.000
12.51332 205.000
12.53326 209.000
12.55321 248.000
12.57316 236.000
12.59311 231.000
12.61305 191.000
12.63300 213.000
12.65295 212.000
12.67289 223.000
12.69284 208.000
12.71279 223.000
12.73273 202.000
12.75268 229.000
12.77263 200.000
12.79257 241.000
12.81252 192.000
12.83247 232.000
12.85242 237.000
12.87236 219.000
12.89231 205.000
12.91226 226.000
12.93220 229.000
12.95215 227.000
12.97210 265.000
12.99204 226.000
13.01199 193.000
13.03194 230.000
13.05189 237.000
13.07183 210.000
13.09178 219.000
13.11173 204.000
13.13167 225.000
13.15162 204.000
13.17157 216.000
13.19151 235.000
13.21146 219.000
13.23141 191.000
13.25135 205.000
13.27130 199.000
13.29125 197.000
13.31120 232.000
13.33114 230.000
13.35109 214.000
13.37104 218.000
13.39098 218.000
13.41093 224.000
13.43088 214.000
13.45082 207.000
13.47077 202.000
13.49072 225.000
13.51067 226.000
13.53061 216.000
13.55056 214.000
13.57051 253.000
13.59045 210.000
13.61040 229.000
13.63035 201.000
13.65029 197.000
13.67024 204.000
13.69019 221.000
13.71013 227.000
13.73008 209.000
13.75003 225.000
13.76998 237.000
13.78992 260.000
13.80987 219.000
13.82982 204.000
13.84976 193.000
13.86971 221.000
13.88966 193.000
13.90960 214.000
13.92955 198.000
13.94950 209.000
13.96945 230.000
13.98939 231.000
14.00934 207.000
14.02929 194.000
14.04923 218.000
14.06918 241.000
14.08913 229.000
14.10907 214.000
14.12902 245.000
14.14897 201.000
14.16892 226.000
14.18886 228.000
14.20881 226.000
14.22876 198.000
14.24870 225.000
14.26865 218.000
14.28860 232.000
14.30854 247.000
14.32849 212.000
14.34844 205.000
14.36838 221.000
14.38833 257.000
14.40828 225.000
14.42823 201.000
14.44817 242.000
14.46812 214.000
14.48807 210.000
14.50801 211.000
14.52796 226.000
14.54791 221.000
14.56785 216.000
14.58780 231.000
14.60775 224.000
14.62770 190.000
14.64764 229.000
14.66759 233.000
14.68754 221.000
14.70748 207.000
14.72743 209.000
14.74738 219.000
14.76732 228.000
14.78727 222.000
14.80722 238.000
14.82716 225.000
14.84711 264.000
14.86706 224.000
14.88701 244.000
14.90695 241.000
14.92690 252.000
14.94685 244.000
14.96679 235.000
14.98674 220.000
15.00669 238.000
15.02663 239.000
15.04658 236.000
15.06653 260.000
15.08648 237.000
15.10642 245.000
15.12637 253.000
15.14632 280.000
15.16626 285.000
15.18621 288.000
15.20616 269.000
15.22610 302.000
15.24605 291.000
15.26600 291.000
15.28594 302.000
15.30589 261.000
15.32584 290.000
15.34579 264.000
15.36573 263.000
15.38568 280.000
15.40563 277.000
15.42557 322.000
15.44552 303.000
15.46547 323.000
15.48541 336.000
15.50536 327.000
15.52531 350.000
15.54526 334.000
15.56520 355.000
15.58515 375.000
15.60510 400.000
15.62504 425.000
15.64499 532.000
15.66494 557.000
15.68488 679.000
15.70483 945.000
15.72478 1303.000
15.74472 1867.000
15.76467 2874.000
15.78462 4578.000
15.80457 7077.000
15.82451 9811.000
15.84446 12190.000
15.86441 12652.000
15.88435 10975.000
15.90430 7849.000
15.92425 4952.000
15.94419 2719.000
15.96414 1426.000
15.98409 865.000
16.00404 623.000
16.02398 538.000
16.04393 476.000
16.06388 442.000
16.08382 455.000
16.10377 423.000
16.12372 398.000
16.14366 364.000
16.16361 350.000
16.18356 346.000
16.20351 337.000
16.22345 336.000
16.24340 283.000
16.26335 301.000
16.28329 280.000
16.30324 255.000
16.32319 310.000
16.34313 300.000
16.36308 255.000
16.38303 279.000
16.40297 263.000
16.42292 252.000
16.44287 242.000
16.46282 250.000
16.48276 257.000
16.50271 263.000
16.52266 225.000
16.54260 228.000
16.56255 236.000
16.58250 247.000
16.60244 232.000
16.62239 260.000
16.64234 228.000
16.66229 218.000
16.68223 271.000
16.70218 230.000
16.72213 225.000
16.74207 263.000
16.76202 243.000
16.78197 292.000
16.80191 312.000
16.82186 339.000
16.84181 333.000
16.86175 318.000
16.88170 284.000
16.90165 344.000
16.92160 262.000
16.94154 266.000
16.96149 229.000
16.98144 212.000
17.00138 229.000
17.02133 240.000
17.04128 221.000
17.06122 207.000
17.08117 216.000
17.10112 219.000
17.12107 237.000
17.14101 236.000
17.16096 248.000
17.18091 225.000
17.20085 221.000
17.22080 243.000
17.24075 212.000
17.26069 208.000
17.28064 225.000
17.30059 212.000
17.32053 227.000
17.34048 217.000
17.36043 243.000
17.38038 240.000
17.40032 204.000
17.42027 205.000
17.44022 228.000
17.46016 231.000
17.48011 235.000
17.50006 202.000
17.52000 208.000
17.53995 221.000
17.55990 203.000
17.57985 222.000
17.59979 225.000
17.61974 193.000
17.63969 208.000
17.65963 225.000
17.67958 222.000
17.69953 207.000
17.71947 199.000
17.73942 233.000
17.75937 229.000
17.77932 225.000
17.79926 223.000
17.81921 224.000
17.83916 214.000
17.85910 221.000
17.87905 191.000
17.89900 198.000
17.91894 215.000
17.93889 188.000
17.95884 244.000
17.97878 234.000
17.99873 221.000
18.01868 231.000
18.03863 208.000
18.05857 220.000
18.07852 198.000
18.09847 227.000
18.11841 211.000
18.13836 208.000
18.15831 215.000
18.17825 221.000
18.19820 198.000
18.21815 223.000
18.23810 204.000
18.25804 209.000
18.27799 191.000
18.29794 219.000
18.31788 204.000
18.33783 239.000
18.35778 214.000
18.37772 219.000
18.39767 212.000
18.41762 221.000
18.43756 221.000
18.45751 219.000
18.47746 236.000
18.49741 223.000
18.51735 214.000
18.53730 192.000
18.55725 224.000
18.57719 206.000
18.59714 246.000
18.61709 205.000
18.63703 204.000
18.65698 232.000
18.67693 223.000
18.69688 205.000
18.71682 219.000
18.73677 223.000
18.75672 225.000
18.77666 214.000
18.79661 203.000
18.81656 216.000
18.83650 214.000
18.85645 228.000
18.87640 201.000
18.89634 209.000
18.91629 203.000
18.93624 186.000
18.95619 199.000
18.97613 241.000
18.99608 246.000
19.01603 200.000
19.03597 193.000
19.05592 216.000
19.07587 223.000
19.09581 204.000
19.11576 223.000
19.13571 224.000
19.15566 215.000
19.17560 196.000
19.19555 210.000
19.21550 220.000
19.23544 237.000
19.25539 197.000
19.27534 211.000
19.29528 215.000
19.31523 207.000
19.33518 202.000
19.35513 197.000
19.37507 198.000
19.39502 207.000
19.41497 218.000
19.43491 207.000
19.45486 204.000
19.47481 226.000
19.49475 218.000
19.51470 205.000
19.53465 198.000
19.55459 244.000
19.57454 210.000
19.59449 233.000
19.61444 223.000
19.63438 213.000
19.65433 226.000
19.67428 196.000
19.69422 231.000
19.71417 234.000
19.73412 205.000
19.75406 197.000
19.77401 239.000
19.79396 218.000
19.81391 223.000
19.83385 219.000
19.85380 217.000
19.87375 197.000
19.89369 190.000
19.91364 233.000
19.93359 194.000
19.95353 191.000
19.97348 227.000
19.99343 204.000
20.01337 188.000
20.03332 220.000
20.05327 208.000
20.07322 238.000
20.09316 251.000
20.11311 248.000
20.13306 222.000
20.15300 190.000
20.17295 226.000
20.19290 222.000
20.21284 225.000
20.23279 218.000
20.25274 204.000
20.27269 238.000
20.29263 214.000
20.31258 233.000
20.33253 236.000
20.35247 243.000
20.37242 202.000
20.39237 230.000
20.41231 228.000
20.43226 241.000
20.45221 218.000
20.47215 223.000
20.49210 232.000
20.51205 208.000
20.53200 210.000
20.55194 237.000
20.57189 232.000
20.59184 225.000
20.61178 271.000
20.63173 233.000
20.65168 272.000
20.67162 266.000
20.69157 217.000
20.71152 239.000
20.73147 259.000
20.75141 272.000
20.77136 252.000
20.79131 317.000
20.81125 312.000
20.83120 341.000
20.85115 400.000
20.87109 441.000
20.89104 478.000
20.91099 448.000
20.93094 471.000
20.95088 460.000
20.97083 415.000
20.99078 397.000
21.01072 354.000
21.03067 351.000
21.05062 328.000
21.07056 331.000
21.09051 304.000
21.11046 280.000
21.13040 234.000
21.15035 238.000
21.17030 222.000
21.19025 255.000
21.21019 213.000
21.23014 238.000
21.25009 227.000
21.27003 216.000
21.28998 208.000
21.30993 212.000
21.32987 221.000
21.34982 202.000
21.36977 222.000
21.38972 212.000
21.40966 194.000
21.42961 222.000
21.44956 241.000
21.46950 230.000
21.48945 234.000
21.50940 212.000
21.52934 221.000
21.54929 226.000
21.56924 210.000
21.58918 220.000
21.60913 194.000
21.62908 215.000
21.64903 237.000
21.66897 229.000
21.68892 210.000
21.70887 212.000
21.72881 211.000
21.74876 206.000
21.76871 220.000
21.78865 197.000
21.80860 205.000
21.82855 226.000
21.84850 214.000
21.86844 219.000
21.88839 248.000
21.90834 263.000
21.92828 201.000
21.94823 204.000
21.96818 212.000
21.98812 242.000
22.00807 223.000
22.02802 210.000
22.04796 221.000
22.06791 234.000
22.08786 217.000
22.10781 211.000
22.12775 227.000
22.14770 217.000
22.16765 229.000
22.18759 253.000
22.20754 208.000
22.22749 216.000
22.24743 222.000
22.26738 223.000
22.28733 236.000
22.30728 198.000
22.32722 225.000
22.34717 219.000
22.36712 225.000
22.38706 241.000
22.40701 233.000
22.42696 196.000
22.44690 224.000
22.46685 204.000
22.48680 219.000
22.50675 216.000
22.52669 204.000
22.54664 204.000
22.56659 219.000
22.58653 222.000
22.60648 229.000
22.62643 223.000
22.64637 229.000
22.66632 207.000
22.68627 221.000
22.70621 224.000
22.72616 222.000
22.74611 216.000
22.76606 225.000
22.78600 219.000
22.80595 214.000
22.82590 232.000
22.84584 226.000
22.86579 189.000
22.88574 201.000
22.90568 223.000
22.92563 201.000
22.94558 220.000
22.96553 212.000
22.98547 240.000
23.00542 236.000
23.02537 246.000
23.04531 200.000
23.06526 220.000
23.08521 233.000
23.10515 213.000
23.12510 206.000
23.14505 233.000
23.16499 204.000
23.18494 215.000
23.20489 230.000
23.22484 250.000
23.24478 212.000
23.26473 223.000
23.28468 219.000
23.30462 209.000
23.32457 215.000
23.34452 248.000
23.36446 226.000
23.38441 201.000
23.40436 220.000
23.42431 204.000
23.44425 212.000
23.46420 211.000
23.48415 217.000
23.50409 224.000
23.52404 218.000
23.54399 208.000
23.56393 227.000
23.58388 224.000
23.60383 218.000
23.62377 241.000
23.64372 244.000
23.66367 216.000
23.68362 222.000
23.70356 215.000
23.72351 239.000
23.74346 229.000
23.76340 201.000
23.78335 239.000
23.80330 193.000
23.82324 212.000
23.84319 222.000
23.86314 225.000
23.88309 233.000
23.90303 245.000
23.92298 218.000
23.94293 209.000
23.96287 230.000
23.98282 250.000
24.00277 222.000
24.02271 247.000
24.04266 215.000
24.06261 236.000
24.08256 223.000
24.10250 223.000
24.12245 198.000
24.14240 238.000
24.16234 224.000
24.18229 254.000
24.20224 237.000
24.22218 224.000
24.24213 226.000
24.26208 217.000
24.28202 217.000
24.30197 217.000
24.32192 205.000
24.34187 198.000
24.36181 214.000
24.38176 231.000
24.40171 230.000
24.42165 192.000
24.44160 200.000
24.46155 205.000
24.48149 222.000
24.50144 216.000
24.52139 216.000
24.54134 213.000
24.56128 229.000
24.58123 205.000
24.60118 254.000
24.62112 218.000
24.64107 216.000
24.66102 225.000
24.68096 231.000
24.70091 246.000
24.72086 231.000
24.74080 221.000
24.76075 214.000
24.78070 230.000
24.80065 223.000
24.82059 215.000
24.84054 240.000
24.86049 232.000
24.88043 237.000
24.90038 257.000
24.92033 258.000
24.94027 267.000
24.96022 269.000
24.98017 267.000
25.00012 268.000
25.02006 332.000
25.04001 306.000
25.05996 275.000
25.07990 267.000
25.09985 241.000
25.11980 255.000
25.13974 243.000
25.15969 217.000
25.17964 232.000
25.19958 239.000
25.21953 220.000
25.23948 231.000
25.25943 222.000
25.27937 249.000
25.29932 243.000
25.31927 245.000
25.33921 220.000
25.35916 242.000
25.37911 230.000
25.39905 241.000
25.41900 239.000
25.43895 228.000
25.45890 216.000
25.47884 232.000
25.49879 203.000
25.51874 231.000
25.53868 205.000
25.55863 217.000
25.57858 210.000
25.59852 222.000
25.61847 211.000
25.63842 218.000
25.65837 188.000
25.67831 213.000
25.69826 224.000
25.71821 252.000
25.73815 198.000
25.75810 214.000
25.77805 203.000
25.79799 231.000
25.81794 224.000
25.83789 229.000
25.85783 227.000
25.87778 227.000
25.89773 219.000
25.91768 236.000
25.93762 228.000
25.95757 225.000
25.97752 218.000
25.99746 234.000
26.01741 229.000
26.03736 244.000
26.05730 254.000
26.07725 220.000
26.09720 233.000
26.11715 224.000
26.13709 220.000
26.15704 253.000
26.17699 233.000
26.19693 231.000
26.21688 234.000
26.23683 218.000
26.25677 224.000
26.27672 235.000
26.29667 197.000
26.31661 210.000
26.33656 203.000
26.35651 226.000
26.37646 223.000
26.39640 240.000
26.41635 222.000
26.43630 221.000
26.45624 221.000
26.47619 228.000
26.49614 244.000
26.51608 236.000
26.53603 236.000
26.55598 223.000
26.57593 248.000
26.59587 201.000
26.61582 220.000
26.63577 233.000
26.65571 213.000
26.67566 227.000
26.69561 248.000
26.71555 206.000
26.73550 233.000
26.75545 234.000
26.77539 219.000
26.79534 224.000
26.81529 235.000
26.83524 237.000
26.85518 218.000
26.87513 232.000
26.89508 239.000
26.91502 233.000
26.93497 239.000
26.95492 217.000
26.97486 246.000
26.99481 243.000
27.01476 233.000
27.03471 226.000
27.05465 247.000
27.07460 218.000
27.09455 237.000
27.11449 227.000
27.13444 239.000
27.15439 210.000
27.17433 234.000
27.19428 219.000
27.21423 243.000
27.23417 233.000
27.25412 222.000
27.27407 221.000
27.29402 240.000
27.31396 202.000
27.33391 239.000
27.35386 212.000
27.37380 244.000
27.39375 204.000
27.41370 268.000
27.43364 215.000
27.45359 218.000
27.47354 211.000
27.49349 220.000
27.51343 216.000
27.53338 215.000
27.55333 212.000
27.57327 267.000
27.59322 229.000
27.61317 254.000
27.63311 219.000
27.65306 238.000
27.67301 225.000
27.69296 235.000
27.71290 230.000
27.73285 249.000
27.75280 239.000
27.77274 230.000
27.79269 213.000
27.81264 252.000
27.83258 219.000
27.85253 237.000
27.87248 252.000
27.89242 227.000
27.91237 234.000
27.93232 249.000
27.95227 225.000
27.97221 208.000
27.99216 243.000
28.01211 230.000
28.03205 219.000
28.05200 249.000
28.07195 229.000
28.09189 243.000
28.11184 245.000
28.13179 218.000
28.15174 227.000
28.17168 256.000
28.19163 209.000
28.21158 233.000
28.23152 241.000
28.25147 230.000
28.27142 266.000
28.29136 224.000
28.31131 237.000
28.33126 251.000
28.35120 230.000
28.37115 236.000
28.39110 217.000
28.41105 254.000
28.43099 238.000
28.45094 239.000
28.47089 230.000
28.49083 244.000
28.51078 234.000
28.53073 243.000
28.55067 254.000
28.57062 257.000
28.59057 258.000
28.61052 253.000
28.63046 260.000
28.65041 223.000
28.67036 222.000
28.69030 211.000
28.71025 248.000
28.73020 238.000
28.75014 236.000
28.77009 247.000
28.79004 213.000
28.80998 242.000
28.82993 253.000
28.84988 211.000
28.86983 241.000
28.88977 251.000
28.90972 229.000
28.92967 227.000
28.94961 205.000
28.96956 228.000
28.98951 245.000
29.00945 225.000
29.02940 244.000
29.04935 226.000
29.06930 246.000
29.08924 246.000
29.10919 234.000
29.12914 209.000
29.14908 264.000
29.16903 229.000
29.18898 233.000
29.20892 247.000
29.22887 263.000
29.24882 280.000
29.26877 260.000
29.28871 298.000
29.30866 331.000
29.32861 380.000
29.34855 433.000
29.36850 477.000
29.38845 464.000
29.40839 460.000
29.42834 479.000
29.44829 451.000
29.46823 423.000
29.48818 366.000
29.50813 324.000
29.52808 282.000
29.54802 287.000
29.56797 289.000
29.58792 271.000
29.60786 230.000
29.62781 248.000
29.64776 243.000
29.66770 257.000
29.68765 244.000
29.70760 251.000
29.72755 230.000
29.74749 235.000
29.76744 221.000
29.78739 221.000
29.80733 229.000
29.82728 242.000
29.84723 236.000
29.86717 236.000
29.88712 257.000
29.90707 214.000
29.92701 254.000
29.94696 261.000
29.96691 248.000
29.98686 217.000
30.00680 229.000
30.02675 225.000
30.04670 256.000
30.06664 264.000
30.08659 258.000
30.10654 295.000
30.12648 303.000
30.14643 265.000
30.16638 284.000
30.18633 254.000
30.20627 271.000
30.22622 252.000
30.24617 239.000
30.26611 249.000
30.28606 248.000
30.30601 256.000
30.32595 267.000
30.34590 267.000
30.36585 263.000
30.38579 265.000
30.40574 277.000
30.42569 261.000
30.44564 233.000
30.46558 248.000
30.48553 248.000
30.50548 225.000
30.52542 251.000
30.54537 212.000
30.56532 242.000
30.58526 264.000
30.60521 253.000
30.62516 251.000
30.64511 246.000
30.66505 223.000
30.68500 225.000
30.70495 263.000
30.72489 219.000
30.74484 216.000
30.76479 217.000
30.78473 241.000
30.80468 250.000
30.82463 205.000
30.84458 246.000
30.86452 237.000
30.88447 230.000
30.90442 248.000
30.92436 245.000
30.94431 223.000
30.96426 208.000
30.98420 232.000
31.00415 271.000
31.02410 258.000
31.04404 239.000
31.06399 246.000
31.08394 239.000
31.10389 251.000
31.12383 247.000
31.14378 236.000
31.16373 230.000
31.18367 246.000
31.20362 217.000
31.22357 241.000
31.24351 237.000
31.26346 233.000
31.28341 231.000
31.30336 267.000
31.32330 216.000
31.34325 259.000
31.36320 233.000
31.38314 246.000
31.40309 232.000
31.42304 249.000
31.44298 231.000
31.46293 270.000
31.48288 250.000
31.50282 240.000
31.52277 250.000
31.54272 257.000
31.56267 253.000
31.58261 221.000
31.60256 242.000
31.62251 243.000
31.64245 261.000
31.66240 248.000
31.68235 277.000
31.70229 241.000
31.72224 294.000
31.74219 221.000
31.76214 269.000
31.78208 286.000
31.80203 308.000
31.82198 318.000
31.84192 359.000
31.86187 403.000
31.88182 445.000
31.90176 538.000
31.92171 624.000
31.94166 722.000
31.96160 935.000
31.98155 907.000
32.00150 979.000
32.02145 1077.000
32.04139 1068.000
32.06134 1005.000
32.08129 904.000
32.10123 753.000
32.12118 645.000
32.14113 570.000
32.16107 449.000
32.18102 446.000
32.20097 389.000
32.22092 324.000
32.24086 295.000
32.26081 316.000
32.28076 273.000
32.30070 267.000
32.32065 240.000
32.34060 277.000
32.36054 238.000
32.38049 302.000
32.40044 279.000
32.42039 286.000
32.44033 320.000
32.46028 353.000
32.48023 424.000
32.50017 390.000
32.52012 442.000
32.54007 397.000
32.56001 368.000
32.57996 358.000
32.59991 348.000
32.61985 301.000
32.63980 267.000
32.65975 279.000
32.67970 260.000
32.69964 248.000
32.71959 241.000
32.73954 239.000
32.75948 232.000
32.77943 219.000
32.79938 233.000
32.81932 242.000
32.83927 267.000
32.85922 255.000
32.87917 234.000
32.89911 243.000
32.91906 234.000
32.93901 220.000
32.95895 248.000
32.97890 282.000
32.99885 243.000
33.01879 251.000
33.03874 250.000
33.05869 218.000
33.07863 214.000
33.09858 252.000
33.11853 263.000
33.13848 219.000
33.15842 264.000
33.17837 232.000
33.19832 249.000
33.21826 237.000
33.23821 236.000
33.25816 256.000
33.27810 253.000
33.29805 216.000
33.31800 263.000
33.33795 231.000
33.35789 189.000
33.37784 233.000
33.39779 242.000
33.41773 225.000
33.43768 247.000
33.45763 241.000
33.47757 244.000
33.49752 240.000
33.51747 239.000
33.53741 226.000
33.55736 221.000
33.57731 237.000
33.59726 251.000
33.61720 248.000
33.63715 221.000
33.65710 240.000
33.67704 260.000
33.69699 262.000
33.71694 232.000
33.73688 265.000
33.75683 245.000
33.77678 227.000
33.79673 241.000
33.81667 240.000
33.83662 271.000
33.85657 237.000
33.87651 227.000
33.89646 252.000
33.91641 243.000
33.93635 270.000
33.95630 264.000
33.97625 265.000
33.99620 286.000
34.01614 244.000
34.03609 288.000
34.05604 284.000
34.07598 296.000
34.09593 284.000
34.11588 276.000
34.13582 286.000
34.15577 299.000
34.17572 302.000
34.19566 282.000
34.21561 333.000
34.23556 317.000
34.25551 333.000
34.27545 318.000
34.29540 344.000
34.31535 361.000
34.33529 378.000
34.35524 425.000
34.37519 393.000
34.39513 451.000
34.41508 482.000
34.43503 452.000
34.45498 476.000
34.47492 499.000
34.49487 493.000
34.51482 471.000
34.53476 470.000
34.55471 447.000
34.57466 461.000
34.59460 422.000
34.61455 430.000
34.63450 414.000
34.65444 406.000
34.67439 390.000
34.69434 375.000
34.71429 374.000
34.73423 358.000
34.75418 379.000
34.77413 319.000
34.79407 372.000
34.81402 370.000
34.83397 426.000
34.85391 416.000
34.87386 437.000
34.89381 369.000
34.91376 393.000
34.93370 352.000
34.95365 354.000
34.97360 337.000
34.99354 337.000
35.01349 302.000
35.03344 279.000
35.05338 291.000
35.07333 320.000
35.09328 299.000
35.11322 262.000
35.13317 278.000
35.15312 299.000
35.17307 294.000
35.19301 303.000
35.21296 374.000
35.23291 327.000
35.25285 369.000
35.27280 326.000
35.29275 420.000
35.31269 416.000
35.33264 407.000
35.35259 513.000
35.37254 556.000
35.39248 742.000
35.41243 937.000
35.43238 1197.000
35.45232 1220.000
35.47227 1206.000
35.49222 1392.000
35.51216 1788.000
35.53211 2095.000
35.55206 2008.000
35.57201 1802.000
35.59195 1625.000
35.61190 1601.000
35.63185 1535.000
35.65179 1417.000
35.67174 1308.000
35.69169 1242.000
35.71163 1139.000
35.73158 1122.000
35.75153 1118.000
35.77147 984.000
35.79142 1058.000
35.81137 961.000
35.83132 865.000
35.85126 839.000
35.87121 691.000
35.89116 673.000
35.91110 531.000
35.93105 476.000
35.95100 492.000
35.97094 399.000
35.99089 380.000
36.01084 377.000
36.03079 321.000
36.05073 272.000
36.07068 307.000
36.09063 321.000
36.11057 291.000
36.13052 286.000
36.15047 297.000
36.17041 278.000
36.19036 315.000
36.21031 293.000
36.23025 295.000
36.25020 274.000
36.27015 285.000
36.29010 272.000
36.31004 256.000
36.32999 259.000
36.34994 287.000
36.36988 240.000
36.38983 262.000
36.40978 267.000
36.42972 261.000
36.44967 276.000
36.46962 279.000
36.48957 296.000
36.50951 246.000
36.52946 281.000
36.54941 237.000
36.56935 276.000
36.58930 286.000
36.60925 275.000
36.62919 298.000
36.64914 297.000
36.66909 313.000
36.68903 315.000
36.70898 290.000
36.72893 309.000
36.74888 312.000
36.76882 307.000
36.78877 343.000
36.80872 287.000
36.82866 248.000
36.84861 278.000
36.86856 297.000
36.88850 246.000
36.90845 277.000
36.92840 259.000
36.94835 279.000
36.96829 267.000
36.98824 310.000
37.00819 290.000
37.02813 283.000
37.04808 302.000
37.06803 294.000
37.08797 294.000
37.10792 326.000
37.12787 312.000
37.14781 324.000
37.16776 337.000
37.18771 393.000
37.20766 365.000
37.22760 370.000
37.24755 340.000
37.26750 356.000
37.28744 322.000
37.30739 358.000
37.32734 309.000
37.34728 303.000
37.36723 311.000
37.38718 300.000
37.40713 291.000
37.42707 304.000
37.44702 270.000
37.46697 255.000
37.48691 235.000
37.50686 260.000
37.52681 262.000
37.54675 277.000
37.56670 272.000
37.58665 248.000
37.60660 261.000
37.62654 235.000
37.64649 234.000
37.66644 271.000
37.68638 248.000
37.70633 248.000
37.72628 249.000
37.74622 271.000
37.76617 281.000
37.78612 241.000
37.80606 280.000
37.82601 257.000
37.84596 253.000
37.86591 264.000
37.88585 279.000
37.90580 255.000
37.92575 310.000
37.94569 279.000
37.96564 291.000
37.98559 288.000
38.00553 256.000
38.02548 314.000
38.04543 296.000
38.06538 309.000
38.08532 288.000
38.10527 273.000
38.12522 297.000
38.14516 311.000
38.16511 313.000
38.18506 299.000
38.20500 256.000
38.22495 259.000
38.24490 289.000
38.26484 287.000
38.28479 317.000
38.30474 287.000
38.32469 298.000
38.34463 292.000
38.36458 287.000
38.38453 288.000
38.40447 344.000
38.42442 329.000
38.44437 360.000
38.46431 358.000
38.48426 383.000
38.50421 446.000
38.52416 468.000
38.54410 545.000
38.56405 606.000
38.58400 680.000
38.60394 832.000
38.62389 992.000
38.64384 1283.000
38.66378 1512.000
38.68373 1586.000
38.70368 1644.000
38.72362 1584.000
38.74357 1457.000
38.76352 1469.000
38.78347 1379.000
38.80341 1219.000
38.82336 1064.000
38.84331 915.000
38.86325 775.000
38.88320 740.000
38.90315 742.000
38.92309 732.000
38.94304 731.000
38.96299 672.000
38.98294 712.000
39.00288 692.000
39.02283 677.000
39.04278 615.000
39.06272 564.000
39.08267 613.000
39.10262 560.000
39.12256 540.000
39.14251 591.000
39.16246 601.000
39.18241 603.000
39.20235 704.000
39.22230 789.000
39.24225 899.000
39.26219 1209.000
39.28214 1391.000
39.30209 1633.000
39.32203 1915.000
39.34198 1770.000
39.36193 1680.000
39.38187 1575.000
39.40182 1491.000
39.42177 1355.000
39.44172 1280.000
39.46166 1081.000
39.48161 914.000
39.50156 725.000
39.52150 644.000
39.54145 561.000
39.56140 447.000
39.58134 425.000
39.60129 379.000
39.62124 366.000
39.64119 308.000
39.66113 345.000
39.68108 294.000
39.70103 310.000
39.72097 324.000
39.74092 301.000
39.76087 332.000
39.78081 283.000
39.80076 249.000
39.82071 291.000
39.84065 259.000
39.86060 301.000
39.88055 278.000
39.90050 287.000
39.92044 285.000
39.94039 319.000
39.96034 283.000
39.98028 268.000
40.00023 272.000
40.02018 269.000
40.04012 276.000
40.06007 242.000
40.08002 250.000
40.09997 259.000
40.11991 266.000
40.13986 243.000
40.15981 239.000
40.17975 247.000
40.19970 258.000
40.21965 232.000
40.23959 271.000
40.25954 245.000
40.27949 272.000
40.29943 253.000
40.31938 236.000
40.33933 223.000
40.35928 251.000
40.37922 237.000
40.39917 236.000
40.41912 252.000
40.43906 233.000
40.45901 260.000
40.47896 240.000
40.49890 256.000
40.51885 241.000
40.53880 239.000
40.55875 235.000
40.57869 268.000
40.59864 273.000
40.61859 264.000
40.63853 243.000
40.65848 254.000
40.67843 242.000
40.69837 242.000
40.71832 264.000
40.73827 190.000
40.75822 233.000
40.77816 239.000
40.79811 226.000
40.81806 243.000
40.83800 241.000
40.85795 248.000
40.87790 239.000
40.89784 232.000
40.91779 263.000
40.93774 283.000
40.95768 219.000
40.97763 257.000
40.99758 231.000
41.01753 230.000
41.03747 225.000
41.05742 257.000
41.07737 240.000
41.09731 217.000
41.11726 251.000
41.13721 246.000
41.15715 242.000
41.17710 227.000
41.19705 239.000
41.21700 251.000
41.23694 245.000
41.25689 268.000
41.27684 219.000
41.29678 247.000
41.31673 219.000
41.33668 238.000
41.35662 245.000
41.37657 238.000
41.39652 241.000
41.41646 236.000
41.43641 247.000
41.45636 260.000
41.47631 248.000
41.49625 252.000
41.51620 236.000
41.53615 271.000
41.55609 262.000
41.57604 260.000
41.59599 259.000
41.61593 262.000
41.63588 259.000
41.65583 258.000
41.67578 256.000
41.69572 257.000
41.71567 245.000
41.73562 253.000
41.75556 273.000
41.77551 239.000
41.79546 291.000
41.81540 245.000
41.83535 245.000
41.85530 257.000
41.87524 229.000
41.89519 244.000
41.91514 264.000
41.93509 242.000
41.95503 252.000
41.97498 247.000
41.99493 231.000
42.01487 231.000
42.03482 238.000
42.05477 248.000
42.07471 248.000
42.09466 259.000
42.11461 250.000
42.13456 278.000
42.15450 215.000
42.17445 251.000
42.19440 244.000
42.21434 250.000
42.23429 239.000
42.25424 218.000
42.27418 233.000
42.29413 235.000
42.31408 240.000
42.33403 233.000
42.35397 229.000
42.37392 245.000
42.39387 245.000
42.41381 275.000
42.43376 243.000
42.45371 256.000
42.47365 228.000
42.49360 236.000
42.51355 233.000
42.53349 246.000
42.55344 233.000
42.57339 255.000
42.59334 237.000
42.61328 250.000
42.63323 258.000
42.65318 242.000
42.67312 248.000
42.69307 252.000
42.71302 240.000
42.73296 270.000
42.75291 259.000
42.77286 251.000
42.79281 235.000
42.81275 226.000
42.83270 251.000
42.85265 261.000
42.87259 260.000
42.89254 244.000
42.91249 226.000
42.93243 242.000
42.95238 237.000
42.97233 245.000
42.99227 251.000
43.01222 255.000
43.03217 298.000
43.05212 246.000
43.07206 266.000
43.09201 281.000
43.11196 257.000
43.13190 283.000
43.15185 286.000
43.17180 306.000
43.19174 330.000
43.21169 328.000
43.23164 330.000
43.25159 337.000
43.27153 335.000
43.29148 379.000
43.31143 378.000
43.33137 416.000
43.35132 466.000
43.37127 562.000
43.39121 681.000
43.41116 758.000
43.43111 796.000
43.45105 855.000
43.47100 798.000
43.49095 735.000
43.51090 707.000
43.53084 637.000
43.55079 647.000
43.57074 597.000
43.59068 505.000
43.61063 477.000
43.63058 388.000
43.65052 388.000
43.67047 334.000
43.69042 334.000
43.71037 293.000
43.73031 243.000
43.75026 252.000
43.77021 246.000
43.79015 270.000
43.81010 271.000
43.83005 237.000
43.84999 234.000
43.86994 276.000
43.88989 225.000
43.90984 259.000
43.92978 239.000
43.94973 230.000
43.96968 255.000
43.98962 251.000
44.00957 220.000
44.02952 237.000
44.04946 252.000
44.06941 254.000
44.08936 249.000
44.10930 225.000
44.12925 237.000
44.14920 254.000
44.16915 245.000
44.18909 227.000
44.20904 251.000
44.22899 223.000
44.24893 240.000
44.26888 235.000
44.28883 225.000
44.30877 224.000
44.32872 226.000
44.34867 252.000
44.36862 246.000
44.38856 250.000
44.40851 251.000
44.42846 276.000
44.44840 212.000
44.46835 215.000
44.48830 243.000
44.50824 214.000
44.52819 221.000
44.54814 238.000
44.56808 253.000
44.58803 229.000
44.60798 225.000
44.62793 224.000
44.64787 246.000
44.66782 261.000
44.68777 267.000
44.70771 256.000
44.72766 241.000
44.74761 247.000
44.76755 238.000
44.78750 224.000
44.80745 251.000
44.82740 228.000
44.84734 270.000
44.86729 239.000
44.88724 236.000
44.90718 243.000
44.92713 236.000
44.94708 229.000
44.96702 229.000
44.98697 251.000
45.00692 240.000
45.02686 237.000
45.04681 270.000
45.06676 259.000
45.08671 237.000
45.10665 249.000
45.12660 254.000
45.14655 229.000
45.16649 249.000
45.18644 217.000
45.20639 259.000
45.22633 225.000
45.24628 250.000
45.26623 243.000
45.28618 242.000
45.30612 244.000
45.32607 227.000
45.34602 234.000
45.36596 241.000
45.38591 222.000
45.40586 245.000
45.42580 221.000
45.44575 233.000
45.46570 246.000
45.48565 245.000
45.50559 220.000
45.52554 236.000
45.54549 231.000
45.56543 245.000
45.58538 243.000
45.60533 228.000
45.62527 257.000
45.64522 255.000
45.66517 246.000
45.68511 227.000
45.70506 268.000
45.72501 249.000
45.74496 240.000
45.76490 211.000
45.78485 250.000
45.80480 259.000
45.82474 238.000
45.84469 237.000
45.86464 237.000
45.88458 244.000
45.90453 242.000
45.92448 269.000
45.94443 252.000
45.96437 229.000
45.98432 230.000
46.00427 215.000
46.02421 236.000
46.04416 260.000
46.06411 217.000
46.08405 228.000
46.10400 217.000
46.12395 264.000
46.14389 214.000
46.16384 259.000
46.18379 265.000
46.20374 240.000
46.22368 229.000
46.24363 268.000
46.26358 278.000
46.28352 273.000
46.30347 258.000
46.32342 257.000
46.34336 279.000
46.36331 241.000
46.38326 267.000
46.40321 265.000
46.42315 259.000
46.44310 269.000
46.46305 270.000
46.48299 282.000
46.50294 244.000
46.52289 260.000
46.54283 226.000
46.56278 249.000
46.58273 251.000
46.60267 240.000
46.62262 260.000
46.64257 234.000
46.66252 234.000
46.68246 267.000
46.70241 216.000
46.72236 228.000
46.74230 261.000
46.76225 220.000
46.78220 251.000
46.80214 222.000
46.82209 250.000
46.84204 216.000
46.86199 239.000
46.88193 251.000
46.90188 232.000
46.92183 253.000
46.94177 225.000
46.96172 243.000
46.98167 245.000
47.00161 242.000
47.02156 241.000
47.04151 237.000
47.06146 230.000
47.08140 223.000
47.10135 215.000
47.12130 242.000
47.14124 256.000
47.16119 275.000
47.18114 253.000
47.20108 245.000
47.22103 246.000
47.24098 256.000
47.26092 240.000
47.28087 213.000
47.30082 232.000
47.32077 254.000
47.34071 230.000
47.36066 223.000
47.38061 213.000
47.40055 232.000
47.42050 230.000
47.44045 230.000
47.46039 258.000
47.48034 259.000
47.50029 218.000
47.52024 235.000
47.54018 235.000
47.56013 235.000
47.58008 238.000
47.60002 223.000
47.61997 251.000
47.63992 270.000
47.65986 236.000
47.67981 250.000
47.69976 284.000
47.71970 243.000
47.73965 232.000
47.75960 256.000
47.77955 220.000
47.79949 241.000
47.81944 224.000
47.83939 223.000
47.85933 250.000
47.87928 264.000
47.89923 237.000
47.91917 242.000
47.93912 288.000
47.95907 266.000
47.97902 267.000
47.99896 292.000
48.01891 270.000
48.03886 290.000
48.05880 292.000
48.07875 296.000
48.09870 269.000
48.11864 307.000
48.13859 321.000
48.15854 322.000
48.17848 308.000
48.19843 319.000
48.21838 305.000
48.23833 310.000
48.25827 295.000
48.27822 314.000
48.29817 302.000
48.31811 318.000
48.33806 309.000
48.35801 300.000
48.37795 334.000
48.39790 339.000
48.41785 362.000
48.43780 327.000
48.45774 376.000
48.47769 375.000
48.49764 411.000
48.51758 443.000
48.53753 479.000
48.55748 504.000
48.57742 557.000
48.59737 655.000
48.61732 757.000
48.63726 945.000
48.65721 1159.000
48.67716 1262.000
48.69711 1514.000
48.71705 1739.000
48.73700 1832.000
48.75695 1827.000
48.77689 1729.000
48.79684 1641.000
48.81679 1665.000
48.83673 1581.000
48.85668 1512.000
48.87663 1402.000
48.89658 1211.000
48.91652 1114.000
48.93647 913.000
48.95642 845.000
48.97636 725.000
48.99631 668.000
49.01626 554.000
49.03620 466.000
49.05615 476.000
49.07610 402.000
49.09605 390.000
49.11599 361.000
49.13594 346.000
49.15589 329.000
49.17583 329.000
49.19578 341.000
49.21573 329.000
49.23567 282.000
49.25562 277.000
49.27557 301.000
49.29551 286.000
49.31546 278.000
49.33541 277.000
49.35536 292.000
49.37530 302.000
49.39525 292.000
49.41520 268.000
49.43514 305.000
49.45509 293.000
49.47504 309.000
49.49498 297.000
49.51493 315.000
49.53488 283.000
49.55483 289.000
49.57477 291.000
49.59472 284.000
49.61467 271.000
49.63461 286.000
49.65456 282.000
49.67451 270.000
49.69445 265.000
49.71440 266.000
49.73435 247.000
49.75429 248.000
49.77424 262.000
49.79419 246.000
49.81414 274.000
49.83408 245.000
49.85403 254.000
49.87398 256.000
49.89392 236.000
49.91387 264.000
49.93382 305.000
49.95376 246.000
49.97371 246.000
49.99366 230.000
50.01361 268.000
50.03355 269.000
50.05350 235.000
50.07345 255.000
50.09339 242.000
50.11334 235.000
50.13329 243.000
50.15323 221.000
50.17318 249.000
50.19313 234.000
50.21307 251.000
50.23302 207.000
50.25297 240.000
50.27292 253.000
50.29286 258.000
50.31281 247.000
50.33276 227.000
50.35270 229.000
50.37265 267.000
50.39260 221.000
50.41254 214.000
50.43249 246.000
50.45244 246.000
50.47239 250.000
50.49233 263.000
50.51228 236.000
50.53223 233.000
50.55217 239.000
50.57212 250.000
50.59207 247.000
50.61201 242.000
50.63196 242.000
50.65191 231.000
50.67186 221.000
50.69180 231.000
50.71175 226.000
50.73170 253.000
50.75164 216.000
50.77159 219.000
50.79154 255.000
50.81148 254.000
50.83143 236.000
50.85138 214.000
50.87132 239.000
50.89127 271.000
50.91122 240.000
50.93117 263.000
50.95111 238.000
50.97106 263.000
50.99101 258.000
51.01095 250.000
51.03090 250.000
51.05085 260.000
51.07079 229.000
51.09074 233.000
51.11069 230.000
51.13064 227.000
51.15058 237.000
51.17053 242.000
51.19048 250.000
51.21042 252.000
51.23037 251.000
51.25032 245.000
51.27026 284.000
51.29021 231.000
51.31016 253.000
51.33010 247.000
51.35005 237.000
51.37000 217.000
51.38995 235.000
51.40989 238.000
51.42984 241.000
51.44979 249.000
51.46973 231.000
51.48968 228.000
51.50963 247.000
51.52957 271.000
51.54952 247.000
51.56947 240.000
51.58942 222.000
51.60936 239.000
51.62931 241.000
51.64926 234.000
51.66920 256.000
51.68915 239.000
51.70910 246.000
51.72904 235.000
51.74899 232.000
51.76894 226.000
51.78888 239.000
51.80883 230.000
51.82878 244.000
51.84873 254.000
51.86867 228.000
51.88862 229.000
51.90857 249.000
51.92851 253.000
51.94846 254.000
51.96841 219.000
51.98835 294.000
52.00830 312.000
52.02825 244.000
52.04820 277.000
52.06814 280.000
52.08809 289.000
52.10804 304.000
52.12798 285.000
52.14793 272.000
52.16788 298.000
52.18782 307.000
52.20777 301.000
52.22772 278.000
52.24767 276.000
52.26761 283.000
52.28756 269.000
52.30751 249.000
52.32745 256.000
52.34740 247.000
52.36735 254.000
52.38729 228.000
52.40724 212.000
52.42719 245.000
52.44713 248.000
52.46708 254.000
52.48703 249.000
52.50698 242.000
52.52692 217.000
52.54687 217.000
52.56682 258.000
52.58676 218.000
52.60671 233.000
52.62666 260.000
52.64660 231.000
52.66655 238.000
52.68650 233.000
52.70645 225.000
52.72639 241.000
52.74634 233.000
52.76629 227.000
52.78623 267.000
52.80618 237.000
52.82613 252.000
52.84607 235.000
52.86602 250.000
52.88597 225.000
52.90591 255.000
52.92586 268.000
52.94581 258.000
52.96576 234.000
52.98570 242.000
53.00565 221.000
53.02560 242.000
53.04554 226.000
53.06549 239.000
53.08544 260.000
53.10538 255.000
53.12533 275.000
53.14528 270.000
53.16523 266.000
53.18517 264.000
53.20512 284.000
53.22507 287.000
53.24501 278.000
53.26496 271.000
53.28491 293.000
53.30485 298.000
53.32480 340.000
53.34475 323.000
53.36469 334.000
53.38464 309.000
53.40459 295.000
53.42454 305.000
53.44448 336.000
53.46443 317.000
53.48438 318.000
53.50432 327.000
53.52427 318.000
53.54422 308.000
53.56416 260.000
53.58411 287.000
53.60406 293.000
53.62401 279.000
53.64395 264.000
53.66390 281.000
53.68385 249.000
53.70379 239.000
53.72374 270.000
53.74369 271.000
53.76363 235.000
53.78358 234.000
53.80353 235.000
53.82348 238.000
53.84342 262.000
53.86337 257.000
53.88332 248.000
53.90326 261.000
53.92321 234.000
53.94316 252.000
53.96310 257.000
53.98305 248.000
54.00300 229.000
54.02294 244.000
54.04289 243.000
54.06284 249.000
54.08279 228.000
54.10273 207.000
54.12268 249.000
54.14263 246.000
54.16257 238.000
54.18252 254.000
54.20247 240.000
54.22241 230.000
54.24236 239.000
54.26231 222.000
54.28226 223.000
54.30220 256.000
54.32215 240.000
54.34210 237.000
54.36204 254.000
54.38199 232.000
54.40194 240.000
54.42188 223.000
54.44183 240.000
54.46178 229.000
54.48172 270.000
54.50167 227.000
54.52162 222.000
54.54157 251.000
54.56151 289.000
54.58146 240.000
54.60141 228.000
54.62135 223.000
54.64130 242.000
54.66125 235.000
54.68119 248.000
54.70114 223.000
54.72109 255.000
54.74104 226.000
54.76098 231.000
54.78093 221.000
54.80088 248.000
54.82082 236.000
54.84077 227.000
54.86072 228.000
54.88066 218.000
54.90061 200.000
54.92056 235.000
54.94050 240.000
54.96045 212.000
54.98040 214.000
55.00035 266.000
55.02029 239.000
55.04024 239.000
55.06019 229.000
55.08013 204.000
55.10008 209.000
55.12003 221.000
55.13997 240.000
55.15992 216.000
55.17987 221.000
55.19982 255.000
55.21976 222.000
55.23971 248.000
55.25966 222.000
55.27960 232.000
55.29955 231.000
55.31950 243.000
55.33944 234.000
55.35939 219.000
55.37934 281.000
55.39929 228.000
55.41923 242.000
55.43918 234.000
55.45913 250.000
55.47907 236.000
55.49902 212.000
55.51897 255.000
55.53891 206.000
55.55886 230.000
55.57881 222.000
55.59875 233.000
55.61870 245.000
55.63865 249.000
55.65860 235.000
55.67854 214.000
55.69849 237.000
55.71844 245.000
55.73838 237.000
55.75833 257.000
55.77828 219.000
55.79822 259.000
55.81817 220.000
55.83812 207.000
55.85807 247.000
55.87801 224.000
55.89796 259.000
55.91791 233.000
55.93785 209.000
55.95780 239.000
55.97775 230.000
55.99769 233.000
56.01764 227.000
56.03759 214.000
56.05753 239.000
56.07748 230.000
56.09743 246.000
56.11738 220.000
56.13732 264.000
56.15727 203.000
56.17722 243.000
56.19716 242.000
56.21711 260.000
56.23706 250.000
56.25700 244.000
56.27695 238.000
56.29690 236.000
56.31685 255.000
56.33679 225.000
56.35674 236.000
56.37669 271.000
56.39663 242.000
56.41658 213.000
56.43653 223.000
56.45647 221.000
56.47642 226.000
56.49637 234.000
56.51631 245.000
56.53626 228.000
56.55621 231.000
56.57616 251.000
56.59610 255.000
56.61605 232.000
56.63600 241.000
56.65594 267.000
56.67589 232.000
56.69584 255.000
56.71578 253.000
56.73573 244.000
56.75568 262.000
56.77563 239.000
56.79557 233.000
56.81552 250.000
56.83547 236.000
56.85541 223.000
56.87536 224.000
56.89531 248.000
56.91525 226.000
56.93520 225.000
56.95515 230.000
56.97510 242.000
56.99504 249.000
57.01499 226.000
57.03494 236.000
57.05488 238.000
57.07483 232.000
57.09478 248.000
57.11472 226.000
57.13467 226.000
57.15462 297.000
57.17456 239.000
57.19451 246.000
57.21446 246.000
57.23441 247.000
57.25435 237.000
57.27430 226.000
57.29425 263.000
57.31419 239.000
57.33414 249.000
57.35409 260.000
57.37403 263.000
57.39398 247.000
57.41393 249.000
57.43388 249.000
57.45382 255.000
57.47377 266.000
57.49372 297.000
57.51366 275.000
57.53361 241.000
57.55356 245.000
57.57350 237.000
57.59345 244.000
57.61340 214.000
57.63334 238.000
57.65329 270.000
57.67324 240.000
57.69319 270.000
57.71313 270.000
57.73308 237.000
57.75303 254.000
57.77297 264.000
57.79292 250.000
57.81287 231.000
57.83281 261.000
57.85276 225.000
57.87271 228.000
57.89266 246.000
57.91260 250.000
57.93255 230.000
57.95250 226.000
57.97244 223.000
57.99239 248.000
58.01234 248.000
58.03228 292.000
58.05223 258.000
58.07218 280.000
58.09212 262.000
58.11207 276.000
58.13202 289.000
58.15197 295.000
58.17191 370.000
58.19186 343.000
58.21181 344.000
58.23175 340.000
58.25170 405.000
58.27165 427.000
58.29159 430.000
58.31154 392.000
58.33149 397.000
58.35144 387.000
58.37138 324.000
58.39133 360.000
58.41128 364.000
58.43122 320.000
58.45117 331.000
58.47112 312.000
58.49106 304.000
58.51101 321.000
58.53096 266.000
58.55090 310.000
58.57085 282.000
58.59080 261.000
58.61075 287.000
58.63069 260.000
58.65064 240.000
58.67059 261.000
58.69053 247.000
58.71048 229.000
58.73043 255.000
58.75037 230.000
58.77032 252.000
58.79027 252.000
58.81022 256.000
58.83016 275.000
58.85011 252.000
58.87006 222.000
58.89000 266.000
58.90995 255.000
58.92990 224.000
58.94984 248.000
58.96979 229.000
58.98974 226.000
59.00969 275.000
59.02963 254.000
59.04958 228.000
59.06953 235.000
59.08947 224.000
59.10942 218.000
59.12937 241.000
59.14931 257.000
59.16926 216.000
59.18921 248.000
59.20915 247.000
59.22910 224.000
59.24905 261.000
59.26900 232.000
59.28894 232.000
59.30889 222.000
59.32884 242.000
59.34878 241.000
59.36873 235.000
59.38868 238.000
59.40862 245.000
59.42857 241.000
59.44852 231.000
59.46847 217.000
59.48841 235.000
59.50836 237.000
59.52831 238.000
59.54825 242.000
59.56820 258.000
59.58815 212.000
59.60809 208.000
59.62804 229.000
59.64799 216.000
59.66793 240.000
59.68788 253.000
59.70783 217.000
59.72778 230.000
59.74772 248.000
59.76767 247.000
59.78762 233.000
59.80756 246.000
59.82751 241.000
59.84746 244.000
59.86740 284.000
59.88735 206.000
59.90730 235.000
59.92725 227.000
59.94719 247.000
59.96714 255.000
59.98709 223.000
60.00703 260.000
60.02698 249.000
60.04693 217.000
60.06687 252.000
60.08682 252.000
60.10677 212.000
60.12671 255.000
60.14666 271.000
60.16661 268.000
60.18656 238.000
60.20650 233.000
60.22645 251.000
60.24640 254.000
60.26634 255.000
60.28629 242.000
60.30624 243.000
60.32618 262.000
60.34613 269.000
60.36608 220.000
60.38603 247.000
60.40597 242.000
60.42592 240.000
60.44587 239.000
60.46581 265.000
60.48576 245.000
60.50571 262.000
60.52565 260.000
60.54560 235.000
60.56555 222.000
60.58550 230.000
60.60544 251.000
60.62539 224.000
60.64534 244.000
60.66528 251.000
60.68523 240.000
60.70518 265.000
60.72512 248.000
60.74507 237.000
60.76502 248.000
60.78496 264.000
60.80491 248.000
60.82486 240.000
60.84481 263.000
60.86475 271.000
60.88470 263.000
60.90465 259.000
60.92459 235.000
60.94454 251.000
60.96449 233.000
60.98443 237.000
61.00438 245.000
61.02433 236.000
61.04428 254.000
61.06422 237.000
61.08417 267.000
61.10412 269.000
61.12406 231.000
61.14401 278.000
61.16396 249.000
61.18390 289.000
61.20385 273.000
61.22380 280.000
61.24374 282.000
61.26369 252.000
61.28364 257.000
61.30359 326.000
61.32353 316.000
61.34348 305.000
61.36343 261.000
61.38337 306.000
61.40332 293.000
61.42327 360.000
61.44321 370.000
61.46316 414.000
61.48311 427.000
61.50306 468.000
61.52300 490.000
61.54295 555.000
61.56290 533.000
61.58284 499.000
61.60279 521.000
61.62274 505.000
61.64268 512.000
61.66263 505.000
61.68258 495.000
61.70252 503.000
61.72247 491.000
61.74242 493.000
61.76237 501.000
61.78231 507.000
61.80226 563.000
61.82221 526.000
61.84215 544.000
61.86210 643.000
61.88205 617.000
61.90199 645.000
61.92194 666.000
61.94189 755.000
61.96184 794.000
61.98178 797.000
62.00173 788.000
62.02168 857.000
62.04162 804.000
62.06157 766.000
62.08152 744.000
62.10146 675.000
62.12141 632.000
62.14136 591.000
62.16131 587.000
62.18125 544.000
62.20120 565.000
62.22115 499.000
62.24109 452.000
62.26104 425.000
62.28099 411.000
62.30093 389.000
62.32088 378.000
62.34083 309.000
62.36077 319.000
62.38072 315.000
62.40067 320.000
62.42062 277.000
62.44056 279.000
62.46051 292.000
62.48046 283.000
62.50040 242.000
62.52035 289.000
62.54030 281.000
62.56024 274.000
62.58019 274.000
62.60014 284.000
62.62009 256.000
62.64003 274.000
62.65998 272.000
62.67993 268.000
62.69987 273.000
62.71982 266.000
62.73977 261.000
62.75971 286.000
62.77966 258.000
62.79961 286.000
62.81955 276.000
62.83950 237.000
62.85945 243.000
62.87940 267.000
62.89934 253.000
62.91929 233.000
62.93924 262.000
62.95918 255.000
62.97913 244.000
62.99908 248.000
63.01902 251.000
63.03897 282.000
63.05892 292.000
63.07887 270.000
63.09881 221.000
63.11876 254.000
63.13871 259.000
63.15865 286.000
63.17860 239.000
63.19855 245.000
63.21849 250.000
63.23844 254.000
63.25839 245.000
63.27833 240.000
63.29828 253.000
63.31823 243.000
63.33818 271.000
63.35812 254.000
63.37807 244.000
63.39802 263.000
63.41796 257.000
63.43791 268.000
63.45786 229.000
63.47780 257.000
63.49775 271.000
63.51770 240.000
63.53765 225.000
63.55759 240.000
63.57754 243.000
63.59749 223.000
63.61743 249.000
63.63738 240.000
63.65733 246.000
63.67727 234.000
63.69722 235.000
63.71717 274.000
63.73712 248.000
63.75706 253.000
63.77701 272.000
63.79696 282.000
63.81690 293.000
63.83685 256.000
63.85680 271.000
63.87674 283.000
63.89669 300.000
63.91664 253.000
63.93658 289.000
63.95653 312.000
63.97648 315.000
63.99643 305.000
64.01637 323.000
64.03632 322.000
64.05627 401.000
64.07621 434.000
64.09616 408.000
64.11611 512.000
64.13605 470.000
64.15600 507.000
64.17595 476.000
64.19590 509.000
64.21584 548.000
64.23579 582.000
64.25574 566.000
64.27568 526.000
64.29563 560.000
64.31558 534.000
64.33552 526.000
64.35547 510.000
64.37542 548.000
64.39536 499.000
64.41531 482.000
64.43526 451.000
64.45521 456.000
64.47515 440.000
64.49510 394.000
64.51505 357.000
64.53499 322.000
64.55494 352.000
64.57489 380.000
64.59483 342.000
64.61478 298.000
64.63473 243.000
64.65468 318.000
64.67462 276.000
64.69457 249.000
64.71452 294.000
64.73446 269.000
64.75441 266.000
64.77436 263.000
64.79430 260.000
64.81425 270.000
64.83420 262.000
64.85414 240.000
64.87409 246.000
64.89404 255.000
64.91399 260.000
64.93393 225.000
64.95388 238.000
64.97383 249.000
64.99377 241.000
65.01372 238.000
65.03367 266.000
65.05361 271.000
65.07356 281.000
65.09351 268.000
65.11346 268.000
65.13340 266.000
65.15335 264.000
65.17330 267.000
65.19324 243.000
65.21319 242.000
65.23314 251.000
65.25308 244.000
65.27303 274.000
65.29298 239.000
65.31293 262.000
65.33287 262.000
65.35282 248.000
65.37277 257.000
65.39271 287.000
65.41266 266.000
65.43261 322.000
65.45255 249.000
65.47250 294.000
65.49245 284.000
65.51239 317.000
65.53234 341.000
65.55229 318.000
65.57224 343.000
65.59218 340.000
65.61213 345.000
65.63208 372.000
65.65202 426.000
65.67197 391.000
65.69192 421.000
65.71186 427.000
65.73181 432.000
65.75176 414.000
65.77171 409.000
65.79165 389.000
65.81160 371.000
65.83155 356.000
65.85149 418.000
65.87144 394.000
65.89139 361.000
65.91133 361.000
65.93128 379.000
65.95123 361.000
65.97117 352.000
65.99112 358.000
66.01107 339.000
66.03102 346.000
66.05096 361.000
66.07091 331.000
66.09086 332.000
66.11080 309.000
66.13075 318.000
66.15070 373.000
66.17064 359.000
66.19059 345.000
66.21054 353.000
66.23049 406.000
66.25043 434.000
66.27038 442.000
66.29033 437.000
66.31027 447.000
66.33022 451.000
66.35017 504.000
66.37011 438.000
66.39006 475.000
66.41001 441.000
66.42995 432.000
66.44990 479.000
66.46985 463.000
66.48980 458.000
66.50974 490.000
66.52969 457.000
66.54964 483.000
66.56958 504.000
66.58953 503.000
66.60948 498.000
66.62942 468.000
66.64937 504.000
66.66932 496.000
66.68927 438.000
66.70921 488.000
66.72916 466.000
66.74911 501.000
66.76905 459.000
66.78900 441.000
66.80895 456.000
66.82889 445.000
66.84884 410.000
66.86879 363.000
66.88874 422.000
66.90868 426.000
66.92863 394.000
66.94858 384.000
66.96852 368.000
66.98847 349.000
67.00842 356.000
67.02836 322.000
67.04831 324.000
67.06826 335.000
67.08820 332.000
67.10815 334.000
67.12810 291.000
67.14805 337.000
67.16799 286.000
67.18794 305.000
67.20789 288.000
67.22783 286.000
67.24778 312.000
67.26773 268.000
67.28767 270.000
67.30762 255.000
67.32757 282.000
67.34752 266.000
67.36746 265.000
67.38741 242.000
67.40736 235.000
67.42730 244.000
67.44725 260.000
67.46720 240.000
67.48714 257.000
67.50709 253.000
67.52704 242.000
67.54698 228.000
67.56693 249.000
67.58688 256.000
67.60683 263.000
67.62677 268.000
67.64672 286.000
67.66667 247.000
67.68661 288.000
67.70656 274.000
67.72651 276.000
67.74645 308.000
67.76640 308.000
67.78635 301.000
67.80630 338.000
67.82624 316.000
67.84619 335.000
67.86614 336.000
67.88608 328.000
67.90603 329.000
67.92598 336.000
67.94592 385.000
67.96587 373.000
67.98582 383.000
68.00576 416.000
68.02571 423.000
68.04566 466.000
68.06561 400.000
68.08555 401.000
68.10550 398.000
68.12545 394.000
68.14539 411.000
68.16534 375.000
68.18529 379.000
68.20523 359.000
68.22518 382.000
68.24513 346.000
68.26508 327.000
68.28502 316.000
68.30497 298.000
68.32492 313.000
68.34486 334.000
68.36481 299.000
68.38476 308.000
68.40470 298.000
68.42465 283.000
68.44460 262.000
68.46455 251.000
68.48449 294.000
68.50444 273.000
68.52439 244.000
68.54433 262.000
68.56428 285.000
68.58423 255.000
68.60417 245.000
68.62412 252.000
68.64407 255.000
68.66401 241.000
68.68396 250.000
68.70391 231.000
68.72386 267.000
68.74380 228.000
68.76375 246.000
68.78370 226.000
68.80364 234.000
68.82359 258.000
68.84354 236.000
68.86348 241.000
68.88343 224.000
68.90338 275.000
68.92333 220.000
68.94327 204.000
68.96322 230.000
68.98317 222.000
69.00311 208.000
69.02306 250.000
69.04301 241.000
69.06295 239.000
69.08290 233.000
69.10285 249.000
69.12279 258.000
69.14274 242.000
69.16269 232.000
69.18264 244.000
69.20258 240.000
69.22253 237.000
69.24248 256.000
69.26242 250.000
69.28237 228.000
69.30232 247.000
69.32226 215.000
69.34221 257.000
69.36216 236.000
69.38211 228.000
69.40205 208.000
69.42200 219.000
69.44195 257.000
69.46189 252.000
69.48184 232.000
69.50179 244.000
69.52173 235.000
69.54168 248.000
69.56163 232.000
69.58157 256.000
69.60152 236.000
69.62147 250.000
69.64142 230.000
69.66136 251.000
69.68131 243.000
69.70126 233.000
69.72120 229.000
69.74115 243.000
69.76110 224.000
69.78104 230.000
69.80099 248.000
69.82094 232.000
69.84089 253.000
69.86083 224.000
69.88078 236.000
69.90073 260.000
69.92067 239.000
69.94062 216.000
69.96057 198.000
69.98051 250.000
70.00046 256.000
70.02041 240.000
70.04035 219.000
70.06030 238.000
70.08025 238.000
70.10020 215.000
70.12014 221.000
70.14009 250.000
70.16004 208.000
70.17998 251.000
70.19993 207.000
70.21988 236.000
70.23982 235.000
70.25977 227.000
70.27972 222.000
70.29967 220.000
70.31961 238.000
70.33956 229.000
70.35951 242.000
70.37945 216.000
70.39940 252.000
70.41935 206.000
70.43929 239.000
70.45924 248.000
70.47919 242.000
70.49914 219.000
70.51908 239.000
70.53903 230.000
70.55898 241.000
70.57892 238.000
70.59887 253.000
70.61882 230.000
70.63876 262.000
70.65871 244.000
70.67866 210.000
70.69860 233.000
70.71855 248.000
70.73850 214.000
70.75845 236.000
70.77839 233.000
70.79834 244.000
70.81829 228.000
70.83823 237.000
70.85818 259.000
70.87813 228.000
70.89807 230.000
70.91802 245.000
70.93797 233.000
70.95792 225.000
70.97786 239.000
70.99781 232.000
71.01776 232.000
71.03770 215.000
71.05765 228.000
71.07760 243.000
71.09754 255.000
71.11749 229.000
71.13744 222.000
71.15738 253.000
71.17733 221.000
71.19728 232.000
71.21723 212.000
71.23717 244.000
71.25712 251.000
71.27707 184.000
71.29701 233.000
71.31696 221.000
71.33691 265.000
71.35685 248.000
71.37680 264.000
71.39675 253.000
71.41670 234.000
71.43664 243.000
71.45659 250.000
71.47654 231.000
71.49648 245.000
71.51643 267.000
71.53638 252.000
71.55632 218.000
71.57627 252.000
71.59622 249.000
71.61616 234.000
71.63611 243.000
71.65606 232.000
71.67601 245.000
71.69595 250.000
71.71590 244.000
71.73585 232.000
71.75579 252.000
71.77574 234.000
71.79569 235.000
71.81563 226.000
71.83558 222.000
71.85553 227.000
71.87548 283.000
71.89542 257.000
71.91537 247.000
71.93532 245.000
71.95526 247.000
71.97521 239.000
71.99516 224.000
72.01510 228.000
72.03505 269.000
72.05500 228.000
72.07495 261.000
72.09489 221.000
72.11484 279.000
72.13479 268.000
72.15473 239.000
72.17468 270.000
72.19463 241.000
72.21457 257.000
72.23452 220.000
72.25447 279.000
72.27441 261.000
72.29436 273.000
72.31431 312.000
72.33426 269.000
72.35420 307.000
72.37415 303.000
72.39410 282.000
72.41404 310.000
72.43399 325.000
72.45394 313.000
72.47388 308.000
72.49383 283.000
72.51378 278.000
72.53373 280.000
72.55367 295.000
72.57362 282.000
72.59357 252.000
72.61351 293.000
72.63346 262.000
72.65341 273.000
72.67335 265.000
72.69330 258.000
72.71325 270.000
72.73319 257.000
72.75314 290.000
72.77309 254.000
72.79304 237.000
72.81298 246.000
72.83293 237.000
72.85288 252.000
72.87282 183.000
72.89277 263.000
72.91272 225.000
72.93266 254.000
72.95261 237.000
72.97256 218.000
72.99251 248.000
73.01245 236.000
73.03240 273.000
73.05235 232.000
73.07229 238.000
73.09224 247.000
73.11219 245.000
73.13213 223.000
73.15208 254.000
73.17203 248.000
73.19197 252.000
73.21192 236.000
73.23187 248.000
73.25182 252.000
73.27176 242.000
73.29171 278.000
73.31166 241.000
73.33160 251.000
73.35155 272.000
73.37150 282.000
73.39144 317.000
73.41139 278.000
73.43134 289.000
73.45129 332.000
73.47123 301.000
73.49118 315.000
73.51113 335.000
73.53107 327.000
73.55102 340.000
73.57097 315.000
73.59091 352.000
73.61086 346.000
73.63081 346.000
73.65076 333.000
73.67070 304.000
73.69065 333.000
73.71060 317.000
73.73054 305.000
73.75049 295.000
73.77044 351.000
73.79038 297.000
73.81033 325.000
73.83028 282.000
73.85022 280.000
73.87017 288.000
73.89012 281.000
73.91007 255.000
73.93001 246.000
73.94996 271.000
73.96991 279.000
73.98985 252.000
74.00980 253.000
74.02975 250.000
74.04969 252.000
74.06964 235.000
74.08959 256.000
74.10954 230.000
74.12948 239.000
74.14943 243.000
74.16938 253.000
74.18932 246.000
74.20927 243.000
74.22922 214.000
74.24916 240.000
74.26911 214.000
74.28906 227.000
74.30900 230.000
74.32895 285.000
74.34890 255.000
74.36885 240.000
74.38879 233.000
74.40874 235.000
74.42869 221.000
74.44863 252.000
74.46858 216.000
74.48853 242.000
74.50847 248.000
74.52842 226.000
74.54837 264.000
74.56832 243.000
74.58826 254.000
74.60821 261.000
74.62816 257.000
74.64810 247.000
74.66805 245.000
74.68800 253.000
74.70794 249.000
74.72789 249.000
74.74784 238.000
74.76778 265.000
74.78773 249.000
74.80768 290.000
74.82763 244.000
74.84757 276.000
74.86752 275.000
74.88747 269.000
74.90741 277.000
74.92736 286.000
74.94731 294.000
74.96725 333.000
74.98720 362.000
75.00715 320.000
75.02710 304.000
75.04704 299.000
75.06699 292.000
75.08694 289.000
75.10688 276.000
75.12683 316.000
75.14678 302.000
75.16672 320.000
75.18667 350.000
75.20662 355.000
75.22657 351.000
75.24651 342.000
75.26646 304.000
75.28641 293.000
75.30635 307.000
75.32630 301.000
75.34625 267.000
75.36619 301.000
75.38614 287.000
75.40609 296.000
75.42603 270.000
75.44598 272.000
75.46593 287.000
75.48588 267.000
75.50582 274.000
75.52577 279.000
75.54572 280.000
75.56566 287.000
75.58561 285.000
75.60556 286.000
75.62550 288.000
75.64545 265.000
75.66540 279.000
75.68535 305.000
75.70529 232.000
75.72524 250.000
75.74519 271.000
75.76513 295.000
75.78508 291.000
75.80503 238.000
75.82497 271.000
75.84492 266.000
75.86487 300.000
75.88481 253.000
75.90476 272.000
75.92471 260.000
75.94466 260.000
75.96460 273.000
75.98455 234.000
76.00450 282.000
76.02444 265.000
76.04439 228.000
76.06434 263.000
76.08428 239.000
76.10423 250.000
76.12418 257.000
76.14413 261.000
76.16407 224.000
76.18402 254.000
76.20397 252.000
76.22391 248.000
76.24386 239.000
76.26381 236.000
76.28375 259.000
76.30370 250.000
76.32365 234.000
76.34359 240.000
76.36354 256.000
76.38349 243.000
76.40344 261.000
76.42338 251.000
76.44333 252.000
76.46328 245.000
76.48322 228.000
76.50317 241.000
76.52312 230.000
76.54306 239.000
76.56301 260.000
76.58296 226.000
76.60291 251.000
76.62285 224.000
76.64280 240.000
76.66275 232.000
76.68269 254.000
76.70264 248.000
76.72259 238.000
76.74253 249.000
76.76248 276.000
76.78243 250.000
76.80238 239.000
76.82232 213.000
76.84227 259.000
76.86222 252.000
76.88216 234.000
76.90211 245.000
76.92206 226.000
76.94200 237.000
76.96195 231.000
76.98190 219.000
77.00184 259.000
77.02179 268.000
77.04174 246.000
77.06169 281.000
77.08163 218.000
77.10158 230.000
77.12153 241.000
77.14147 227.000
77.16142 243.000
77.18137 247.000
77.20131 249.000
77.22126 235.000
77.24121 262.000
77.26116 244.000
77.28110 229.000
77.30105 244.000
77.32100 239.000
77.34094 231.000
77.36089 242.000
77.38084 256.000
77.40078 253.000
77.42073 258.000
77.44068 241.000
77.46062 242.000
77.48057 242.000
77.50052 246.000
77.52047 257.000
77.54041 253.000
77.56036 254.000
77.58031 231.000
77.60025 249.000
77.62020 238.000
77.64015 258.000
77.66009 275.000
77.68004 258.000
77.69999 261.000
77.71994 265.000
77.73988 261.000
77.75983 268.000
77.77978 242.000
77.79972 285.000
77.81967 296.000
77.83962 315.000
77.85956 285.000
77.87951 298.000
77.89946 311.000
77.91940 327.000
77.93935 346.000
77.95930 354.000
77.97925 341.000
77.99919 319.000
78.01914 348.000
78.03909 339.000
78.05903 391.000
78.07898 354.000
78.09893 382.000
78.11887 399.000
78.13882 407.000
78.15877 378.000
78.17872 373.000
78.19866 378.000
78.21861 388.000
78.23856 392.000
78.25850 404.000
78.27845 381.000
78.29840 385.000
78.31834 372.000
78.33829 367.000
78.35824 368.000
78.37819 345.000
78.39813 366.000
78.41808 354.000
78.43803 314.000
78.45797 313.000
78.47792 325.000
78.49787 305.000
78.51781 302.000
78.53776 281.000
78.55771 310.000
78.57765 284.000
78.59760 251.000
78.61755 284.000
78.63750 239.000
78.65744 250.000
78.67739 238.000
78.69734 244.000
78.71728 266.000
78.73723 235.000
78.75718 254.000
78.77712 252.000
78.79707 242.000
78.81702 256.000
78.83697 239.000
78.85691 262.000
78.87686 247.000
78.89681 238.000
78.91675 246.000
78.93670 243.000
78.95665 246.000
78.97659 239.000
78.99654 228.000
79.01649 231.000
79.03643 253.000
79.05638 206.000
79.07633 259.000
79.09628 247.000
79.11622 236.000
79.13617 219.000
79.15612 237.000
79.17606 235.000
79.19601 252.000
79.21596 210.000
79.23590 239.000
79.25585 243.000
79.27580 249.000
79.29575 247.000
79.31569 255.000
79.33564 245.000
79.35559 249.000
79.37553 238.000
79.39548 225.000
79.41543 212.000
79.43537 265.000
79.45532 241.000
79.47527 245.000
79.49521 204.000
79.51516 238.000
79.53511 250.000
79.55506 233.000
79.57500 251.000
79.59495 234.000
79.61490 241.000
79.63484 225.000
79.65479 248.000
79.67474 245.000
79.69468 241.000
79.71463 234.000
79.73458 247.000
79.75453 263.000
79.77447 215.000
79.79442 261.000
79.81437 262.000
79.83431 253.000
79.85426 236.000
79.87421 250.000
79.89415 241.000
79.91410 235.000
79.93405 216.000
79.95399 259.000
79.97394 250.000
79.99389 235.000
80.01384 207.000
80.03378 251.000
80.05373 262.000
80.07368 240.000
80.09362 265.000
80.11357 231.000
80.13352 260.000
80.15346 262.000
80.17341 243.000
80.19336 254.000
80.21331 250.000
80.23325 267.000
80.25320 250.000
80.27315 257.000
80.29309 247.000
80.31304 230.000
80.33299 257.000
80.35293 253.000
80.37288 256.000
80.39283 268.000
80.41278 232.000
80.43272 249.000
80.45267 273.000
80.47262 253.000
80.49256 247.000
80.51251 271.000
80.53246 265.000
80.55240 266.000
80.57235 238.000
80.59230 234.000
80.61224 254.000
80.63219 261.000
80.65214 250.000
80.67209 235.000
80.69203 236.000
80.71198 257.000
80.73193 247.000
80.75187 269.000
80.77182 272.000
80.79177 236.000
80.81171 240.000
80.83166 241.000
80.85161 240.000
80.87156 236.000
80.89150 260.000
80.91145 249.000
80.93140 240.000
80.95134 248.000
80.97129 254.000
80.99124 231.000
81.01118 259.000
81.03113 233.000
81.05108 232.000
81.07102 231.000
81.09097 239.000
81.11092 247.000
81.13087 242.000
81.15081 249.000
81.17076 252.000
81.19071 229.000
81.21065 232.000
81.23060 202.000
81.25055 211.000
81.27049 227.000
81.29044 218.000
81.31039 251.000
81.33034 228.000
81.35028 240.000
81.37023 218.000
81.39018 239.000
81.41012 233.000
81.43007 220.000
81.45002 237.000
81.46996 227.000
81.48991 230.000
81.50986 212.000
81.52980 224.000
81.54975 235.000
81.56970 232.000
81.58965 231.000
81.60959 250.000
81.62954 256.000
81.64949 229.000
81.66943 196.000
81.68938 234.000
81.70933 215.000
81.72927 221.000
81.74922 267.000
81.76917 213.000
81.78912 243.000
81.80906 220.000
81.82901 245.000
81.84896 215.000
81.86890 231.000
81.88885 251.000
81.90880 238.000
81.92874 246.000
81.94869 229.000
81.96864 225.000
81.98859 257.000
82.00853 230.000
82.02848 234.000
82.04843 252.000
82.06837 271.000
82.08832 244.000
82.10827 225.000
82.12821 234.000
82.14816 226.000
82.16811 252.000
82.18805 258.000
82.20800 227.000
82.22795 214.000
82.24790 247.000
82.26784 264.000
82.28779 211.000
82.30774 257.000
82.32768 240.000
82.34763 262.000
82.36758 234.000
82.38752 277.000
82.40747 267.000
82.42742 299.000
82.44737 276.000
82.46731 268.000
82.48726 302.000
82.50721 288.000
82.52715 237.000
82.54710 258.000
82.56705 298.000
82.58699 290.000
82.60694 276.000
82.62689 283.000
82.64683 284.000
82.66678 273.000
82.68673 291.000
82.70668 233.000
82.72662 232.000
82.74657 244.000
82.76652 266.000
82.78646 249.000
82.80641 278.000
82.82636 261.000
82.84630 246.000
82.86625 264.000
82.88620 277.000
82.90615 283.000
82.92609 251.000
82.94604 274.000
82.96599 260.000
82.98593 285.000
83.00588 290.000
83.02583 297.000
83.04577 265.000
83.06572 255.000
83.08567 254.000
83.10561 273.000
83.12556 262.000
83.14551 280.000
83.16546 267.000
83.18540 268.000
83.20535 262.000
83.22530 268.000
83.24524 257.000
83.26519 263.000
83.28514 255.000
83.30508 246.000
83.32503 244.000
83.34498 255.000
83.36493 292.000
83.38487 267.000
83.40482 254.000
83.42477 239.000
83.44471 261.000
83.46466 258.000
83.48461 240.000
83.50455 284.000
83.52450 274.000
83.54445 264.000
83.56440 256.000
83.58434 260.000
83.60429 238.000
83.62424 267.000
83.64418 276.000
83.66413 269.000
83.68408 257.000
83.70402 251.000
83.72397 264.000
83.74392 270.000
83.76386 270.000
83.78381 246.000
83.80376 277.000
83.82371 267.000
83.84365 259.000
83.86360 242.000
83.88355 265.000
83.90349 274.000
83.92344 274.000
83.94339 273.000
83.96333 259.000
83.98328 260.000
84.00323 226.000
84.02318 262.000
84.04312 251.000
84.06307 282.000
84.08302 251.000
84.10296 253.000
84.12291 262.000
84.14286 264.000
84.16280 251.000
84.18275 240.000
84.20270 253.000
84.22264 267.000
84.24259 265.000
84.26254 279.000
84.28249 255.000
84.30243 244.000
84.32238 249.000
84.34233 290.000
84.36227 288.000
84.38222 280.000
84.40217 263.000
84.42211 290.000
84.44206 280.000
84.46201 315.000
84.48196 326.000
84.50190 313.000
84.52185 329.000
84.54180 326.000
84.56174 349.000
84.58169 325.000
84.60164 327.000
84.62158 325.000
84.64153 360.000
84.66148 337.000
84.68142 335.000
84.70137 347.000
84.72132 324.000
84.74127 311.000
84.76121 307.000
84.78116 316.000
84.80111 328.000
84.82105 315.000
84.84100 323.000
84.86095 304.000
84.88089 306.000
84.90084 301.000
84.92079 322.000
84.94074 275.000
84.96068 281.000
84.98063 248.000
85.00058 264.000
85.02052 233.000
85.04047 285.000
85.06042 259.000
85.08036 205.000
85.10031 251.000
85.12026 268.000
85.14021 249.000
85.16015 243.000
85.18010 217.000
85.20005 229.000
85.21999 267.000
85.23994 230.000
85.25989 266.000
85.27983 254.000
85.29978 240.000
85.31973 250.000
85.33967 227.000
85.35962 248.000
85.37957 232.000
85.39952 245.000
85.41946 248.000
85.43941 225.000
85.45936 255.000
85.47930 200.000
85.49925 249.000
85.51920 254.000
85.53914 256.000
85.55909 244.000
85.57904 246.000
85.59899 229.000
85.61893 238.000
85.63888 243.000
85.65883 233.000
85.67877 223.000
85.69872 217.000
85.71867 242.000
85.73861 223.000
85.75856 223.000
85.77851 244.000
85.79845 244.000
85.81840 230.000
85.83835 240.000
85.85830 206.000
85.87824 218.000
85.89819 251.000
85.91814 226.000
85.93808 218.000
85.95803 244.000
85.97798 212.000
85.99792 212.000
86.01787 239.000
86.03782 221.000
86.05777 213.000
86.07771 242.000
86.09766 217.000
86.11761 253.000
86.13755 227.000
86.15750 239.000
86.17745 215.000
86.19739 212.000
86.21734 237.000
86.23729 242.000
86.25723 225.000
86.27718 229.000
86.29713 249.000
86.31708 228.000
86.33702 236.000
86.35697 226.000
86.37692 227.000
86.39686 242.000
86.41681 230.000
86.43676 227.000
86.45670 239.000
86.47665 260.000
86.49660 210.000
86.51655 219.000
86.53649 239.000
86.55644 255.000
86.57639 235.000
86.59633 225.000
86.61628 224.000
86.63623 230.000
86.65617 238.000
86.67612 254.000
86.69607 264.000
86.71602 250.000
86.73596 262.000
86.75591 277.000
86.77586 250.000
86.79580 269.000
86.81575 283.000
86.83570 261.000
86.85564 256.000
86.87559 236.000
86.89554 258.000
86.91548 263.000
86.93543 237.000
86.95538 238.000
86.97533 263.000
86.99527 260.000
87.01522 274.000
87.03517 259.000
87.05511 266.000
87.07506 263.000
87.09501 263.000
87.11495 248.000
87.13490 278.000
87.15485 270.000
87.17480 261.000
87.19474 278.000
87.21469 279.000
87.23464 301.000
87.25458 274.000
87.27453 292.000
87.29448 242.000
87.31442 309.000
87.33437 247.000
87.35432 229.000
87.37426 257.000
87.39421 265.000
87.41416 267.000
87.43411 251.000
87.45405 252.000
87.47400 262.000
87.49395 284.000
87.51389 256.000
87.53384 235.000
87.55379 262.000
87.57373 251.000
87.59368 252.000
87.61363 270.000
87.63358 281.000
87.65352 241.000
87.67347 267.000
87.69342 253.000
87.71336 253.000
87.73331 264.000
87.75326 256.000
87.77320 240.000
87.79315 257.000
87.81310 228.000
87.83304 234.000
87.85299 255.000
87.87294 234.000
87.89289 246.000
87.91283 269.000
87.93278 233.000
87.95273 241.000
87.97267 245.000
87.99262 272.000
88.01257 242.000
88.03251 244.000
88.05246 236.000
88.07241 259.000
88.09236 222.000
88.11230 236.000
88.13225 240.000
88.15220 245.000
88.17214 217.000
88.19209 218.000
88.21204 202.000
88.23198 259.000
88.25193 229.000
88.27188 222.000
88.29183 214.000
88.31177 236.000
88.33172 257.000
88.35167 261.000
88.37161 225.000
88.39156 241.000
88.41151 235.000
88.43145 241.000
88.45140 229.000
88.47135 233.000
88.49129 264.000
88.51124 223.000
88.53119 213.000
88.55114 231.000
88.57108 250.000
88.59103 232.000
88.61098 259.000
88.63092 236.000
88.65087 258.000
88.67082 250.000
88.69076 225.000
88.71071 243.000
88.73066 240.000
88.75061 223.000
88.77055 253.000
88.79050 226.000
88.81045 251.000
88.83039 195.000
88.85034 239.000
88.87029 247.000
88.89023 262.000
88.91018 237.000
88.93013 249.000
88.95007 224.000
88.97002 240.000
88.98997 239.000
89.00992 233.000
89.02986 226.000
89.04981 255.000
89.06976 241.000
89.08970 243.000
89.10965 248.000
89.12960 256.000
89.14954 239.000
89.16949 206.000
89.18944 250.000
89.20939 254.000
89.22933 249.000
89.24928 249.000
89.26923 227.000
89.28917 241.000
89.30912 264.000
89.32907 245.000
89.34901 240.000
89.36896 208.000
89.38891 275.000
89.40885 251.000
89.42880 261.000
89.44875 275.000
89.46870 239.000
89.48864 266.000
89.50859 219.000
89.52854 274.000
89.54848 279.000
89.56843 247.000
89.58838 274.000
89.60832 248.000
89.62827 276.000
89.64822 271.000
89.66817 266.000
89.68811 252.000
89.70806 293.000
89.72801 272.000
89.74795 286.000
89.76790 238.000
89.78785 265.000
89.80779 275.000
89.82774 269.000
89.84769 266.000
89.86764 259.000
89.88758 229.000
89.90753 272.000
89.92748 243.000
89.94742 229.000
89.96737 250.000
89.98732 266.000
90.00726 262.000
