10.00000 52.000
10.01995 63.000
10.03989 54.000
10.05984 65.000
10.07979 50.000
10.09973 39.000
10.11968 58.000
10.13963 57.000
10.15958 59.000
10.17952 65.000
10.19947 54.000
10.21942 40.000
10.23936 54.000
10.25931 58.000
10.27926 54.000
10.29920 46.000
10.31915 56.000
10.33910 70.000
10.35905 46.000
10.37899 43.000
10.39894 46.000
10.41889 64.000
10.43883 57.000
10.45878 58.000
10.47873 53.000
10.49867 52.000
10.51862 59.000
10.53857 59.000
10.55851 55.000
10.57846 54.000
10.59841 51.000
10.61836 45.000
10.63830 49.000
10.65825 44.000
10.67820 55.000
10.69814 48.000
10.71809 44.000
10.73804 42.000
10.75798 59.000
10.77793 47.000
10.79788 34.000
10.81783 43.000
10.83777 40.000
10.85772 66.000
10.87767 63.000
10.89761 50.000
10.91756 58.000
10.93751 52.000
10.95745 39.000
10.97740 55.000
10.99735 47.000
11.01730 62.000
11.03724 40.000
11.05719 49.000
11.07714 62.000
11.09708 50.000
11.11703 62.000
11.13698 53.000
11.15692 52.000
11.17687 38.000
11.19682 46.000
11.21676 54.000
11.23671 53.000
11.25666 54.000
11.27661 55.000
11.29655 58.000
11.31650 61.000
11.33645 53.000
11.35639 60.000
11.37634 55.000
11.39629 42.000
11.41623 53.000
11.43618 50.000
11.45613 47.000
11.47608 57.000
11.49602 38.000
11.51597 42.000
11.53592 49.000
11.55586 47.000
11.57581 46.000
11.59576 47.000
11.61570 43.000
11.63565 57.000
11.65560 58.000
11.67554 48.000
11.69549 53.000
11.71544 52.000
11.73539 50.000
11.75533 39.000
11.77528 47.000
11.79523 53.000
11.81517 50.000
11.83512 49.000
11.85507 51.000
11.87501 36.000
11.89496 46.000
11.91491 47.000
11.93486 53.000
11.95480 38.000
11.97475 44.000
11.99470 45.000
12.01464 60.000
12.03459 41.000
12.05454 50.000
12.07448 48.000
12.09443 43.000
12.11438 48.000
12.13432 58.000
12.15427 57.000
12.17422 49.000
12.19417 44.000
12.21411 50.000
12.23406 53.000
12.25401 51.000
12.27395 50.000
12.29390 51.000
12.31385 35.000
12.33379 47.000
12.35374 45.000
12.37369 56.000
12.39364 41.000
12.41358 59.000
12.43353 58.000
12.45348 50.000
12.47342 43.000
12.49337 43.000
12.51332 38.000
12.53326 57.000
12.55321 51.000
12.57316 48.000
12.59311 46.000
12.61305 41.000
12.63300 55.000
12.65295 44.000
12.67289 49.000
12.69284 44.000
12.71279 38.000
12.73273 43.000
12.75268 41.000
12.77263 49.000
12.79257 30.000
12.81252 49.000
12.83247 41.000
12.85242 53.000
12.87236 46.000
12.89231 47.000
12.91226 38.000
12.93220 58.000
12.95215 55.000
12.97210 52.000
12.99204 49.000
13.01199 60.000
13.03194 48.000
13.05189 46.000
13.07183 55.000
13.09178 44.000
13.11173 43.000
13.13167 44.000
13.15162 57.000
13.17157 38.000
13.19151 57.000
13.21146 41.000
13.23141 46.000
13.25135 43.000
13.27130 48.000
13.29125 48.000
13.31120 33.000
13.33114 51.000
13.35109 45.000
13.37104 54.000
13.39098 54.000
13.41093 47.000
13.43088 51.000
13.45082 48.000
13.47077 54.000
13.49072 52.000
13.51067 37.000
13.53061 53.000
13.55056 31.000
13.57051 47.000
13.59045 48.000
13.61040 39.000
13.63035 45.000
13.65029 67.000
13.67024 59.000
13.69019 39.000
13.71013 41.000
13.73008 56.000
13.75003 65.000
13.76998 51.000
13.78992 50.000
13.80987 57.000
13.82982 42.000
13.84976 48.000
13.86971 49.000
13.88966 49.000
13.90960 57.000
13.92955 58.000
13.94950 41.000
13.96945 44.000
13.98939 53.000
14.00934 41.000
14.02929 49.000
14.04923 49.000
14.06918 53.000
14.08913 38.000
14.10907 49.000
14.12902 51.000
14.14897 39.000
14.16892 56.000
14.18886 47.000
14.20881 59.000
14.22876 51.000
14.24870 59.000
14.26865 45.000
14.28860 48.000
14.30854 50.000
14.32849 55.000
14.34844 63.000
14.36838 60.000
14.38833 35.000
14.40828 46.000
14.42823 52.000
14.44817 45.000
14.46812 71.000
14.48807 38.000
14.50801 59.000
14.52796 56.000
14.54791 49.000
14.56785 57.000
14.58780 57.000
14.60775 45.000
14.62770 56.000
14.64764 52.000
14.66759 63.000
14.68754 64.000
14.70748 56.000
14.72743 57.000
14.74738 50.000
14.76732 49.000
14.78727 55.000
14.80722 57.000
14.82716 67.000
14.84711 59.000
14.86706 62.000
14.88701 49.000
14.90695 66.000
14.92690 57.000
14.94685 62.000
14.96679 59.000
14.98674 52.000
15.00669 66.000
15.02663 62.000
15.04658 42.000
15.06653 51.000
15.08648 67.000
15.10642 59.000
15.12637 65.000
15.14632 65.000
15.16626 54.000
15.18621 75.000
15.20616 77.000
15.22610 54.000
15.24605 74.000
15.26600 52.000
15.28594 60.000
15.30589 69.000
15.32584 72.000
15.34579 70.000
15.36573 63.000
15.38568 77.000
15.40563 71.000
15.42557 72.000
15.44552 83.000
15.46547 82.000
15.48541 80.000
15.50536 90.000
15.52531 86.000
15.54526 93.000
15.56520 96.000
15.58515 110.000
15.60510 141.000
15.62504 161.000
15.64499 168.000
15.66494 202.000
15.68488 204.000
15.70483 207.000
15.72478 173.000
15.74472 154.000
15.76467 149.000
15.78462 127.000
15.80457 123.000
15.82451 137.000
15.84446 117.000
15.86441 141.000
15.88435 176.000
15.90430 167.000
15.92425 146.000
15.94419 136.000
15.96414 174.000
15.98409 143.000
16.00404 142.000
16.02398 146.000
16.04393 168.000
16.06388 148.000
16.08382 165.000
16.10377 167.000
16.12372 188.000
16.14366 192.000
16.16361 212.000
16.18356 245.000
16.20351 212.000
16.22345 274.000
16.24340 330.000
16.26335 344.000
16.28329 385.000
16.30324 442.000
16.32319 505.000
16.34313 685.000
16.36308 809.000
16.38303 1084.000
16.40297 1389.000
16.42292 1774.000
16.44287 2137.000
16.46282 2436.000
16.48276 2486.000
16.50271 2266.000
16.52266 1846.000
16.54260 1395.000
16.56255 996.000
16.58250 760.000
16.60244 581.000
16.62239 504.000
16.64234 391.000
16.66229 374.000
16.68223 337.000
16.70218 262.000
16.72213 293.000
16.74207 251.000
16.76202 225.000
16.78197 234.000
16.80191 210.000
16.82186 201.000
16.84181 177.000
16.86175 182.000
16.88170 179.000
16.90165 143.000
16.92160 149.000
16.94154 142.000
16.96149 151.000
16.98144 161.000
17.00138 127.000
17.02133 147.000
17.04128 118.000
17.06122 128.000
17.08117 109.000
17.10112 109.000
17.12107 111.000
17.14101 100.000
17.16096 127.000
17.18091 115.000
17.20085 85.000
17.22080 113.000
17.24075 98.000
17.26069 82.000
17.28064 109.000
17.30059 106.000
17.32053 89.000
17.34048 111.000
17.36043 122.000
17.38038 102.000
17.40032 91.000
17.42027 83.000
17.44022 90.000
17.46016 77.000
17.48011 94.000
17.50006 91.000
17.52000 76.000
17.53995 77.000
17.55990 85.000
17.57985 72.000
17.59979 70.000
17.61974 69.000
17.63969 78.000
17.65963 71.000
17.67958 80.000
17.69953 67.000
17.71947 66.000
17.73942 67.000
17.75937 67.000
17.77932 64.000
17.79926 61.000
17.81921 66.000
17.83916 66.000
17.85910 79.000
17.87905 63.000
17.89900 62.000
17.91894 65.000
17.93889 57.000
17.95884 60.000
17.97878 58.000
17.99873 71.000
18.01868 67.000
18.03863 53.000
18.05857 65.000
18.07852 74.000
18.09847 67.000
18.11841 58.000
18.13836 66.000
18.15831 69.000
18.17825 104.000
18.19820 108.000
18.21815 93.000
18.23810 99.000
18.25804 120.000
18.27799 96.000
18.29794 89.000
18.31788 78.000
18.33783 91.000
18.35778 80.000
18.37772 97.000
18.39767 80.000
18.41762 67.000
18.43756 60.000
18.45751 68.000
18.47746 55.000
18.49741 53.000
18.51735 54.000
18.53730 52.000
18.55725 50.000
18.57719 40.000
18.59714 61.000
18.61709 60.000
18.63703 57.000
18.65698 54.000
18.67693 49.000
18.69688 36.000
18.71682 40.000
18.73677 62.000
18.75672 64.000
18.77666 44.000
18.79661 64.000
18.81656 49.000
18.83650 43.000
18.85645 50.000
18.87640 56.000
18.89634 56.000
18.91629 43.000
18.93624 47.000
18.95619 35.000
18.97613 52.000
18.99608 50.000
19.01603 49.000
19.03597 36.000
19.05592 48.000
19.07587 31.000
19.09581 50.000
19.11576 39.000
19.13571 55.000
19.15566 55.000
19.17560 38.000
19.19555 52.000
19.21550 45.000
19.23544 47.000
19.25539 45.000
19.27534 43.000
19.29528 42.000
19.31523 39.000
19.33518 37.000
19.35513 45.000
19.37507 37.000
19.39502 42.000
19.41497 44.000
19.43491 41.000
19.45486 53.000
19.47481 42.000
19.49475 33.000
19.51470 43.000
19.53465 41.000
19.55459 32.000
19.57454 53.000
19.59449 40.000
19.61444 38.000
19.63438 51.000
19.65433 43.000
19.67428 47.000
19.69422 45.000
19.71417 50.000
19.73412 47.000
19.75406 43.000
19.77401 40.000
19.79396 37.000
19.81391 52.000
19.83385 54.000
19.85380 36.000
19.87375 39.000
19.89369 43.000
19.91364 36.000
19.93359 43.000
19.95353 45.000
19.97348 48.000
19.99343 44.000
20.01337 63.000
20.03332 47.000
20.05327 51.000
20.07322 41.000
20.09316 44.000
20.11311 43.000
20.13306 40.000
20.15300 52.000
20.17295 36.000
20.19290 44.000
20.21284 46.000
20.23279 34.000
20.25274 42.000
20.27269 47.000
20.29263 37.000
20.31258 65.000
20.33253 51.000
20.35247 53.000
20.37242 58.000
20.39237 52.000
20.41231 42.000
20.43226 56.000
20.45221 62.000
20.47215 73.000
20.49210 94.000
20.51205 104.000
20.53200 120.000
20.55194 131.000
20.57189 127.000
20.59184 114.000
20.61178 136.000
20.63173 126.000
20.65168 158.000
20.67162 144.000
20.69157 144.000
20.71152 153.000
20.73147 181.000
20.75141 171.000
20.77136 142.000
20.79131 139.000
20.81125 128.000
20.83120 115.000
20.85115 103.000
20.87109 108.000
20.89104 90.000
20.91099 84.000
20.93094 94.000
20.95088 68.000
20.97083 75.000
20.99078 64.000
21.01072 62.000
21.03067 51.000
21.05062 41.000
21.07056 42.000
21.09051 54.000
21.11046 61.000
21.13040 34.000
21.15035 39.000
21.17030 42.000
21.19025 28.000
21.21019 44.000
21.23014 42.000
21.25009 45.000
21.27003 40.000
21.28998 44.000
21.30993 48.000
21.32987 49.000
21.34982 32.000
21.36977 24.000
21.38972 40.000
21.40966 49.000
21.42961 38.000
21.44956 37.000
21.46950 45.000
21.48945 37.000
21.50940 56.000
21.52934 37.000
21.54929 57.000
21.56924 45.000
21.58918 39.000
21.60913 48.000
21.62908 39.000
21.64903 28.000
21.66897 50.000
21.68892 33.000
21.70887 45.000
21.72881 38.000
21.74876 41.000
21.76871 36.000
21.78865 36.000
21.80860 41.000
21.82855 52.000
21.84850 51.000
21.86844 41.000
21.88839 35.000
21.90834 49.000
21.92828 40.000
21.94823 39.000
21.96818 44.000
21.98812 47.000
22.00807 40.000
22.02802 29.000
22.04796 37.000
22.06791 34.000
22.08786 42.000
22.10781 49.000
22.12775 44.000
22.14770 35.000
22.16765 53.000
22.18759 53.000
22.20754 50.000
22.22749 38.000
22.24743 35.000
22.26738 35.000
22.28733 45.000
22.30728 50.000
22.32722 36.000
22.34717 43.000
22.36712 41.000
22.38706 43.000
22.40701 38.000
22.42696 37.000
22.44690 45.000
22.46685 35.000
22.48680 38.000
22.50675 47.000
22.52669 31.000
22.54664 37.000
22.56659 46.000
22.58653 41.000
22.60648 51.000
22.62643 44.000
22.64637 42.000
22.66632 37.000
22.68627 42.000
22.70621 44.000
22.72616 37.000
22.74611 47.000
22.76606 28.000
22.78600 42.000
22.80595 39.000
22.82590 46.000
22.84584 48.000
22.86579 42.000
22.88574 46.000
22.90568 44.000
22.92563 43.000
22.94558 39.000
22.96553 42.000
22.98547 50.000
23.00542 46.000
23.02537 25.000
23.04531 43.000
23.06526 39.000
23.08521 33.000
23.10515 37.000
23.12510 48.000
23.14505 63.000
23.16499 36.000
23.18494 37.000
23.20489 40.000
23.22484 44.000
23.24478 35.000
23.26473 41.000
23.28468 35.000
23.30462 47.000
23.32457 32.000
23.34452 48.000
23.36446 43.000
23.38441 46.000
23.40436 44.000
23.42431 39.000
23.44425 40.000
23.46420 45.000
23.48415 48.000
23.50409 45.000
23.52404 43.000
23.54399 54.000
23.56393 40.000
23.58388 37.000
23.60383 49.000
23.62377 34.000
23.64372 53.000
23.66367 39.000
23.68362 46.000
23.70356 38.000
23.72351 37.000
23.74346 38.000
23.76340 44.000
23.78335 46.000
23.80330 45.000
23.82324 47.000
23.84319 41.000
23.86314 28.000
23.88309 44.000
23.90303 44.000
23.92298 28.000
23.94293 38.000
23.96287 46.000
23.98282 40.000
24.00277 35.000
24.02271 48.000
24.04266 44.000
24.06261 57.000
24.08256 37.000
24.10250 47.000
24.12245 47.000
24.14240 36.000
24.16234 39.000
24.18229 47.000
24.20224 37.000
24.22218 50.000
24.24213 50.000
24.26208 46.000
24.28202 35.000
24.30197 32.000
24.32192 46.000
24.34187 54.000
24.36181 41.000
24.38176 41.000
24.40171 39.000
24.42165 42.000
24.44160 41.000
24.46155 33.000
24.48149 39.000
24.50144 46.000
24.52139 37.000
24.54134 50.000
24.56128 45.000
24.58123 43.000
24.60118 47.000
24.62112 42.000
24.64107 48.000
24.66102 38.000
24.68096 45.000
24.70091 36.000
24.72086 61.000
24.74080 48.000
24.76075 44.000
24.78070 49.000
24.80065 52.000
24.82059 34.000
24.84054 42.000
24.86049 37.000
24.88043 43.000
24.90038 49.000
24.92033 62.000
24.94027 50.000
24.96022 38.000
24.98017 51.000
25.00012 53.000
25.02006 40.000
25.04001 45.000
25.05996 41.000
25.07990 40.000
25.09985 52.000
25.11980 41.000
25.13974 42.000
25.15969 40.000
25.17964 44.000
25.19958 41.000
25.21953 45.000
25.23948 46.000
25.25943 56.000
25.27937 36.000
25.29932 42.000
25.31927 43.000
25.33921 44.000
25.35916 39.000
25.37911 43.000
25.39905 32.000
25.41900 36.000
25.43895 41.000
25.45890 33.000
25.47884 39.000
25.49879 47.000
25.51874 47.000
25.53868 34.000
25.55863 35.000
25.57858 34.000
25.59852 29.000
25.61847 43.000
25.63842 57.000
25.65837 54.000
25.67831 49.000
25.69826 38.000
25.71821 36.000
25.73815 55.000
25.75810 46.000
25.77805 43.000
25.79799 44.000
25.81794 32.000
25.83789 40.000
25.85783 52.000
25.87778 46.000
25.89773 44.000
25.91768 41.000
25.93762 41.000
25.95757 47.000
25.97752 44.000
25.99746 45.000
26.01741 45.000
26.03736 45.000
26.05730 44.000
26.07725 54.000
26.09720 38.000
26.11715 34.000
26.13709 38.000
26.15704 56.000
26.17699 45.000
26.19693 39.000
26.21688 52.000
26.23683 50.000
26.25677 52.000
26.27672 41.000
26.29667 48.000
26.31661 39.000
26.33656 37.000
26.35651 44.000
26.37646 43.000
26.39640 37.000
26.41635 38.000
26.43630 51.000
26.45624 33.000
26.47619 39.000
26.49614 36.000
26.51608 40.000
26.53603 31.000
26.55598 57.000
26.57593 49.000
26.59587 52.000
26.61582 36.000
26.63577 57.000
26.65571 52.000
26.67566 45.000
26.69561 55.000
26.71555 50.000
26.73550 45.000
26.75545 42.000
26.77539 48.000
26.79534 42.000
26.81529 34.000
26.83524 35.000
26.85518 34.000
26.87513 59.000
26.89508 40.000
26.91502 49.000
26.93497 45.000
26.95492 40.000
26.97486 46.000
26.99481 45.000
27.01476 40.000
27.03471 40.000
27.05465 40.000
27.07460 53.000
27.09455 51.000
27.11449 42.000
27.13444 34.000
27.15439 41.000
27.17433 41.000
27.19428 53.000
27.21423 53.000
27.23417 48.000
27.25412 36.000
27.27407 38.000
27.29402 42.000
27.31396 42.000
27.33391 46.000
27.35386 53.000
27.37380 35.000
27.39375 47.000
27.41370 45.000
27.43364 42.000
27.45359 41.000
27.47354 48.000
27.49349 61.000
27.51343 38.000
27.53338 47.000
27.55333 45.000
27.57327 45.000
27.59322 48.000
27.61317 44.000
27.63311 47.000
27.65306 53.000
27.67301 49.000
27.69296 49.000
27.71290 49.000
27.73285 44.000
27.75280 40.000
27.77274 37.000
27.79269 49.000
27.81264 49.000
27.83258 46.000
27.85253 44.000
27.87248 38.000
27.89242 36.000
27.91237 49.000
27.93232 43.000
27.95227 31.000
27.97221 49.000
27.99216 50.000
28.01211 49.000
28.03205 44.000
28.05200 42.000
28.07195 40.000
28.09189 58.000
28.11184 53.000
28.13179 31.000
28.15174 51.000
28.17168 39.000
28.19163 43.000
28.21158 47.000
28.23152 58.000
28.25147 37.000
28.27142 35.000
28.29136 60.000
28.31131 47.000
28.33126 51.000
28.35120 45.000
28.37115 33.000
28.39110 47.000
28.41105 45.000
28.43099 42.000
28.45094 43.000
28.47089 48.000
28.49083 45.000
28.51078 56.000
28.53073 57.000
28.55067 44.000
28.57062 37.000
28.59057 44.000
28.61052 42.000
28.63046 42.000
28.65041 45.000
28.67036 48.000
28.69030 46.000
28.71025 45.000
28.73020 64.000
28.75014 50.000
28.77009 40.000
28.79004 37.000
28.80998 48.000
28.82993 39.000
28.84988 36.000
28.86983 49.000
28.88977 46.000
28.90972 38.000
28.92967 47.000
28.94961 40.000
28.96956 49.000
28.98951 47.000
29.00945 37.000
29.02940 41.000
29.04935 39.000
29.06930 48.000
29.08924 39.000
29.10919 48.000
29.12914 45.000
29.14908 50.000
29.16903 45.000
29.18898 41.000
29.20892 41.000
29.22887 54.000
29.24882 50.000
29.26877 50.000
29.28871 61.000
29.30866 57.000
29.32861 58.000
29.34855 69.000
29.36850 75.000
29.38845 68.000
29.40839 52.000
29.42834 67.000
29.44829 74.000
29.46823 79.000
29.48818 85.000
29.50813 82.000
29.52808 75.000
29.54802 71.000
29.56797 58.000
29.58792 66.000
29.60786 76.000
29.62781 47.000
29.64776 68.000
29.66770 47.000
29.68765 76.000
29.70760 56.000
29.72755 60.000
29.74749 57.000
29.76744 72.000
29.78739 56.000
29.80733 47.000
29.82728 71.000
29.84723 78.000
29.86717 64.000
29.88712 96.000
29.90707 107.000
29.92701 121.000
29.94696 129.000
29.96691 129.000
29.98686 133.000
30.00680 145.000
30.02675 127.000
30.04670 113.000
30.06664 139.000
30.08659 154.000
30.10654 114.000
30.12648 141.000
30.14643 127.000
30.16638 116.000
30.18633 108.000
30.20627 99.000
30.22622 95.000
30.24617 82.000
30.26611 73.000
30.28606 72.000
30.30601 85.000
30.32595 76.000
30.34590 93.000
30.36585 57.000
30.38579 58.000
30.40574 66.000
30.42569 61.000
30.44564 61.000
30.46558 57.000
30.48553 53.000
30.50548 48.000
30.52542 49.000
30.54537 45.000
30.56532 60.000
30.58526 59.000
30.60521 51.000
30.62516 62.000
30.64511 45.000
30.66505 55.000
30.68500 58.000
30.70495 51.000
30.72489 54.000
30.74484 49.000
30.76479 55.000
30.78473 50.000
30.80468 36.000
30.82463 49.000
30.84458 48.000
30.86452 55.000
30.88447 43.000
30.90442 38.000
30.92436 54.000
30.94431 51.000
30.96426 60.000
30.98420 42.000
31.00415 51.000
31.02410 40.000
31.04404 42.000
31.06399 40.000
31.08394 52.000
31.10389 45.000
31.12383 40.000
31.14378 49.000
31.16373 48.000
31.18367 61.000
31.20362 52.000
31.22357 52.000
31.24351 51.000
31.26346 45.000
31.28341 47.000
31.30336 55.000
31.32330 49.000
31.34325 38.000
31.36320 45.000
31.38314 52.000
31.40309 49.000
31.42304 36.000
31.44298 58.000
31.46293 49.000
31.48288 47.000
31.50282 55.000
31.52277 48.000
31.54272 44.000
31.56267 46.000
31.58261 79.000
31.60256 58.000
31.62251 50.000
31.64245 57.000
31.66240 58.000
31.68235 55.000
31.70229 50.000
31.72224 54.000
31.74219 58.000
31.76214 57.000
31.78208 64.000
31.80203 64.000
31.82198 51.000
31.84192 66.000
31.86187 57.000
31.88182 58.000
31.90176 50.000
31.92171 46.000
31.94166 58.000
31.96160 42.000
31.98155 58.000
32.00150 44.000
32.02145 61.000
32.04139 56.000
32.06134 54.000
32.08129 41.000
32.10123 57.000
32.12118 57.000
32.14113 44.000
32.16107 68.000
32.18102 54.000
32.20097 57.000
32.22092 47.000
32.24086 44.000
32.26081 65.000
32.28076 53.000
32.30070 50.000
32.32065 48.000
32.34060 58.000
32.36054 69.000
32.38049 54.000
32.40044 52.000
32.42039 56.000
32.44033 54.000
32.46028 42.000
32.48023 56.000
32.50017 72.000
32.52012 47.000
32.54007 52.000
32.56001 48.000
32.57996 61.000
32.59991 54.000
32.61985 54.000
32.63980 61.000
32.65975 59.000
32.67970 62.000
32.69964 57.000
32.71959 70.000
32.73954 59.000
32.75948 65.000
32.77943 58.000
32.79938 54.000
32.81932 70.000
32.83927 67.000
32.85922 55.000
32.87917 61.000
32.89911 70.000
32.91906 67.000
32.93901 67.000
32.95895 68.000
32.97890 71.000
32.99885 80.000
33.01879 85.000
33.03874 84.000
33.05869 93.000
33.07863 98.000
33.09858 112.000
33.11853 117.000
33.13848 105.000
33.15842 119.000
33.17837 177.000
33.19832 184.000
33.21826 236.000
33.23821 238.000
33.25816 294.000
33.27810 285.000
33.29805 343.000
33.31800 356.000
33.33795 411.000
33.35789 365.000
33.37784 317.000
33.39779 302.000
33.41773 236.000
33.43768 274.000
33.45763 220.000
33.47757 170.000
33.49752 165.000
33.51747 153.000
33.53741 132.000
33.55736 114.000
33.57731 120.000
33.59726 102.000
33.61720 119.000
33.63715 79.000
33.65710 93.000
33.67704 91.000
33.69699 92.000
33.71694 94.000
33.73688 106.000
33.75683 98.000
33.77678 94.000
33.79673 117.000
33.81667 117.000
33.83662 125.000
33.85657 115.000
33.87651 139.000
33.89646 143.000
33.91641 143.000
33.93635 125.000
33.95630 143.000
33.97625 110.000
33.99620 151.000
34.01614 186.000
34.03609 142.000
34.05604 159.000
34.07598 165.000
34.09593 183.000
34.11588 179.000
34.13582 183.000
34.15577 208.000
34.17572 206.000
34.19566 213.000
34.21561 162.000
34.23556 192.000
34.25551 201.000
34.27545 198.000
34.29540 198.000
34.31535 170.000
34.33529 161.000
34.35524 145.000
34.37519 135.000
34.39513 138.000
34.41508 104.000
34.43503 121.000
34.45498 139.000
34.47492 115.000
34.49487 97.000
34.51482 120.000
34.53476 123.000
34.55471 106.000
34.57466 121.000
34.59460 92.000
34.61455 92.000
34.63450 105.000
34.65444 92.000
34.67439 96.000
34.69434 71.000
34.71429 108.000
34.73423 100.000
34.75418 80.000
34.77413 92.000
34.79407 93.000
34.81402 121.000
34.83397 114.000
34.85391 135.000
34.87386 151.000
34.89381 172.000
34.91376 217.000
34.93370 260.000
34.95365 330.000
34.97360 351.000
34.99354 392.000
35.01349 453.000
35.03344 420.000
35.05338 419.000
35.07333 451.000
35.09328 444.000
35.11322 396.000
35.13317 385.000
35.15312 339.000
35.17307 355.000
35.19301 358.000
35.21296 335.000
35.23291 336.000
35.25285 396.000
35.27280 400.000
35.29275 399.000
35.31269 429.000
35.33264 385.000
35.35259 369.000
35.37254 378.000
35.39248 372.000
35.41243 336.000
35.43238 326.000
35.45232 277.000
35.47227 255.000
35.49222 277.000
35.51216 271.000
35.53211 236.000
35.55206 195.000
35.57201 198.000
35.59195 206.000
35.61190 190.000
35.63185 175.000
35.65179 164.000
35.67174 164.000
35.69169 155.000
35.71163 146.000
35.73158 154.000
35.75153 123.000
35.77147 120.000
35.79142 137.000
35.81137 121.000
35.83132 109.000
35.85126 115.000
35.87121 99.000
35.89116 88.000
35.91110 90.000
35.93105 102.000
35.95100 99.000
35.97094 90.000
35.99089 110.000
36.01084 114.000
36.03079 114.000
36.05073 108.000
36.07068 113.000
36.09063 102.000
36.11057 118.000
36.13052 157.000
36.15047 146.000
36.17041 165.000
36.19036 186.000
36.21031 212.000
36.23025 271.000
36.25020 317.000
36.27015 358.000
36.29010 489.000
36.31004 551.000
36.32999 611.000
36.34994 638.000
36.36988 624.000
36.38983 654.000
36.40978 607.000
36.42972 512.000
36.44967 503.000
36.46962 468.000
36.48957 398.000
36.50951 362.000
36.52946 326.000
36.54941 266.000
36.56935 233.000
36.58930 191.000
36.60925 195.000
36.62919 179.000
36.64914 129.000
36.66909 168.000
36.68903 127.000
36.70898 110.000
36.72893 92.000
36.74888 105.000
36.76882 95.000
36.78877 101.000
36.80872 85.000
36.82866 104.000
36.84861 108.000
36.86856 100.000
36.88850 88.000
36.90845 98.000
36.92840 97.000
36.94835 97.000
36.96829 83.000
36.98824 108.000
37.00819 104.000
37.02813 99.000
37.04808 96.000
37.06803 99.000
37.08797 82.000
37.10792 96.000
37.12787 95.000
37.14781 98.000
37.16776 93.000
37.18771 120.000
37.20766 98.000
37.22760 92.000
37.24755 103.000
37.26750 107.000
37.28744 82.000
37.30739 77.000
37.32734 74.000
37.34728 74.000
37.36723 67.000
37.38718 77.000
37.40713 67.000
37.42707 64.000
37.44702 70.000
37.46697 66.000
37.48691 61.000
37.50686 70.000
37.52681 51.000
37.54675 59.000
37.56670 59.000
37.58665 56.000
37.60660 55.000
37.62654 70.000
37.64649 66.000
37.66644 62.000
37.68638 55.000
37.70633 59.000
37.72628 61.000
37.74622 64.000
37.76617 63.000
37.78612 57.000
37.80606 69.000
37.82601 67.000
37.84596 60.000
37.86591 63.000
37.88585 73.000
37.90580 62.000
37.92575 78.000
37.94569 62.000
37.96564 88.000
37.98559 61.000
38.00553 80.000
38.02548 60.000
38.04543 61.000
38.06538 61.000
38.08532 59.000
38.10527 64.000
38.12522 63.000
38.14516 63.000
38.16511 82.000
38.18506 59.000
38.20500 54.000
38.22495 51.000
38.24490 69.000
38.26484 61.000
38.28479 57.000
38.30474 59.000
38.32469 63.000
38.34463 57.000
38.36458 64.000
38.38453 62.000
38.40447 52.000
38.42442 47.000
38.44437 55.000
38.46431 46.000
38.48426 54.000
38.50421 59.000
38.52416 54.000
38.54410 44.000
38.56405 55.000
38.58400 55.000
38.60394 53.000
38.62389 57.000
38.64384 47.000
38.66378 52.000
38.68373 62.000
38.70368 61.000
38.72362 52.000
38.74357 64.000
38.76352 59.000
38.78347 47.000
38.80341 39.000
38.82336 43.000
38.84331 57.000
38.86325 41.000
38.88320 62.000
38.90315 58.000
38.92309 61.000
38.94304 58.000
38.96299 65.000
38.98294 53.000
39.00288 64.000
39.02283 49.000
39.04278 74.000
39.06272 57.000
39.08267 55.000
39.10262 60.000
39.12256 72.000
39.14251 53.000
39.16246 70.000
39.18241 60.000
39.20235 78.000
39.22230 58.000
39.24225 47.000
39.26219 52.000
39.28214 54.000
39.30209 45.000
39.32203 64.000
39.34198 64.000
39.36193 67.000
39.38187 61.000
39.40182 60.000
39.42177 56.000
39.44172 49.000
39.46166 63.000
39.48161 52.000
39.50156 46.000
39.52150 82.000
39.54145 69.000
39.56140 57.000
39.58134 64.000
39.60129 67.000
39.62124 52.000
39.64119 62.000
39.66113 70.000
39.68108 59.000
39.70103 62.000
39.72097 67.000
39.74092 61.000
39.76087 44.000
39.78081 53.000
39.80076 69.000
39.82071 67.000
39.84065 67.000
39.86060 64.000
39.88055 65.000
39.90050 59.000
39.92044 68.000
39.94039 84.000
39.96034 83.000
39.98028 63.000
40.00023 79.000
40.02018 81.000
40.04012 61.000
40.06007 76.000
40.08002 63.000
40.09997 78.000
40.11991 60.000
40.13986 69.000
40.15981 77.000
40.17975 63.000
40.19970 69.000
40.21965 75.000
40.23959 68.000
40.25954 79.000
40.27949 64.000
40.29943 62.000
40.31938 68.000
40.33933 76.000
40.35928 82.000
40.37922 69.000
40.39917 66.000
40.41912 70.000
40.43906 74.000
40.45901 80.000
40.47896 74.000
40.49890 78.000
40.51885 93.000
40.53880 68.000
40.55875 74.000
40.57869 80.000
40.59864 87.000
40.61859 82.000
40.63853 83.000
40.65848 80.000
40.67843 92.000
40.69837 80.000
40.71832 96.000
40.73827 94.000
40.75822 96.000
40.77816 108.000
40.79811 86.000
40.81806 119.000
40.83800 116.000
40.85795 116.000
40.87790 114.000
40.89784 121.000
40.91779 118.000
40.93774 152.000
40.95768 158.000
40.97763 143.000
40.99758 152.000
41.01753 190.000
41.03747 188.000
41.05742 239.000
41.07737 248.000
41.09731 277.000
41.11726 277.000
41.13721 335.000
41.15715 379.000
41.17710 437.000
41.19705 517.000
41.21700 637.000
41.23694 889.000
41.25689 1164.000
41.27684 1494.000
41.29678 1764.000
41.31673 2195.000
41.33668 2331.000
41.35662 2357.000
41.37657 2288.000
41.39652 2304.000
41.41646 2138.000
41.43641 2034.000
41.45636 1894.000
41.47631 1577.000
41.49625 1382.000
41.51620 1180.000
41.53615 992.000
41.55609 854.000
41.57604 646.000
41.59599 588.000
41.61593 474.000
41.63588 400.000
41.65583 372.000
41.67578 343.000
41.69572 290.000
41.71567 298.000
41.73562 252.000
41.75556 244.000
41.77551 227.000
41.79546 209.000
41.81540 152.000
41.83535 166.000
41.85530 160.000
41.87524 183.000
41.89519 171.000
41.91514 180.000
41.93509 152.000
41.95503 164.000
41.97498 164.000
41.99493 189.000
42.01487 176.000
42.03482 188.000
42.05477 177.000
42.07471 179.000
42.09466 173.000
42.11461 155.000
42.13456 139.000
42.15450 139.000
42.17445 128.000
42.19440 105.000
42.21434 120.000
42.23429 121.000
42.25424 110.000
42.27418 104.000
42.29413 97.000
42.31408 93.000
42.33403 105.000
42.35397 87.000
42.37392 85.000
42.39387 86.000
42.41381 87.000
42.43376 86.000
42.45371 92.000
42.47365 67.000
42.49360 69.000
42.51355 86.000
42.53349 82.000
42.55344 83.000
42.57339 82.000
42.59334 83.000
42.61328 77.000
42.63323 57.000
42.65318 83.000
42.67312 55.000
42.69307 98.000
42.71302 83.000
42.73296 72.000
42.75291 90.000
42.77286 78.000
42.79281 95.000
42.81275 94.000
42.83270 107.000
42.85265 99.000
42.87259 120.000
42.89254 141.000
42.91249 115.000
42.93243 125.000
42.95238 107.000
42.97233 120.000
42.99227 128.000
43.01222 140.000
43.03217 116.000
43.05212 110.000
43.07206 116.000
43.09201 82.000
43.11196 129.000
43.13190 101.000
43.15185 132.000
43.17180 111.000
43.19174 124.000
43.21169 122.000
43.23164 99.000
43.25159 111.000
43.27153 119.000
43.29148 99.000
43.31143 111.000
43.33137 98.000
43.35132 108.000
43.37127 80.000
43.39121 93.000
43.41116 74.000
43.43111 90.000
43.45105 79.000
43.47100 71.000
43.49095 61.000
43.51090 63.000
43.53084 62.000
43.55079 58.000
43.57074 57.000
43.59068 45.000
43.61063 66.000
43.63058 57.000
43.65052 43.000
43.67047 61.000
43.69042 56.000
43.71037 46.000
43.73031 56.000
43.75026 55.000
43.77021 47.000
43.79015 56.000
43.81010 45.000
43.83005 48.000
43.84999 57.000
43.86994 42.000
43.88989 43.000
43.90984 52.000
43.92978 53.000
43.94973 53.000
43.96968 46.000
43.98962 50.000
44.00957 41.000
44.02952 36.000
44.04946 36.000
44.06941 51.000
44.08936 41.000
44.10930 41.000
44.12925 57.000
44.14920 45.000
44.16915 58.000
44.18909 46.000
44.20904 41.000
44.22899 40.000
44.24893 51.000
44.26888 48.000
44.28883 50.000
44.30877 52.000
44.32872 44.000
44.34867 47.000
44.36862 52.000
44.38856 50.000
44.40851 60.000
44.42846 39.000
44.44840 47.000
44.46835 57.000
44.48830 57.000
44.50824 59.000
44.52819 44.000
44.54814 54.000
44.56808 59.000
44.58803 62.000
44.60798 43.000
44.62793 48.000
44.64787 55.000
44.66782 66.000
44.68777 77.000
44.70771 62.000
44.72766 75.000
44.74761 100.000
44.76755 97.000
44.78750 118.000
44.80745 96.000
44.82740 102.000
44.84734 106.000
44.86729 89.000
44.88724 93.000
44.90718 100.000
44.92713 94.000
44.94708 80.000
44.96702 70.000
44.98697 77.000
45.00692 62.000
45.02686 73.000
45.04681 71.000
45.06676 52.000
45.08671 58.000
45.10665 42.000
45.12660 48.000
45.14655 53.000
45.16649 62.000
45.18644 55.000
45.20639 48.000
45.22633 49.000
45.24628 41.000
45.26623 55.000
45.28618 49.000
45.30612 42.000
45.32607 60.000
45.34602 54.000
45.36596 53.000
45.38591 46.000
45.40586 40.000
45.42580 41.000
45.44575 58.000
45.46570 51.000
45.48565 45.000
45.50559 45.000
45.52554 37.000
45.54549 38.000
45.56543 43.000
45.58538 45.000
45.60533 50.000
45.62527 46.000
45.64522 50.000
45.66517 37.000
45.68511 58.000
45.70506 61.000
45.72501 45.000
45.74496 45.000
45.76490 50.000
45.78485 51.000
45.80480 56.000
45.82474 40.000
45.84469 53.000
45.86464 37.000
45.88458 38.000
45.90453 40.000
45.92448 43.000
45.94443 55.000
45.96437 48.000
45.98432 38.000
46.00427 50.000
46.02421 43.000
46.04416 43.000
46.06411 51.000
46.08405 38.000
46.10400 46.000
46.12395 52.000
46.14389 39.000
46.16384 53.000
46.18379 48.000
46.20374 57.000
46.22368 54.000
46.24363 55.000
46.26358 54.000
46.28352 36.000
46.30347 44.000
46.32342 65.000
46.34336 52.000
46.36331 55.000
46.38326 55.000
46.40321 45.000
46.42315 51.000
46.44310 49.000
46.46305 43.000
46.48299 36.000
46.50294 51.000
46.52289 48.000
46.54283 63.000
46.56278 54.000
46.58273 49.000
46.60267 51.000
46.62262 61.000
46.64257 50.000
46.66252 47.000
46.68246 45.000
46.70241 47.000
46.72236 38.000
46.74230 41.000
46.76225 41.000
46.78220 41.000
46.80214 53.000
46.82209 52.000
46.84204 56.000
46.86199 54.000
46.88193 40.000
46.90188 50.000
46.92183 44.000
46.94177 47.000
46.96172 47.000
46.98167 49.000
47.00161 39.000
47.02156 51.000
47.04151 48.000
47.06146 38.000
47.08140 49.000
47.10135 50.000
47.12130 52.000
47.14124 45.000
47.16119 44.000
47.18114 41.000
47.20108 47.000
47.22103 42.000
47.24098 40.000
47.26092 52.000
47.28087 43.000
47.30082 50.000
47.32077 49.000
47.34071 45.000
47.36066 41.000
47.38061 40.000
47.40055 39.000
47.42050 52.000
47.44045 36.000
47.46039 38.000
47.48034 56.000
47.50029 46.000
47.52024 47.000
47.54018 36.000
47.56013 45.000
47.58008 39.000
47.60002 52.000
47.61997 35.000
47.63992 35.000
47.65986 52.000
47.67981 52.000
47.69976 37.000
47.71970 41.000
47.73965 46.000
47.75960 43.000
47.77955 44.000
47.79949 45.000
47.81944 52.000
47.83939 50.000
47.85933 55.000
47.87928 42.000
47.89923 44.000
47.91917 43.000
47.93912 52.000
47.95907 50.000
47.97902 50.000
47.99896 62.000
48.01891 42.000
48.03886 48.000
48.05880 49.000
48.07875 53.000
48.09870 49.000
48.11864 58.000
48.13859 43.000
48.15854 61.000
48.17848 49.000
48.19843 51.000
48.21838 45.000
48.23833 73.000
48.25827 59.000
48.27822 53.000
48.29817 57.000
48.31811 56.000
48.33806 62.000
48.35801 47.000
48.37795 44.000
48.39790 53.000
48.41785 47.000
48.43780 60.000
48.45774 54.000
48.47769 41.000
48.49764 61.000
48.51758 41.000
48.53753 56.000
48.55748 45.000
48.57742 51.000
48.59737 56.000
48.61732 52.000
48.63726 61.000
48.65721 57.000
48.67716 46.000
48.69711 55.000
48.71705 55.000
48.73700 52.000
48.75695 68.000
48.77689 38.000
48.79684 64.000
48.81679 57.000
48.83673 50.000
48.85668 44.000
48.87663 59.000
48.89658 46.000
48.91652 52.000
48.93647 54.000
48.95642 51.000
48.97636 54.000
48.99631 52.000
49.01626 47.000
49.03620 57.000
49.05615 46.000
49.07610 40.000
49.09605 61.000
49.11599 54.000
49.13594 44.000
49.15589 40.000
49.17583 63.000
49.19578 59.000
49.21573 73.000
49.23567 32.000
49.25562 54.000
49.27557 64.000
49.29551 46.000
49.31546 42.000
49.33541 43.000
49.35536 63.000
49.37530 50.000
49.39525 47.000
49.41520 40.000
49.43514 58.000
49.45509 48.000
49.47504 43.000
49.49498 42.000
49.51493 49.000
49.53488 55.000
49.55483 43.000
49.57477 55.000
49.59472 32.000
49.61467 38.000
49.63461 51.000
49.65456 44.000
49.67451 38.000
49.69445 63.000
49.71440 41.000
49.73435 41.000
49.75429 52.000
49.77424 30.000
49.79419 53.000
49.81414 46.000
49.83408 33.000
49.85403 45.000
49.87398 52.000
49.89392 39.000
49.91387 46.000
49.93382 37.000
49.95376 45.000
49.97371 40.000
49.99366 46.000
50.01361 34.000
50.03355 49.000
50.05350 40.000
50.07345 50.000
50.09339 34.000
50.11334 41.000
50.13329 45.000
50.15323 33.000
50.17318 46.000
50.19313 47.000
50.21307 51.000
50.23302 41.000
50.25297 43.000
50.27292 39.000
50.29286 39.000
50.31281 42.000
50.33276 32.000
50.35270 39.000
50.37265 38.000
50.39260 30.000
50.41254 42.000
50.43249 42.000
50.45244 45.000
50.47239 35.000
50.49233 53.000
50.51228 38.000
50.53223 43.000
50.55217 49.000
50.57212 34.000
50.59207 33.000
50.61201 33.000
50.63196 42.000
50.65191 25.000
50.67186 38.000
50.69180 34.000
50.71175 41.000
50.73170 39.000
50.75164 40.000
50.77159 41.000
50.79154 44.000
50.81148 53.000
50.83143 46.000
50.85138 59.000
50.87132 38.000
50.89127 55.000
50.91122 52.000
50.93117 49.000
50.95111 51.000
50.97106 46.000
50.99101 37.000
51.01095 44.000
51.03090 42.000
51.05085 44.000
51.07079 62.000
51.09074 37.000
51.11069 39.000
51.13064 49.000
51.15058 46.000
51.17053 44.000
51.19048 41.000
51.21042 44.000
51.23037 46.000
51.25032 42.000
51.27026 35.000
51.29021 38.000
51.31016 52.000
51.33010 45.000
51.35005 47.000
51.37000 40.000
51.38995 45.000
51.40989 47.000
51.42984 53.000
51.44979 40.000
51.46973 31.000
51.48968 38.000
51.50963 39.000
51.52957 42.000
51.54952 37.000
51.56947 49.000
51.58942 42.000
51.60936 39.000
51.62931 46.000
51.64926 51.000
51.66920 48.000
51.68915 39.000
51.70910 38.000
51.72904 57.000
51.74899 51.000
51.76894 37.000
51.78888 57.000
51.80883 41.000
51.82878 57.000
51.84873 44.000
51.86867 40.000
51.88862 46.000
51.90857 44.000
51.92851 44.000
51.94846 46.000
51.96841 52.000
51.98835 58.000
52.00830 59.000
52.02825 54.000
52.04820 56.000
52.06814 41.000
52.08809 50.000
52.10804 49.000
52.12798 54.000
52.14793 51.000
52.16788 55.000
52.18782 58.000
52.20777 50.000
52.22772 53.000
52.24767 47.000
52.26761 62.000
52.28756 49.000
52.30751 53.000
52.32745 50.000
52.34740 56.000
52.36735 62.000
52.38729 43.000
52.40724 62.000
52.42719 49.000
52.44713 59.000
52.46708 49.000
52.48703 51.000
52.50698 50.000
52.52692 49.000
52.54687 37.000
52.56682 57.000
52.58676 62.000
52.60671 58.000
52.62666 49.000
52.64660 63.000
52.66655 53.000
52.68650 64.000
52.70645 66.000
52.72639 57.000
52.74634 53.000
52.76629 59.000
52.78623 60.000
52.80618 59.000
52.82613 73.000
52.84607 77.000
52.86602 84.000
52.88597 70.000
52.90591 77.000
52.92586 95.000
52.94581 96.000
52.96576 98.000
52.98570 124.000
53.00565 138.000
53.02560 166.000
53.04554 169.000
53.06549 223.000
53.08544 238.000
53.10538 302.000
53.12533 253.000
53.14528 288.000
53.16523 256.000
53.18517 251.000
53.20512 233.000
53.22507 224.000
53.24501 197.000
53.26496 217.000
53.28491 201.000
53.30485 196.000
53.32480 160.000
53.34475 148.000
53.36469 116.000
53.38464 100.000
53.40459 104.000
53.42454 91.000
53.44448 82.000
53.46443 74.000
53.48438 80.000
53.50432 66.000
53.52427 66.000
53.54422 76.000
53.56416 74.000
53.58411 79.000
53.60406 56.000
53.62401 63.000
53.64395 68.000
53.66390 59.000
53.68385 66.000
53.70379 72.000
53.72374 50.000
53.74369 59.000
53.76363 46.000
53.78358 55.000
53.80353 51.000
53.82348 62.000
53.84342 63.000
53.86337 66.000
53.88332 53.000
53.90326 44.000
53.92321 52.000
53.94316 62.000
53.96310 50.000
53.98305 47.000
54.00300 55.000
54.02294 56.000
54.04289 51.000
54.06284 47.000
54.08279 57.000
54.10273 60.000
54.12268 38.000
54.14263 45.000
54.16257 45.000
54.18252 44.000
54.20247 44.000
54.22241 63.000
54.24236 51.000
54.26231 43.000
54.28226 49.000
54.30220 36.000
54.32215 56.000
54.34210 49.000
54.36204 48.000
54.38199 41.000
54.40194 39.000
54.42188 48.000
54.44183 67.000
54.46178 40.000
54.48172 37.000
54.50167 45.000
54.52162 53.000
54.54157 39.000
54.56151 48.000
54.58146 42.000
54.60141 59.000
54.62135 63.000
54.64130 42.000
54.66125 53.000
54.68119 50.000
54.70114 45.000
54.72109 44.000
54.74104 49.000
54.76098 53.000
54.78093 31.000
54.80088 51.000
54.82082 42.000
54.84077 38.000
54.86072 48.000
54.88066 52.000
54.90061 59.000
54.92056 48.000
54.94050 62.000
54.96045 32.000
54.98040 49.000
55.00035 44.000
55.02029 33.000
55.04024 50.000
55.06019 55.000
55.08013 54.000
55.10008 44.000
55.12003 35.000
55.13997 48.000
55.15992 49.000
55.17987 39.000
55.19982 59.000
55.21976 47.000
55.23971 59.000
55.25966 49.000
55.27960 42.000
55.29955 54.000
55.31950 54.000
55.33944 49.000
55.35939 52.000
55.37934 44.000
55.39929 39.000
55.41923 40.000
55.43918 59.000
55.45913 49.000
55.47907 41.000
55.49902 38.000
55.51897 44.000
55.53891 48.000
55.55886 34.000
55.57881 40.000
55.59875 33.000
55.61870 38.000
55.63865 52.000
55.65860 45.000
55.67854 46.000
55.69849 50.000
55.71844 48.000
55.73838 48.000
55.75833 41.000
55.77828 42.000
55.79822 36.000
55.81817 45.000
55.83812 38.000
55.85807 40.000
55.87801 47.000
55.89796 51.000
55.91791 39.000
55.93785 43.000
55.95780 47.000
55.97775 49.000
55.99769 48.000
56.01764 44.000
56.03759 42.000
56.05753 42.000
56.07748 33.000
56.09743 52.000
56.11738 54.000
56.13732 45.000
56.15727 64.000
56.17722 48.000
56.19716 48.000
56.21711 38.000
56.23706 44.000
56.25700 39.000
56.27695 61.000
56.29690 43.000
56.31685 49.000
56.33679 46.000
56.35674 60.000
56.37669 43.000
56.39663 51.000
56.41658 55.000
56.43653 52.000
56.45647 55.000
56.47642 54.000
56.49637 51.000
56.51631 57.000
56.53626 57.000
56.55621 61.000
56.57616 70.000
56.59610 69.000
56.61605 87.000
56.63600 87.000
56.65594 90.000
56.67589 96.000
56.69584 87.000
56.71578 106.000
56.73573 95.000
56.75568 102.000
56.77563 105.000
56.79557 109.000
56.81552 104.000
56.83547 110.000
56.85541 104.000
56.87536 95.000
56.89531 88.000
56.91525 97.000
56.93520 73.000
56.95515 82.000
56.97510 102.000
56.99504 106.000
57.01499 90.000
57.03494 76.000
57.05488 72.000
57.07483 73.000
57.09478 76.000
57.11472 79.000
57.13467 74.000
57.15462 69.000
57.17456 77.000
57.19451 75.000
57.21446 72.000
57.23441 65.000
57.25435 76.000
57.27430 76.000
57.29425 78.000
57.31419 75.000
57.33414 68.000
57.35409 71.000
57.37403 85.000
57.39398 72.000
57.41393 79.000
57.43388 63.000
57.45382 84.000
57.47377 66.000
57.49372 72.000
57.51366 91.000
57.53361 100.000
57.55356 119.000
57.57350 108.000
57.59345 121.000
57.61340 116.000
57.63334 123.000
57.65329 137.000
57.67324 161.000
57.69319 153.000
57.71313 200.000
57.73308 260.000
57.75303 303.000
57.77297 334.000
57.79292 398.000
57.81287 506.000
57.83281 541.000
57.85276 592.000
57.87271 675.000
57.89266 594.000
57.91260 541.000
57.93255 526.000
57.95250 473.000
57.97244 457.000
57.99239 425.000
58.01234 413.000
58.03228 384.000
58.05223 342.000
58.07218 284.000
58.09212 282.000
58.11207 221.000
58.13202 187.000
58.15197 163.000
58.17191 143.000
58.19186 126.000
58.21181 88.000
58.23175 104.000
58.25170 100.000
58.27165 80.000
58.29159 68.000
58.31154 88.000
58.33149 70.000
58.35144 79.000
58.37138 75.000
58.39133 65.000
58.41128 65.000
58.43122 63.000
58.45117 68.000
58.47112 90.000
58.49106 63.000
58.51101 54.000
58.53096 75.000
58.55090 67.000
58.57085 71.000
58.59080 68.000
58.61075 54.000
58.63069 67.000
58.65064 61.000
58.67059 60.000
58.69053 68.000
58.71048 58.000
58.73043 41.000
58.75037 60.000
58.77032 61.000
58.79027 48.000
58.81022 56.000
58.83016 61.000
58.85011 51.000
58.87006 51.000
58.89000 56.000
58.90995 59.000
58.92990 65.000
58.94984 58.000
58.96979 46.000
58.98974 63.000
59.00969 67.000
59.02963 45.000
59.04958 56.000
59.06953 65.000
59.08947 62.000
59.10942 64.000
59.12937 57.000
59.14931 52.000
59.16926 57.000
59.18921 57.000
59.20915 43.000
59.22910 55.000
59.24905 42.000
59.26900 52.000
59.28894 53.000
59.30889 41.000
59.32884 45.000
59.34878 46.000
59.36873 64.000
59.38868 62.000
59.40862 51.000
59.42857 49.000
59.44852 47.000
59.46847 49.000
59.48841 45.000
59.50836 46.000
59.52831 35.000
59.54825 75.000
59.56820 54.000
59.58815 53.000
59.60809 53.000
59.62804 44.000
59.64799 56.000
59.66793 45.000
59.68788 65.000
59.70783 47.000
59.72778 62.000
59.74772 59.000
59.76767 43.000
59.78762 48.000
59.80756 52.000
59.82751 55.000
59.84746 61.000
59.86740 67.000
59.88735 48.000
59.90730 67.000
59.92725 56.000
59.94719 68.000
59.96714 65.000
59.98709 49.000
60.00703 61.000
60.02698 51.000
60.04693 59.000
60.06687 56.000
60.08682 55.000
60.10677 65.000
60.12671 53.000
60.14666 53.000
60.16661 62.000
60.18656 52.000
60.20650 49.000
60.22645 51.000
60.24640 49.000
60.26634 52.000
60.28629 72.000
60.30624 51.000
60.32618 61.000
60.34613 66.000
60.36608 53.000
60.38603 57.000
60.40597 56.000
60.42592 53.000
60.44587 57.000
60.46581 72.000
60.48576 67.000
60.50571 55.000
60.52565 48.000
60.54560 47.000
60.56555 55.000
60.58550 58.000
60.60544 81.000
60.62539 57.000
60.64534 60.000
60.66528 66.000
60.68523 77.000
60.70518 61.000
60.72512 53.000
60.74507 52.000
60.76502 70.000
60.78496 62.000
60.80491 56.000
60.82486 63.000
60.84481 55.000
60.86475 50.000
60.88470 70.000
60.90465 69.000
60.92459 60.000
60.94454 54.000
60.96449 60.000
60.98443 52.000
61.00438 67.000
61.02433 70.000
61.04428 51.000
61.06422 69.000
61.08417 61.000
61.10412 61.000
61.12406 51.000
61.14401 64.000
61.16396 81.000
61.18390 67.000
61.20385 70.000
61.22380 56.000
61.24374 62.000
61.26369 73.000
61.28364 58.000
61.30359 78.000
61.32353 70.000
61.34348 69.000
61.36343 86.000
61.38337 65.000
61.40332 74.000
61.42327 72.000
61.44321 70.000
61.46316 73.000
61.48311 81.000
61.50306 98.000
61.52300 98.000
61.54295 90.000
61.56290 97.000
61.58284 92.000
61.60279 102.000
61.62274 129.000
61.64268 151.000
61.66263 160.000
61.68258 195.000
61.70252 214.000
61.72247 251.000
61.74242 247.000
61.76237 326.000
61.78231 381.000
61.80226 398.000
61.82221 401.000
61.84215 403.000
61.86210 445.000
61.88205 436.000
61.90199 509.000
61.92194 438.000
61.94189 440.000
61.96184 483.000
61.98178 448.000
62.00173 432.000
62.02168 407.000
62.04162 399.000
62.06157 374.000
62.08152 380.000
62.10146 354.000
62.12141 319.000
62.14136 303.000
62.16131 269.000
62.18125 263.000
62.20120 282.000
62.22115 262.000
62.24109 212.000
62.26104 195.000
62.28099 240.000
62.30093 233.000
62.32088 202.000
62.34083 182.000
62.36077 197.000
62.38072 173.000
62.40067 170.000
62.42062 159.000
62.44056 148.000
62.46051 147.000
62.48046 154.000
62.50040 133.000
62.52035 132.000
62.54030 134.000
62.56024 113.000
62.58019 118.000
62.60014 110.000
62.62009 106.000
62.64003 105.000
62.65998 77.000
62.67993 101.000
62.69987 111.000
62.71982 104.000
62.73977 99.000
62.75971 91.000
62.77966 110.000
62.79961 102.000
62.81955 101.000
62.83950 96.000
62.85945 91.000
62.87940 87.000
62.89934 97.000
62.91929 97.000
62.93924 68.000
62.95918 80.000
62.97913 81.000
62.99908 66.000
63.01902 83.000
63.03897 76.000
63.05892 66.000
63.07887 65.000
63.09881 66.000
63.11876 59.000
63.13871 50.000
63.15865 64.000
63.17860 62.000
63.19855 71.000
63.21849 66.000
63.23844 55.000
63.25839 59.000
63.27833 52.000
63.29828 50.000
63.31823 42.000
63.33818 53.000
63.35812 38.000
63.37807 55.000
63.39802 53.000
63.41796 49.000
63.43791 60.000
63.45786 48.000
63.47780 48.000
63.49775 57.000
63.51770 59.000
63.53765 48.000
63.55759 48.000
63.57754 40.000
63.59749 55.000
63.61743 48.000
63.63738 46.000
63.65733 52.000
63.67727 64.000
63.69722 46.000
63.71717 59.000
63.73712 48.000
63.75706 48.000
63.77701 54.000
63.79696 51.000
63.81690 46.000
63.83685 53.000
63.85680 56.000
63.87674 53.000
63.89669 53.000
63.91664 64.000
63.93658 43.000
63.95653 53.000
63.97648 50.000
63.99643 55.000
64.01637 56.000
64.03632 57.000
64.05627 49.000
64.07621 48.000
64.09616 55.000
64.11611 44.000
64.13605 69.000
64.15600 58.000
64.17595 60.000
64.19590 62.000
64.21584 54.000
64.23579 50.000
64.25574 59.000
64.27568 80.000
64.29563 92.000
64.31558 90.000
64.33552 100.000
64.35547 78.000
64.37542 99.000
64.39536 101.000
64.41531 102.000
64.43526 130.000
64.45521 144.000
64.47515 146.000
64.49510 132.000
64.51505 126.000
64.53499 148.000
64.55494 136.000
64.57489 146.000
64.59483 133.000
64.61478 176.000
64.63473 149.000
64.65468 129.000
64.67462 159.000
64.69457 144.000
64.71452 146.000
64.73446 127.000
64.75441 120.000
64.77436 123.000
64.79430 115.000
64.81425 106.000
64.83420 110.000
64.85414 101.000
64.87409 98.000
64.89404 82.000
64.91399 73.000
64.93393 65.000
64.95388 76.000
64.97383 81.000
64.99377 73.000
65.01372 75.000
65.03367 64.000
65.05361 77.000
65.07356 69.000
65.09351 58.000
65.11346 56.000
65.13340 54.000
65.15335 65.000
65.17330 62.000
65.19324 51.000
65.21319 55.000
65.23314 49.000
65.25308 62.000
65.27303 56.000
65.29298 61.000
65.31293 53.000
65.33287 59.000
65.35282 57.000
65.37277 57.000
65.39271 51.000
65.41266 51.000
65.43261 49.000
65.45255 73.000
65.47250 56.000
65.49245 65.000
65.51239 57.000
65.53234 55.000
65.55229 54.000
65.57224 51.000
65.59218 63.000
65.61213 45.000
65.63208 62.000
65.65202 56.000
65.67197 61.000
65.69192 55.000
65.71186 49.000
65.73181 54.000
65.75176 60.000
65.77171 50.000
65.79165 48.000
65.81160 52.000
65.83155 46.000
65.85149 51.000
65.87144 54.000
65.89139 44.000
65.91133 53.000
65.93128 46.000
65.95123 48.000
65.97117 50.000
65.99112 52.000
66.01107 46.000
66.03102 63.000
66.05096 55.000
66.07091 43.000
66.09086 48.000
66.11080 55.000
66.13075 60.000
66.15070 55.000
66.17064 48.000
66.19059 40.000
66.21054 43.000
66.23049 42.000
66.25043 39.000
66.27038 43.000
66.29033 64.000
66.31027 34.000
66.33022 37.000
66.35017 36.000
66.37011 50.000
66.39006 53.000
66.41001 37.000
66.42995 42.000
66.44990 48.000
66.46985 51.000
66.48980 51.000
66.50974 51.000
66.52969 36.000
66.54964 43.000
66.56958 45.000
66.58953 40.000
66.60948 41.000
66.62942 41.000
66.64937 43.000
66.66932 43.000
66.68927 52.000
66.70921 55.000
66.72916 44.000
66.74911 30.000
66.76905 32.000
66.78900 43.000
66.80895 37.000
66.82889 47.000
66.84884 53.000
66.86879 35.000
66.88874 39.000
66.90868 46.000
66.92863 44.000
66.94858 30.000
66.96852 43.000
66.98847 39.000
67.00842 47.000
67.02836 47.000
67.04831 42.000
67.06826 41.000
67.08820 47.000
67.10815 35.000
67.12810 41.000
67.14805 47.000
67.16799 41.000
67.18794 61.000
67.20789 39.000
67.22783 47.000
67.24778 39.000
67.26773 43.000
67.28767 36.000
67.30762 43.000
67.32757 43.000
67.34752 38.000
67.36746 40.000
67.38741 34.000
67.40736 43.000
67.42730 34.000
67.44725 39.000
67.46720 58.000
67.48714 38.000
67.50709 37.000
67.52704 65.000
67.54698 56.000
67.56693 46.000
67.58688 35.000
67.60683 46.000
67.62677 51.000
67.64672 45.000
67.66667 57.000
67.68661 34.000
67.70656 39.000
67.72651 37.000
67.74645 46.000
67.76640 41.000
67.78635 49.000
67.80630 40.000
67.82624 54.000
67.84619 48.000
67.86614 36.000
67.88608 50.000
67.90603 45.000
67.92598 39.000
67.94592 48.000
67.96587 45.000
67.98582 51.000
68.00576 52.000
68.02571 49.000
68.04566 55.000
68.06561 64.000
68.08555 45.000
68.10550 51.000
68.12545 62.000
68.14539 73.000
68.16534 62.000
68.18529 58.000
68.20523 61.000
68.22518 67.000
68.24513 72.000
68.26508 111.000
68.28502 101.000
68.30497 105.000
68.32492 85.000
68.34486 105.000
68.36481 140.000
68.38476 121.000
68.40470 135.000
68.42465 131.000
68.44460 168.000
68.46455 154.000
68.48449 153.000
68.50444 163.000
68.52439 143.000
68.54433 140.000
68.56428 141.000
68.58423 121.000
68.60417 113.000
68.62412 134.000
68.64407 114.000
68.66401 112.000
68.68396 115.000
68.70391 96.000
68.72386 80.000
68.74380 85.000
68.76375 79.000
68.78370 71.000
68.80364 56.000
68.82359 62.000
68.84354 52.000
68.86348 67.000
68.88343 59.000
68.90338 55.000
68.92333 47.000
68.94327 58.000
68.96322 46.000
68.98317 41.000
69.00311 56.000
69.02306 42.000
69.04301 44.000
69.06295 51.000
69.08290 55.000
69.10285 45.000
69.12279 51.000
69.14274 58.000
69.16269 44.000
69.18264 52.000
69.20258 48.000
69.22253 45.000
69.24248 45.000
69.26242 41.000
69.28237 52.000
69.30232 30.000
69.32226 43.000
69.34221 45.000
69.36216 49.000
69.38211 42.000
69.40205 47.000
69.42200 47.000
69.44195 55.000
69.46189 53.000
69.48184 58.000
69.50179 51.000
69.52173 55.000
69.54168 53.000
69.56163 53.000
69.58157 49.000
69.60152 48.000
69.62147 54.000
69.64142 67.000
69.66136 67.000
69.68131 84.000
69.70126 51.000
69.72120 67.000
69.74115 77.000
69.76110 54.000
69.78104 62.000
69.80099 82.000
69.82094 67.000
69.84089 72.000
69.86083 68.000
69.88078 97.000
69.90073 79.000
69.92067 82.000
69.94062 73.000
69.96057 77.000
69.98051 67.000
70.00046 86.000
70.02041 83.000
70.04035 90.000
70.06030 87.000
70.08025 89.000
70.10020 87.000
70.12014 85.000
70.14009 72.000
70.16004 72.000
70.17998 73.000
70.19993 57.000
70.21988 67.000
70.23982 62.000
70.25977 75.000
70.27972 66.000
70.29967 56.000
70.31961 48.000
70.33956 71.000
70.35951 58.000
70.37945 49.000
70.39940 32.000
70.41935 41.000
70.43929 46.000
70.45924 49.000
70.47919 38.000
70.49914 48.000
70.51908 60.000
70.53903 49.000
70.55898 54.000
70.57892 45.000
70.59887 52.000
70.61882 54.000
70.63876 47.000
70.65871 38.000
70.67866 50.000
70.69860 48.000
70.71855 47.000
70.73850 48.000
70.75845 52.000
70.77839 36.000
70.79834 58.000
70.81829 57.000
70.83823 52.000
70.85818 45.000
70.87813 34.000
70.89807 50.000
70.91802 45.000
70.93797 39.000
70.95792 38.000
70.97786 33.000
70.99781 50.000
71.01776 48.000
71.03770 51.000
71.05765 36.000
71.07760 39.000
71.09754 41.000
71.11749 48.000
71.13744 43.000
71.15738 37.000
71.17733 35.000
71.19728 50.000
71.21723 52.000
71.23717 47.000
71.25712 46.000
71.27707 47.000
71.29701 51.000
71.31696 45.000
71.33691 46.000
71.35685 54.000
71.37680 44.000
71.39675 43.000
71.41670 69.000
71.43664 53.000
71.45659 45.000
71.47654 41.000
71.49648 55.000
71.51643 63.000
71.53638 43.000
71.55632 52.000
71.57627 57.000
71.59622 48.000
71.61616 56.000
71.63611 64.000
71.65606 53.000
71.67601 50.000
71.69595 63.000
71.71590 60.000
71.73585 50.000
71.75579 71.000
71.77574 55.000
71.79569 53.000
71.81563 50.000
71.83558 62.000
71.85553 56.000
71.87548 65.000
71.89542 67.000
71.91537 66.000
71.93532 91.000
71.95526 92.000
71.97521 82.000
71.99516 103.000
72.01510 123.000
72.03505 130.000
72.05500 136.000
72.07495 124.000
72.09489 134.000
72.11484 138.000
72.13479 155.000
72.15473 158.000
72.17468 140.000
72.19463 168.000
72.21457 130.000
72.23452 141.000
72.25447 154.000
72.27441 158.000
72.29436 135.000
72.31431 128.000
72.33426 120.000
72.35420 121.000
72.37415 127.000
72.39410 124.000
72.41404 122.000
72.43399 112.000
72.45394 96.000
72.47388 92.000
72.49383 105.000
72.51378 84.000
72.53373 82.000
72.55367 76.000
72.57362 94.000
72.59357 79.000
72.61351 85.000
72.63346 72.000
72.65341 92.000
72.67335 55.000
72.69330 51.000
72.71325 57.000
72.73319 71.000
72.75314 66.000
72.77309 60.000
72.79304 60.000
72.81298 66.000
72.83293 67.000
72.85288 55.000
72.87282 60.000
72.89277 66.000
72.91272 58.000
72.93266 65.000
72.95261 59.000
72.97256 59.000
72.99251 64.000
73.01245 62.000
73.03240 70.000
73.05235 63.000
73.07229 89.000
73.09224 71.000
73.11219 56.000
73.13213 64.000
73.15208 78.000
73.17203 56.000
73.19197 73.000
73.21192 70.000
73.23187 76.000
73.25182 63.000
73.27176 64.000
73.29171 74.000
73.31166 85.000
73.33160 69.000
73.35155 60.000
73.37150 75.000
73.39144 68.000
73.41139 59.000
73.43134 52.000
73.45129 55.000
73.47123 63.000
73.49118 63.000
73.51113 60.000
73.53107 70.000
73.55102 74.000
73.57097 59.000
73.59091 72.000
73.61086 61.000
73.63081 74.000
73.65076 86.000
73.67070 76.000
73.69065 79.000
73.71060 89.000
73.73054 73.000
73.75049 83.000
73.77044 88.000
73.79038 91.000
73.81033 104.000
73.83028 104.000
73.85022 88.000
73.87017 97.000
73.89012 106.000
73.91007 83.000
73.93001 83.000
73.94996 105.000
73.96991 95.000
73.98985 110.000
74.00980 116.000
74.02975 93.000
74.04969 118.000
74.06964 113.000
74.08959 114.000
74.10954 85.000
74.12948 113.000
74.14943 134.000
74.16938 125.000
74.18932 128.000
74.20927 138.000
74.22922 130.000
74.24916 113.000
74.26911 128.000
74.28906 113.000
74.30900 127.000
74.32895 97.000
74.34890 97.000
74.36885 98.000
74.38879 131.000
74.40874 93.000
74.42869 106.000
74.44863 107.000
74.46858 83.000
74.48853 67.000
74.50847 98.000
74.52842 73.000
74.54837 90.000
74.56832 68.000
74.58826 59.000
74.60821 73.000
74.62816 76.000
74.64810 82.000
74.66805 72.000
74.68800 46.000
74.70794 66.000
74.72789 64.000
74.74784 64.000
74.76778 51.000
74.78773 63.000
74.80768 74.000
74.82763 47.000
74.84757 52.000
74.86752 48.000
74.88747 46.000
74.90741 62.000
74.92736 49.000
74.94731 50.000
74.96725 45.000
74.98720 49.000
75.00715 52.000
75.02710 51.000
75.04704 49.000
75.06699 51.000
75.08694 57.000
75.10688 44.000
75.12683 51.000
75.14678 36.000
75.16672 63.000
75.18667 38.000
75.20662 35.000
75.22657 48.000
75.24651 44.000
75.26646 46.000
75.28641 60.000
75.30635 49.000
75.32630 51.000
75.34625 36.000
75.36619 52.000
75.38614 42.000
75.40609 41.000
75.42603 39.000
75.44598 48.000
75.46593 50.000
75.48588 51.000
75.50582 41.000
75.52577 50.000
75.54572 42.000
75.56566 42.000
75.58561 42.000
75.60556 43.000
75.62550 50.000
75.64545 48.000
75.66540 39.000
75.68535 50.000
75.70529 33.000
75.72524 46.000
75.74519 38.000
75.76513 47.000
75.78508 56.000
75.80503 34.000
75.82497 37.000
75.84492 42.000
75.86487 43.000
75.88481 42.000
75.90476 37.000
75.92471 42.000
75.94466 48.000
75.96460 33.000
75.98455 39.000
76.00450 46.000
76.02444 43.000
76.04439 33.000
76.06434 41.000
76.08428 39.000
76.10423 33.000
76.12418 47.000
76.14413 36.000
76.16407 36.000
76.18402 46.000
76.20397 54.000
76.22391 30.000
76.24386 44.000
76.26381 37.000
76.28375 42.000
76.30370 48.000
76.32365 56.000
76.34359 38.000
76.36354 44.000
76.38349 50.000
76.40344 33.000
76.42338 40.000
76.44333 47.000
76.46328 35.000
76.48322 40.000
76.50317 40.000
76.52312 42.000
76.54306 54.000
76.56301 38.000
76.58296 41.000
76.60291 45.000
76.62285 53.000
76.64280 40.000
76.66275 30.000
76.68269 41.000
76.70264 45.000
76.72259 41.000
76.74253 47.000
76.76248 49.000
76.78243 51.000
76.80238 48.000
76.82232 46.000
76.84227 50.000
76.86222 72.000
76.88216 63.000
76.90211 81.000
76.92206 66.000
76.94200 79.000
76.96195 95.000
76.98190 88.000
77.00184 97.000
77.02179 117.000
77.04174 128.000
77.06169 144.000
77.08163 182.000
77.10158 147.000
77.12153 151.000
77.14147 139.000
77.16142 153.000
77.18137 137.000
77.20131 153.000
77.22126 144.000
77.24121 154.000
77.26116 167.000
77.28110 163.000
77.30105 139.000
77.32100 161.000
77.34094 133.000
77.36089 142.000
77.38084 161.000
77.40078 149.000
77.42073 111.000
77.44068 129.000
77.46062 107.000
77.48057 115.000
77.50052 109.000
77.52047 93.000
77.54041 101.000
77.56036 104.000
77.58031 92.000
77.60025 88.000
77.62020 73.000
77.64015 75.000
77.66009 82.000
77.68004 76.000
77.69999 66.000
77.71994 78.000
77.73988 60.000
77.75983 70.000
77.77978 59.000
77.79972 47.000
77.81967 59.000
77.83962 63.000
77.85956 43.000
77.87951 50.000
77.89946 47.000
77.91940 48.000
77.93935 45.000
77.95930 51.000
77.97925 57.000
77.99919 47.000
78.01914 45.000
78.03909 57.000
78.05903 50.000
78.07898 51.000
78.09893 40.000
78.11887 41.000
78.13882 49.000
78.15877 43.000
78.17872 54.000
78.19866 41.000
78.21861 53.000
78.23856 35.000
78.25850 38.000
78.27845 42.000
78.29840 47.000
78.31834 44.000
78.33829 44.000
78.35824 45.000
78.37819 40.000
78.39813 45.000
78.41808 39.000
78.43803 26.000
78.45797 48.000
78.47792 58.000
78.49787 47.000
78.51781 40.000
78.53776 42.000
78.55771 42.000
78.57765 37.000
78.59760 43.000
78.61755 37.000
78.63750 38.000
78.65744 44.000
78.67739 39.000
78.69734 54.000
78.71728 39.000
78.73723 40.000
78.75718 48.000
78.77712 33.000
78.79707 52.000
78.81702 38.000
78.83697 41.000
78.85691 47.000
78.87686 44.000
78.89681 33.000
78.91675 42.000
78.93670 34.000
78.95665 35.000
78.97659 42.000
78.99654 45.000
79.01649 43.000
79.03643 32.000
79.05638 46.000
79.07633 33.000
79.09628 35.000
79.11622 36.000
79.13617 49.000
79.15612 42.000
79.17606 37.000
79.19601 38.000
79.21596 46.000
79.23590 55.000
79.25585 44.000
79.27580 39.000
79.29575 49.000
79.31569 51.000
79.33564 45.000
79.35559 51.000
79.37553 43.000
79.39548 45.000
79.41543 46.000
79.43537 41.000
79.45532 49.000
79.47527 47.000
79.49521 40.000
79.51516 40.000
79.53511 39.000
79.55506 47.000
79.57500 58.000
79.59495 53.000
79.61490 47.000
79.63484 46.000
79.65479 42.000
79.67474 51.000
79.69468 43.000
79.71463 50.000
79.73458 43.000
79.75453 39.000
79.77447 47.000
79.79442 42.000
79.81437 52.000
79.83431 34.000
79.85426 41.000
79.87421 43.000
79.89415 44.000
79.91410 44.000
79.93405 34.000
79.95399 58.000
79.97394 36.000
79.99389 29.000
80.01384 45.000
80.03378 36.000
80.05373 43.000
80.07368 56.000
80.09362 42.000
80.11357 42.000
80.13352 30.000
80.15346 41.000
80.17341 37.000
80.19336 48.000
80.21331 38.000
80.23325 36.000
80.25320 32.000
80.27315 39.000
80.29309 38.000
80.31304 37.000
80.33299 47.000
80.35293 36.000
80.37288 42.000
80.39283 45.000
80.41278 29.000
80.43272 42.000
80.45267 38.000
80.47262 50.000
80.49256 46.000
80.51251 38.000
80.53246 46.000
80.55240 32.000
80.57235 48.000
80.59230 33.000
80.61224 46.000
80.63219 36.000
80.65214 43.000
80.67209 35.000
80.69203 38.000
80.71198 41.000
80.73193 38.000
80.75187 39.000
80.77182 33.000
80.79177 29.000
80.81171 34.000
80.83166 36.000
80.85161 41.000
80.87156 28.000
80.89150 38.000
80.91145 35.000
80.93140 29.000
80.95134 35.000
80.97129 41.000
80.99124 58.000
81.01118 44.000
81.03113 47.000
81.05108 38.000
81.07102 34.000
81.09097 37.000
81.11092 37.000
81.13087 34.000
81.15081 35.000
81.17076 39.000
81.19071 45.000
81.21065 48.000
81.23060 42.000
81.25055 33.000
81.27049 38.000
81.29044 36.000
81.31039 44.000
81.33034 38.000
81.35028 45.000
81.37023 42.000
81.39018 31.000
81.41012 31.000
81.43007 34.000
81.45002 38.000
81.46996 45.000
81.48991 41.000
81.50986 34.000
81.52980 40.000
81.54975 30.000
81.56970 35.000
81.58965 29.000
81.60959 35.000
81.62954 22.000
81.64949 39.000
81.66943 25.000
81.68938 55.000
81.70933 36.000
81.72927 47.000
81.74922 39.000
81.76917 50.000
81.78912 35.000
81.80906 42.000
81.82901 37.000
81.84896 42.000
81.86890 26.000
81.88885 33.000
81.90880 38.000
81.92874 34.000
81.94869 40.000
81.96864 47.000
81.98859 47.000
82.00853 28.000
82.02848 32.000
82.04843 39.000
82.06837 37.000
82.08832 33.000
82.10827 36.000
82.12821 46.000
82.14816 45.000
82.16811 38.000
82.18805 45.000
82.20800 28.000
82.22795 26.000
82.24790 42.000
82.26784 42.000
82.28779 27.000
82.30774 36.000
82.32768 39.000
82.34763 39.000
82.36758 39.000
82.38752 37.000
82.40747 42.000
82.42742 37.000
82.44737 42.000
82.46731 32.000
82.48726 34.000
82.50721 39.000
82.52715 34.000
82.54710 46.000
82.56705 45.000
82.58699 45.000
82.60694 37.000
82.62689 44.000
82.64683 31.000
82.66678 32.000
82.68673 39.000
82.70668 33.000
82.72662 37.000
82.74657 27.000
82.76652 36.000
82.78646 35.000
82.80641 29.000
82.82636 40.000
82.84630 39.000
82.86625 33.000
82.88620 32.000
82.90615 35.000
82.92609 37.000
82.94604 43.000
82.96599 28.000
82.98593 51.000
83.00588 44.000
83.02583 36.000
83.04577 51.000
83.06572 33.000
83.08567 55.000
83.10561 46.000
83.12556 37.000
83.14551 37.000
83.16546 32.000
83.18540 36.000
83.20535 44.000
83.22530 48.000
83.24524 40.000
83.26519 44.000
83.28514 30.000
83.30508 25.000
83.32503 44.000
83.34498 29.000
83.36493 33.000
83.38487 32.000
83.40482 38.000
83.42477 38.000
83.44471 43.000
83.46466 28.000
83.48461 44.000
83.50455 35.000
83.52450 48.000
83.54445 36.000
83.56440 41.000
83.58434 31.000
83.60429 32.000
83.62424 43.000
83.64418 27.000
83.66413 47.000
83.68408 36.000
83.70402 42.000
83.72397 26.000
83.74392 39.000
83.76386 46.000
83.78381 35.000
83.80376 39.000
83.82371 34.000
83.84365 35.000
83.86360 30.000
83.88355 36.000
83.90349 42.000
83.92344 48.000
83.94339 51.000
83.96333 31.000
83.98328 33.000
84.00323 41.000
84.02318 39.000
84.04312 42.000
84.06307 31.000
84.08302 57.000
84.10296 55.000
84.12291 41.000
84.14286 41.000
84.16280 34.000
84.18275 46.000
84.20270 50.000
84.22264 41.000
84.24259 44.000
84.26254 39.000
84.28249 43.000
84.30243 39.000
84.32238 38.000
84.34233 39.000
84.36227 55.000
84.38222 42.000
84.40217 43.000
84.42211 38.000
84.44206 33.000
84.46201 33.000
84.48196 41.000
84.50190 55.000
84.52185 35.000
84.54180 35.000
84.56174 31.000
84.58169 40.000
84.60164 33.000
84.62158 29.000
84.64153 44.000
84.66148 40.000
84.68142 31.000
84.70137 30.000
84.72132 33.000
84.74127 31.000
84.76121 39.000
84.78116 45.000
84.80111 35.000
84.82105 38.000
84.84100 41.000
84.86095 29.000
84.88089 38.000
84.90084 32.000
84.92079 34.000
84.94074 39.000
84.96068 38.000
84.98063 40.000
85.00058 47.000
85.02052 27.000
85.04047 29.000
85.06042 43.000
85.08036 38.000
85.10031 39.000
85.12026 36.000
85.14021 45.000
85.16015 42.000
85.18010 42.000
85.20005 38.000
85.21999 30.000
85.23994 35.000
85.25989 33.000
85.27983 46.000
85.29978 44.000
85.31973 34.000
85.33967 52.000
85.35962 50.000
85.37957 38.000
85.39952 39.000
85.41946 53.000
85.43941 47.000
85.45936 44.000
85.47930 35.000
85.49925 43.000
85.51920 42.000
85.53914 48.000
85.55909 35.000
85.57904 38.000
85.59899 53.000
85.61893 40.000
85.63888 32.000
85.65883 47.000
85.67877 30.000
85.69872 35.000
85.71867 46.000
85.73861 42.000
85.75856 34.000
85.77851 69.000
85.79845 62.000
85.81840 56.000
85.83835 42.000
85.85830 56.000
85.87824 47.000
85.89819 47.000
85.91814 71.000
85.93808 72.000
85.95803 63.000
85.97798 53.000
85.99792 55.000
86.01787 59.000
86.03782 60.000
86.05777 55.000
86.07771 46.000
86.09766 62.000
86.11761 61.000
86.13755 75.000
86.15750 49.000
86.17745 54.000
86.19739 53.000
86.21734 59.000
86.23729 51.000
86.25723 45.000
86.27718 60.000
86.29713 52.000
86.31708 52.000
86.33702 44.000
86.35697 45.000
86.37692 41.000
86.39686 48.000
86.41681 40.000
86.43676 53.000
86.45670 46.000
86.47665 47.000
86.49660 50.000
86.51655 41.000
86.53649 45.000
86.55644 48.000
86.57639 55.000
86.59633 49.000
86.61628 47.000
86.63623 55.000
86.65617 37.000
86.67612 36.000
86.69607 47.000
86.71602 49.000
86.73596 46.000
86.75591 35.000
86.77586 38.000
86.79580 45.000
86.81575 52.000
86.83570 33.000
86.85564 48.000
86.87559 47.000
86.89554 43.000
86.91548 51.000
86.93543 49.000
86.95538 48.000
86.97533 34.000
86.99527 48.000
87.01522 37.000
87.03517 50.000
87.05511 34.000
87.07506 40.000
87.09501 32.000
87.11495 35.000
87.13490 42.000
87.15485 37.000
87.17480 39.000
87.19474 46.000
87.21469 42.000
87.23464 42.000
87.25458 41.000
87.27453 34.000
87.29448 48.000
87.31442 45.000
87.33437 41.000
87.35432 40.000
87.37426 35.000
87.39421 45.000
87.41416 39.000
87.43411 39.000
87.45405 33.000
87.47400 47.000
87.49395 28.000
87.51389 34.000
87.53384 36.000
87.55379 35.000
87.57373 36.000
87.59368 33.000
87.61363 42.000
87.63358 46.000
87.65352 37.000
87.67347 22.000
87.69342 36.000
87.71336 42.000
87.73331 37.000
87.75326 47.000
87.77320 35.000
87.79315 39.000
87.81310 47.000
87.83304 29.000
87.85299 36.000
87.87294 32.000
87.89289 42.000
87.91283 42.000
87.93278 45.000
87.95273 33.000
87.97267 39.000
87.99262 37.000
88.01257 47.000
88.03251 27.000
88.05246 46.000
88.07241 40.000
88.09236 31.000
88.11230 32.000
88.13225 37.000
88.15220 43.000
88.17214 30.000
88.19209 38.000
88.21204 26.000
88.23198 44.000
88.25193 39.000
88.27188 33.000
88.29183 31.000
88.31177 32.000
88.33172 40.000
88.35167 34.000
88.37161 44.000
88.39156 39.000
88.41151 40.000
88.43145 29.000
88.45140 37.000
88.47135 29.000
88.49129 36.000
88.51124 38.000
88.53119 38.000
88.55114 32.000
88.57108 28.000
88.59103 27.000
88.61098 31.000
88.63092 41.000
88.65087 43.000
88.67082 37.000
88.69076 40.000
88.71071 36.000
88.73066 36.000
88.75061 30.000
88.77055 33.000
88.79050 46.000
88.81045 45.000
88.83039 46.000
88.85034 38.000
88.87029 39.000
88.89023 46.000
88.91018 35.000
88.93013 53.000
88.95007 41.000
88.97002 43.000
88.98997 39.000
89.00992 57.000
89.02986 42.000
89.04981 48.000
89.06976 55.000
89.08970 41.000
89.10965 50.000
89.12960 58.000
89.14954 53.000
89.16949 56.000
89.18944 54.000
89.20939 51.000
89.22933 50.000
89.24928 46.000
89.26923 47.000
89.28917 51.000
89.30912 37.000
89.32907 60.000
89.34901 48.000
89.36896 52.000
89.38891 42.000
89.40885 45.000
89.42880 55.000
89.44875 67.000
89.46870 53.000
89.48864 60.000
89.50859 63.000
89.52854 56.000
89.54848 64.000
89.56843 70.000
89.58838 75.000
89.60832 71.000
89.62827 66.000
89.64822 74.000
89.66817 77.000
89.68811 92.000
89.70806 90.000
89.72801 85.000
89.74795 89.000
89.76790 97.000
89.78785 104.000
89.80779 88.000
89.82774 103.000
89.84769 103.000
89.86764 80.000
89.88758 104.000
89.90753 98.000
89.92748 95.000
89.94742 89.000
89.96737 90.000
89.98732 109.000
90.00726 104.000
