10.00000 227.000
10.01995 205.000
10.03989 208.000
10.05984 207.000
10.07979 210.000
10.09973 209.000
10.11968 218.000
10.13963 196.000
10.15958 193.000
10.17952 207.000
10.19947 206.000
10.21942 206.000
10.23936 212.000
10.25931 227.000
10.27926 195.000
10.29920 217.000
10.31915 199.000
10.33910 205.000
10.35905 205.000
10.37899 221.000
10.39894 169.000
10.41889 211.000
10.43883 219.000
10.45878 217.000
10.47873 219.000
10.49867 198.000
10.51862 209.000
10.53857 223.000
10.55851 180.000
10.57846 203.000
10.59841 226.000
10.61836 199.000
10.63830 220.000
10.65825 242.000
10.67820 223.000
10.69814 191.000
10.71809 220.000
10.73804 248.000
10.75798 223.000
10.77793 214.000
10.79788 218.000
10.81783 207.000
10.83777 199.000
10.85772 195.000
10.87767 215.000
10.89761 226.000
10.91756 197.000
10.93751 217.000
10.95745 195.000
10.97740 222.000
10.99735 204.000
11.01730 216.000
11.03724 229.000
11.05719 234.000
11.07714 243.000
11.09708 206.000
11.11703 215.000
11.13698 213.000
11.15692 224.000
11.17687 238.000
11.19682 224.000
11.21676 201.000
11.23671 219.000
11.25666 226.000
11.27661 201.000
11.29655 228.000
11.31650 192.000
11.33645 232.000
11.35639 200.000
11.37634 212.000
11.39629 199.000
11.41623 206.000
11.43618 236.000
11.45613 216.000
11.47608 195.000
11.49602 191.000
11.51597 220.000
11.53592 267.000
11.55586 237.000
11.57581 196.000
11.59576 215.000
11.61570 212.000
11.63565 232.000
11.65560 226.000
11.67554 212.000
11.69549 199.000
11.71544 206.000
11.73539 203.000
11.75533 229.000
11.77528 190.000
11.79523 182.000
11.81517 229.000
11.83512 213.000
11.85507 213.000
11.87501 262.000
11.89496 231.000
11.91491 237.000
11.93486 219.000
11.95480 192.000
11.97475 222.000
11.99470 230.000
12.01464 213.000
12.03459 221.000
12.05454 217.000
12.07448 198.000
12.09443 208.000
12.11438 231.000
12.13432 232.000
12.15427 229.000
12.17422 220.000
12.19417 194.000
12.21411 212.000
12.23406 210.000
12.25401 220.000
12.27395 194.000
12.29390 209.000
12.31385 235.000
12.33379 227.000
12.35374 214.000
12.37369 214.000
12.39364 206.000
12.41358 213.000
12.43353 224.000
12.45348 242.000
12.47342 206.000
12.49337 223.000
12.51332 208.000
12.53326 195.000
12.55321 216.000
12.57316 197.000
12.59311 241.000
12.61305 224.000
12.63300 204.000
12.65295 236.000
12.67289 196.000
12.69284 213.000
12.71279 245.000
12.73273 218.000
12.75268 211.000
12.77263 214.000
12.79257 227.000
12.81252 203.000
12.83247 220.000
12.85242 199.000
12.87236 233.000
12.89231 219.000
12.91226 202.000
12.93220 209.000
12.95215 202.000
12.97210 219.000
12.99204 224.000
13.01199 222.000
13.03194 212.000
13.05189 214.000
13.07183 197.000
13.09178 211.000
13.11173 205.000
13.13167 235.000
13.15162 222.000
13.17157 227.000
13.19151 213.000
13.21146 218.000
13.23141 247.000
13.25135 209.000
13.27130 199.000
13.29125 234.000
13.31120 230.000
13.33114 222.000
13.35109 209.000
13.37104 196.000
13.39098 230.000
13.41093 221.000
13.43088 222.000
13.45082 214.000
13.47077 208.000
13.49072 238.000
13.51067 230.000
13.53061 211.000
13.55056 236.000
13.57051 250.000
13.59045 234.000
13.61040 202.000
13.63035 178.000
13.65029 241.000
13.67024 213.000
13.69019 218.000
13.71013 215.000
13.73008 214.000
13.75003 216.000
13.76998 236.000
13.78992 188.000
13.80987 247.000
13.82982 226.000
13.84976 224.000
13.86971 216.000
13.88966 226.000
13.90960 210.000
13.92955 223.000
13.94950 214.000
13.96945 218.000
13.98939 243.000
14.00934 239.000
14.02929 214.000
14.04923 228.000
14.06918 204.000
14.08913 196.000
14.10907 216.000
14.12902 220.000
14.14897 213.000
14.16892 181.000
14.18886 240.000
14.20881 235.000
14.22876 236.000
14.24870 212.000
14.26865 225.000
14.28860 240.000
14.30854 229.000
14.32849 206.000
14.34844 217.000
14.36838 231.000
14.38833 229.000
14.40828 234.000
14.42823 208.000
14.44817 234.000
14.46812 242.000
14.48807 267.000
14.50801 215.000
14.52796 202.000
14.54791 221.000
14.56785 212.000
14.58780 206.000
14.60775 220.000
14.62770 230.000
14.64764 216.000
14.66759 242.000
14.68754 252.000
14.70748 195.000
14.72743 234.000
14.74738 188.000
14.76732 239.000
14.78727 252.000
14.80722 238.000
14.82716 264.000
14.84711 222.000
14.86706 224.000
14.88701 228.000
14.90695 229.000
14.92690 221.000
14.94685 256.000
14.96679 243.000
14.98674 222.000
15.00669 241.000
15.02663 196.000
15.04658 205.000
15.06653 211.000
15.08648 228.000
15.10642 223.000
15.12637 233.000
15.14632 217.000
15.16626 236.000
15.18621 219.000
15.20616 215.000
15.22610 229.000
15.24605 250.000
15.26600 207.000
15.28594 244.000
15.30589 228.000
15.32584 234.000
15.34579 230.000
15.36573 244.000
15.38568 228.000
15.40563 251.000
15.42557 241.000
15.44552 268.000
15.46547 227.000
15.48541 260.000
15.50536 249.000
15.52531 255.000
15.54526 242.000
15.56520 255.000
15.58515 247.000
15.60510 273.000
15.62504 289.000
15.64499 315.000
15.66494 295.000
15.68488 343.000
15.70483 345.000
15.72478 331.000
15.74472 432.000
15.76467 484.000
15.78462 594.000
15.80457 720.000
15.82451 905.000
15.84446 907.000
15.86441 919.000
15.88435 887.000
15.90430 795.000
15.92425 593.000
15.94419 445.000
15.96414 373.000
15.98409 327.000
16.00404 305.000
16.02398 296.000
16.04393 313.000
16.06388 342.000
16.08382 361.000
16.10377 368.000
16.12372 365.000
16.14366 440.000
16.16361 437.000
16.18356 471.000
16.20351 539.000
16.22345 586.000
16.24340 556.000
16.26335 646.000
16.28329 696.000
16.30324 774.000
16.32319 837.000
16.34313 851.000
16.36308 950.000
16.38303 862.000
16.40297 760.000
16.42292 609.000
16.44287 483.000
16.46282 421.000
16.48276 323.000
16.50271 323.000
16.52266 310.000
16.54260 284.000
16.56255 300.000
16.58250 263.000
16.60244 259.000
16.62239 264.000
16.64234 254.000
16.66229 274.000
16.68223 265.000
16.70218 261.000
16.72213 257.000
16.74207 244.000
16.76202 266.000
16.78197 280.000
16.80191 278.000
16.82186 289.000
16.84181 265.000
16.86175 276.000
16.88170 295.000
16.90165 259.000
16.92160 254.000
16.94154 248.000
16.96149 258.000
16.98144 254.000
17.00138 233.000
17.02133 242.000
17.04128 226.000
17.06122 224.000
17.08117 256.000
17.10112 220.000
17.12107 249.000
17.14101 232.000
17.16096 223.000
17.18091 224.000
17.20085 250.000
17.22080 257.000
17.24075 240.000
17.26069 214.000
17.28064 244.000
17.30059 236.000
17.32053 267.000
17.34048 232.000
17.36043 227.000
17.38038 226.000
17.40032 228.000
17.42027 231.000
17.44022 248.000
17.46016 216.000
17.48011 232.000
17.50006 221.000
17.52000 231.000
17.53995 233.000
17.55990 234.000
17.57985 257.000
17.59979 196.000
17.61974 231.000
17.63969 231.000
17.65963 231.000
17.67958 190.000
17.69953 245.000
17.71947 242.000
17.73942 233.000
17.75937 228.000
17.77932 236.000
17.79926 255.000
17.81921 220.000
17.83916 235.000
17.85910 247.000
17.87905 215.000
17.89900 235.000
17.91894 237.000
17.93889 244.000
17.95884 242.000
17.97878 218.000
17.99873 242.000
18.01868 227.000
18.03863 233.000
18.05857 248.000
18.07852 233.000
18.09847 235.000
18.11841 240.000
18.13836 239.000
18.15831 251.000
18.17825 245.000
18.19820 256.000
18.21815 229.000
18.23810 243.000
18.25804 262.000
18.27799 254.000
18.29794 300.000
18.31788 300.000
18.33783 340.000
18.35778 403.000
18.37772 438.000
18.39767 426.000
18.41762 380.000
18.43756 326.000
18.45751 292.000
18.47746 293.000
18.49741 235.000
18.51735 264.000
18.53730 249.000
18.55725 231.000
18.57719 223.000
18.59714 243.000
18.61709 231.000
18.63703 251.000
18.65698 242.000
18.67693 241.000
18.69688 217.000
18.71682 225.000
18.73677 224.000
18.75672 247.000
18.77666 245.000
18.79661 226.000
18.81656 233.000
18.83650 220.000
18.85645 242.000
18.87640 217.000
18.89634 261.000
18.91629 235.000
18.93624 210.000
18.95619 227.000
18.97613 232.000
18.99608 238.000
19.01603 245.000
19.03597 224.000
19.05592 254.000
19.07587 228.000
19.09581 241.000
19.11576 220.000
19.13571 245.000
19.15566 224.000
19.17560 213.000
19.19555 237.000
19.21550 224.000
19.23544 237.000
19.25539 241.000
19.27534 229.000
19.29528 250.000
19.31523 251.000
19.33518 235.000
19.35513 257.000
19.37507 239.000
19.39502 235.000
19.41497 238.000
19.43491 260.000
19.45486 235.000
19.47481 258.000
19.49475 239.000
19.51470 226.000
19.53465 260.000
19.55459 245.000
19.57454 233.000
19.59449 249.000
19.61444 246.000
19.63438 218.000
19.65433 208.000
19.67428 248.000
19.69422 251.000
19.71417 250.000
19.73412 270.000
19.75406 236.000
19.77401 251.000
19.79396 223.000
19.81391 210.000
19.83385 221.000
19.85380 226.000
19.87375 255.000
19.89369 240.000
19.91364 247.000
19.93359 256.000
19.95353 252.000
19.97348 266.000
19.99343 240.000
20.01337 200.000
20.03332 246.000
20.05327 224.000
20.07322 255.000
20.09316 237.000
20.11311 244.000
20.13306 261.000
20.15300 231.000
20.17295 261.000
20.19290 228.000
20.21284 255.000
20.23279 254.000
20.25274 240.000
20.27269 242.000
20.29263 229.000
20.31258 235.000
20.33253 264.000
20.35247 248.000
20.37242 248.000
20.39237 212.000
20.41231 237.000
20.43226 244.000
20.45221 260.000
20.47215 247.000
20.49210 279.000
20.51205 283.000
20.53200 276.000
20.55194 287.000
20.57189 296.000
20.59184 242.000
20.61178 287.000
20.63173 251.000
20.65168 310.000
20.67162 341.000
20.69157 362.000
20.71152 365.000
20.73147 425.000
20.75141 413.000
20.77136 490.000
20.79131 533.000
20.81125 523.000
20.83120 586.000
20.85115 599.000
20.87109 611.000
20.89104 562.000
20.91099 616.000
20.93094 493.000
20.95088 558.000
20.97083 512.000
20.99078 512.000
21.01072 531.000
21.03067 448.000
21.05062 437.000
21.07056 423.000
21.09051 359.000
21.11046 315.000
21.13040 294.000
21.15035 273.000
21.17030 292.000
21.19025 252.000
21.21019 275.000
21.23014 252.000
21.25009 240.000
21.27003 232.000
21.28998 239.000
21.30993 240.000
21.32987 225.000
21.34982 262.000
21.36977 217.000
21.38972 236.000
21.40966 242.000
21.42961 241.000
21.44956 231.000
21.46950 222.000
21.48945 236.000
21.50940 233.000
21.52934 234.000
21.54929 239.000
21.56924 232.000
21.58918 240.000
21.60913 259.000
21.62908 240.000
21.64903 242.000
21.66897 232.000
21.68892 254.000
21.70887 246.000
21.72881 256.000
21.74876 252.000
21.76871 255.000
21.78865 260.000
21.80860 280.000
21.82855 252.000
21.84850 211.000
21.86844 267.000
21.88839 241.000
21.90834 242.000
21.92828 238.000
21.94823 240.000
21.96818 230.000
21.98812 261.000
22.00807 249.000
22.02802 248.000
22.04796 247.000
22.06791 261.000
22.08786 253.000
22.10781 247.000
22.12775 252.000
22.14770 272.000
22.16765 241.000
22.18759 278.000
22.20754 220.000
22.22749 241.000
22.24743 251.000
22.26738 232.000
22.28733 243.000
22.30728 246.000
22.32722 232.000
22.34717 232.000
22.36712 237.000
22.38706 263.000
22.40701 224.000
22.42696 246.000
22.44690 221.000
22.46685 217.000
22.48680 270.000
22.50675 218.000
22.52669 273.000
22.54664 227.000
22.56659 266.000
22.58653 237.000
22.60648 234.000
22.62643 257.000
22.64637 237.000
22.66632 224.000
22.68627 234.000
22.70621 235.000
22.72616 238.000
22.74611 261.000
22.76606 235.000
22.78600 271.000
22.80595 242.000
22.82590 232.000
22.84584 237.000
22.86579 260.000
22.88574 233.000
22.90568 238.000
22.92563 254.000
22.94558 255.000
22.96553 234.000
22.98547 246.000
23.00542 258.000
23.02537 252.000
23.04531 245.000
23.06526 257.000
23.08521 274.000
23.10515 223.000
23.12510 246.000
23.14505 226.000
23.16499 252.000
23.18494 233.000
23.20489 272.000
23.22484 261.000
23.24478 277.000
23.26473 245.000
23.28468 248.000
23.30462 247.000
23.32457 265.000
23.34452 272.000
23.36446 277.000
23.38441 241.000
23.40436 251.000
23.42431 257.000
23.44425 253.000
23.46420 246.000
23.48415 251.000
23.50409 234.000
23.52404 261.000
23.54399 267.000
23.56393 238.000
23.58388 236.000
23.60383 250.000
23.62377 261.000
23.64372 261.000
23.66367 247.000
23.68362 248.000
23.70356 260.000
23.72351 278.000
23.74346 240.000
23.76340 267.000
23.78335 271.000
23.80330 238.000
23.82324 242.000
23.84319 254.000
23.86314 255.000
23.88309 253.000
23.90303 273.000
23.92298 262.000
23.94293 270.000
23.96287 286.000
23.98282 257.000
24.00277 273.000
24.02271 221.000
24.04266 258.000
24.06261 277.000
24.08256 247.000
24.10250 262.000
24.12245 271.000
24.14240 267.000
24.16234 255.000
24.18229 291.000
24.20224 295.000
24.22218 284.000
24.24213 286.000
24.26208 265.000
24.28202 263.000
24.30197 273.000
24.32192 257.000
24.34187 306.000
24.36181 262.000
24.38176 288.000
24.40171 259.000
24.42165 278.000
24.44160 259.000
24.46155 236.000
24.48149 250.000
24.50144 292.000
24.52139 251.000
24.54134 263.000
24.56128 250.000
24.58123 260.000
24.60118 265.000
24.62112 272.000
24.64107 253.000
24.66102 305.000
24.68096 290.000
24.70091 247.000
24.72086 272.000
24.74080 260.000
24.76075 257.000
24.78070 269.000
24.80065 268.000
24.82059 276.000
24.84054 262.000
24.86049 247.000
24.88043 296.000
24.90038 268.000
24.92033 256.000
24.94027 268.000
24.96022 269.000
24.98017 261.000
25.00012 296.000
25.02006 303.000
25.04001 292.000
25.05996 300.000
25.07990 271.000
25.09985 244.000
25.11980 267.000
25.13974 271.000
25.15969 297.000
25.17964 262.000
25.19958 263.000
25.21953 253.000
25.23948 235.000
25.25943 289.000
25.27937 265.000
25.29932 264.000
25.31927 259.000
25.33921 279.000
25.35916 269.000
25.37911 268.000
25.39905 278.000
25.41900 252.000
25.43895 273.000
25.45890 307.000
25.47884 272.000
25.49879 256.000
25.51874 253.000
25.53868 249.000
25.55863 226.000
25.57858 280.000
25.59852 245.000
25.61847 283.000
25.63842 268.000
25.65837 272.000
25.67831 253.000
25.69826 251.000
25.71821 261.000
25.73815 268.000
25.75810 266.000
25.77805 296.000
25.79799 272.000
25.81794 288.000
25.83789 295.000
25.85783 266.000
25.87778 278.000
25.89773 295.000
25.91768 250.000
25.93762 256.000
25.95757 273.000
25.97752 293.000
25.99746 237.000
26.01741 281.000
26.03736 275.000
26.05730 295.000
26.07725 226.000
26.09720 282.000
26.11715 286.000
26.13709 267.000
26.15704 243.000
26.17699 248.000
26.19693 271.000
26.21688 276.000
26.23683 300.000
26.25677 277.000
26.27672 279.000
26.29667 277.000
26.31661 288.000
26.33656 262.000
26.35651 272.000
26.37646 292.000
26.39640 288.000
26.41635 300.000
26.43630 281.000
26.45624 265.000
26.47619 282.000
26.49614 285.000
26.51608 272.000
26.53603 277.000
26.55598 261.000
26.57593 273.000
26.59587 291.000
26.61582 263.000
26.63577 313.000
26.65571 284.000
26.67566 285.000
26.69561 298.000
26.71555 311.000
26.73550 287.000
26.75545 270.000
26.77539 295.000
26.79534 287.000
26.81529 263.000
26.83524 281.000
26.85518 284.000
26.87513 260.000
26.89508 272.000
26.91502 277.000
26.93497 272.000
26.95492 295.000
26.97486 316.000
26.99481 313.000
27.01476 292.000
27.03471 263.000
27.05465 292.000
27.07460 308.000
27.09455 268.000
27.11449 289.000
27.13444 265.000
27.15439 266.000
27.17433 325.000
27.19428 284.000
27.21423 269.000
27.23417 277.000
27.25412 311.000
27.27407 267.000
27.29402 274.000
27.31396 257.000
27.33391 277.000
27.35386 290.000
27.37380 302.000
27.39375 298.000
27.41370 294.000
27.43364 263.000
27.45359 250.000
27.47354 316.000
27.49349 261.000
27.51343 276.000
27.53338 309.000
27.55333 288.000
27.57327 286.000
27.59322 281.000
27.61317 257.000
27.63311 288.000
27.65306 280.000
27.67301 296.000
27.69296 300.000
27.71290 299.000
27.73285 284.000
27.75280 319.000
27.77274 306.000
27.79269 268.000
27.81264 308.000
27.83258 282.000
27.85253 288.000
27.87248 273.000
27.89242 311.000
27.91237 313.000
27.93232 301.000
27.95227 274.000
27.97221 288.000
27.99216 265.000
28.01211 301.000
28.03205 269.000
28.05200 291.000
28.07195 322.000
28.09189 318.000
28.11184 292.000
28.13179 271.000
28.15174 281.000
28.17168 269.000
28.19163 283.000
28.21158 313.000
28.23152 296.000
28.25147 310.000
28.27142 295.000
28.29136 324.000
28.31131 270.000
28.33126 299.000
28.35120 276.000
28.37115 294.000
28.39110 327.000
28.41105 317.000
28.43099 299.000
28.45094 297.000
28.47089 267.000
28.49083 292.000
28.51078 315.000
28.53073 318.000
28.55067 295.000
28.57062 288.000
28.59057 282.000
28.61052 304.000
28.63046 306.000
28.65041 336.000
28.67036 304.000
28.69030 305.000
28.71025 281.000
28.73020 307.000
28.75014 278.000
28.77009 299.000
28.79004 298.000
28.80998 289.000
28.82993 316.000
28.84988 303.000
28.86983 293.000
28.88977 281.000
28.90972 314.000
28.92967 298.000
28.94961 289.000
28.96956 324.000
28.98951 332.000
29.00945 298.000
29.02940 295.000
29.04935 271.000
29.06930 297.000
29.08924 307.000
29.10919 321.000
29.12914 322.000
29.14908 288.000
29.16903 276.000
29.18898 328.000
29.20892 315.000
29.22887 333.000
29.24882 277.000
29.26877 350.000
29.28871 386.000
29.30866 362.000
29.32861 358.000
29.34855 359.000
29.36850 445.000
29.38845 399.000
29.40839 362.000
29.42834 373.000
29.44829 375.000
29.46823 352.000
29.48818 403.000
29.50813 331.000
29.52808 348.000
29.54802 323.000
29.56797 320.000
29.58792 311.000
29.60786 319.000
29.62781 323.000
29.64776 301.000
29.66770 314.000
29.68765 316.000
29.70760 296.000
29.72755 319.000
29.74749 313.000
29.76744 318.000
29.78739 324.000
29.80733 330.000
29.82728 290.000
29.84723 320.000
29.86717 308.000
29.88712 302.000
29.90707 323.000
29.92701 328.000
29.94696 315.000
29.96691 312.000
29.98686 330.000
30.00680 352.000
30.02675 343.000
30.04670 350.000
30.06664 367.000
30.08659 353.000
30.10654 376.000
30.12648 418.000
30.14643 420.000
30.16638 452.000
30.18633 493.000
30.20627 574.000
30.22622 659.000
30.24617 843.000
30.26611 803.000
30.28606 627.000
30.30601 589.000
30.32595 636.000
30.34590 573.000
30.36585 475.000
30.38579 396.000
30.40574 346.000
30.42569 376.000
30.44564 352.000
30.46558 289.000
30.48553 276.000
30.50548 296.000
30.52542 314.000
30.54537 301.000
30.56532 332.000
30.58526 328.000
30.60521 300.000
30.62516 294.000
30.64511 316.000
30.66505 304.000
30.68500 303.000
30.70495 302.000
30.72489 261.000
30.74484 308.000
30.76479 294.000
30.78473 296.000
30.80468 305.000
30.82463 301.000
30.84458 292.000
30.86452 325.000
30.88447 295.000
30.90442 325.000
30.92436 300.000
30.94431 312.000
30.96426 297.000
30.98420 318.000
31.00415 348.000
31.02410 303.000
31.04404 301.000
31.06399 303.000
31.08394 317.000
31.10389 275.000
31.12383 286.000
31.14378 296.000
31.16373 276.000
31.18367 313.000
31.20362 318.000
31.22357 295.000
31.24351 329.000
31.26346 326.000
31.28341 287.000
31.30336 314.000
31.32330 313.000
31.34325 291.000
31.36320 307.000
31.38314 305.000
31.40309 320.000
31.42304 309.000
31.44298 290.000
31.46293 310.000
31.48288 294.000
31.50282 313.000
31.52277 304.000
31.54272 276.000
31.56267 353.000
31.58261 296.000
31.60256 265.000
31.62251 304.000
31.64245 293.000
31.66240 324.000
31.68235 334.000
31.70229 305.000
31.72224 279.000
31.74219 304.000
31.76214 297.000
31.78208 306.000
31.80203 296.000
31.82198 323.000
31.84192 337.000
31.86187 317.000
31.88182 325.000
31.90176 319.000
31.92171 343.000
31.94166 318.000
31.96160 341.000
31.98155 346.000
32.00150 372.000
32.02145 392.000
32.04139 365.000
32.06134 329.000
32.08129 394.000
32.10123 357.000
32.12118 359.000
32.14113 345.000
32.16107 364.000
32.18102 315.000
32.20097 319.000
32.22092 324.000
32.24086 322.000
32.26081 333.000
32.28076 309.000
32.30070 310.000
32.32065 303.000
32.34060 317.000
32.36054 363.000
32.38049 352.000
32.40044 334.000
32.42039 395.000
32.44033 359.000
32.46028 398.000
32.48023 378.000
32.50017 353.000
32.52012 343.000
32.54007 367.000
32.56001 337.000
32.57996 324.000
32.59991 328.000
32.61985 328.000
32.63980 340.000
32.65975 295.000
32.67970 332.000
32.69964 319.000
32.71959 330.000
32.73954 326.000
32.75948 315.000
32.77943 312.000
32.79938 329.000
32.81932 318.000
32.83927 300.000
32.85922 311.000
32.87917 275.000
32.89911 305.000
32.91906 318.000
32.93901 338.000
32.95895 371.000
32.97890 355.000
32.99885 349.000
33.01879 374.000
33.03874 362.000
33.05869 358.000
33.07863 367.000
33.09858 364.000
33.11853 346.000
33.13848 394.000
33.15842 352.000
33.17837 346.000
33.19832 374.000
33.21826 343.000
33.23821 332.000
33.25816 313.000
33.27810 324.000
33.29805 340.000
33.31800 327.000
33.33795 319.000
33.35789 304.000
33.37784 306.000
33.39779 316.000
33.41773 301.000
33.43768 305.000
33.45763 290.000
33.47757 305.000
33.49752 307.000
33.51747 321.000
33.53741 290.000
33.55736 320.000
33.57731 325.000
33.59726 318.000
33.61720 315.000
33.63715 309.000
33.65710 300.000
33.67704 322.000
33.69699 325.000
33.71694 288.000
33.73688 309.000
33.75683 300.000
33.77678 297.000
33.79673 332.000
33.81667 323.000
33.83662 321.000
33.85657 338.000
33.87651 355.000
33.89646 328.000
33.91641 329.000
33.93635 330.000
33.95630 324.000
33.97625 333.000
33.99620 334.000
34.01614 380.000
34.03609 374.000
34.05604 371.000
34.07598 387.000
34.09593 414.000
34.11588 406.000
34.13582 398.000
34.15577 450.000
34.17572 445.000
34.19566 505.000
34.21561 522.000
34.23556 523.000
34.25551 544.000
34.27545 600.000
34.29540 589.000
34.31535 580.000
34.33529 635.000
34.35524 656.000
34.37519 695.000
34.39513 635.000
34.41508 679.000
34.43503 665.000
34.45498 676.000
34.47492 592.000
34.49487 602.000
34.51482 598.000
34.53476 572.000
34.55471 592.000
34.57466 551.000
34.59460 537.000
34.61455 558.000
34.63450 496.000
34.65444 485.000
34.67439 506.000
34.69434 501.000
34.71429 469.000
34.73423 466.000
34.75418 479.000
34.77413 470.000
34.79407 466.000
34.81402 440.000
34.83397 419.000
34.85391 406.000
34.87386 412.000
34.89381 409.000
34.91376 416.000
34.93370 388.000
34.95365 424.000
34.97360 406.000
34.99354 396.000
35.01349 390.000
35.03344 446.000
35.05338 400.000
35.07333 398.000
35.09328 423.000
35.11322 466.000
35.13317 453.000
35.15312 491.000
35.17307 575.000
35.19301 509.000
35.21296 518.000
35.23291 546.000
35.25285 618.000
35.27280 581.000
35.29275 588.000
35.31269 640.000
35.33264 688.000
35.35259 737.000
35.37254 858.000
35.39248 885.000
35.41243 971.000
35.43238 1055.000
35.45232 1070.000
35.47227 1212.000
35.49222 1344.000
35.51216 1436.000
35.53211 1419.000
35.55206 1479.000
35.57201 1584.000
35.59195 1908.000
35.61190 2015.000
35.63185 2137.000
35.65179 2094.000
35.67174 1782.000
35.69169 1481.000
35.71163 1431.000
35.73158 1399.000
35.75153 1187.000
35.77147 906.000
35.79142 748.000
35.81137 609.000
35.83132 618.000
35.85126 541.000
35.87121 506.000
35.89116 443.000
35.91110 450.000
35.93105 408.000
35.95100 426.000
35.97094 392.000
35.99089 385.000
36.01084 423.000
36.03079 393.000
36.05073 368.000
36.07068 381.000
36.09063 375.000
36.11057 381.000
36.13052 392.000
36.15047 377.000
36.17041 353.000
36.19036 372.000
36.21031 343.000
36.23025 364.000
36.25020 380.000
36.27015 406.000
36.29010 355.000
36.31004 397.000
36.32999 358.000
36.34994 389.000
36.36988 414.000
36.38983 420.000
36.40978 402.000
36.42972 428.000
36.44967 452.000
36.46962 485.000
36.48957 450.000
36.50951 453.000
36.52946 498.000
36.54941 443.000
36.56935 473.000
36.58930 470.000
36.60925 472.000
36.62919 529.000
36.64914 463.000
36.66909 458.000
36.68903 485.000
36.70898 505.000
36.72893 502.000
36.74888 514.000
36.76882 508.000
36.78877 524.000
36.80872 545.000
36.82866 545.000
36.84861 575.000
36.86856 589.000
36.88850 673.000
36.90845 670.000
36.92840 703.000
36.94835 753.000
36.96829 715.000
36.98824 881.000
37.00819 876.000
37.02813 913.000
37.04808 994.000
37.06803 983.000
37.08797 1029.000
37.10792 911.000
37.12787 890.000
37.14781 863.000
37.16776 836.000
37.18771 747.000
37.20766 628.000
37.22760 670.000
37.24755 621.000
37.26750 561.000
37.28744 572.000
37.30739 474.000
37.32734 429.000
37.34728 411.000
37.36723 412.000
37.38718 425.000
37.40713 403.000
37.42707 350.000
37.44702 322.000
37.46697 350.000
37.48691 316.000
37.50686 298.000
37.52681 338.000
37.54675 323.000
37.56670 317.000
37.58665 311.000
37.60660 321.000
37.62654 310.000
37.64649 353.000
37.66644 327.000
37.68638 314.000
37.70633 301.000
37.72628 321.000
37.74622 274.000
37.76617 316.000
37.78612 316.000
37.80606 311.000
37.82601 353.000
37.84596 294.000
37.86591 339.000
37.88585 311.000
37.90580 339.000
37.92575 297.000
37.94569 319.000
37.96564 319.000
37.98559 303.000
38.00553 314.000
38.02548 307.000
38.04543 342.000
38.06538 332.000
38.08532 311.000
38.10527 338.000
38.12522 362.000
38.14516 338.000
38.16511 382.000
38.18506 341.000
38.20500 318.000
38.22495 378.000
38.24490 354.000
38.26484 346.000
38.28479 347.000
38.30474 340.000
38.32469 355.000
38.34463 390.000
38.36458 435.000
38.38453 418.000
38.40447 434.000
38.42442 413.000
38.44437 447.000
38.46431 525.000
38.48426 487.000
38.50421 560.000
38.52416 600.000
38.54410 648.000
38.56405 704.000
38.58400 744.000
38.60394 903.000
38.62389 1008.000
38.64384 1043.000
38.66378 1024.000
38.68373 1053.000
38.70368 1082.000
38.72362 971.000
38.74357 1011.000
38.76352 917.000
38.78347 846.000
38.80341 856.000
38.82336 802.000
38.84331 785.000
38.86325 714.000
38.88320 650.000
38.90315 655.000
38.92309 629.000
38.94304 614.000
38.96299 598.000
38.98294 553.000
39.00288 592.000
39.02283 571.000
39.04278 490.000
39.06272 478.000
39.08267 421.000
39.10262 479.000
39.12256 453.000
39.14251 414.000
39.16246 431.000
39.18241 383.000
39.20235 440.000
39.22230 410.000
39.24225 448.000
39.26219 402.000
39.28214 410.000
39.30209 393.000
39.32203 414.000
39.34198 386.000
39.36193 360.000
39.38187 336.000
39.40182 323.000
39.42177 354.000
39.44172 331.000
39.46166 313.000
39.48161 324.000
39.50156 295.000
39.52150 300.000
39.54145 281.000
39.56140 289.000
39.58134 294.000
39.60129 248.000
39.62124 307.000
39.64119 289.000
39.66113 280.000
39.68108 252.000
39.70103 321.000
39.72097 298.000
39.74092 286.000
39.76087 271.000
39.78081 283.000
39.80076 303.000
39.82071 291.000
39.84065 292.000
39.86060 269.000
39.88055 287.000
39.90050 273.000
39.92044 313.000
39.94039 262.000
39.96034 283.000
39.98028 274.000
40.00023 270.000
40.02018 298.000
40.04012 273.000
40.06007 285.000
40.08002 286.000
40.09997 255.000
40.11991 270.000
40.13986 286.000
40.15981 298.000
40.17975 290.000
40.19970 295.000
40.21965 300.000
40.23959 278.000
40.25954 301.000
40.27949 275.000
40.29943 294.000
40.31938 275.000
40.33933 281.000
40.35928 279.000
40.37922 263.000
40.39917 274.000
40.41912 291.000
40.43906 285.000
40.45901 283.000
40.47896 273.000
40.49890 328.000
40.51885 265.000
40.53880 268.000
40.55875 278.000
40.57869 301.000
40.59864 304.000
40.61859 270.000
40.63853 332.000
40.65848 307.000
40.67843 271.000
40.69837 293.000
40.71832 310.000
40.73827 323.000
40.75822 304.000
40.77816 304.000
40.79811 304.000
40.81806 293.000
40.83800 309.000
40.85795 303.000
40.87790 334.000
40.89784 328.000
40.91779 327.000
40.93774 301.000
40.95768 296.000
40.97763 318.000
40.99758 311.000
41.01753 332.000
41.03747 327.000
41.05742 324.000
41.07737 336.000
41.09731 329.000
41.11726 321.000
41.13721 336.000
41.15715 323.000
41.17710 349.000
41.19705 336.000
41.21700 386.000
41.23694 407.000
41.25689 396.000
41.27684 391.000
41.29678 439.000
41.31673 508.000
41.33668 500.000
41.35662 615.000
41.37657 614.000
41.39652 738.000
41.41646 774.000
41.43641 876.000
41.45636 872.000
41.47631 834.000
41.49625 845.000
41.51620 880.000
41.53615 801.000
41.55609 763.000
41.57604 747.000
41.59599 676.000
41.61593 703.000
41.63588 654.000
41.65583 579.000
41.67578 538.000
41.69572 532.000
41.71567 448.000
41.73562 469.000
41.75556 411.000
41.77551 392.000
41.79546 402.000
41.81540 371.000
41.83535 396.000
41.85530 399.000
41.87524 348.000
41.89519 353.000
41.91514 310.000
41.93509 345.000
41.95503 340.000
41.97498 304.000
41.99493 328.000
42.01487 298.000
42.03482 339.000
42.05477 316.000
42.07471 353.000
42.09466 309.000
42.11461 351.000
42.13456 338.000
42.15450 315.000
42.17445 356.000
42.19440 327.000
42.21434 294.000
42.23429 359.000
42.25424 324.000
42.27418 317.000
42.29413 337.000
42.31408 339.000
42.33403 331.000
42.35397 357.000
42.37392 357.000
42.39387 358.000
42.41381 355.000
42.43376 349.000
42.45371 335.000
42.47365 341.000
42.49360 376.000
42.51355 411.000
42.53349 399.000
42.55344 381.000
42.57339 387.000
42.59334 378.000
42.61328 443.000
42.63323 375.000
42.65318 466.000
42.67312 481.000
42.69307 439.000
42.71302 489.000
42.73296 507.000
42.75291 518.000
42.77286 592.000
42.79281 579.000
42.81275 622.000
42.83270 664.000
42.85265 656.000
42.87259 763.000
42.89254 727.000
42.91249 762.000
42.93243 806.000
42.95238 787.000
42.97233 833.000
42.99227 902.000
43.01222 962.000
43.03217 916.000
43.05212 971.000
43.07206 928.000
43.09201 1003.000
43.11196 1006.000
43.13190 975.000
43.15185 1010.000
43.17180 886.000
43.19174 972.000
43.21169 872.000
43.23164 824.000
43.25159 907.000
43.27153 803.000
43.29148 806.000
43.31143 888.000
43.33137 795.000
43.35132 678.000
43.37127 665.000
43.39121 648.000
43.41116 619.000
43.43111 562.000
43.45105 592.000
43.47100 493.000
43.49095 443.000
43.51090 429.000
43.53084 382.000
43.55079 367.000
43.57074 394.000
43.59068 345.000
43.61063 342.000
43.63058 321.000
43.65052 309.000
43.67047 307.000
43.69042 316.000
43.71037 298.000
43.73031 301.000
43.75026 295.000
43.77021 279.000
43.79015 296.000
43.81010 296.000
43.83005 304.000
43.84999 319.000
43.86994 292.000
43.88989 279.000
43.90984 277.000
43.92978 297.000
43.94973 280.000
43.96968 304.000
43.98962 263.000
44.00957 295.000
44.02952 286.000
44.04946 300.000
44.06941 269.000
44.08936 259.000
44.10930 264.000
44.12925 271.000
44.14920 286.000
44.16915 283.000
44.18909 283.000
44.20904 248.000
44.22899 280.000
44.24893 263.000
44.26888 271.000
44.28883 287.000
44.30877 274.000
44.32872 284.000
44.34867 286.000
44.36862 302.000
44.38856 277.000
44.40851 279.000
44.42846 288.000
44.44840 280.000
44.46835 283.000
44.48830 240.000
44.50824 254.000
44.52819 263.000
44.54814 253.000
44.56808 281.000
44.58803 243.000
44.60798 259.000
44.62793 258.000
44.64787 308.000
44.66782 265.000
44.68777 270.000
44.70771 291.000
44.72766 285.000
44.74761 290.000
44.76755 266.000
44.78750 273.000
44.80745 298.000
44.82740 296.000
44.84734 279.000
44.86729 262.000
44.88724 295.000
44.90718 293.000
44.92713 306.000
44.94708 306.000
44.96702 277.000
44.98697 310.000
45.00692 278.000
45.02686 290.000
45.04681 286.000
45.06676 288.000
45.08671 303.000
45.10665 293.000
45.12660 289.000
45.14655 269.000
45.16649 317.000
45.18644 273.000
45.20639 302.000
45.22633 263.000
45.24628 266.000
45.26623 270.000
45.28618 301.000
45.30612 283.000
45.32607 285.000
45.34602 282.000
45.36596 254.000
45.38591 233.000
45.40586 253.000
45.42580 277.000
45.44575 255.000
45.46570 302.000
45.48565 267.000
45.50559 249.000
45.52554 245.000
45.54549 267.000
45.56543 267.000
45.58538 280.000
45.60533 298.000
45.62527 276.000
45.64522 282.000
45.66517 254.000
45.68511 249.000
45.70506 263.000
45.72501 259.000
45.74496 268.000
45.76490 287.000
45.78485 279.000
45.80480 285.000
45.82474 268.000
45.84469 243.000
45.86464 292.000
45.88458 251.000
45.90453 236.000
45.92448 259.000
45.94443 273.000
45.96437 259.000
45.98432 264.000
46.00427 265.000
46.02421 253.000
46.04416 287.000
46.06411 258.000
46.08405 228.000
46.10400 238.000
46.12395 271.000
46.14389 288.000
46.16384 299.000
46.18379 283.000
46.20374 266.000
46.22368 259.000
46.24363 278.000
46.26358 241.000
46.28352 275.000
46.30347 251.000
46.32342 268.000
46.34336 292.000
46.36331 267.000
46.38326 257.000
46.40321 213.000
46.42315 244.000
46.44310 269.000
46.46305 243.000
46.48299 250.000
46.50294 295.000
46.52289 267.000
46.54283 293.000
46.56278 292.000
46.58273 297.000
46.60267 262.000
46.62262 242.000
46.64257 247.000
46.66252 265.000
46.68246 247.000
46.70241 247.000
46.72236 246.000
46.74230 233.000
46.76225 263.000
46.78220 259.000
46.80214 225.000
46.82209 261.000
46.84204 250.000
46.86199 251.000
46.88193 259.000
46.90188 250.000
46.92183 262.000
46.94177 257.000
46.96172 280.000
46.98167 249.000
47.00161 287.000
47.02156 273.000
47.04151 240.000
47.06146 261.000
47.08140 258.000
47.10135 262.000
47.12130 239.000
47.14124 285.000
47.16119 275.000
47.18114 255.000
47.20108 253.000
47.22103 300.000
47.24098 261.000
47.26092 239.000
47.28087 261.000
47.30082 282.000
47.32077 254.000
47.34071 233.000
47.36066 254.000
47.38061 274.000
47.40055 234.000
47.42050 260.000
47.44045 274.000
47.46039 226.000
47.48034 272.000
47.50029 246.000
47.52024 276.000
47.54018 261.000
47.56013 276.000
47.58008 246.000
47.60002 285.000
47.61997 273.000
47.63992 224.000
47.65986 251.000
47.67981 285.000
47.69976 253.000
47.71970 279.000
47.73965 258.000
47.75960 254.000
47.77955 271.000
47.79949 278.000
47.81944 264.000
47.83939 255.000
47.85933 260.000
47.87928 276.000
47.89923 272.000
47.91917 270.000
47.93912 300.000
47.95907 259.000
47.97902 280.000
47.99896 254.000
48.01891 307.000
48.03886 308.000
48.05880 306.000
48.07875 291.000
48.09870 301.000
48.11864 290.000
48.13859 299.000
48.15854 293.000
48.17848 277.000
48.19843 316.000
48.21838 302.000
48.23833 271.000
48.25827 296.000
48.27822 310.000
48.29817 268.000
48.31811 296.000
48.33806 274.000
48.35801 331.000
48.37795 286.000
48.39790 297.000
48.41785 309.000
48.43780 287.000
48.45774 303.000
48.47769 311.000
48.49764 338.000
48.51758 353.000
48.53753 345.000
48.55748 321.000
48.57742 343.000
48.59737 369.000
48.61732 380.000
48.63726 407.000
48.65721 399.000
48.67716 413.000
48.69711 436.000
48.71705 459.000
48.73700 484.000
48.75695 466.000
48.77689 428.000
48.79684 463.000
48.81679 451.000
48.83673 472.000
48.85668 473.000
48.87663 439.000
48.89658 427.000
48.91652 403.000
48.93647 394.000
48.95642 355.000
48.97636 345.000
48.99631 343.000
49.01626 347.000
49.03620 325.000
49.05615 326.000
49.07610 317.000
49.09605 338.000
49.11599 294.000
49.13594 297.000
49.15589 328.000
49.17583 289.000
49.19578 267.000
49.21573 291.000
49.23567 305.000
49.25562 324.000
49.27557 296.000
49.29551 298.000
49.31546 296.000
49.33541 261.000
49.35536 307.000
49.37530 322.000
49.39525 301.000
49.41520 305.000
49.43514 275.000
49.45509 298.000
49.47504 318.000
49.49498 328.000
49.51493 299.000
49.53488 309.000
49.55483 294.000
49.57477 299.000
49.59472 274.000
49.61467 291.000
49.63461 313.000
49.65456 275.000
49.67451 266.000
49.69445 297.000
49.71440 285.000
49.73435 288.000
49.75429 276.000
49.77424 264.000
49.79419 258.000
49.81414 255.000
49.83408 281.000
49.85403 250.000
49.87398 261.000
49.89392 239.000
49.91387 226.000
49.93382 259.000
49.95376 255.000
49.97371 228.000
49.99366 248.000
50.01361 250.000
50.03355 262.000
50.05350 264.000
50.07345 241.000
50.09339 262.000
50.11334 262.000
50.13329 270.000
50.15323 255.000
50.17318 258.000
50.19313 238.000
50.21307 287.000
50.23302 261.000
50.25297 265.000
50.27292 266.000
50.29286 252.000
50.31281 269.000
50.33276 264.000
50.35270 204.000
50.37265 266.000
50.39260 238.000
50.41254 237.000
50.43249 244.000
50.45244 263.000
50.47239 255.000
50.49233 289.000
50.51228 276.000
50.53223 231.000
50.55217 249.000
50.57212 225.000
50.59207 270.000
50.61201 237.000
50.63196 267.000
50.65191 219.000
50.67186 229.000
50.69180 246.000
50.71175 234.000
50.73170 250.000
50.75164 242.000
50.77159 229.000
50.79154 237.000
50.81148 254.000
50.83143 235.000
50.85138 246.000
50.87132 267.000
50.89127 249.000
50.91122 230.000
50.93117 247.000
50.95111 246.000
50.97106 269.000
50.99101 244.000
51.01095 253.000
51.03090 249.000
51.05085 247.000
51.07079 255.000
51.09074 267.000
51.11069 264.000
51.13064 277.000
51.15058 218.000
51.17053 286.000
51.19048 264.000
51.21042 248.000
51.23037 240.000
51.25032 243.000
51.27026 264.000
51.29021 281.000
51.31016 232.000
51.33010 258.000
51.35005 271.000
51.37000 252.000
51.38995 264.000
51.40989 245.000
51.42984 265.000
51.44979 260.000
51.46973 261.000
51.48968 232.000
51.50963 278.000
51.52957 266.000
51.54952 240.000
51.56947 244.000
51.58942 270.000
51.60936 252.000
51.62931 269.000
51.64926 247.000
51.66920 258.000
51.68915 254.000
51.70910 271.000
51.72904 266.000
51.74899 241.000
51.76894 277.000
51.78888 273.000
51.80883 256.000
51.82878 245.000
51.84873 269.000
51.86867 243.000
51.88862 248.000
51.90857 249.000
51.92851 250.000
51.94846 245.000
51.96841 279.000
51.98835 257.000
52.00830 282.000
52.02825 246.000
52.04820 290.000
52.06814 279.000
52.08809 274.000
52.10804 265.000
52.12798 312.000
52.14793 268.000
52.16788 283.000
52.18782 250.000
52.20777 266.000
52.22772 264.000
52.24767 248.000
52.26761 257.000
52.28756 252.000
52.30751 255.000
52.32745 288.000
52.34740 265.000
52.36735 243.000
52.38729 264.000
52.40724 236.000
52.42719 273.000
52.44713 254.000
52.46708 237.000
52.48703 245.000
52.50698 253.000
52.52692 251.000
52.54687 272.000
52.56682 251.000
52.58676 252.000
52.60671 240.000
52.62666 259.000
52.64660 256.000
52.66655 258.000
52.68650 263.000
52.70645 248.000
52.72639 279.000
52.74634 284.000
52.76629 283.000
52.78623 283.000
52.80618 316.000
52.82613 259.000
52.84607 303.000
52.86602 266.000
52.88597 296.000
52.90591 281.000
52.92586 287.000
52.94581 323.000
52.96576 328.000
52.98570 325.000
53.00565 335.000
53.02560 354.000
53.04554 318.000
53.06549 348.000
53.08544 363.000
53.10538 369.000
53.12533 320.000
53.14528 303.000
53.16523 345.000
53.18517 328.000
53.20512 338.000
53.22507 337.000
53.24501 324.000
53.26496 328.000
53.28491 330.000
53.30485 297.000
53.32480 346.000
53.34475 286.000
53.36469 285.000
53.38464 263.000
53.40459 288.000
53.42454 302.000
53.44448 308.000
53.46443 262.000
53.48438 308.000
53.50432 326.000
53.52427 259.000
53.54422 310.000
53.56416 330.000
53.58411 301.000
53.60406 311.000
53.62401 304.000
53.64395 297.000
53.66390 312.000
53.68385 328.000
53.70379 316.000
53.72374 366.000
53.74369 377.000
53.76363 357.000
53.78358 343.000
53.80353 349.000
53.82348 323.000
53.84342 320.000
53.86337 323.000
53.88332 346.000
53.90326 298.000
53.92321 309.000
53.94316 287.000
53.96310 285.000
53.98305 271.000
54.00300 267.000
54.02294 289.000
54.04289 259.000
54.06284 246.000
54.08279 301.000
54.10273 287.000
54.12268 259.000
54.14263 270.000
54.16257 293.000
54.18252 260.000
54.20247 268.000
54.22241 237.000
54.24236 224.000
54.26231 263.000
54.28226 271.000
54.30220 277.000
54.32215 293.000
54.34210 244.000
54.36204 238.000
54.38199 257.000
54.40194 260.000
54.42188 273.000
54.44183 254.000
54.46178 241.000
54.48172 249.000
54.50167 229.000
54.52162 229.000
54.54157 267.000
54.56151 254.000
54.58146 294.000
54.60141 288.000
54.62135 295.000
54.64130 232.000
54.66125 242.000
54.68119 259.000
54.70114 254.000
54.72109 246.000
54.74104 240.000
54.76098 264.000
54.78093 278.000
54.80088 257.000
54.82082 273.000
54.84077 266.000
54.86072 243.000
54.88066 256.000
54.90061 276.000
54.92056 268.000
54.94050 267.000
54.96045 240.000
54.98040 238.000
55.00035 234.000
55.02029 273.000
55.04024 263.000
55.06019 236.000
55.08013 265.000
55.10008 259.000
55.12003 245.000
55.13997 249.000
55.15992 268.000
55.17987 265.000
55.19982 259.000
55.21976 222.000
55.23971 227.000
55.25966 265.000
55.27960 262.000
55.29955 253.000
55.31950 247.000
55.33944 232.000
55.35939 275.000
55.37934 268.000
55.39929 240.000
55.41923 274.000
55.43918 212.000
55.45913 286.000
55.47907 233.000
55.49902 256.000
55.51897 237.000
55.53891 264.000
55.55886 273.000
55.57881 237.000
55.59875 284.000
55.61870 269.000
55.63865 254.000
55.65860 276.000
55.67854 268.000
55.69849 241.000
55.71844 234.000
55.73838 267.000
55.75833 221.000
55.77828 251.000
55.79822 234.000
55.81817 245.000
55.83812 251.000
55.85807 261.000
55.87801 271.000
55.89796 256.000
55.91791 288.000
55.93785 282.000
55.95780 249.000
55.97775 298.000
55.99769 238.000
56.01764 234.000
56.03759 255.000
56.05753 272.000
56.07748 272.000
56.09743 275.000
56.11738 240.000
56.13732 253.000
56.15727 249.000
56.17722 254.000
56.19716 248.000
56.21711 251.000
56.23706 282.000
56.25700 241.000
56.27695 250.000
56.29690 239.000
56.31685 244.000
56.33679 244.000
56.35674 258.000
56.37669 240.000
56.39663 253.000
56.41658 247.000
56.43653 227.000
56.45647 281.000
56.47642 245.000
56.49637 249.000
56.51631 247.000
56.53626 269.000
56.55621 283.000
56.57616 279.000
56.59610 268.000
56.61605 261.000
56.63600 234.000
56.65594 292.000
56.67589 251.000
56.69584 290.000
56.71578 274.000
56.73573 268.000
56.75568 263.000
56.77563 252.000
56.79557 286.000
56.81552 276.000
56.83547 269.000
56.85541 289.000
56.87536 309.000
56.89531 277.000
56.91525 262.000
56.93520 292.000
56.95515 305.000
56.97510 275.000
56.99504 309.000
57.01499 299.000
57.03494 324.000
57.05488 323.000
57.07483 280.000
57.09478 318.000
57.11472 384.000
57.13467 372.000
57.15462 408.000
57.17456 344.000
57.19451 398.000
57.21446 433.000
57.23441 418.000
57.25435 528.000
57.27430 541.000
57.29425 599.000
57.31419 583.000
57.33414 572.000
57.35409 511.000
57.37403 489.000
57.39398 465.000
57.41393 488.000
57.43388 462.000
57.45382 498.000
57.47377 459.000
57.49372 426.000
57.51366 406.000
57.53361 404.000
57.55356 380.000
57.57350 397.000
57.59345 355.000
57.61340 365.000
57.63334 330.000
57.65329 351.000
57.67324 360.000
57.69319 384.000
57.71313 409.000
57.73308 349.000
57.75303 407.000
57.77297 422.000
57.79292 405.000
57.81287 444.000
57.83281 375.000
57.85276 391.000
57.87271 381.000
57.89266 357.000
57.91260 390.000
57.93255 369.000
57.95250 366.000
57.97244 390.000
57.99239 366.000
58.01234 335.000
58.03228 329.000
58.05223 331.000
58.07218 321.000
58.09212 281.000
58.11207 314.000
58.13202 306.000
58.15197 332.000
58.17191 293.000
58.19186 332.000
58.21181 347.000
58.23175 323.000
58.25170 334.000
58.27165 330.000
58.29159 322.000
58.31154 328.000
58.33149 327.000
58.35144 291.000
58.37138 310.000
58.39133 304.000
58.41128 344.000
58.43122 312.000
58.45117 324.000
58.47112 294.000
58.49106 313.000
58.51101 295.000
58.53096 295.000
58.55090 315.000
58.57085 285.000
58.59080 265.000
58.61075 288.000
58.63069 307.000
58.65064 262.000
58.67059 310.000
58.69053 268.000
58.71048 290.000
58.73043 276.000
58.75037 256.000
58.77032 251.000
58.79027 254.000
58.81022 244.000
58.83016 246.000
58.85011 284.000
58.87006 256.000
58.89000 249.000
58.90995 264.000
58.92990 261.000
58.94984 257.000
58.96979 268.000
58.98974 233.000
59.00969 266.000
59.02963 258.000
59.04958 263.000
59.06953 279.000
59.08947 289.000
59.10942 257.000
59.12937 273.000
59.14931 283.000
59.16926 257.000
59.18921 253.000
59.20915 256.000
59.22910 255.000
59.24905 259.000
59.26900 260.000
59.28894 247.000
59.30889 248.000
59.32884 278.000
59.34878 221.000
59.36873 266.000
59.38868 283.000
59.40862 246.000
59.42857 253.000
59.44852 281.000
59.46847 280.000
59.48841 232.000
59.50836 251.000
59.52831 251.000
59.54825 279.000
59.56820 270.000
59.58815 245.000
59.60809 251.000
59.62804 267.000
59.64799 269.000
59.66793 237.000
59.68788 227.000
59.70783 257.000
59.72778 279.000
59.74772 248.000
59.76767 256.000
59.78762 246.000
59.80756 253.000
59.82751 293.000
59.84746 258.000
59.86740 246.000
59.88735 240.000
59.90730 254.000
59.92725 263.000
59.94719 261.000
59.96714 275.000
59.98709 235.000
60.00703 274.000
60.02698 286.000
60.04693 277.000
60.06687 258.000
60.08682 276.000
60.10677 259.000
60.12671 263.000
60.14666 244.000
60.16661 270.000
60.18656 260.000
60.20650 290.000
60.22645 240.000
60.24640 296.000
60.26634 244.000
60.28629 246.000
60.30624 253.000
60.32618 252.000
60.34613 285.000
60.36608 243.000
60.38603 274.000
60.40597 248.000
60.42592 243.000
60.44587 265.000
60.46581 280.000
60.48576 239.000
60.50571 264.000
60.52565 250.000
60.54560 240.000
60.56555 274.000
60.58550 273.000
60.60544 290.000
60.62539 299.000
60.64534 289.000
60.66528 249.000
60.68523 276.000
60.70518 242.000
60.72512 276.000
60.74507 264.000
60.76502 293.000
60.78496 245.000
60.80491 278.000
60.82486 269.000
60.84481 284.000
60.86475 278.000
60.88470 280.000
60.90465 276.000
60.92459 309.000
60.94454 277.000
60.96449 262.000
60.98443 287.000
61.00438 275.000
61.02433 272.000
61.04428 314.000
61.06422 308.000
61.08417 339.000
61.10412 280.000
61.12406 262.000
61.14401 293.000
61.16396 314.000
61.18390 311.000
61.20385 334.000
61.22380 285.000
61.24374 294.000
61.26369 304.000
61.28364 323.000
61.30359 337.000
61.32353 350.000
61.34348 355.000
61.36343 323.000
61.38337 354.000
61.40332 346.000
61.42327 385.000
61.44321 374.000
61.46316 409.000
61.48311 415.000
61.50306 438.000
61.52300 455.000
61.54295 447.000
61.56290 415.000
61.58284 466.000
61.60279 418.000
61.62274 419.000
61.64268 417.000
61.66263 397.000
61.68258 398.000
61.70252 399.000
61.72247 408.000
61.74242 414.000
61.76237 371.000
61.78231 381.000
61.80226 389.000
61.82221 385.000
61.84215 396.000
61.86210 386.000
61.88205 421.000
61.90199 396.000
61.92194 375.000
61.94189 409.000
61.96184 438.000
61.98178 414.000
62.00173 437.000
62.02168 434.000
62.04162 409.000
62.06157 422.000
62.08152 468.000
62.10146 433.000
62.12141 504.000
62.14136 403.000
62.16131 489.000
62.18125 516.000
62.20120 491.000
62.22115 439.000
62.24109 500.000
62.26104 538.000
62.28099 507.000
62.30093 491.000
62.32088 550.000
62.34083 548.000
62.36077 573.000
62.38072 590.000
62.40067 595.000
62.42062 580.000
62.44056 619.000
62.46051 612.000
62.48046 625.000
62.50040 614.000
62.52035 669.000
62.54030 632.000
62.56024 614.000
62.58019 676.000
62.60014 661.000
62.62009 623.000
62.64003 624.000
62.65998 651.000
62.67993 628.000
62.69987 656.000
62.71982 575.000
62.73977 588.000
62.75971 602.000
62.77966 612.000
62.79961 587.000
62.81955 562.000
62.83950 633.000
62.85945 607.000
62.87940 679.000
62.89934 688.000
62.91929 811.000
62.93924 886.000
62.95918 753.000
62.97913 740.000
62.99908 606.000
63.01902 533.000
63.03897 517.000
63.05892 503.000
63.07887 549.000
63.09881 575.000
63.11876 579.000
63.13871 532.000
63.15865 467.000
63.17860 414.000
63.19855 415.000
63.21849 360.000
63.23844 343.000
63.25839 346.000
63.27833 335.000
63.29828 354.000
63.31823 322.000
63.33818 317.000
63.35812 320.000
63.37807 292.000
63.39802 276.000
63.41796 306.000
63.43791 313.000
63.45786 290.000
63.47780 294.000
63.49775 276.000
63.51770 282.000
63.53765 276.000
63.55759 241.000
63.57754 267.000
63.59749 268.000
63.61743 272.000
63.63738 268.000
63.65733 289.000
63.67727 279.000
63.69722 298.000
63.71717 274.000
63.73712 265.000
63.75706 291.000
63.77701 272.000
63.79696 256.000
63.81690 279.000
63.83685 251.000
63.85680 252.000
63.87674 283.000
63.89669 291.000
63.91664 266.000
63.93658 267.000
63.95653 272.000
63.97648 281.000
63.99643 278.000
64.01637 288.000
64.03632 288.000
64.05627 249.000
64.07621 282.000
64.09616 277.000
64.11611 287.000
64.13605 266.000
64.15600 275.000
64.17595 286.000
64.19590 284.000
64.21584 270.000
64.23579 309.000
64.25574 274.000
64.27568 268.000
64.29563 268.000
64.31558 275.000
64.33552 270.000
64.35547 269.000
64.37542 264.000
64.39536 270.000
64.41531 257.000
64.43526 280.000
64.45521 286.000
64.47515 292.000
64.49510 278.000
64.51505 276.000
64.53499 226.000
64.55494 261.000
64.57489 256.000
64.59483 261.000
64.61478 261.000
64.63473 278.000
64.65468 247.000
64.67462 294.000
64.69457 263.000
64.71452 268.000
64.73446 277.000
64.75441 262.000
64.77436 293.000
64.79430 273.000
64.81425 296.000
64.83420 264.000
64.85414 279.000
64.87409 331.000
64.89404 294.000
64.91399 248.000
64.93393 291.000
64.95388 312.000
64.97383 288.000
64.99377 298.000
65.01372 279.000
65.03367 279.000
65.05361 289.000
65.07356 304.000
65.09351 295.000
65.11346 285.000
65.13340 263.000
65.15335 252.000
65.17330 309.000
65.19324 289.000
65.21319 283.000
65.23314 290.000
65.25308 258.000
65.27303 279.000
65.29298 279.000
65.31293 294.000
65.33287 279.000
65.35282 289.000
65.37277 297.000
65.39271 302.000
65.41266 301.000
65.43261 292.000
65.45255 270.000
65.47250 316.000
65.49245 277.000
65.51239 304.000
65.53234 294.000
65.55229 343.000
65.57224 312.000
65.59218 337.000
65.61213 298.000
65.63208 341.000
65.65202 321.000
65.67197 364.000
65.69192 379.000
65.71186 337.000
65.73181 338.000
65.75176 318.000
65.77171 314.000
65.79165 343.000
65.81160 358.000
65.83155 336.000
65.85149 320.000
65.87144 318.000
65.89139 319.000
65.91133 354.000
65.93128 335.000
65.95123 330.000
65.97117 346.000
65.99112 302.000
66.01107 336.000
66.03102 346.000
66.05096 291.000
66.07091 348.000
66.09086 343.000
66.11080 330.000
66.13075 322.000
66.15070 368.000
66.17064 343.000
66.19059 336.000
66.21054 347.000
66.23049 371.000
66.25043 374.000
66.27038 336.000
66.29033 392.000
66.31027 354.000
66.33022 369.000
66.35017 370.000
66.37011 375.000
66.39006 373.000
66.41001 355.000
66.42995 339.000
66.44990 345.000
66.46985 335.000
66.48980 347.000
66.50974 339.000
66.52969 325.000
66.54964 314.000
66.56958 293.000
66.58953 310.000
66.60948 287.000
66.62942 285.000
66.64937 283.000
66.66932 311.000
66.68927 303.000
66.70921 300.000
66.72916 291.000
66.74911 258.000
66.76905 249.000
66.78900 271.000
66.80895 286.000
66.82889 265.000
66.84884 258.000
66.86879 269.000
66.88874 303.000
66.90868 270.000
66.92863 271.000
66.94858 282.000
66.96852 278.000
66.98847 266.000
67.00842 273.000
67.02836 260.000
67.04831 254.000
67.06826 258.000
67.08820 232.000
67.10815 278.000
67.12810 255.000
67.14805 253.000
67.16799 256.000
67.18794 249.000
67.20789 280.000
67.22783 240.000
67.24778 253.000
67.26773 288.000
67.28767 306.000
67.30762 272.000
67.32757 268.000
67.34752 243.000
67.36746 272.000
67.38741 271.000
67.40736 276.000
67.42730 266.000
67.44725 253.000
67.46720 252.000
67.48714 239.000
67.50709 259.000
67.52704 266.000
67.54698 258.000
67.56693 263.000
67.58688 296.000
67.60683 253.000
67.62677 306.000
67.64672 276.000
67.66667 292.000
67.68661 306.000
67.70656 277.000
67.72651 289.000
67.74645 280.000
67.76640 326.000
67.78635 352.000
67.80630 302.000
67.82624 303.000
67.84619 308.000
67.86614 343.000
67.88608 333.000
67.90603 303.000
67.92598 332.000
67.94592 333.000
67.96587 352.000
67.98582 356.000
68.00576 379.000
68.02571 348.000
68.04566 375.000
68.06561 317.000
68.08555 360.000
68.10550 357.000
68.12545 344.000
68.14539 395.000
68.16534 352.000
68.18529 328.000
68.20523 324.000
68.22518 315.000
68.24513 325.000
68.26508 314.000
68.28502 345.000
68.30497 324.000
68.32492 316.000
68.34486 302.000
68.36481 313.000
68.38476 326.000
68.40470 294.000
68.42465 284.000
68.44460 318.000
68.46455 291.000
68.48449 285.000
68.50444 282.000
68.52439 276.000
68.54433 296.000
68.56428 265.000
68.58423 253.000
68.60417 272.000
68.62412 279.000
68.64407 265.000
68.66401 260.000
68.68396 270.000
68.70391 241.000
68.72386 260.000
68.74380 245.000
68.76375 288.000
68.78370 251.000
68.80364 275.000
68.82359 245.000
68.84354 274.000
68.86348 256.000
68.88343 248.000
68.90338 237.000
68.92333 240.000
68.94327 240.000
68.96322 270.000
68.98317 264.000
69.00311 240.000
69.02306 233.000
69.04301 252.000
69.06295 247.000
69.08290 201.000
69.10285 249.000
69.12279 244.000
69.14274 272.000
69.16269 266.000
69.18264 242.000
69.20258 249.000
69.22253 254.000
69.24248 260.000
69.26242 247.000
69.28237 267.000
69.30232 258.000
69.32226 229.000
69.34221 236.000
69.36216 232.000
69.38211 232.000
69.40205 248.000
69.42200 243.000
69.44195 247.000
69.46189 251.000
69.48184 254.000
69.50179 274.000
69.52173 278.000
69.54168 261.000
69.56163 241.000
69.58157 257.000
69.60152 252.000
69.62147 261.000
69.64142 275.000
69.66136 259.000
69.68131 256.000
69.70126 245.000
69.72120 249.000
69.74115 235.000
69.76110 265.000
69.78104 263.000
69.80099 227.000
69.82094 267.000
69.84089 251.000
69.86083 258.000
69.88078 246.000
69.90073 232.000
69.92067 232.000
69.94062 254.000
69.96057 224.000
69.98051 244.000
70.00046 255.000
70.02041 234.000
70.04035 249.000
70.06030 235.000
70.08025 248.000
70.10020 240.000
70.12014 231.000
70.14009 224.000
70.16004 255.000
70.17998 235.000
70.19993 275.000
70.21988 249.000
70.23982 257.000
70.25977 218.000
70.27972 261.000
70.29967 235.000
70.31961 258.000
70.33956 238.000
70.35951 222.000
70.37945 246.000
70.39940 244.000
70.41935 261.000
70.43929 233.000
70.45924 247.000
70.47919 203.000
70.49914 258.000
70.51908 236.000
70.53903 272.000
70.55898 250.000
70.57892 253.000
70.59887 245.000
70.61882 227.000
70.63876 245.000
70.65871 232.000
70.67866 250.000
70.69860 233.000
70.71855 239.000
70.73850 249.000
70.75845 223.000
70.77839 234.000
70.79834 254.000
70.81829 243.000
70.83823 242.000
70.85818 234.000
70.87813 254.000
70.89807 240.000
70.91802 250.000
70.93797 252.000
70.95792 232.000
70.97786 250.000
70.99781 259.000
71.01776 235.000
71.03770 230.000
71.05765 258.000
71.07760 254.000
71.09754 229.000
71.11749 246.000
71.13744 260.000
71.15738 250.000
71.17733 270.000
71.19728 241.000
71.21723 233.000
71.23717 232.000
71.25712 234.000
71.27707 270.000
71.29701 268.000
71.31696 230.000
71.33691 248.000
71.35685 256.000
71.37680 281.000
71.39675 291.000
71.41670 287.000
71.43664 275.000
71.45659 273.000
71.47654 236.000
71.49648 263.000
71.51643 288.000
71.53638 247.000
71.55632 243.000
71.57627 240.000
71.59622 248.000
71.61616 249.000
71.63611 281.000
71.65606 264.000
71.67601 262.000
71.69595 294.000
71.71590 254.000
71.73585 243.000
71.75579 260.000
71.77574 260.000
71.79569 258.000
71.81563 244.000
71.83558 251.000
71.85553 264.000
71.87548 255.000
71.89542 253.000
71.91537 248.000
71.93532 271.000
71.95526 272.000
71.97521 245.000
71.99516 263.000
72.01510 285.000
72.03505 275.000
72.05500 236.000
72.07495 279.000
72.09489 254.000
72.11484 284.000
72.13479 300.000
72.15473 286.000
72.17468 284.000
72.19463 281.000
72.21457 302.000
72.23452 315.000
72.25447 293.000
72.27441 281.000
72.29436 307.000
72.31431 294.000
72.33426 299.000
72.35420 312.000
72.37415 362.000
72.39410 360.000
72.41404 350.000
72.43399 369.000
72.45394 314.000
72.47388 299.000
72.49383 349.000
72.51378 357.000
72.53373 305.000
72.55367 318.000
72.57362 312.000
72.59357 302.000
72.61351 307.000
72.63346 304.000
72.65341 291.000
72.67335 312.000
72.69330 304.000
72.71325 329.000
72.73319 275.000
72.75314 307.000
72.77309 270.000
72.79304 270.000
72.81298 303.000
72.83293 292.000
72.85288 272.000
72.87282 268.000
72.89277 248.000
72.91272 267.000
72.93266 264.000
72.95261 263.000
72.97256 262.000
72.99251 222.000
73.01245 270.000
73.03240 294.000
73.05235 271.000
73.07229 241.000
73.09224 260.000
73.11219 247.000
73.13213 257.000
73.15208 280.000
73.17203 266.000
73.19197 263.000
73.21192 269.000
73.23187 232.000
73.25182 269.000
73.27176 241.000
73.29171 268.000
73.31166 246.000
73.33160 235.000
73.35155 252.000
73.37150 281.000
73.39144 263.000
73.41139 301.000
73.43134 261.000
73.45129 267.000
73.47123 275.000
73.49118 271.000
73.51113 268.000
73.53107 267.000
73.55102 256.000
73.57097 271.000
73.59091 292.000
73.61086 297.000
73.63081 256.000
73.65076 261.000
73.67070 273.000
73.69065 235.000
73.71060 270.000
73.73054 263.000
73.75049 289.000
73.77044 266.000
73.79038 264.000
73.81033 276.000
73.83028 265.000
73.85022 274.000
73.87017 275.000
73.89012 276.000
73.91007 278.000
73.93001 289.000
73.94996 277.000
73.96991 283.000
73.98985 295.000
74.00980 272.000
74.02975 306.000
74.04969 250.000
74.06964 270.000
74.08959 286.000
74.10954 291.000
74.12948 289.000
74.14943 296.000
74.16938 289.000
74.18932 275.000
74.20927 298.000
74.22922 293.000
74.24916 287.000
74.26911 286.000
74.28906 311.000
74.30900 295.000
74.32895 294.000
74.34890 318.000
74.36885 303.000
74.38879 307.000
74.40874 294.000
74.42869 317.000
74.44863 384.000
74.46858 349.000
74.48853 348.000
74.50847 372.000
74.52842 340.000
74.54837 330.000
74.56832 328.000
74.58826 331.000
74.60821 362.000
74.62816 335.000
74.64810 349.000
74.66805 345.000
74.68800 347.000
74.70794 327.000
74.72789 324.000
74.74784 338.000
74.76778 368.000
74.78773 379.000
74.80768 353.000
74.82763 345.000
74.84757 357.000
74.86752 369.000
74.88747 406.000
74.90741 378.000
74.92736 390.000
74.94731 393.000
74.96725 431.000
74.98720 374.000
75.00715 373.000
75.02710 382.000
75.04704 385.000
75.06699 354.000
75.08694 389.000
75.10688 381.000
75.12683 433.000
75.14678 385.000
75.16672 381.000
75.18667 404.000
75.20662 404.000
75.22657 365.000
75.24651 375.000
75.26646 367.000
75.28641 344.000
75.30635 315.000
75.32630 351.000
75.34625 337.000
75.36619 356.000
75.38614 333.000
75.40609 369.000
75.42603 339.000
75.44598 353.000
75.46593 347.000
75.48588 347.000
75.50582 341.000
75.52577 313.000
75.54572 289.000
75.56566 326.000
75.58561 280.000
75.60556 302.000
75.62550 298.000
75.64545 302.000
75.66540 280.000
75.68535 274.000
75.70529 285.000
75.72524 289.000
75.74519 265.000
75.76513 269.000
75.78508 276.000
75.80503 280.000
75.82497 267.000
75.84492 291.000
75.86487 281.000
75.88481 231.000
75.90476 249.000
75.92471 270.000
75.94466 282.000
75.96460 239.000
75.98455 260.000
76.00450 262.000
76.02444 246.000
76.04439 253.000
76.06434 258.000
76.08428 231.000
76.10423 257.000
76.12418 266.000
76.14413 228.000
76.16407 262.000
76.18402 256.000
76.20397 237.000
76.22391 268.000
76.24386 240.000
76.26381 245.000
76.28375 234.000
76.30370 251.000
76.32365 253.000
76.34359 249.000
76.36354 237.000
76.38349 263.000
76.40344 284.000
76.42338 247.000
76.44333 249.000
76.46328 224.000
76.48322 236.000
76.50317 253.000
76.52312 265.000
76.54306 264.000
76.56301 249.000
76.58296 249.000
76.60291 266.000
76.62285 276.000
76.64280 237.000
76.66275 257.000
76.68269 220.000
76.70264 250.000
76.72259 273.000
76.74253 236.000
76.76248 230.000
76.78243 262.000
76.80238 239.000
76.82232 236.000
76.84227 259.000
76.86222 232.000
76.88216 262.000
76.90211 259.000
76.92206 256.000
76.94200 246.000
76.96195 269.000
76.98190 250.000
77.00184 242.000
77.02179 264.000
77.04174 234.000
77.06169 233.000
77.08163 263.000
77.10158 267.000
77.12153 242.000
77.14147 252.000
77.16142 256.000
77.18137 277.000
77.20131 281.000
77.22126 260.000
77.24121 286.000
77.26116 267.000
77.28110 245.000
77.30105 266.000
77.32100 274.000
77.34094 265.000
77.36089 247.000
77.38084 227.000
77.40078 224.000
77.42073 257.000
77.44068 270.000
77.46062 283.000
77.48057 248.000
77.50052 246.000
77.52047 291.000
77.54041 279.000
77.56036 251.000
77.58031 250.000
77.60025 248.000
77.62020 249.000
77.64015 277.000
77.66009 321.000
77.68004 281.000
77.69999 252.000
77.71994 272.000
77.73988 287.000
77.75983 293.000
77.77978 273.000
77.79972 259.000
77.81967 273.000
77.83962 264.000
77.85956 273.000
77.87951 255.000
77.89946 279.000
77.91940 278.000
77.93935 300.000
77.95930 297.000
77.97925 257.000
77.99919 263.000
78.01914 240.000
78.03909 281.000
78.05903 268.000
78.07898 281.000
78.09893 263.000
78.11887 264.000
78.13882 263.000
78.15877 267.000
78.17872 266.000
78.19866 292.000
78.21861 272.000
78.23856 271.000
78.25850 285.000
78.27845 255.000
78.29840 257.000
78.31834 269.000
78.33829 254.000
78.35824 287.000
78.37819 262.000
78.39813 265.000
78.41808 301.000
78.43803 277.000
78.45797 277.000
78.47792 257.000
78.49787 301.000
78.51781 253.000
78.53776 273.000
78.55771 287.000
78.57765 315.000
78.59760 278.000
78.61755 280.000
78.63750 277.000
78.65744 270.000
78.67739 309.000
78.69734 277.000
78.71728 274.000
78.73723 309.000
78.75718 274.000
78.77712 347.000
78.79707 281.000
78.81702 299.000
78.83697 318.000
78.85691 276.000
78.87686 308.000
78.89681 315.000
78.91675 325.000
78.93670 304.000
78.95665 311.000
78.97659 310.000
78.99654 310.000
79.01649 274.000
79.03643 322.000
79.05638 288.000
79.07633 326.000
79.09628 303.000
79.11622 361.000
79.13617 297.000
79.15612 295.000
79.17606 318.000
79.19601 312.000
79.21596 288.000
79.23590 295.000
79.25585 273.000
79.27580 270.000
79.29575 273.000
79.31569 280.000
79.33564 266.000
79.35559 268.000
79.37553 291.000
79.39548 274.000
79.41543 272.000
79.43537 255.000
79.45532 286.000
79.47527 263.000
79.49521 303.000
79.51516 264.000
79.53511 267.000
79.55506 291.000
79.57500 297.000
79.59495 258.000
79.61490 246.000
79.63484 287.000
79.65479 268.000
79.67474 279.000
79.69468 272.000
79.71463 263.000
79.73458 237.000
79.75453 235.000
79.77447 288.000
79.79442 265.000
79.81437 304.000
79.83431 244.000
79.85426 300.000
79.87421 259.000
79.89415 244.000
79.91410 242.000
79.93405 250.000
79.95399 247.000
79.97394 243.000
79.99389 238.000
80.01384 252.000
80.03378 243.000
80.05373 253.000
80.07368 233.000
80.09362 230.000
80.11357 241.000
80.13352 282.000
80.15346 253.000
80.17341 263.000
80.19336 277.000
80.21331 225.000
80.23325 247.000
80.25320 282.000
80.27315 240.000
80.29309 259.000
80.31304 268.000
80.33299 271.000
80.35293 257.000
80.37288 270.000
80.39283 269.000
80.41278 257.000
80.43272 232.000
80.45267 242.000
80.47262 240.000
80.49256 242.000
80.51251 231.000
80.53246 243.000
80.55240 250.000
80.57235 253.000
80.59230 262.000
80.61224 271.000
80.63219 275.000
80.65214 241.000
80.67209 230.000
80.69203 248.000
80.71198 255.000
80.73193 263.000
80.75187 252.000
80.77182 242.000
80.79177 241.000
80.81171 243.000
80.83166 240.000
80.85161 254.000
80.87156 238.000
80.89150 239.000
80.91145 244.000
80.93140 246.000
80.95134 263.000
80.97129 269.000
80.99124 272.000
81.01118 243.000
81.03113 221.000
81.05108 212.000
81.07102 247.000
81.09097 256.000
81.11092 226.000
81.13087 229.000
81.15081 253.000
81.17076 217.000
81.19071 197.000
81.21065 232.000
81.23060 233.000
81.25055 269.000
81.27049 255.000
81.29044 236.000
81.31039 235.000
81.33034 249.000
81.35028 231.000
81.37023 240.000
81.39018 235.000
81.41012 249.000
81.43007 254.000
81.45002 268.000
81.46996 254.000
81.48991 248.000
81.50986 252.000
81.52980 253.000
81.54975 229.000
81.56970 248.000
81.58965 260.000
81.60959 223.000
81.62954 227.000
81.64949 239.000
81.66943 220.000
81.68938 232.000
81.70933 256.000
81.72927 247.000
81.74922 267.000
81.76917 266.000
81.78912 237.000
81.80906 260.000
81.82901 234.000
81.84896 212.000
81.86890 246.000
81.88885 262.000
81.90880 238.000
81.92874 262.000
81.94869 243.000
81.96864 281.000
81.98859 260.000
82.00853 233.000
82.02848 254.000
82.04843 242.000
82.06837 250.000
82.08832 250.000
82.10827 228.000
82.12821 249.000
82.14816 237.000
82.16811 240.000
82.18805 258.000
82.20800 257.000
82.22795 263.000
82.24790 240.000
82.26784 260.000
82.28779 273.000
82.30774 261.000
82.32768 275.000
82.34763 254.000
82.36758 265.000
82.38752 264.000
82.40747 282.000
82.42742 285.000
82.44737 281.000
82.46731 262.000
82.48726 282.000
82.50721 280.000
82.52715 278.000
82.54710 238.000
82.56705 292.000
82.58699 252.000
82.60694 285.000
82.62689 255.000
82.64683 266.000
82.66678 260.000
82.68673 249.000
82.70668 293.000
82.72662 286.000
82.74657 308.000
82.76652 257.000
82.78646 308.000
82.80641 261.000
82.82636 277.000
82.84630 271.000
82.86625 281.000
82.88620 267.000
82.90615 276.000
82.92609 263.000
82.94604 272.000
82.96599 244.000
82.98593 288.000
83.00588 264.000
83.02583 265.000
83.04577 264.000
83.06572 280.000
83.08567 268.000
83.10561 265.000
83.12556 259.000
83.14551 271.000
83.16546 264.000
83.18540 249.000
83.20535 254.000
83.22530 293.000
83.24524 256.000
83.26519 266.000
83.28514 252.000
83.30508 252.000
83.32503 276.000
83.34498 243.000
83.36493 286.000
83.38487 262.000
83.40482 251.000
83.42477 254.000
83.44471 251.000
83.46466 262.000
83.48461 262.000
83.50455 254.000
83.52450 245.000
83.54445 277.000
83.56440 281.000
83.58434 264.000
83.60429 268.000
83.62424 248.000
83.64418 249.000
83.66413 270.000
83.68408 275.000
83.70402 257.000
83.72397 260.000
83.74392 273.000
83.76386 267.000
83.78381 263.000
83.80376 240.000
83.82371 273.000
83.84365 273.000
83.86360 247.000
83.88355 273.000
83.90349 241.000
83.92344 280.000
83.94339 256.000
83.96333 253.000
83.98328 258.000
84.00323 269.000
84.02318 264.000
84.04312 252.000
84.06307 257.000
84.08302 230.000
84.10296 262.000
84.12291 251.000
84.14286 256.000
84.16280 264.000
84.18275 252.000
84.20270 248.000
84.22264 267.000
84.24259 257.000
84.26254 248.000
84.28249 281.000
84.30243 259.000
84.32238 265.000
84.34233 259.000
84.36227 258.000
84.38222 247.000
84.40217 243.000
84.42211 243.000
84.44206 272.000
84.46201 241.000
84.48196 239.000
84.50190 267.000
84.52185 266.000
84.54180 237.000
84.56174 283.000
84.58169 245.000
84.60164 272.000
84.62158 243.000
84.64153 248.000
84.66148 230.000
84.68142 273.000
84.70137 284.000
84.72132 236.000
84.74127 286.000
84.76121 235.000
84.78116 251.000
84.80111 226.000
84.82105 207.000
84.84100 250.000
84.86095 234.000
84.88089 230.000
84.90084 240.000
84.92079 261.000
84.94074 256.000
84.96068 223.000
84.98063 273.000
85.00058 225.000
85.02052 258.000
85.04047 226.000
85.06042 243.000
85.08036 230.000
85.10031 238.000
85.12026 243.000
85.14021 239.000
85.16015 277.000
85.18010 249.000
85.20005 269.000
85.21999 221.000
85.23994 221.000
85.25989 206.000
85.27983 237.000
85.29978 255.000
85.31973 234.000
85.33967 227.000
85.35962 211.000
85.37957 210.000
85.39952 210.000
85.41946 271.000
85.43941 260.000
85.45936 228.000
85.47930 234.000
85.49925 248.000
85.51920 240.000
85.53914 217.000
85.55909 255.000
85.57904 245.000
85.59899 232.000
85.61893 237.000
85.63888 246.000
85.65883 245.000
85.67877 273.000
85.69872 228.000
85.71867 249.000
85.73861 260.000
85.75856 264.000
85.77851 236.000
85.79845 213.000
85.81840 244.000
85.83835 223.000
85.85830 239.000
85.87824 237.000
85.89819 256.000
85.91814 247.000
85.93808 255.000
85.95803 241.000
85.97798 251.000
85.99792 227.000
86.01787 207.000
86.03782 254.000
86.05777 242.000
86.07771 258.000
86.09766 226.000
86.11761 261.000
86.13755 249.000
86.15750 222.000
86.17745 263.000
86.19739 258.000
86.21734 264.000
86.23729 259.000
86.25723 249.000
86.27718 255.000
86.29713 250.000
86.31708 249.000
86.33702 247.000
86.35697 246.000
86.37692 264.000
86.39686 239.000
86.41681 247.000
86.43676 269.000
86.45670 252.000
86.47665 246.000
86.49660 262.000
86.51655 242.000
86.53649 273.000
86.55644 239.000
86.57639 251.000
86.59633 241.000
86.61628 274.000
86.63623 257.000
86.65617 242.000
86.67612 239.000
86.69607 219.000
86.71602 256.000
86.73596 241.000
86.75591 245.000
86.77586 239.000
86.79580 262.000
86.81575 259.000
86.83570 246.000
86.85564 261.000
86.87559 199.000
86.89554 257.000
86.91548 252.000
86.93543 259.000
86.95538 302.000
86.97533 278.000
86.99527 223.000
87.01522 274.000
87.03517 252.000
87.05511 249.000
87.07506 259.000
87.09501 271.000
87.11495 234.000
87.13490 257.000
87.15485 248.000
87.17480 307.000
87.19474 251.000
87.21469 251.000
87.23464 246.000
87.25458 278.000
87.27453 260.000
87.29448 274.000
87.31442 284.000
87.33437 276.000
87.35432 285.000
87.37426 279.000
87.39421 296.000
87.41416 268.000
87.43411 236.000
87.45405 294.000
87.47400 268.000
87.49395 242.000
87.51389 256.000
87.53384 271.000
87.55379 267.000
87.57373 245.000
87.59368 288.000
87.61363 286.000
87.63358 263.000
87.65352 241.000
87.67347 264.000
87.69342 250.000
87.71336 239.000
87.73331 279.000
87.75326 252.000
87.77320 276.000
87.79315 221.000
87.81310 229.000
87.83304 239.000
87.85299 252.000
87.87294 256.000
87.89289 257.000
87.91283 264.000
87.93278 249.000
87.95273 242.000
87.97267 231.000
87.99262 243.000
88.01257 251.000
88.03251 235.000
88.05246 252.000
88.07241 238.000
88.09236 237.000
88.11230 241.000
88.13225 260.000
88.15220 228.000
88.17214 244.000
88.19209 240.000
88.21204 256.000
88.23198 256.000
88.25193 241.000
88.27188 219.000
88.29183 245.000
88.31177 266.000
88.33172 234.000
88.35167 247.000
88.37161 268.000
88.39156 237.000
88.41151 224.000
88.43145 254.000
88.45140 232.000
88.47135 225.000
88.49129 275.000
88.51124 240.000
88.53119 243.000
88.55114 252.000
88.57108 245.000
88.59103 236.000
88.61098 239.000
88.63092 265.000
88.65087 235.000
88.67082 266.000
88.69076 212.000
88.71071 251.000
88.73066 227.000
88.75061 230.000
88.77055 277.000
88.79050 249.000
88.81045 258.000
88.83039 249.000
88.85034 237.000
88.87029 230.000
88.89023 232.000
88.91018 254.000
88.93013 263.000
88.95007 251.000
88.97002 238.000
88.98997 250.000
89.00992 251.000
89.02986 231.000
89.04981 245.000
89.06976 232.000
89.08970 264.000
89.10965 271.000
89.12960 237.000
89.14954 252.000
89.16949 239.000
89.18944 237.000
89.20939 241.000
89.22933 263.000
89.24928 244.000
89.26923 223.000
89.28917 250.000
89.30912 259.000
89.32907 249.000
89.34901 271.000
89.36896 266.000
89.38891 246.000
89.40885 246.000
89.42880 240.000
89.44875 268.000
89.46870 251.000
89.48864 261.000
89.50859 299.000
89.52854 261.000
89.54848 255.000
89.56843 277.000
89.58838 272.000
89.60832 288.000
89.62827 250.000
89.64822 243.000
89.66817 241.000
89.68811 257.000
89.70806 260.000
89.72801 258.000
89.74795 242.000
89.76790 255.000
89.78785 269.000
89.80779 286.000
89.82774 245.000
89.84769 274.000
89.86764 291.000
89.88758 283.000
89.90753 265.000
89.92748 265.000
89.94742 251.000
89.96737 282.000
89.98732 263.000
90.00726 286.000
