10.00000 72.000
10.01995 65.000
10.03989 63.000
10.05984 78.000
10.07979 77.000
10.09973 83.000
10.11968 83.000
10.13963 75.000
10.15958 75.000
10.17952 88.000
10.19947 95.000
10.21942 81.000
10.23936 78.000
10.25931 88.000
10.27926 80.000
10.29920 84.000
10.31915 71.000
10.33910 77.000
10.35905 80.000
10.37899 84.000
10.39894 83.000
10.41889 87.000
10.43883 118.000
10.45878 79.000
10.47873 86.000
10.49867 78.000
10.51862 71.000
10.53857 76.000
10.55851 101.000
10.57846 82.000
10.59841 95.000
10.61836 107.000
10.63830 74.000
10.65825 101.000
10.67820 63.000
10.69814 86.000
10.71809 95.000
10.73804 87.000
10.75798 84.000
10.77793 84.000
10.79788 92.000
10.81783 89.000
10.83777 81.000
10.85772 83.000
10.87767 89.000
10.89761 90.000
10.91756 97.000
10.93751 88.000
10.95745 85.000
10.97740 88.000
10.99735 85.000
11.01730 86.000
11.03724 95.000
11.05719 85.000
11.07714 90.000
11.09708 85.000
11.11703 74.000
11.13698 83.000
11.15692 101.000
11.17687 84.000
11.19682 85.000
11.21676 99.000
11.23671 75.000
11.25666 83.000
11.27661 77.000
11.29655 98.000
11.31650 78.000
11.33645 99.000
11.35639 77.000
11.37634 102.000
11.39629 107.000
11.41623 77.000
11.43618 90.000
11.45613 78.000
11.47608 79.000
11.49602 101.000
11.51597 92.000
11.53592 90.000
11.55586 101.000
11.57581 92.000
11.59576 103.000
11.61570 98.000
11.63565 107.000
11.65560 83.000
11.67554 97.000
11.69549 96.000
11.71544 96.000
11.73539 92.000
11.75533 77.000
11.77528 103.000
11.79523 100.000
11.81517 87.000
11.83512 85.000
11.85507 92.000
11.87501 93.000
11.89496 85.000
11.91491 69.000
11.93486 69.000
11.95480 98.000
11.97475 108.000
11.99470 119.000
12.01464 103.000
12.03459 71.000
12.05454 86.000
12.07448 95.000
12.09443 93.000
12.11438 106.000
12.13432 93.000
12.15427 84.000
12.17422 111.000
12.19417 92.000
12.21411 84.000
12.23406 81.000
12.25401 87.000
12.27395 75.000
12.29390 115.000
12.31385 94.000
12.33379 104.000
12.35374 95.000
12.37369 78.000
12.39364 80.000
12.41358 97.000
12.43353 93.000
12.45348 94.000
12.47342 101.000
12.49337 93.000
12.51332 83.000
12.53326 97.000
12.55321 98.000
12.57316 85.000
12.59311 87.000
12.61305 107.000
12.63300 89.000
12.65295 110.000
12.67289 104.000
12.69284 88.000
12.71279 90.000
12.73273 91.000
12.75268 91.000
12.77263 102.000
12.79257 103.000
12.81252 101.000
12.83247 106.000
12.85242 89.000
12.87236 103.000
12.89231 113.000
12.91226 106.000
12.93220 111.000
12.95215 99.000
12.97210 111.000
12.99204 90.000
13.01199 89.000
13.03194 109.000
13.05189 87.000
13.07183 97.000
13.09178 108.000
13.11173 99.000
13.13167 111.000
13.15162 104.000
13.17157 98.000
13.19151 103.000
13.21146 92.000
13.23141 109.000
13.25135 97.000
13.27130 101.000
13.29125 106.000
13.31120 108.000
13.33114 105.000
13.35109 103.000
13.37104 93.000
13.39098 100.000
13.41093 102.000
13.43088 102.000
13.45082 100.000
13.47077 103.000
13.49072 92.000
13.51067 103.000
13.53061 108.000
13.55056 95.000
13.57051 121.000
13.59045 105.000
13.61040 77.000
13.63035 89.000
13.65029 100.000
13.67024 108.000
13.69019 113.000
13.71013 110.000
13.73008 110.000
13.75003 101.000
13.76998 106.000
13.78992 102.000
13.80987 111.000
13.82982 103.000
13.84976 98.000
13.86971 118.000
13.88966 93.000
13.90960 101.000
13.92955 101.000
13.94950 128.000
13.96945 108.000
13.98939 100.000
14.00934 103.000
14.02929 124.000
14.04923 94.000
14.06918 102.000
14.08913 106.000
14.10907 117.000
14.12902 103.000
14.14897 108.000
14.16892 110.000
14.18886 103.000
14.20881 118.000
14.22876 99.000
14.24870 106.000
14.26865 123.000
14.28860 94.000
14.30854 111.000
14.32849 99.000
14.34844 98.000
14.36838 117.000
14.38833 124.000
14.40828 104.000
14.42823 130.000
14.44817 113.000
14.46812 112.000
14.48807 120.000
14.50801 113.000
14.52796 109.000
14.54791 118.000
14.56785 102.000
14.58780 122.000
14.60775 106.000
14.62770 111.000
14.64764 109.000
14.66759 124.000
14.68754 107.000
14.70748 116.000
14.72743 127.000
14.74738 104.000
14.76732 132.000
14.78727 112.000
14.80722 125.000
14.82716 120.000
14.84711 113.000
14.86706 122.000
14.88701 106.000
14.90695 125.000
14.92690 99.000
14.94685 104.000
14.96679 126.000
14.98674 125.000
15.00669 113.000
15.02663 116.000
15.04658 130.000
15.06653 123.000
15.08648 137.000
15.10642 115.000
15.12637 135.000
15.14632 122.000
15.16626 109.000
15.18621 121.000
15.20616 129.000
15.22610 138.000
15.24605 144.000
15.26600 118.000
15.28594 139.000
15.30589 135.000
15.32584 131.000
15.34579 146.000
15.36573 150.000
15.38568 117.000
15.40563 147.000
15.42557 132.000
15.44552 149.000
15.46547 127.000
15.48541 141.000
15.50536 160.000
15.52531 158.000
15.54526 157.000
15.56520 157.000
15.58515 162.000
15.60510 170.000
15.62504 168.000
15.64499 157.000
15.66494 167.000
15.68488 181.000
15.70483 247.000
15.72478 217.000
15.74472 262.000
15.76467 298.000
15.78462 381.000
15.80457 503.000
15.82451 786.000
15.84446 1104.000
15.86441 1674.000
15.88435 2245.000
15.90430 2740.000
15.92425 2814.000
15.94419 2663.000
15.96414 2320.000
15.98409 1941.000
16.00404 1633.000
16.02398 1328.000
16.04393 1072.000
16.06388 906.000
16.08382 703.000
16.10377 483.000
16.12372 368.000
16.14366 255.000
16.16361 242.000
16.18356 195.000
16.20351 215.000
16.22345 192.000
16.24340 204.000
16.26335 158.000
16.28329 178.000
16.30324 182.000
16.32319 170.000
16.34313 151.000
16.36308 149.000
16.38303 151.000
16.40297 153.000
16.42292 177.000
16.44287 176.000
16.46282 143.000
16.48276 151.000
16.50271 114.000
16.52266 136.000
16.54260 138.000
16.56255 146.000
16.58250 132.000
16.60244 117.000
16.62239 136.000
16.64234 149.000
16.66229 127.000
16.68223 107.000
16.70218 120.000
16.72213 118.000
16.74207 124.000
16.76202 147.000
16.78197 128.000
16.80191 117.000
16.82186 131.000
16.84181 136.000
16.86175 161.000
16.88170 148.000
16.90165 166.000
16.92160 144.000
16.94154 132.000
16.96149 146.000
16.98144 143.000
17.00138 121.000
17.02133 153.000
17.04128 132.000
17.06122 128.000
17.08117 149.000
17.10112 135.000
17.12107 135.000
17.14101 135.000
17.16096 126.000
17.18091 117.000
17.20085 130.000
17.22080 111.000
17.24075 147.000
17.26069 138.000
17.28064 132.000
17.30059 128.000
17.32053 131.000
17.34048 139.000
17.36043 134.000
17.38038 110.000
17.40032 110.000
17.42027 135.000
17.44022 123.000
17.46016 126.000
17.48011 110.000
17.50006 106.000
17.52000 137.000
17.53995 126.000
17.55990 135.000
17.57985 118.000
17.59979 122.000
17.61974 128.000
17.63969 122.000
17.65963 140.000
17.67958 141.000
17.69953 110.000
17.71947 134.000
17.73942 130.000
17.75937 127.000
17.77932 119.000
17.79926 122.000
17.81921 131.000
17.83916 112.000
17.85910 134.000
17.87905 131.000
17.89900 121.000
17.91894 126.000
17.93889 130.000
17.95884 128.000
17.97878 130.000
17.99873 142.000
18.01868 132.000
18.03863 129.000
18.05857 121.000
18.07852 129.000
18.09847 146.000
18.11841 113.000
18.13836 116.000
18.15831 119.000
18.17825 142.000
18.19820 107.000
18.21815 132.000
18.23810 111.000
18.25804 130.000
18.27799 139.000
18.29794 127.000
18.31788 109.000
18.33783 120.000
18.35778 138.000
18.37772 137.000
18.39767 147.000
18.41762 146.000
18.43756 154.000
18.45751 158.000
18.47746 146.000
18.49741 145.000
18.51735 144.000
18.53730 126.000
18.55725 134.000
18.57719 147.000
18.59714 130.000
18.61709 140.000
18.63703 152.000
18.65698 131.000
18.67693 130.000
18.69688 137.000
18.71682 123.000
18.73677 131.000
18.75672 146.000
18.77666 141.000
18.79661 143.000
18.81656 137.000
18.83650 125.000
18.85645 141.000
18.87640 144.000
18.89634 132.000
18.91629 137.000
18.93624 134.000
18.95619 138.000
18.97613 154.000
18.99608 138.000
19.01603 129.000
19.03597 117.000
19.05592 148.000
19.07587 136.000
19.09581 118.000
19.11576 133.000
19.13571 117.000
19.15566 136.000
19.17560 137.000
19.19555 128.000
19.21550 153.000
19.23544 139.000
19.25539 143.000
19.27534 141.000
19.29528 133.000
19.31523 119.000
19.33518 130.000
19.35513 169.000
19.37507 150.000
19.39502 121.000
19.41497 133.000
19.43491 130.000
19.45486 144.000
19.47481 141.000
19.49475 130.000
19.51470 137.000
19.53465 151.000
19.55459 131.000
19.57454 162.000
19.59449 133.000
19.61444 121.000
19.63438 126.000
19.65433 134.000
19.67428 145.000
19.69422 115.000
19.71417 123.000
19.73412 139.000
19.75406 156.000
19.77401 136.000
19.79396 152.000
19.81391 154.000
19.83385 135.000
19.85380 154.000
19.87375 122.000
19.89369 123.000
19.91364 126.000
19.93359 133.000
19.95353 146.000
19.97348 142.000
19.99343 147.000
20.01337 146.000
20.03332 138.000
20.05327 132.000
20.07322 133.000
20.09316 139.000
20.11311 150.000
20.13306 149.000
20.15300 143.000
20.17295 148.000
20.19290 120.000
20.21284 149.000
20.23279 122.000
20.25274 155.000
20.27269 119.000
20.29263 146.000
20.31258 156.000
20.33253 135.000
20.35247 128.000
20.37242 138.000
20.39237 120.000
20.41231 143.000
20.43226 133.000
20.45221 146.000
20.47215 145.000
20.49210 165.000
20.51205 154.000
20.53200 129.000
20.55194 143.000
20.57189 148.000
20.59184 137.000
20.61178 145.000
20.63173 139.000
20.65168 144.000
20.67162 157.000
20.69157 168.000
20.71152 147.000
20.73147 156.000
20.75141 142.000
20.77136 149.000
20.79131 182.000
20.81125 190.000
20.83120 178.000
20.85115 167.000
20.87109 135.000
20.89104 207.000
20.91099 184.000
20.93094 190.000
20.95088 186.000
20.97083 197.000
20.99078 208.000
21.01072 193.000
21.03067 217.000
21.05062 212.000
21.07056 237.000
21.09051 238.000
21.11046 241.000
21.13040 223.000
21.15035 248.000
21.17030 220.000
21.19025 203.000
21.21019 228.000
21.23014 199.000
21.25009 193.000
21.27003 172.000
21.28998 171.000
21.30993 160.000
21.32987 142.000
21.34982 166.000
21.36977 169.000
21.38972 160.000
21.40966 147.000
21.42961 170.000
21.44956 126.000
21.46950 152.000
21.48945 137.000
21.50940 151.000
21.52934 144.000
21.54929 160.000
21.56924 129.000
21.58918 154.000
21.60913 140.000
21.62908 170.000
21.64903 157.000
21.66897 172.000
21.68892 178.000
21.70887 140.000
21.72881 159.000
21.74876 134.000
21.76871 124.000
21.78865 159.000
21.80860 151.000
21.82855 139.000
21.84850 141.000
21.86844 150.000
21.88839 164.000
21.90834 164.000
21.92828 143.000
21.94823 127.000
21.96818 161.000
21.98812 147.000
22.00807 136.000
22.02802 156.000
22.04796 155.000
22.06791 160.000
22.08786 146.000
22.10781 135.000
22.12775 133.000
22.14770 169.000
22.16765 140.000
22.18759 167.000
22.20754 133.000
22.22749 167.000
22.24743 132.000
22.26738 162.000
22.28733 155.000
22.30728 136.000
22.32722 150.000
22.34717 159.000
22.36712 135.000
22.38706 139.000
22.40701 162.000
22.42696 145.000
22.44690 167.000
22.46685 170.000
22.48680 145.000
22.50675 146.000
22.52669 145.000
22.54664 151.000
22.56659 161.000
22.58653 160.000
22.60648 146.000
22.62643 163.000
22.64637 151.000
22.66632 141.000
22.68627 135.000
22.70621 150.000
22.72616 166.000
22.74611 149.000
22.76606 165.000
22.78600 135.000
22.80595 158.000
22.82590 164.000
22.84584 134.000
22.86579 161.000
22.88574 171.000
22.90568 143.000
22.92563 174.000
22.94558 147.000
22.96553 160.000
22.98547 165.000
23.00542 169.000
23.02537 156.000
23.04531 165.000
23.06526 155.000
23.08521 157.000
23.10515 163.000
23.12510 176.000
23.14505 152.000
23.16499 174.000
23.18494 177.000
23.20489 154.000
23.22484 165.000
23.24478 168.000
23.26473 155.000
23.28468 144.000
23.30462 139.000
23.32457 145.000
23.34452 148.000
23.36446 155.000
23.38441 121.000
23.40436 175.000
23.42431 187.000
23.44425 162.000
23.46420 144.000
23.48415 162.000
23.50409 160.000
23.52404 177.000
23.54399 146.000
23.56393 162.000
23.58388 183.000
23.60383 171.000
23.62377 150.000
23.64372 183.000
23.66367 165.000
23.68362 172.000
23.70356 175.000
23.72351 163.000
23.74346 151.000
23.76340 179.000
23.78335 174.000
23.80330 155.000
23.82324 164.000
23.84319 180.000
23.86314 164.000
23.88309 150.000
23.90303 168.000
23.92298 175.000
23.94293 157.000
23.96287 172.000
23.98282 187.000
24.00277 167.000
24.02271 175.000
24.04266 166.000
24.06261 155.000
24.08256 178.000
24.10250 174.000
24.12245 157.000
24.14240 174.000
24.16234 162.000
24.18229 172.000
24.20224 152.000
24.22218 150.000
24.24213 147.000
24.26208 163.000
24.28202 145.000
24.30197 147.000
24.32192 160.000
24.34187 165.000
24.36181 175.000
24.38176 160.000
24.40171 146.000
24.42165 175.000
24.44160 181.000
24.46155 165.000
24.48149 176.000
24.50144 193.000
24.52139 187.000
24.54134 137.000
24.56128 178.000
24.58123 162.000
24.60118 185.000
24.62112 170.000
24.64107 143.000
24.66102 157.000
24.68096 164.000
24.70091 141.000
24.72086 157.000
24.74080 167.000
24.76075 136.000
24.78070 162.000
24.80065 174.000
24.82059 159.000
24.84054 169.000
24.86049 151.000
24.88043 176.000
24.90038 165.000
24.92033 168.000
24.94027 182.000
24.96022 167.000
24.98017 178.000
25.00012 184.000
25.02006 178.000
25.04001 175.000
25.05996 167.000
25.07990 154.000
25.09985 196.000
25.11980 204.000
25.13974 165.000
25.15969 194.000
25.17964 162.000
25.19958 170.000
25.21953 171.000
25.23948 168.000
25.25943 189.000
25.27937 169.000
25.29932 169.000
25.31927 176.000
25.33921 166.000
25.35916 156.000
25.37911 159.000
25.39905 186.000
25.41900 191.000
25.43895 162.000
25.45890 168.000
25.47884 172.000
25.49879 175.000
25.51874 148.000
25.53868 170.000
25.55863 169.000
25.57858 188.000
25.59852 183.000
25.61847 166.000
25.63842 177.000
25.65837 154.000
25.67831 156.000
25.69826 158.000
25.71821 198.000
25.73815 171.000
25.75810 202.000
25.77805 204.000
25.79799 184.000
25.81794 167.000
25.83789 164.000
25.85783 187.000
25.87778 173.000
25.89773 157.000
25.91768 206.000
25.93762 152.000
25.95757 173.000
25.97752 152.000
25.99746 169.000
26.01741 189.000
26.03736 197.000
26.05730 161.000
26.07725 163.000
26.09720 176.000
26.11715 155.000
26.13709 189.000
26.15704 173.000
26.17699 185.000
26.19693 175.000
26.21688 175.000
26.23683 155.000
26.25677 194.000
26.27672 168.000
26.29667 184.000
26.31661 167.000
26.33656 164.000
26.35651 164.000
26.37646 212.000
26.39640 199.000
26.41635 178.000
26.43630 196.000
26.45624 176.000
26.47619 163.000
26.49614 175.000
26.51608 188.000
26.53603 182.000
26.55598 172.000
26.57593 193.000
26.59587 193.000
26.61582 184.000
26.63577 180.000
26.65571 185.000
26.67566 207.000
26.69561 173.000
26.71555 196.000
26.73550 186.000
26.75545 177.000
26.77539 156.000
26.79534 194.000
26.81529 178.000
26.83524 157.000
26.85518 172.000
26.87513 195.000
26.89508 175.000
26.91502 174.000
26.93497 190.000
26.95492 163.000
26.97486 169.000
26.99481 179.000
27.01476 171.000
27.03471 202.000
27.05465 184.000
27.07460 161.000
27.09455 180.000
27.11449 195.000
27.13444 191.000
27.15439 177.000
27.17433 195.000
27.19428 180.000
27.21423 189.000
27.23417 183.000
27.25412 174.000
27.27407 195.000
27.29402 200.000
27.31396 177.000
27.33391 171.000
27.35386 184.000
27.37380 177.000
27.39375 168.000
27.41370 199.000
27.43364 182.000
27.45359 187.000
27.47354 167.000
27.49349 177.000
27.51343 173.000
27.53338 188.000
27.55333 181.000
27.57327 179.000
27.59322 188.000
27.61317 182.000
27.63311 195.000
27.65306 181.000
27.67301 200.000
27.69296 199.000
27.71290 185.000
27.73285 175.000
27.75280 167.000
27.77274 189.000
27.79269 185.000
27.81264 155.000
27.83258 179.000
27.85253 163.000
27.87248 164.000
27.89242 189.000
27.91237 190.000
27.93232 187.000
27.95227 181.000
27.97221 161.000
27.99216 201.000
28.01211 166.000
28.03205 178.000
28.05200 185.000
28.07195 221.000
28.09189 198.000
28.11184 200.000
28.13179 196.000
28.15174 190.000
28.17168 198.000
28.19163 185.000
28.21158 187.000
28.23152 193.000
28.25147 207.000
28.27142 182.000
28.29136 174.000
28.31131 210.000
28.33126 185.000
28.35120 195.000
28.37115 211.000
28.39110 173.000
28.41105 182.000
28.43099 198.000
28.45094 232.000
28.47089 183.000
28.49083 215.000
28.51078 186.000
28.53073 195.000
28.55067 189.000
28.57062 182.000
28.59057 196.000
28.61052 190.000
28.63046 211.000
28.65041 199.000
28.67036 179.000
28.69030 204.000
28.71025 185.000
28.73020 209.000
28.75014 188.000
28.77009 192.000
28.79004 181.000
28.80998 183.000
28.82993 170.000
28.84988 175.000
28.86983 203.000
28.88977 193.000
28.90972 192.000
28.92967 187.000
28.94961 183.000
28.96956 203.000
28.98951 183.000
29.00945 185.000
29.02940 171.000
29.04935 168.000
29.06930 185.000
29.08924 179.000
29.10919 185.000
29.12914 191.000
29.14908 181.000
29.16903 221.000
29.18898 191.000
29.20892 200.000
29.22887 186.000
29.24882 216.000
29.26877 215.000
29.28871 218.000
29.30866 195.000
29.32861 216.000
29.34855 227.000
29.36850 213.000
29.38845 259.000
29.40839 241.000
29.42834 265.000
29.44829 222.000
29.46823 250.000
29.48818 251.000
29.50813 253.000
29.52808 239.000
29.54802 219.000
29.56797 238.000
29.58792 219.000
29.60786 227.000
29.62781 223.000
29.64776 196.000
29.66770 212.000
29.68765 216.000
29.70760 180.000
29.72755 207.000
29.74749 184.000
29.76744 202.000
29.78739 174.000
29.80733 198.000
29.82728 192.000
29.84723 195.000
29.86717 202.000
29.88712 200.000
29.90707 194.000
29.92701 200.000
29.94696 196.000
29.96691 191.000
29.98686 183.000
30.00680 205.000
30.02675 198.000
30.04670 201.000
30.06664 200.000
30.08659 199.000
30.10654 204.000
30.12648 235.000
30.14643 215.000
30.16638 208.000
30.18633 236.000
30.20627 176.000
30.22622 219.000
30.24617 222.000
30.26611 238.000
30.28606 222.000
30.30601 229.000
30.32595 226.000
30.34590 261.000
30.36585 251.000
30.38579 241.000
30.40574 258.000
30.42569 244.000
30.44564 260.000
30.46558 228.000
30.48553 229.000
30.50548 233.000
30.52542 234.000
30.54537 215.000
30.56532 201.000
30.58526 217.000
30.60521 199.000
30.62516 187.000
30.64511 212.000
30.66505 212.000
30.68500 224.000
30.70495 184.000
30.72489 201.000
30.74484 206.000
30.76479 223.000
30.78473 206.000
30.80468 193.000
30.82463 196.000
30.84458 191.000
30.86452 209.000
30.88447 185.000
30.90442 196.000
30.92436 217.000
30.94431 209.000
30.96426 207.000
30.98420 176.000
31.00415 216.000
31.02410 188.000
31.04404 214.000
31.06399 203.000
31.08394 199.000
31.10389 206.000
31.12383 197.000
31.14378 206.000
31.16373 194.000
31.18367 208.000
31.20362 187.000
31.22357 208.000
31.24351 197.000
31.26346 223.000
31.28341 210.000
31.30336 209.000
31.32330 210.000
31.34325 174.000
31.36320 205.000
31.38314 189.000
31.40309 195.000
31.42304 210.000
31.44298 219.000
31.46293 232.000
31.48288 178.000
31.50282 198.000
31.52277 217.000
31.54272 223.000
31.56267 213.000
31.58261 222.000
31.60256 200.000
31.62251 209.000
31.64245 188.000
31.66240 216.000
31.68235 193.000
31.70229 214.000
31.72224 230.000
31.74219 210.000
31.76214 219.000
31.78208 221.000
31.80203 221.000
31.82198 225.000
31.84192 217.000
31.86187 210.000
31.88182 227.000
31.90176 220.000
31.92171 248.000
31.94166 248.000
31.96160 259.000
31.98155 282.000
32.00150 280.000
32.02145 352.000
32.04139 385.000
32.06134 443.000
32.08129 496.000
32.10123 493.000
32.12118 560.000
32.14113 537.000
32.16107 490.000
32.18102 524.000
32.20097 504.000
32.22092 508.000
32.24086 463.000
32.26081 447.000
32.28076 369.000
32.30070 372.000
32.32065 321.000
32.34060 295.000
32.36054 307.000
32.38049 260.000
32.40044 241.000
32.42039 253.000
32.44033 264.000
32.46028 246.000
32.48023 276.000
32.50017 299.000
32.52012 255.000
32.54007 265.000
32.56001 295.000
32.57996 308.000
32.59991 289.000
32.61985 242.000
32.63980 229.000
32.65975 247.000
32.67970 272.000
32.69964 267.000
32.71959 231.000
32.73954 211.000
32.75948 225.000
32.77943 243.000
32.79938 223.000
32.81932 228.000
32.83927 201.000
32.85922 193.000
32.87917 224.000
32.89911 201.000
32.91906 230.000
32.93901 217.000
32.95895 235.000
32.97890 199.000
32.99885 231.000
33.01879 213.000
33.03874 192.000
33.05869 221.000
33.07863 205.000
33.09858 226.000
33.11853 207.000
33.13848 215.000
33.15842 232.000
33.17837 221.000
33.19832 182.000
33.21826 186.000
33.23821 187.000
33.25816 191.000
33.27810 210.000
33.29805 186.000
33.31800 198.000
33.33795 223.000
33.35789 196.000
33.37784 208.000
33.39779 222.000
33.41773 202.000
33.43768 227.000
33.45763 225.000
33.47757 186.000
33.49752 226.000
33.51747 212.000
33.53741 202.000
33.55736 222.000
33.57731 203.000
33.59726 230.000
33.61720 190.000
33.63715 226.000
33.65710 223.000
33.67704 189.000
33.69699 197.000
33.71694 209.000
33.73688 208.000
33.75683 214.000
33.77678 181.000
33.79673 215.000
33.81667 189.000
33.83662 200.000
33.85657 193.000
33.87651 217.000
33.89646 194.000
33.91641 193.000
33.93635 235.000
33.95630 208.000
33.97625 191.000
33.99620 214.000
34.01614 211.000
34.03609 217.000
34.05604 224.000
34.07598 216.000
34.09593 228.000
34.11588 213.000
34.13582 242.000
34.15577 211.000
34.17572 252.000
34.19566 213.000
34.21561 207.000
34.23556 247.000
34.25551 245.000
34.27545 227.000
34.29540 234.000
34.31535 226.000
34.33529 245.000
34.35524 258.000
34.37519 232.000
34.39513 262.000
34.41508 268.000
34.43503 258.000
34.45498 242.000
34.47492 271.000
34.49487 296.000
34.51482 265.000
34.53476 318.000
34.55471 311.000
34.57466 256.000
34.59460 312.000
34.61455 324.000
34.63450 296.000
34.65444 290.000
34.67439 334.000
34.69434 359.000
34.71429 359.000
34.73423 404.000
34.75418 398.000
34.77413 390.000
34.79407 359.000
34.81402 348.000
34.83397 361.000
34.85391 368.000
34.87386 334.000
34.89381 334.000
34.91376 344.000
34.93370 325.000
34.95365 329.000
34.97360 301.000
34.99354 279.000
35.01349 292.000
35.03344 293.000
35.05338 247.000
35.07333 285.000
35.09328 260.000
35.11322 282.000
35.13317 239.000
35.15312 306.000
35.17307 276.000
35.19301 250.000
35.21296 283.000
35.23291 287.000
35.25285 279.000
35.27280 289.000
35.29275 281.000
35.31269 298.000
35.33264 313.000
35.35259 339.000
35.37254 367.000
35.39248 405.000
35.41243 404.000
35.43238 479.000
35.45232 540.000
35.47227 595.000
35.49222 633.000
35.51216 747.000
35.53211 822.000
35.55206 963.000
35.57201 973.000
35.59195 1063.000
35.61190 1071.000
35.63185 1090.000
35.65179 1162.000
35.67174 1214.000
35.69169 1140.000
35.71163 1074.000
35.73158 1179.000
35.75153 1208.000
35.77147 1194.000
35.79142 1149.000
35.81137 1107.000
35.83132 1100.000
35.85126 928.000
35.87121 915.000
35.89116 850.000
35.91110 801.000
35.93105 746.000
35.95100 640.000
35.97094 548.000
35.99089 515.000
36.01084 423.000
36.03079 388.000
36.05073 347.000
36.07068 337.000
36.09063 333.000
36.11057 299.000
36.13052 264.000
36.15047 297.000
36.17041 271.000
36.19036 248.000
36.21031 288.000
36.23025 244.000
36.25020 268.000
36.27015 246.000
36.29010 246.000
36.31004 246.000
36.32999 232.000
36.34994 252.000
36.36988 248.000
36.38983 265.000
36.40978 270.000
36.42972 245.000
36.44967 278.000
36.46962 239.000
36.48957 240.000
36.50951 223.000
36.52946 252.000
36.54941 239.000
36.56935 274.000
36.58930 273.000
36.60925 256.000
36.62919 282.000
36.64914 256.000
36.66909 289.000
36.68903 307.000
36.70898 289.000
36.72893 287.000
36.74888 275.000
36.76882 271.000
36.78877 290.000
36.80872 261.000
36.82866 290.000
36.84861 307.000
36.86856 303.000
36.88850 302.000
36.90845 280.000
36.92840 330.000
36.94835 320.000
36.96829 382.000
36.98824 364.000
37.00819 404.000
37.02813 432.000
37.04808 491.000
37.06803 494.000
37.08797 600.000
37.10792 665.000
37.12787 699.000
37.14781 798.000
37.16776 851.000
37.18771 905.000
37.20766 840.000
37.22760 877.000
37.24755 802.000
37.26750 772.000
37.28744 700.000
37.30739 620.000
37.32734 563.000
37.34728 521.000
37.36723 478.000
37.38718 412.000
37.40713 385.000
37.42707 352.000
37.44702 300.000
37.46697 305.000
37.48691 288.000
37.50686 292.000
37.52681 255.000
37.54675 235.000
37.56670 265.000
37.58665 259.000
37.60660 296.000
37.62654 224.000
37.64649 229.000
37.66644 227.000
37.68638 241.000
37.70633 246.000
37.72628 235.000
37.74622 236.000
37.76617 245.000
37.78612 218.000
37.80606 224.000
37.82601 222.000
37.84596 243.000
37.86591 249.000
37.88585 220.000
37.90580 233.000
37.92575 233.000
37.94569 260.000
37.96564 206.000
37.98559 263.000
38.00553 250.000
38.02548 237.000
38.04543 269.000
38.06538 274.000
38.08532 232.000
38.10527 260.000
38.12522 240.000
38.14516 260.000
38.16511 255.000
38.18506 261.000
38.20500 266.000
38.22495 269.000
38.24490 249.000
38.26484 239.000
38.28479 255.000
38.30474 253.000
38.32469 236.000
38.34463 295.000
38.36458 261.000
38.38453 289.000
38.40447 284.000
38.42442 274.000
38.44437 293.000
38.46431 288.000
38.48426 312.000
38.50421 347.000
38.52416 354.000
38.54410 356.000
38.56405 394.000
38.58400 431.000
38.60394 511.000
38.62389 573.000
38.64384 623.000
38.66378 691.000
38.68373 704.000
38.70368 865.000
38.72362 884.000
38.74357 922.000
38.76352 929.000
38.78347 968.000
38.80341 927.000
38.82336 865.000
38.84331 885.000
38.86325 773.000
38.88320 744.000
38.90315 732.000
38.92309 710.000
38.94304 637.000
38.96299 599.000
38.98294 607.000
39.00288 551.000
39.02283 535.000
39.04278 521.000
39.06272 508.000
39.08267 535.000
39.10262 492.000
39.12256 507.000
39.14251 514.000
39.16246 495.000
39.18241 499.000
39.20235 504.000
39.22230 538.000
39.24225 565.000
39.26219 621.000
39.28214 733.000
39.30209 831.000
39.32203 975.000
39.34198 1072.000
39.36193 1166.000
39.38187 1213.000
39.40182 1284.000
39.42177 1324.000
39.44172 1235.000
39.46166 1251.000
39.48161 1174.000
39.50156 1061.000
39.52150 944.000
39.54145 889.000
39.56140 775.000
39.58134 665.000
39.60129 586.000
39.62124 508.000
39.64119 471.000
39.66113 432.000
39.68108 418.000
39.70103 308.000
39.72097 287.000
39.74092 299.000
39.76087 293.000
39.78081 277.000
39.80076 298.000
39.82071 244.000
39.84065 287.000
39.86060 258.000
39.88055 233.000
39.90050 262.000
39.92044 242.000
39.94039 243.000
39.96034 252.000
39.98028 197.000
40.00023 238.000
40.02018 218.000
40.04012 209.000
40.06007 260.000
40.08002 216.000
40.09997 273.000
40.11991 233.000
40.13986 221.000
40.15981 238.000
40.17975 222.000
40.19970 227.000
40.21965 226.000
40.23959 209.000
40.25954 239.000
40.27949 204.000
40.29943 208.000
40.31938 214.000
40.33933 207.000
40.35928 230.000
40.37922 233.000
40.39917 200.000
40.41912 217.000
40.43906 223.000
40.45901 192.000
40.47896 237.000
40.49890 224.000
40.51885 227.000
40.53880 214.000
40.55875 210.000
40.57869 228.000
40.59864 203.000
40.61859 234.000
40.63853 211.000
40.65848 222.000
40.67843 234.000
40.69837 235.000
40.71832 230.000
40.73827 217.000
40.75822 203.000
40.77816 248.000
40.79811 232.000
40.81806 222.000
40.83800 219.000
40.85795 197.000
40.87790 227.000
40.89784 222.000
40.91779 211.000
40.93774 213.000
40.95768 219.000
40.97763 212.000
40.99758 230.000
41.01753 209.000
41.03747 231.000
41.05742 213.000
41.07737 216.000
41.09731 212.000
41.11726 207.000
41.13721 215.000
41.15715 229.000
41.17710 220.000
41.19705 238.000
41.21700 205.000
41.23694 203.000
41.25689 197.000
41.27684 221.000
41.29678 232.000
41.31673 218.000
41.33668 192.000
41.35662 233.000
41.37657 222.000
41.39652 224.000
41.41646 207.000
41.43641 223.000
41.45636 222.000
41.47631 230.000
41.49625 249.000
41.51620 242.000
41.53615 198.000
41.55609 242.000
41.57604 250.000
41.59599 245.000
41.61593 266.000
41.63588 264.000
41.65583 235.000
41.67578 255.000
41.69572 247.000
41.71567 264.000
41.73562 232.000
41.75556 258.000
41.77551 249.000
41.79546 260.000
41.81540 247.000
41.83535 251.000
41.85530 245.000
41.87524 227.000
41.89519 251.000
41.91514 230.000
41.93509 245.000
41.95503 252.000
41.97498 213.000
41.99493 230.000
42.01487 228.000
42.03482 231.000
42.05477 219.000
42.07471 214.000
42.09466 214.000
42.11461 214.000
42.13456 219.000
42.15450 211.000
42.17445 226.000
42.19440 211.000
42.21434 258.000
42.23429 205.000
42.25424 227.000
42.27418 229.000
42.29413 245.000
42.31408 225.000
42.33403 216.000
42.35397 257.000
42.37392 218.000
42.39387 241.000
42.41381 205.000
42.43376 268.000
42.45371 242.000
42.47365 224.000
42.49360 245.000
42.51355 243.000
42.53349 249.000
42.55344 221.000
42.57339 243.000
42.59334 256.000
42.61328 249.000
42.63323 236.000
42.65318 255.000
42.67312 239.000
42.69307 256.000
42.71302 259.000
42.73296 260.000
42.75291 292.000
42.77286 265.000
42.79281 294.000
42.81275 294.000
42.83270 312.000
42.85265 303.000
42.87259 352.000
42.89254 347.000
42.91249 374.000
42.93243 380.000
42.95238 424.000
42.97233 470.000
42.99227 462.000
43.01222 573.000
43.03217 550.000
43.05212 623.000
43.07206 661.000
43.09201 718.000
43.11196 786.000
43.13190 827.000
43.15185 868.000
43.17180 978.000
43.19174 980.000
43.21169 994.000
43.23164 985.000
43.25159 986.000
43.27153 940.000
43.29148 976.000
43.31143 895.000
43.33137 827.000
43.35132 827.000
43.37127 750.000
43.39121 768.000
43.41116 776.000
43.43111 728.000
43.45105 792.000
43.47100 781.000
43.49095 780.000
43.51090 781.000
43.53084 764.000
43.55079 732.000
43.57074 773.000
43.59068 783.000
43.61063 738.000
43.63058 666.000
43.65052 583.000
43.67047 515.000
43.69042 500.000
43.71037 464.000
43.73031 406.000
43.75026 400.000
43.77021 350.000
43.79015 296.000
43.81010 270.000
43.83005 263.000
43.84999 272.000
43.86994 252.000
43.88989 247.000
43.90984 266.000
43.92978 237.000
43.94973 242.000
43.96968 224.000
43.98962 244.000
44.00957 227.000
44.02952 249.000
44.04946 220.000
44.06941 203.000
44.08936 248.000
44.10930 233.000
44.12925 217.000
44.14920 238.000
44.16915 222.000
44.18909 250.000
44.20904 248.000
44.22899 195.000
44.24893 221.000
44.26888 248.000
44.28883 202.000
44.30877 248.000
44.32872 230.000
44.34867 225.000
44.36862 259.000
44.38856 237.000
44.40851 213.000
44.42846 223.000
44.44840 208.000
44.46835 205.000
44.48830 222.000
44.50824 220.000
44.52819 224.000
44.54814 204.000
44.56808 233.000
44.58803 219.000
44.60798 245.000
44.62793 220.000
44.64787 218.000
44.66782 221.000
44.68777 221.000
44.70771 223.000
44.72766 215.000
44.74761 230.000
44.76755 225.000
44.78750 212.000
44.80745 220.000
44.82740 240.000
44.84734 216.000
44.86729 200.000
44.88724 223.000
44.90718 203.000
44.92713 201.000
44.94708 225.000
44.96702 234.000
44.98697 219.000
45.00692 212.000
45.02686 236.000
45.04681 232.000
45.06676 217.000
45.08671 228.000
45.10665 209.000
45.12660 249.000
45.14655 219.000
45.16649 235.000
45.18644 195.000
45.20639 212.000
45.22633 221.000
45.24628 225.000
45.26623 221.000
45.28618 194.000
45.30612 230.000
45.32607 244.000
45.34602 209.000
45.36596 233.000
45.38591 203.000
45.40586 223.000
45.42580 245.000
45.44575 220.000
45.46570 207.000
45.48565 224.000
45.50559 206.000
45.52554 243.000
45.54549 242.000
45.56543 203.000
45.58538 208.000
45.60533 213.000
45.62527 247.000
45.64522 233.000
45.66517 221.000
45.68511 236.000
45.70506 198.000
45.72501 212.000
45.74496 200.000
45.76490 230.000
45.78485 223.000
45.80480 214.000
45.82474 213.000
45.84469 218.000
45.86464 234.000
45.88458 195.000
45.90453 235.000
45.92448 198.000
45.94443 239.000
45.96437 196.000
45.98432 224.000
46.00427 217.000
46.02421 181.000
46.04416 199.000
46.06411 191.000
46.08405 210.000
46.10400 201.000
46.12395 202.000
46.14389 223.000
46.16384 212.000
46.18379 192.000
46.20374 230.000
46.22368 240.000
46.24363 197.000
46.26358 254.000
46.28352 220.000
46.30347 217.000
46.32342 231.000
46.34336 214.000
46.36331 222.000
46.38326 211.000
46.40321 227.000
46.42315 233.000
46.44310 230.000
46.46305 227.000
46.48299 238.000
46.50294 203.000
46.52289 218.000
46.54283 217.000
46.56278 226.000
46.58273 218.000
46.60267 223.000
46.62262 239.000
46.64257 226.000
46.66252 222.000
46.68246 202.000
46.70241 224.000
46.72236 204.000
46.74230 214.000
46.76225 199.000
46.78220 215.000
46.80214 215.000
46.82209 223.000
46.84204 241.000
46.86199 211.000
46.88193 197.000
46.90188 227.000
46.92183 196.000
46.94177 219.000
46.96172 198.000
46.98167 205.000
47.00161 215.000
47.02156 197.000
47.04151 220.000
47.06146 255.000
47.08140 202.000
47.10135 253.000
47.12130 206.000
47.14124 185.000
47.16119 209.000
47.18114 201.000
47.20108 206.000
47.22103 244.000
47.24098 236.000
47.26092 236.000
47.28087 222.000
47.30082 219.000
47.32077 199.000
47.34071 197.000
47.36066 211.000
47.38061 212.000
47.40055 209.000
47.42050 216.000
47.44045 185.000
47.46039 202.000
47.48034 211.000
47.50029 231.000
47.52024 229.000
47.54018 220.000
47.56013 202.000
47.58008 210.000
47.60002 231.000
47.61997 233.000
47.63992 225.000
47.65986 244.000
47.67981 211.000
47.69976 197.000
47.71970 212.000
47.73965 213.000
47.75960 201.000
47.77955 223.000
47.79949 210.000
47.81944 192.000
47.83939 228.000
47.85933 236.000
47.87928 239.000
47.89923 233.000
47.91917 266.000
47.93912 229.000
47.95907 241.000
47.97902 243.000
47.99896 240.000
48.01891 246.000
48.03886 262.000
48.05880 248.000
48.07875 234.000
48.09870 236.000
48.11864 275.000
48.13859 251.000
48.15854 227.000
48.17848 252.000
48.19843 255.000
48.21838 225.000
48.23833 237.000
48.25827 248.000
48.27822 249.000
48.29817 286.000
48.31811 247.000
48.33806 257.000
48.35801 292.000
48.37795 266.000
48.39790 260.000
48.41785 245.000
48.43780 295.000
48.45774 287.000
48.47769 318.000
48.49764 328.000
48.51758 287.000
48.53753 297.000
48.55748 288.000
48.57742 309.000
48.59737 373.000
48.61732 388.000
48.63726 383.000
48.65721 479.000
48.67716 507.000
48.69711 541.000
48.71705 613.000
48.73700 743.000
48.75695 825.000
48.77689 987.000
48.79684 1124.000
48.81679 1199.000
48.83673 1191.000
48.85668 1251.000
48.87663 1273.000
48.89658 1262.000
48.91652 1224.000
48.93647 1156.000
48.95642 1104.000
48.97636 1046.000
48.99631 946.000
49.01626 871.000
49.03620 783.000
49.05615 714.000
49.07610 616.000
49.09605 583.000
49.11599 473.000
49.13594 439.000
49.15589 438.000
49.17583 394.000
49.19578 330.000
49.21573 314.000
49.23567 314.000
49.25562 296.000
49.27557 302.000
49.29551 274.000
49.31546 262.000
49.33541 275.000
49.35536 245.000
49.37530 263.000
49.39525 256.000
49.41520 226.000
49.43514 263.000
49.45509 218.000
49.47504 260.000
49.49498 238.000
49.51493 265.000
49.53488 227.000
49.55483 237.000
49.57477 249.000
49.59472 244.000
49.61467 241.000
49.63461 243.000
49.65456 262.000
49.67451 253.000
49.69445 221.000
49.71440 219.000
49.73435 218.000
49.75429 231.000
49.77424 248.000
49.79419 224.000
49.81414 223.000
49.83408 255.000
49.85403 240.000
49.87398 241.000
49.89392 226.000
49.91387 242.000
49.93382 218.000
49.95376 215.000
49.97371 224.000
49.99366 220.000
50.01361 238.000
50.03355 216.000
50.05350 215.000
50.07345 227.000
50.09339 214.000
50.11334 212.000
50.13329 210.000
50.15323 247.000
50.17318 243.000
50.19313 227.000
50.21307 237.000
50.23302 251.000
50.25297 230.000
50.27292 206.000
50.29286 227.000
50.31281 236.000
50.33276 213.000
50.35270 248.000
50.37265 236.000
50.39260 262.000
50.41254 236.000
50.43249 250.000
50.45244 224.000
50.47239 230.000
50.49233 198.000
50.51228 206.000
50.53223 203.000
50.55217 232.000
50.57212 249.000
50.59207 209.000
50.61201 228.000
50.63196 234.000
50.65191 233.000
50.67186 200.000
50.69180 234.000
50.71175 212.000
50.73170 221.000
50.75164 251.000
50.77159 210.000
50.79154 219.000
50.81148 224.000
50.83143 219.000
50.85138 231.000
50.87132 199.000
50.89127 215.000
50.91122 194.000
50.93117 205.000
50.95111 237.000
50.97106 208.000
50.99101 212.000
51.01095 206.000
51.03090 223.000
51.05085 212.000
51.07079 216.000
51.09074 211.000
51.11069 233.000
51.13064 200.000
51.15058 226.000
51.17053 248.000
51.19048 228.000
51.21042 194.000
51.23037 205.000
51.25032 224.000
51.27026 222.000
51.29021 235.000
51.31016 218.000
51.33010 228.000
51.35005 192.000
51.37000 207.000
51.38995 225.000
51.40989 243.000
51.42984 227.000
51.44979 195.000
51.46973 233.000
51.48968 228.000
51.50963 191.000
51.52957 209.000
51.54952 202.000
51.56947 222.000
51.58942 201.000
51.60936 224.000
51.62931 213.000
51.64926 230.000
51.66920 257.000
51.68915 226.000
51.70910 183.000
51.72904 235.000
51.74899 202.000
51.76894 238.000
51.78888 199.000
51.80883 216.000
51.82878 254.000
51.84873 223.000
51.86867 195.000
51.88862 197.000
51.90857 218.000
51.92851 218.000
51.94846 230.000
51.96841 237.000
51.98835 220.000
52.00830 212.000
52.02825 205.000
52.04820 204.000
52.06814 210.000
52.08809 219.000
52.10804 220.000
52.12798 220.000
52.14793 214.000
52.16788 203.000
52.18782 218.000
52.20777 211.000
52.22772 225.000
52.24767 250.000
52.26761 227.000
52.28756 202.000
52.30751 236.000
52.32745 215.000
52.34740 207.000
52.36735 235.000
52.38729 220.000
52.40724 209.000
52.42719 255.000
52.44713 220.000
52.46708 204.000
52.48703 214.000
52.50698 214.000
52.52692 203.000
52.54687 226.000
52.56682 208.000
52.58676 255.000
52.60671 224.000
52.62666 238.000
52.64660 218.000
52.66655 176.000
52.68650 186.000
52.70645 214.000
52.72639 215.000
52.74634 217.000
52.76629 220.000
52.78623 222.000
52.80618 191.000
52.82613 232.000
52.84607 231.000
52.86602 248.000
52.88597 225.000
52.90591 236.000
52.92586 218.000
52.94581 239.000
52.96576 233.000
52.98570 223.000
53.00565 217.000
53.02560 198.000
53.04554 226.000
53.06549 245.000
53.08544 244.000
53.10538 214.000
53.12533 260.000
53.14528 232.000
53.16523 225.000
53.18517 261.000
53.20512 256.000
53.22507 245.000
53.24501 211.000
53.26496 237.000
53.28491 207.000
53.30485 240.000
53.32480 247.000
53.34475 277.000
53.36469 256.000
53.38464 278.000
53.40459 235.000
53.42454 239.000
53.44448 240.000
53.46443 287.000
53.48438 242.000
53.50432 258.000
53.52427 247.000
53.54422 261.000
53.56416 258.000
53.58411 247.000
53.60406 252.000
53.62401 253.000
53.64395 243.000
53.66390 238.000
53.68385 245.000
53.70379 263.000
53.72374 222.000
53.74369 216.000
53.76363 238.000
53.78358 236.000
53.80353 228.000
53.82348 216.000
53.84342 266.000
53.86337 215.000
53.88332 234.000
53.90326 253.000
53.92321 250.000
53.94316 202.000
53.96310 248.000
53.98305 232.000
54.00300 243.000
54.02294 209.000
54.04289 249.000
54.06284 243.000
54.08279 203.000
54.10273 230.000
54.12268 245.000
54.14263 213.000
54.16257 232.000
54.18252 200.000
54.20247 210.000
54.22241 217.000
54.24236 216.000
54.26231 233.000
54.28226 209.000
54.30220 250.000
54.32215 224.000
54.34210 195.000
54.36204 216.000
54.38199 231.000
54.40194 211.000
54.42188 236.000
54.44183 209.000
54.46178 235.000
54.48172 216.000
54.50167 219.000
54.52162 185.000
54.54157 236.000
54.56151 200.000
54.58146 234.000
54.60141 282.000
54.62135 216.000
54.64130 201.000
54.66125 213.000
54.68119 215.000
54.70114 201.000
54.72109 226.000
54.74104 260.000
54.76098 213.000
54.78093 221.000
54.80088 221.000
54.82082 203.000
54.84077 212.000
54.86072 216.000
54.88066 197.000
54.90061 195.000
54.92056 199.000
54.94050 203.000
54.96045 217.000
54.98040 189.000
55.00035 207.000
55.02029 206.000
55.04024 211.000
55.06019 217.000
55.08013 227.000
55.10008 235.000
55.12003 209.000
55.13997 216.000
55.15992 212.000
55.17987 233.000
55.19982 211.000
55.21976 217.000
55.23971 234.000
55.25966 226.000
55.27960 213.000
55.29955 195.000
55.31950 192.000
55.33944 209.000
55.35939 198.000
55.37934 195.000
55.39929 233.000
55.41923 208.000
55.43918 215.000
55.45913 236.000
55.47907 217.000
55.49902 218.000
55.51897 216.000
55.53891 224.000
55.55886 216.000
55.57881 205.000
55.59875 212.000
55.61870 229.000
55.63865 196.000
55.65860 212.000
55.67854 224.000
55.69849 240.000
55.71844 201.000
55.73838 193.000
55.75833 218.000
55.77828 197.000
55.79822 221.000
55.81817 206.000
55.83812 214.000
55.85807 196.000
55.87801 206.000
55.89796 225.000
55.91791 193.000
55.93785 240.000
55.95780 213.000
55.97775 221.000
55.99769 217.000
56.01764 218.000
56.03759 215.000
56.05753 213.000
56.07748 212.000
56.09743 221.000
56.11738 203.000
56.13732 197.000
56.15727 206.000
56.17722 234.000
56.19716 240.000
56.21711 223.000
56.23706 203.000
56.25700 220.000
56.27695 202.000
56.29690 210.000
56.31685 222.000
56.33679 218.000
56.35674 201.000
56.37669 224.000
56.39663 221.000
56.41658 224.000
56.43653 203.000
56.45647 207.000
56.47642 207.000
56.49637 238.000
56.51631 204.000
56.53626 213.000
56.55621 241.000
56.57616 235.000
56.59610 224.000
56.61605 237.000
56.63600 207.000
56.65594 224.000
56.67589 233.000
56.69584 217.000
56.71578 208.000
56.73573 223.000
56.75568 226.000
56.77563 208.000
56.79557 230.000
56.81552 227.000
56.83547 224.000
56.85541 206.000
56.87536 233.000
56.89531 233.000
56.91525 243.000
56.93520 184.000
56.95515 196.000
56.97510 220.000
56.99504 193.000
57.01499 206.000
57.03494 228.000
57.05488 216.000
57.07483 190.000
57.09478 206.000
57.11472 229.000
57.13467 212.000
57.15462 222.000
57.17456 237.000
57.19451 249.000
57.21446 228.000
57.23441 244.000
57.25435 222.000
57.27430 227.000
57.29425 244.000
57.31419 248.000
57.33414 244.000
57.35409 257.000
57.37403 259.000
57.39398 260.000
57.41393 264.000
57.43388 257.000
57.45382 272.000
57.47377 279.000
57.49372 249.000
57.51366 277.000
57.53361 233.000
57.55356 271.000
57.57350 262.000
57.59345 263.000
57.61340 238.000
57.63334 272.000
57.65329 259.000
57.67324 251.000
57.69319 238.000
57.71313 250.000
57.73308 221.000
57.75303 213.000
57.77297 246.000
57.79292 247.000
57.81287 241.000
57.83281 235.000
57.85276 268.000
57.87271 222.000
57.89266 261.000
57.91260 250.000
57.93255 223.000
57.95250 246.000
57.97244 232.000
57.99239 247.000
58.01234 255.000
58.03228 255.000
58.05223 226.000
58.07218 235.000
58.09212 254.000
58.11207 235.000
58.13202 232.000
58.15197 229.000
58.17191 263.000
58.19186 256.000
58.21181 265.000
58.23175 290.000
58.25170 260.000
58.27165 289.000
58.29159 293.000
58.31154 287.000
58.33149 268.000
58.35144 320.000
58.37138 291.000
58.39133 297.000
58.41128 299.000
58.43122 271.000
58.45117 324.000
58.47112 271.000
58.49106 272.000
58.51101 265.000
58.53096 287.000
58.55090 301.000
58.57085 231.000
58.59080 249.000
58.61075 250.000
58.63069 233.000
58.65064 233.000
58.67059 238.000
58.69053 217.000
58.71048 233.000
58.73043 203.000
58.75037 217.000
58.77032 214.000
58.79027 197.000
58.81022 219.000
58.83016 221.000
58.85011 205.000
58.87006 219.000
58.89000 242.000
58.90995 223.000
58.92990 214.000
58.94984 218.000
58.96979 204.000
58.98974 241.000
59.00969 198.000
59.02963 209.000
59.04958 242.000
59.06953 219.000
59.08947 213.000
59.10942 237.000
59.12937 195.000
59.14931 215.000
59.16926 191.000
59.18921 204.000
59.20915 200.000
59.22910 235.000
59.24905 211.000
59.26900 250.000
59.28894 227.000
59.30889 206.000
59.32884 235.000
59.34878 230.000
59.36873 242.000
59.38868 225.000
59.40862 203.000
59.42857 210.000
59.44852 200.000
59.46847 224.000
59.48841 218.000
59.50836 222.000
59.52831 225.000
59.54825 216.000
59.56820 190.000
59.58815 230.000
59.60809 213.000
59.62804 218.000
59.64799 209.000
59.66793 218.000
59.68788 210.000
59.70783 242.000
59.72778 209.000
59.74772 232.000
59.76767 212.000
59.78762 215.000
59.80756 224.000
59.82751 233.000
59.84746 214.000
59.86740 217.000
59.88735 225.000
59.90730 224.000
59.92725 201.000
59.94719 232.000
59.96714 237.000
59.98709 233.000
60.00703 222.000
60.02698 215.000
60.04693 219.000
60.06687 198.000
60.08682 201.000
60.10677 198.000
60.12671 261.000
60.14666 189.000
60.16661 220.000
60.18656 204.000
60.20650 206.000
60.22645 199.000
60.24640 223.000
60.26634 221.000
60.28629 242.000
60.30624 224.000
60.32618 223.000
60.34613 239.000
60.36608 206.000
60.38603 211.000
60.40597 238.000
60.42592 232.000
60.44587 228.000
60.46581 217.000
60.48576 246.000
60.50571 216.000
60.52565 220.000
60.54560 211.000
60.56555 230.000
60.58550 207.000
60.60544 229.000
60.62539 225.000
60.64534 212.000
60.66528 216.000
60.68523 252.000
60.70518 207.000
60.72512 232.000
60.74507 220.000
60.76502 200.000
60.78496 231.000
60.80491 242.000
60.82486 223.000
60.84481 229.000
60.86475 201.000
60.88470 245.000
60.90465 218.000
60.92459 249.000
60.94454 249.000
60.96449 265.000
60.98443 208.000
61.00438 235.000
61.02433 223.000
61.04428 235.000
61.06422 211.000
61.08417 240.000
61.10412 257.000
61.12406 242.000
61.14401 241.000
61.16396 244.000
61.18390 251.000
61.20385 248.000
61.22380 276.000
61.24374 261.000
61.26369 221.000
61.28364 247.000
61.30359 261.000
61.32353 234.000
61.34348 249.000
61.36343 259.000
61.38337 266.000
61.40332 273.000
61.42327 262.000
61.44321 283.000
61.46316 296.000
61.48311 272.000
61.50306 326.000
61.52300 321.000
61.54295 302.000
61.56290 383.000
61.58284 374.000
61.60279 360.000
61.62274 379.000
61.64268 352.000
61.66263 364.000
61.68258 356.000
61.70252 376.000
61.72247 366.000
61.74242 344.000
61.76237 355.000
61.78231 357.000
61.80226 336.000
61.82221 318.000
61.84215 346.000
61.86210 395.000
61.88205 372.000
61.90199 401.000
61.92194 398.000
61.94189 353.000
61.96184 411.000
61.98178 411.000
62.00173 408.000
62.02168 500.000
62.04162 511.000
62.06157 517.000
62.08152 556.000
62.10146 519.000
62.12141 613.000
62.14136 621.000
62.16131 643.000
62.18125 641.000
62.20120 585.000
62.22115 638.000
62.24109 584.000
62.26104 593.000
62.28099 543.000
62.30093 581.000
62.32088 559.000
62.34083 514.000
62.36077 507.000
62.38072 538.000
62.40067 511.000
62.42062 489.000
62.44056 479.000
62.46051 504.000
62.48046 472.000
62.50040 483.000
62.52035 501.000
62.54030 501.000
62.56024 505.000
62.58019 491.000
62.60014 480.000
62.62009 570.000
62.64003 530.000
62.65998 598.000
62.67993 570.000
62.69987 565.000
62.71982 567.000
62.73977 576.000
62.75971 579.000
62.77966 606.000
62.79961 598.000
62.81955 576.000
62.83950 519.000
62.85945 494.000
62.87940 494.000
62.89934 496.000
62.91929 442.000
62.93924 421.000
62.95918 420.000
62.97913 412.000
62.99908 408.000
63.01902 404.000
63.03897 382.000
63.05892 357.000
63.07887 361.000
63.09881 332.000
63.11876 325.000
63.13871 334.000
63.15865 314.000
63.17860 345.000
63.19855 324.000
63.21849 301.000
63.23844 292.000
63.25839 299.000
63.27833 258.000
63.29828 277.000
63.31823 279.000
63.33818 256.000
63.35812 261.000
63.37807 262.000
63.39802 256.000
63.41796 244.000
63.43791 227.000
63.45786 298.000
63.47780 274.000
63.49775 217.000
63.51770 254.000
63.53765 260.000
63.55759 242.000
63.57754 233.000
63.59749 230.000
63.61743 253.000
63.63738 267.000
63.65733 233.000
63.67727 256.000
63.69722 254.000
63.71717 247.000
63.73712 233.000
63.75706 243.000
63.77701 245.000
63.79696 264.000
63.81690 258.000
63.83685 262.000
63.85680 247.000
63.87674 253.000
63.89669 242.000
63.91664 259.000
63.93658 269.000
63.95653 240.000
63.97648 299.000
63.99643 309.000
64.01637 311.000
64.03632 364.000
64.05627 290.000
64.07621 307.000
64.09616 334.000
64.11611 374.000
64.13605 348.000
64.15600 392.000
64.17595 443.000
64.19590 446.000
64.21584 430.000
64.23579 460.000
64.25574 484.000
64.27568 451.000
64.29563 495.000
64.31558 440.000
64.33552 477.000
64.35547 477.000
64.37542 497.000
64.39536 420.000
64.41531 461.000
64.43526 439.000
64.45521 405.000
64.47515 435.000
64.49510 394.000
64.51505 371.000
64.53499 363.000
64.55494 314.000
64.57489 364.000
64.59483 322.000
64.61478 283.000
64.63473 291.000
64.65468 258.000
64.67462 281.000
64.69457 270.000
64.71452 261.000
64.73446 228.000
64.75441 254.000
64.77436 247.000
64.79430 265.000
64.81425 250.000
64.83420 233.000
64.85414 236.000
64.87409 265.000
64.89404 211.000
64.91399 272.000
64.93393 232.000
64.95388 229.000
64.97383 259.000
64.99377 242.000
65.01372 254.000
65.03367 237.000
65.05361 214.000
65.07356 230.000
65.09351 206.000
65.11346 237.000
65.13340 246.000
65.15335 225.000
65.17330 230.000
65.19324 238.000
65.21319 230.000
65.23314 229.000
65.25308 264.000
65.27303 262.000
65.29298 232.000
65.31293 246.000
65.33287 229.000
65.35282 248.000
65.37277 273.000
65.39271 210.000
65.41266 262.000
65.43261 269.000
65.45255 245.000
65.47250 253.000
65.49245 250.000
65.51239 262.000
65.53234 258.000
65.55229 260.000
65.57224 265.000
65.59218 272.000
65.61213 295.000
65.63208 270.000
65.65202 268.000
65.67197 298.000
65.69192 317.000
65.71186 291.000
65.73181 278.000
65.75176 303.000
65.77171 265.000
65.79165 294.000
65.81160 323.000
65.83155 314.000
65.85149 309.000
65.87144 279.000
65.89139 327.000
65.91133 310.000
65.93128 298.000
65.95123 304.000
65.97117 271.000
65.99112 271.000
66.01107 314.000
66.03102 319.000
66.05096 279.000
66.07091 291.000
66.09086 299.000
66.11080 296.000
66.13075 263.000
66.15070 266.000
66.17064 286.000
66.19059 279.000
66.21054 288.000
66.23049 278.000
66.25043 295.000
66.27038 314.000
66.29033 280.000
66.31027 319.000
66.33022 320.000
66.35017 353.000
66.37011 346.000
66.39006 328.000
66.41001 393.000
66.42995 369.000
66.44990 381.000
66.46985 377.000
66.48980 401.000
66.50974 416.000
66.52969 410.000
66.54964 394.000
66.56958 440.000
66.58953 397.000
66.60948 413.000
66.62942 438.000
66.64937 413.000
66.66932 398.000
66.68927 408.000
66.70921 432.000
66.72916 442.000
66.74911 405.000
66.76905 397.000
66.78900 377.000
66.80895 374.000
66.82889 370.000
66.84884 373.000
66.86879 342.000
66.88874 373.000
66.90868 378.000
66.92863 309.000
66.94858 342.000
66.96852 353.000
66.98847 346.000
67.00842 342.000
67.02836 319.000
67.04831 321.000
67.06826 304.000
67.08820 293.000
67.10815 283.000
67.12810 283.000
67.14805 271.000
67.16799 285.000
67.18794 274.000
67.20789 273.000
67.22783 275.000
67.24778 251.000
67.26773 285.000
67.28767 270.000
67.30762 271.000
67.32757 272.000
67.34752 285.000
67.36746 284.000
67.38741 250.000
67.40736 267.000
67.42730 260.000
67.44725 255.000
67.46720 272.000
67.48714 258.000
67.50709 241.000
67.52704 262.000
67.54698 250.000
67.56693 233.000
67.58688 267.000
67.60683 240.000
67.62677 239.000
67.64672 267.000
67.66667 230.000
67.68661 265.000
67.70656 243.000
67.72651 247.000
67.74645 251.000
67.76640 266.000
67.78635 280.000
67.80630 276.000
67.82624 295.000
67.84619 272.000
67.86614 302.000
67.88608 247.000
67.90603 318.000
67.92598 249.000
67.94592 307.000
67.96587 298.000
67.98582 297.000
68.00576 344.000
68.02571 325.000
68.04566 316.000
68.06561 308.000
68.08555 318.000
68.10550 321.000
68.12545 304.000
68.14539 337.000
68.16534 296.000
68.18529 316.000
68.20523 292.000
68.22518 309.000
68.24513 287.000
68.26508 289.000
68.28502 286.000
68.30497 291.000
68.32492 262.000
68.34486 282.000
68.36481 268.000
68.38476 282.000
68.40470 267.000
68.42465 270.000
68.44460 257.000
68.46455 239.000
68.48449 237.000
68.50444 270.000
68.52439 200.000
68.54433 240.000
68.56428 244.000
68.58423 241.000
68.60417 224.000
68.62412 221.000
68.64407 227.000
68.66401 209.000
68.68396 239.000
68.70391 224.000
68.72386 223.000
68.74380 249.000
68.76375 230.000
68.78370 207.000
68.80364 221.000
68.82359 208.000
68.84354 204.000
68.86348 229.000
68.88343 223.000
68.90338 231.000
68.92333 217.000
68.94327 222.000
68.96322 218.000
68.98317 219.000
69.00311 212.000
69.02306 220.000
69.04301 239.000
69.06295 243.000
69.08290 226.000
69.10285 227.000
69.12279 220.000
69.14274 199.000
69.16269 219.000
69.18264 234.000
69.20258 207.000
69.22253 196.000
69.24248 222.000
69.26242 220.000
69.28237 214.000
69.30232 205.000
69.32226 231.000
69.34221 222.000
69.36216 228.000
69.38211 183.000
69.40205 225.000
69.42200 226.000
69.44195 208.000
69.46189 233.000
69.48184 218.000
69.50179 225.000
69.52173 203.000
69.54168 234.000
69.56163 211.000
69.58157 225.000
69.60152 224.000
69.62147 227.000
69.64142 243.000
69.66136 231.000
69.68131 211.000
69.70126 221.000
69.72120 225.000
69.74115 215.000
69.76110 225.000
69.78104 209.000
69.80099 188.000
69.82094 203.000
69.84089 229.000
69.86083 215.000
69.88078 235.000
69.90073 250.000
69.92067 201.000
69.94062 242.000
69.96057 240.000
69.98051 239.000
70.00046 225.000
70.02041 217.000
70.04035 248.000
70.06030 245.000
70.08025 214.000
70.10020 220.000
70.12014 213.000
70.14009 204.000
70.16004 211.000
70.17998 215.000
70.19993 219.000
70.21988 204.000
70.23982 209.000
70.25977 213.000
70.27972 207.000
70.29967 202.000
70.31961 226.000
70.33956 204.000
70.35951 204.000
70.37945 221.000
70.39940 217.000
70.41935 200.000
70.43929 203.000
70.45924 226.000
70.47919 232.000
70.49914 199.000
70.51908 190.000
70.53903 213.000
70.55898 205.000
70.57892 222.000
70.59887 224.000
70.61882 206.000
70.63876 202.000
70.65871 204.000
70.67866 225.000
70.69860 211.000
70.71855 189.000
70.73850 223.000
70.75845 196.000
70.77839 211.000
70.79834 229.000
70.81829 209.000
70.83823 218.000
70.85818 196.000
70.87813 227.000
70.89807 223.000
70.91802 217.000
70.93797 220.000
70.95792 217.000
70.97786 234.000
70.99781 213.000
71.01776 206.000
71.03770 209.000
71.05765 209.000
71.07760 204.000
71.09754 197.000
71.11749 231.000
71.13744 226.000
71.15738 230.000
71.17733 230.000
71.19728 197.000
71.21723 223.000
71.23717 211.000
71.25712 246.000
71.27707 199.000
71.29701 224.000
71.31696 209.000
71.33691 230.000
71.35685 225.000
71.37680 210.000
71.39675 238.000
71.41670 222.000
71.43664 211.000
71.45659 202.000
71.47654 230.000
71.49648 215.000
71.51643 203.000
71.53638 217.000
71.55632 232.000
71.57627 212.000
71.59622 218.000
71.61616 221.000
71.63611 202.000
71.65606 242.000
71.67601 228.000
71.69595 230.000
71.71590 215.000
71.73585 231.000
71.75579 221.000
71.77574 224.000
71.79569 202.000
71.81563 244.000
71.83558 222.000
71.85553 224.000
71.87548 235.000
71.89542 220.000
71.91537 221.000
71.93532 228.000
71.95526 226.000
71.97521 237.000
71.99516 204.000
72.01510 214.000
72.03505 231.000
72.05500 246.000
72.07495 229.000
72.09489 212.000
72.11484 212.000
72.13479 231.000
72.15473 231.000
72.17468 248.000
72.19463 234.000
72.21457 214.000
72.23452 209.000
72.25447 205.000
72.27441 260.000
72.29436 237.000
72.31431 243.000
72.33426 203.000
72.35420 270.000
72.37415 226.000
72.39410 259.000
72.41404 277.000
72.43399 231.000
72.45394 236.000
72.47388 264.000
72.49383 247.000
72.51378 230.000
72.53373 280.000
72.55367 309.000
72.57362 269.000
72.59357 226.000
72.61351 261.000
72.63346 271.000
72.65341 222.000
72.67335 258.000
72.69330 262.000
72.71325 234.000
72.73319 229.000
72.75314 250.000
72.77309 229.000
72.79304 219.000
72.81298 223.000
72.83293 237.000
72.85288 193.000
72.87282 197.000
72.89277 243.000
72.91272 233.000
72.93266 208.000
72.95261 227.000
72.97256 223.000
72.99251 207.000
73.01245 227.000
73.03240 231.000
73.05235 221.000
73.07229 196.000
73.09224 211.000
73.11219 252.000
73.13213 221.000
73.15208 228.000
73.17203 246.000
73.19197 220.000
73.21192 220.000
73.23187 229.000
73.25182 253.000
73.27176 217.000
73.29171 256.000
73.31166 279.000
73.33160 232.000
73.35155 266.000
73.37150 252.000
73.39144 243.000
73.41139 237.000
73.43134 272.000
73.45129 277.000
73.47123 261.000
73.49118 254.000
73.51113 270.000
73.53107 291.000
73.55102 302.000
73.57097 265.000
73.59091 289.000
73.61086 301.000
73.63081 293.000
73.65076 350.000
73.67070 300.000
73.69065 303.000
73.71060 324.000
73.73054 270.000
73.75049 323.000
73.77044 273.000
73.79038 305.000
73.81033 288.000
73.83028 291.000
73.85022 303.000
73.87017 256.000
73.89012 276.000
73.91007 272.000
73.93001 273.000
73.94996 283.000
73.96991 228.000
73.98985 247.000
74.00980 228.000
74.02975 239.000
74.04969 242.000
74.06964 262.000
74.08959 262.000
74.10954 257.000
74.12948 221.000
74.14943 232.000
74.16938 226.000
74.18932 238.000
74.20927 257.000
74.22922 220.000
74.24916 206.000
74.26911 227.000
74.28906 241.000
74.30900 218.000
74.32895 232.000
74.34890 220.000
74.36885 235.000
74.38879 249.000
74.40874 220.000
74.42869 238.000
74.44863 231.000
74.46858 244.000
74.48853 231.000
74.50847 240.000
74.52842 218.000
74.54837 208.000
74.56832 247.000
74.58826 250.000
74.60821 248.000
74.62816 242.000
74.64810 256.000
74.66805 234.000
74.68800 243.000
74.70794 262.000
74.72789 241.000
74.74784 268.000
74.76778 287.000
74.78773 260.000
74.80768 258.000
74.82763 289.000
74.84757 299.000
74.86752 270.000
74.88747 260.000
74.90741 279.000
74.92736 319.000
74.94731 305.000
74.96725 315.000
74.98720 320.000
75.00715 337.000
75.02710 313.000
75.04704 361.000
75.06699 371.000
75.08694 368.000
75.10688 366.000
75.12683 332.000
75.14678 374.000
75.16672 364.000
75.18667 391.000
75.20662 379.000
75.22657 380.000
75.24651 394.000
75.26646 366.000
75.28641 348.000
75.30635 392.000
75.32630 373.000
75.34625 362.000
75.36619 327.000
75.38614 381.000
75.40609 316.000
75.42603 324.000
75.44598 317.000
75.46593 304.000
75.48588 304.000
75.50582 296.000
75.52577 293.000
75.54572 289.000
75.56566 274.000
75.58561 314.000
75.60556 287.000
75.62550 298.000
75.64545 260.000
75.66540 280.000
75.68535 284.000
75.70529 264.000
75.72524 278.000
75.74519 254.000
75.76513 277.000
75.78508 284.000
75.80503 261.000
75.82497 266.000
75.84492 264.000
75.86487 239.000
75.88481 246.000
75.90476 252.000
75.92471 258.000
75.94466 261.000
75.96460 255.000
75.98455 291.000
76.00450 225.000
76.02444 268.000
76.04439 257.000
76.06434 246.000
76.08428 280.000
76.10423 264.000
76.12418 236.000
76.14413 240.000
76.16407 245.000
76.18402 252.000
76.20397 212.000
76.22391 202.000
76.24386 200.000
76.26381 218.000
76.28375 212.000
76.30370 211.000
76.32365 229.000
76.34359 224.000
76.36354 236.000
76.38349 238.000
76.40344 240.000
76.42338 224.000
76.44333 216.000
76.46328 233.000
76.48322 225.000
76.50317 221.000
76.52312 229.000
76.54306 204.000
76.56301 216.000
76.58296 216.000
76.60291 203.000
76.62285 240.000
76.64280 211.000
76.66275 202.000
76.68269 237.000
76.70264 233.000
76.72259 211.000
76.74253 218.000
76.76248 189.000
76.78243 192.000
76.80238 228.000
76.82232 241.000
76.84227 231.000
76.86222 221.000
76.88216 213.000
76.90211 222.000
76.92206 217.000
76.94200 234.000
76.96195 230.000
76.98190 214.000
77.00184 201.000
77.02179 216.000
77.04174 226.000
77.06169 241.000
77.08163 212.000
77.10158 220.000
77.12153 221.000
77.14147 234.000
77.16142 237.000
77.18137 238.000
77.20131 237.000
77.22126 207.000
77.24121 224.000
77.26116 203.000
77.28110 239.000
77.30105 230.000
77.32100 211.000
77.34094 256.000
77.36089 213.000
77.38084 257.000
77.40078 235.000
77.42073 216.000
77.44068 228.000
77.46062 206.000
77.48057 213.000
77.50052 219.000
77.52047 246.000
77.54041 230.000
77.56036 189.000
77.58031 216.000
77.60025 238.000
77.62020 248.000
77.64015 254.000
77.66009 248.000
77.68004 263.000
77.69999 260.000
77.71994 252.000
77.73988 229.000
77.75983 258.000
77.77978 251.000
77.79972 245.000
77.81967 263.000
77.83962 265.000
77.85956 239.000
77.87951 282.000
77.89946 282.000
77.91940 250.000
77.93935 297.000
77.95930 297.000
77.97925 282.000
77.99919 293.000
78.01914 284.000
78.03909 316.000
78.05903 326.000
78.07898 352.000
78.09893 324.000
78.11887 309.000
78.13882 299.000
78.15877 318.000
78.17872 308.000
78.19866 310.000
78.21861 301.000
78.23856 277.000
78.25850 339.000
78.27845 290.000
78.29840 305.000
78.31834 344.000
78.33829 316.000
78.35824 331.000
78.37819 352.000
78.39813 331.000
78.41808 342.000
78.43803 320.000
78.45797 313.000
78.47792 287.000
78.49787 296.000
78.51781 320.000
78.53776 267.000
78.55771 294.000
78.57765 312.000
78.59760 334.000
78.61755 323.000
78.63750 302.000
78.65744 292.000
78.67739 287.000
78.69734 316.000
78.71728 286.000
78.73723 283.000
78.75718 286.000
78.77712 282.000
78.79707 269.000
78.81702 269.000
78.83697 295.000
78.85691 277.000
78.87686 280.000
78.89681 268.000
78.91675 296.000
78.93670 283.000
78.95665 283.000
78.97659 276.000
78.99654 266.000
79.01649 314.000
79.03643 312.000
79.05638 309.000
79.07633 313.000
79.09628 277.000
79.11622 310.000
79.13617 274.000
79.15612 299.000
79.17606 300.000
79.19601 325.000
79.21596 324.000
79.23590 301.000
79.25585 279.000
79.27580 311.000
79.29575 280.000
79.31569 296.000
79.33564 322.000
79.35559 262.000
79.37553 297.000
79.39548 272.000
79.41543 268.000
79.43537 263.000
79.45532 264.000
79.47527 269.000
79.49521 259.000
79.51516 240.000
79.53511 252.000
79.55506 263.000
79.57500 243.000
79.59495 260.000
79.61490 232.000
79.63484 252.000
79.65479 214.000
79.67474 221.000
79.69468 249.000
79.71463 216.000
79.73458 191.000
79.75453 232.000
79.77447 188.000
79.79442 221.000
79.81437 238.000
79.83431 219.000
79.85426 239.000
79.87421 253.000
79.89415 252.000
79.91410 225.000
79.93405 258.000
79.95399 243.000
79.97394 266.000
79.99389 199.000
80.01384 209.000
80.03378 222.000
80.05373 211.000
80.07368 212.000
80.09362 229.000
80.11357 206.000
80.13352 241.000
80.15346 197.000
80.17341 201.000
80.19336 230.000
80.21331 224.000
80.23325 234.000
80.25320 262.000
80.27315 238.000
80.29309 272.000
80.31304 187.000
80.33299 240.000
80.35293 238.000
80.37288 243.000
80.39283 235.000
80.41278 245.000
80.43272 249.000
80.45267 238.000
80.47262 215.000
80.49256 249.000
80.51251 255.000
80.53246 203.000
80.55240 229.000
80.57235 289.000
80.59230 254.000
80.61224 248.000
80.63219 229.000
80.65214 245.000
80.67209 245.000
80.69203 222.000
80.71198 203.000
80.73193 244.000
80.75187 226.000
80.77182 253.000
80.79177 223.000
80.81171 215.000
80.83166 257.000
80.85161 234.000
80.87156 221.000
80.89150 206.000
80.91145 230.000
80.93140 250.000
80.95134 203.000
80.97129 201.000
80.99124 235.000
81.01118 238.000
81.03113 198.000
81.05108 205.000
81.07102 231.000
81.09097 218.000
81.11092 234.000
81.13087 224.000
81.15081 228.000
81.17076 241.000
81.19071 238.000
81.21065 232.000
81.23060 260.000
81.25055 218.000
81.27049 228.000
81.29044 223.000
81.31039 229.000
81.33034 218.000
81.35028 226.000
81.37023 219.000
81.39018 230.000
81.41012 198.000
81.43007 206.000
81.45002 222.000
81.46996 228.000
81.48991 210.000
81.50986 200.000
81.52980 237.000
81.54975 211.000
81.56970 199.000
81.58965 222.000
81.60959 201.000
81.62954 216.000
81.64949 226.000
81.66943 238.000
81.68938 216.000
81.70933 230.000
81.72927 198.000
81.74922 221.000
81.76917 209.000
81.78912 204.000
81.80906 219.000
81.82901 210.000
81.84896 214.000
81.86890 247.000
81.88885 212.000
81.90880 217.000
81.92874 220.000
81.94869 230.000
81.96864 231.000
81.98859 230.000
82.00853 205.000
82.02848 212.000
82.04843 218.000
82.06837 240.000
82.08832 212.000
82.10827 217.000
82.12821 246.000
82.14816 216.000
82.16811 236.000
82.18805 236.000
82.20800 206.000
82.22795 232.000
82.24790 221.000
82.26784 200.000
82.28779 249.000
82.30774 233.000
82.32768 215.000
82.34763 227.000
82.36758 248.000
82.38752 220.000
82.40747 246.000
82.42742 229.000
82.44737 205.000
82.46731 224.000
82.48726 222.000
82.50721 254.000
82.52715 245.000
82.54710 246.000
82.56705 243.000
82.58699 238.000
82.60694 252.000
82.62689 236.000
82.64683 226.000
82.66678 231.000
82.68673 240.000
82.70668 261.000
82.72662 242.000
82.74657 248.000
82.76652 228.000
82.78646 245.000
82.80641 240.000
82.82636 232.000
82.84630 245.000
82.86625 261.000
82.88620 264.000
82.90615 238.000
82.92609 244.000
82.94604 244.000
82.96599 246.000
82.98593 249.000
83.00588 234.000
83.02583 199.000
83.04577 276.000
83.06572 220.000
83.08567 251.000
83.10561 227.000
83.12556 226.000
83.14551 261.000
83.16546 266.000
83.18540 254.000
83.20535 220.000
83.22530 242.000
83.24524 238.000
83.26519 233.000
83.28514 236.000
83.30508 222.000
83.32503 213.000
83.34498 240.000
83.36493 241.000
83.38487 230.000
83.40482 233.000
83.42477 228.000
83.44471 214.000
83.46466 253.000
83.48461 216.000
83.50455 241.000
83.52450 249.000
83.54445 275.000
83.56440 239.000
83.58434 227.000
83.60429 229.000
83.62424 244.000
83.64418 243.000
83.66413 239.000
83.68408 255.000
83.70402 250.000
83.72397 262.000
83.74392 215.000
83.76386 262.000
83.78381 243.000
83.80376 226.000
83.82371 241.000
83.84365 234.000
83.86360 243.000
83.88355 243.000
83.90349 231.000
83.92344 233.000
83.94339 242.000
83.96333 260.000
83.98328 250.000
84.00323 237.000
84.02318 227.000
84.04312 248.000
84.06307 268.000
84.08302 251.000
84.10296 214.000
84.12291 260.000
84.14286 235.000
84.16280 230.000
84.18275 243.000
84.20270 238.000
84.22264 259.000
84.24259 280.000
84.26254 225.000
84.28249 242.000
84.30243 241.000
84.32238 228.000
84.34233 238.000
84.36227 230.000
84.38222 254.000
84.40217 233.000
84.42211 258.000
84.44206 253.000
84.46201 255.000
84.48196 253.000
84.50190 289.000
84.52185 249.000
84.54180 269.000
84.56174 274.000
84.58169 289.000
84.60164 298.000
84.62158 292.000
84.64153 290.000
84.66148 301.000
84.68142 294.000
84.70137 319.000
84.72132 310.000
84.74127 310.000
84.76121 308.000
84.78116 295.000
84.80111 297.000
84.82105 269.000
84.84100 306.000
84.86095 284.000
84.88089 303.000
84.90084 238.000
84.92079 267.000
84.94074 268.000
84.96068 285.000
84.98063 294.000
85.00058 271.000
85.02052 265.000
85.04047 271.000
85.06042 270.000
85.08036 232.000
85.10031 253.000
85.12026 226.000
85.14021 212.000
85.16015 218.000
85.18010 249.000
85.20005 198.000
85.21999 236.000
85.23994 215.000
85.25989 226.000
85.27983 219.000
85.29978 244.000
85.31973 230.000
85.33967 245.000
85.35962 223.000
85.37957 232.000
85.39952 250.000
85.41946 232.000
85.43941 240.000
85.45936 196.000
85.47930 220.000
85.49925 260.000
85.51920 220.000
85.53914 236.000
85.55909 236.000
85.57904 201.000
85.59899 238.000
85.61893 190.000
85.63888 244.000
85.65883 221.000
85.67877 212.000
85.69872 202.000
85.71867 196.000
85.73861 206.000
85.75856 211.000
85.77851 211.000
85.79845 225.000
85.81840 236.000
85.83835 215.000
85.85830 236.000
85.87824 224.000
85.89819 219.000
85.91814 220.000
85.93808 208.000
85.95803 209.000
85.97798 222.000
85.99792 241.000
86.01787 232.000
86.03782 201.000
86.05777 235.000
86.07771 213.000
86.09766 213.000
86.11761 206.000
86.13755 234.000
86.15750 206.000
86.17745 223.000
86.19739 199.000
86.21734 218.000
86.23729 235.000
86.25723 204.000
86.27718 197.000
86.29713 227.000
86.31708 210.000
86.33702 210.000
86.35697 224.000
86.37692 249.000
86.39686 232.000
86.41681 191.000
86.43676 238.000
86.45670 228.000
86.47665 210.000
86.49660 248.000
86.51655 247.000
86.53649 195.000
86.55644 221.000
86.57639 219.000
86.59633 207.000
86.61628 227.000
86.63623 230.000
86.65617 207.000
86.67612 239.000
86.69607 215.000
86.71602 225.000
86.73596 215.000
86.75591 231.000
86.77586 246.000
86.79580 222.000
86.81575 223.000
86.83570 250.000
86.85564 221.000
86.87559 216.000
86.89554 234.000
86.91548 231.000
86.93543 254.000
86.95538 228.000
86.97533 207.000
86.99527 258.000
87.01522 228.000
87.03517 237.000
87.05511 244.000
87.07506 228.000
87.09501 262.000
87.11495 207.000
87.13490 239.000
87.15485 209.000
87.17480 249.000
87.19474 243.000
87.21469 231.000
87.23464 266.000
87.25458 241.000
87.27453 252.000
87.29448 267.000
87.31442 241.000
87.33437 246.000
87.35432 264.000
87.37426 239.000
87.39421 241.000
87.41416 244.000
87.43411 222.000
87.45405 243.000
87.47400 226.000
87.49395 226.000
87.51389 235.000
87.53384 225.000
87.55379 234.000
87.57373 263.000
87.59368 275.000
87.61363 261.000
87.63358 205.000
87.65352 224.000
87.67347 232.000
87.69342 245.000
87.71336 243.000
87.73331 248.000
87.75326 232.000
87.77320 232.000
87.79315 255.000
87.81310 248.000
87.83304 237.000
87.85299 208.000
87.87294 233.000
87.89289 258.000
87.91283 247.000
87.93278 230.000
87.95273 241.000
87.97267 256.000
87.99262 268.000
88.01257 219.000
88.03251 249.000
88.05246 245.000
88.07241 208.000
88.09236 251.000
88.11230 237.000
88.13225 247.000
88.15220 252.000
88.17214 221.000
88.19209 214.000
88.21204 230.000
88.23198 217.000
88.25193 211.000
88.27188 226.000
88.29183 204.000
88.31177 233.000
88.33172 217.000
88.35167 231.000
88.37161 209.000
88.39156 225.000
88.41151 238.000
88.43145 208.000
88.45140 210.000
88.47135 218.000
88.49129 220.000
88.51124 233.000
88.53119 217.000
88.55114 213.000
88.57108 220.000
88.59103 238.000
88.61098 227.000
88.63092 237.000
88.65087 229.000
88.67082 210.000
88.69076 218.000
88.71071 206.000
88.73066 194.000
88.75061 239.000
88.77055 237.000
88.79050 198.000
88.81045 231.000
88.83039 221.000
88.85034 201.000
88.87029 222.000
88.89023 233.000
88.91018 217.000
88.93013 219.000
88.95007 215.000
88.97002 213.000
88.98997 231.000
89.00992 248.000
89.02986 224.000
89.04981 199.000
89.06976 204.000
89.08970 218.000
89.10965 209.000
89.12960 226.000
89.14954 221.000
89.16949 221.000
89.18944 218.000
89.20939 210.000
89.22933 225.000
89.24928 243.000
89.26923 233.000
89.28917 231.000
89.30912 229.000
89.32907 185.000
89.34901 220.000
89.36896 215.000
89.38891 224.000
89.40885 226.000
89.42880 233.000
89.44875 211.000
89.46870 243.000
89.48864 228.000
89.50859 224.000
89.52854 209.000
89.54848 224.000
89.56843 231.000
89.58838 256.000
89.60832 232.000
89.62827 246.000
89.64822 242.000
89.66817 206.000
89.68811 247.000
89.70806 213.000
89.72801 250.000
89.74795 221.000
89.76790 243.000
89.78785 254.000
89.80779 232.000
89.82774 244.000
89.84769 219.000
89.86764 234.000
89.88758 206.000
89.90753 231.000
89.92748 215.000
89.94742 237.000
89.96737 224.000
89.98732 207.000
90.00726 226.000
