10.00000 106.000
10.01995 95.000
10.03989 102.000
10.05984 104.000
10.07979 114.000
10.09973 109.000
10.11968 111.000
10.13963 103.000
10.15958 112.000
10.17952 109.000
10.19947 97.000
10.21942 109.000
10.23936 97.000
10.25931 93.000
10.27926 102.000
10.29920 113.000
10.31915 108.000
10.33910 95.000
10.35905 94.000
10.37899 105.000
10.39894 100.000
10.41889 112.000
10.43883 109.000
10.45878 98.000
10.47873 95.000
10.49867 90.000
10.51862 104.000
10.53857 114.000
10.55851 106.000
10.57846 93.000
10.59841 112.000
10.61836 93.000
10.63830 99.000
10.65825 108.000
10.67820 98.000
10.69814 115.000
10.71809 115.000
10.73804 100.000
10.75798 120.000
10.77793 122.000
10.79788 100.000
10.81783 117.000
10.83777 104.000
10.85772 120.000
10.87767 110.000
10.89761 91.000
10.91756 114.000
10.93751 109.000
10.95745 100.000
10.97740 96.000
10.99735 94.000
11.01730 118.000
11.03724 112.000
11.05719 103.000
11.07714 112.000
11.09708 89.000
11.11703 94.000
11.13698 92.000
11.15692 111.000
11.17687 98.000
11.19682 99.000
11.21676 116.000
11.23671 102.000
11.25666 99.000
11.27661 94.000
11.29655 97.000
11.31650 104.000
11.33645 103.000
11.35639 91.000
11.37634 127.000
11.39629 118.000
11.41623 119.000
11.43618 117.000
11.45613 114.000
11.47608 104.000
11.49602 109.000
11.51597 107.000
11.53592 102.000
11.55586 109.000
11.57581 107.000
11.59576 107.000
11.61570 115.000
11.63565 109.000
11.65560 130.000
11.67554 106.000
11.69549 99.000
11.71544 104.000
11.73539 108.000
11.75533 92.000
11.77528 107.000
11.79523 87.000
11.81517 96.000
11.83512 102.000
11.85507 104.000
11.87501 90.000
11.89496 100.000
11.91491 100.000
11.93486 113.000
11.95480 99.000
11.97475 108.000
11.99470 119.000
12.01464 95.000
12.03459 100.000
12.05454 100.000
12.07448 101.000
12.09443 102.000
12.11438 109.000
12.13432 102.000
12.15427 98.000
12.17422 119.000
12.19417 94.000
12.21411 103.000
12.23406 110.000
12.25401 101.000
12.27395 82.000
12.29390 91.000
12.31385 94.000
12.33379 104.000
12.35374 107.000
12.37369 103.000
12.39364 113.000
12.41358 96.000
12.43353 102.000
12.45348 110.000
12.47342 100.000
12.49337 98.000
12.51332 89.000
12.53326 93.000
12.55321 113.000
12.57316 114.000
12.59311 119.000
12.61305 103.000
12.63300 97.000
12.65295 106.000
12.67289 91.000
12.69284 105.000
12.71279 109.000
12.73273 94.000
12.75268 109.000
12.77263 118.000
12.79257 104.000
12.81252 104.000
12.83247 103.000
12.85242 113.000
12.87236 141.000
12.89231 129.000
12.91226 118.000
12.93220 115.000
12.95215 122.000
12.97210 94.000
12.99204 95.000
13.01199 106.000
13.03194 100.000
13.05189 104.000
13.07183 118.000
13.09178 105.000
13.11173 103.000
13.13167 106.000
13.15162 124.000
13.17157 114.000
13.19151 98.000
13.21146 117.000
13.23141 95.000
13.25135 107.000
13.27130 115.000
13.29125 105.000
13.31120 99.000
13.33114 91.000
13.35109 105.000
13.37104 93.000
13.39098 99.000
13.41093 95.000
13.43088 113.000
13.45082 104.000
13.47077 86.000
13.49072 113.000
13.51067 95.000
13.53061 89.000
13.55056 96.000
13.57051 116.000
13.59045 109.000
13.61040 109.000
13.63035 89.000
13.65029 112.000
13.67024 105.000
13.69019 83.000
13.71013 101.000
13.73008 105.000
13.75003 104.000
13.76998 116.000
13.78992 116.000
13.80987 110.000
13.82982 100.000
13.84976 110.000
13.86971 93.000
13.88966 94.000
13.90960 97.000
13.92955 108.000
13.94950 88.000
13.96945 105.000
13.98939 95.000
14.00934 112.000
14.02929 103.000
14.04923 97.000
14.06918 83.000
14.08913 114.000
14.10907 118.000
14.12902 108.000
14.14897 78.000
14.16892 108.000
14.18886 92.000
14.20881 91.000
14.22876 102.000
14.24870 96.000
14.26865 89.000
14.28860 88.000
14.30854 124.000
14.32849 95.000
14.34844 111.000
14.36838 99.000
14.38833 108.000
14.40828 109.000
14.42823 86.000
14.44817 88.000
14.46812 93.000
14.48807 114.000
14.50801 93.000
14.52796 101.000
14.54791 106.000
14.56785 95.000
14.58780 89.000
14.60775 126.000
14.62770 83.000
14.64764 112.000
14.66759 106.000
14.68754 110.000
14.70748 103.000
14.72743 116.000
14.74738 102.000
14.76732 103.000
14.78727 99.000
14.80722 100.000
14.82716 101.000
14.84711 103.000
14.86706 110.000
14.88701 118.000
14.90695 103.000
14.92690 107.000
14.94685 105.000
14.96679 96.000
14.98674 108.000
15.00669 96.000
15.02663 87.000
15.04658 89.000
15.06653 84.000
15.08648 119.000
15.10642 108.000
15.12637 109.000
15.14632 102.000
15.16626 99.000
15.18621 101.000
15.20616 107.000
15.22610 95.000
15.24605 92.000
15.26600 82.000
15.28594 88.000
15.30589 89.000
15.32584 116.000
15.34579 138.000
15.36573 111.000
15.38568 84.000
15.40563 91.000
15.42557 93.000
15.44552 103.000
15.46547 85.000
15.48541 99.000
15.50536 98.000
15.52531 109.000
15.54526 97.000
15.56520 102.000
15.58515 104.000
15.60510 93.000
15.62504 103.000
15.64499 111.000
15.66494 99.000
15.68488 115.000
15.70483 88.000
15.72478 111.000
15.74472 112.000
15.76467 93.000
15.78462 113.000
15.80457 110.000
15.82451 105.000
15.84446 86.000
15.86441 109.000
15.88435 95.000
15.90430 93.000
15.92425 115.000
15.94419 98.000
15.96414 95.000
15.98409 101.000
16.00404 79.000
16.02398 106.000
16.04393 123.000
16.06388 106.000
16.08382 97.000
16.10377 99.000
16.12372 98.000
16.14366 117.000
16.16361 100.000
16.18356 112.000
16.20351 118.000
16.22345 113.000
16.24340 111.000
16.26335 98.000
16.28329 116.000
16.30324 119.000
16.32319 125.000
16.34313 120.000
16.36308 108.000
16.38303 106.000
16.40297 107.000
16.42292 133.000
16.44287 122.000
16.46282 134.000
16.48276 106.000
16.50271 106.000
16.52266 124.000
16.54260 118.000
16.56255 133.000
16.58250 115.000
16.60244 115.000
16.62239 100.000
16.64234 127.000
16.66229 111.000
16.68223 105.000
16.70218 111.000
16.72213 125.000
16.74207 104.000
16.76202 133.000
16.78197 124.000
16.80191 159.000
16.82186 120.000
16.84181 126.000
16.86175 151.000
16.88170 140.000
16.90165 119.000
16.92160 137.000
16.94154 123.000
16.96149 146.000
16.98144 105.000
17.00138 100.000
17.02133 126.000
17.04128 111.000
17.06122 136.000
17.08117 121.000
17.10112 131.000
17.12107 123.000
17.14101 139.000
17.16096 133.000
17.18091 162.000
17.20085 152.000
17.22080 164.000
17.24075 138.000
17.26069 168.000
17.28064 158.000
17.30059 155.000
17.32053 126.000
17.34048 127.000
17.36043 141.000
17.38038 123.000
17.40032 120.000
17.42027 127.000
17.44022 106.000
17.46016 136.000
17.48011 93.000
17.50006 89.000
17.52000 97.000
17.53995 123.000
17.55990 105.000
17.57985 117.000
17.59979 109.000
17.61974 114.000
17.63969 89.000
17.65963 96.000
17.67958 94.000
17.69953 110.000
17.71947 115.000
17.73942 101.000
17.75937 99.000
17.77932 105.000
17.79926 121.000
17.81921 116.000
17.83916 105.000
17.85910 100.000
17.87905 108.000
17.89900 110.000
17.91894 103.000
17.93889 91.000
17.95884 95.000
17.97878 122.000
17.99873 95.000
18.01868 94.000
18.03863 106.000
18.05857 100.000
18.07852 94.000
18.09847 98.000
18.11841 103.000
18.13836 119.000
18.15831 111.000
18.17825 94.000
18.19820 106.000
18.21815 108.000
18.23810 90.000
18.25804 112.000
18.27799 121.000
18.29794 99.000
18.31788 93.000
18.33783 120.000
18.35778 99.000
18.37772 126.000
18.39767 111.000
18.41762 107.000
18.43756 122.000
18.45751 106.000
18.47746 109.000
18.49741 106.000
18.51735 109.000
18.53730 107.000
18.55725 108.000
18.57719 100.000
18.59714 102.000
18.61709 92.000
18.63703 121.000
18.65698 113.000
18.67693 120.000
18.69688 103.000
18.71682 93.000
18.73677 109.000
18.75672 101.000
18.77666 106.000
18.79661 108.000
18.81656 107.000
18.83650 104.000
18.85645 112.000
18.87640 108.000
18.89634 103.000
18.91629 89.000
18.93624 108.000
18.95619 98.000
18.97613 110.000
18.99608 118.000
19.01603 114.000
19.03597 114.000
19.05592 115.000
19.07587 120.000
19.09581 112.000
19.11576 127.000
19.13571 98.000
19.15566 124.000
19.17560 95.000
19.19555 97.000
19.21550 106.000
19.23544 93.000
19.25539 93.000
19.27534 88.000
19.29528 90.000
19.31523 105.000
19.33518 105.000
19.35513 95.000
19.37507 108.000
19.39502 124.000
19.41497 115.000
19.43491 106.000
19.45486 100.000
19.47481 114.000
19.49475 88.000
19.51470 119.000
19.53465 121.000
19.55459 94.000
19.57454 105.000
19.59449 118.000
19.61444 102.000
19.63438 110.000
19.65433 120.000
19.67428 109.000
19.69422 104.000
19.71417 111.000
19.73412 115.000
19.75406 138.000
19.77401 125.000
19.79396 127.000
19.81391 124.000
19.83385 142.000
19.85380 139.000
19.87375 172.000
19.89369 191.000
19.91364 250.000
19.93359 419.000
19.95353 621.000
19.97348 870.000
19.99343 882.000
20.01337 811.000
20.03332 649.000
20.05327 500.000
20.07322 390.000
20.09316 340.000
20.11311 291.000
20.13306 228.000
20.15300 193.000
20.17295 175.000
20.19290 136.000
20.21284 154.000
20.23279 137.000
20.25274 140.000
20.27269 150.000
20.29263 152.000
20.31258 126.000
20.33253 154.000
20.35247 129.000
20.37242 188.000
20.39237 179.000
20.41231 175.000
20.43226 192.000
20.45221 197.000
20.47215 232.000
20.49210 221.000
20.51205 240.000
20.53200 314.000
20.55194 387.000
20.57189 544.000
20.59184 713.000
20.61178 984.000
20.63173 1324.000
20.65168 1322.000
20.67162 1094.000
20.69157 878.000
20.71152 683.000
20.73147 433.000
20.75141 303.000
20.77136 240.000
20.79131 205.000
20.81125 197.000
20.83120 192.000
20.85115 169.000
20.87109 162.000
20.89104 175.000
20.91099 154.000
20.93094 149.000
20.95088 121.000
20.97083 132.000
20.99078 118.000
21.01072 128.000
21.03067 113.000
21.05062 117.000
21.07056 125.000
21.09051 128.000
21.11046 108.000
21.13040 125.000
21.15035 106.000
21.17030 105.000
21.19025 107.000
21.21019 125.000
21.23014 102.000
21.25009 115.000
21.27003 102.000
21.28998 115.000
21.30993 99.000
21.32987 100.000
21.34982 99.000
21.36977 95.000
21.38972 104.000
21.40966 103.000
21.42961 115.000
21.44956 111.000
21.46950 107.000
21.48945 102.000
21.50940 101.000
21.52934 91.000
21.54929 109.000
21.56924 105.000
21.58918 120.000
21.60913 96.000
21.62908 92.000
21.64903 116.000
21.66897 102.000
21.68892 122.000
21.70887 105.000
21.72881 112.000
21.74876 101.000
21.76871 121.000
21.78865 91.000
21.80860 90.000
21.82855 113.000
21.84850 96.000
21.86844 100.000
21.88839 103.000
21.90834 97.000
21.92828 87.000
21.94823 106.000
21.96818 116.000
21.98812 110.000
22.00807 121.000
22.02802 109.000
22.04796 96.000
22.06791 116.000
22.08786 97.000
22.10781 98.000
22.12775 116.000
22.14770 108.000
22.16765 93.000
22.18759 116.000
22.20754 98.000
22.22749 113.000
22.24743 92.000
22.26738 113.000
22.28733 103.000
22.30728 121.000
22.32722 103.000
22.34717 102.000
22.36712 105.000
22.38706 88.000
22.40701 97.000
22.42696 91.000
22.44690 121.000
22.46685 106.000
22.48680 106.000
22.50675 102.000
22.52669 119.000
22.54664 108.000
22.56659 98.000
22.58653 96.000
22.60648 113.000
22.62643 99.000
22.64637 97.000
22.66632 123.000
22.68627 123.000
22.70621 109.000
22.72616 105.000
22.74611 111.000
22.76606 116.000
22.78600 112.000
22.80595 106.000
22.82590 97.000
22.84584 110.000
22.86579 111.000
22.88574 105.000
22.90568 119.000
22.92563 110.000
22.94558 99.000
22.96553 107.000
22.98547 115.000
23.00542 100.000
23.02537 107.000
23.04531 104.000
23.06526 94.000
23.08521 104.000
23.10515 90.000
23.12510 102.000
23.14505 122.000
23.16499 113.000
23.18494 109.000
23.20489 116.000
23.22484 99.000
23.24478 113.000
23.26473 121.000
23.28468 115.000
23.30462 94.000
23.32457 103.000
23.34452 93.000
23.36446 115.000
23.38441 95.000
23.40436 112.000
23.42431 122.000
23.44425 121.000
23.46420 121.000
23.48415 105.000
23.50409 117.000
23.52404 116.000
23.54399 104.000
23.56393 107.000
23.58388 96.000
23.60383 100.000
23.62377 113.000
23.64372 116.000
23.66367 124.000
23.68362 93.000
23.70356 94.000
23.72351 98.000
23.74346 118.000
23.76340 110.000
23.78335 98.000
23.80330 101.000
23.82324 109.000
23.84319 130.000
23.86314 112.000
23.88309 113.000
23.90303 103.000
23.92298 103.000
23.94293 117.000
23.96287 108.000
23.98282 130.000
24.00277 116.000
24.02271 116.000
24.04266 112.000
24.06261 119.000
24.08256 111.000
24.10250 112.000
24.12245 111.000
24.14240 128.000
24.16234 127.000
24.18229 122.000
24.20224 99.000
24.22218 121.000
24.24213 114.000
24.26208 134.000
24.28202 112.000
24.30197 123.000
24.32192 145.000
24.34187 111.000
24.36181 92.000
24.38176 127.000
24.40171 126.000
24.42165 115.000
24.44160 114.000
24.46155 106.000
24.48149 110.000
24.50144 104.000
24.52139 92.000
24.54134 125.000
24.56128 114.000
24.58123 128.000
24.60118 105.000
24.62112 118.000
24.64107 102.000
24.66102 124.000
24.68096 142.000
24.70091 112.000
24.72086 126.000
24.74080 119.000
24.76075 132.000
24.78070 132.000
24.80065 123.000
24.82059 137.000
24.84054 118.000
24.86049 121.000
24.88043 132.000
24.90038 129.000
24.92033 123.000
24.94027 144.000
24.96022 145.000
24.98017 128.000
25.00012 129.000
25.02006 124.000
25.04001 126.000
25.05996 145.000
25.07990 137.000
25.09985 123.000
25.11980 119.000
25.13974 107.000
25.15969 115.000
25.17964 120.000
25.19958 118.000
25.21953 121.000
25.23948 123.000
25.25943 125.000
25.27937 126.000
25.29932 118.000
25.31927 129.000
25.33921 103.000
25.35916 116.000
25.37911 127.000
25.39905 125.000
25.41900 116.000
25.43895 117.000
25.45890 115.000
25.47884 133.000
25.49879 129.000
25.51874 122.000
25.53868 120.000
25.55863 106.000
25.57858 129.000
25.59852 135.000
25.61847 107.000
25.63842 115.000
25.65837 116.000
25.67831 105.000
25.69826 121.000
25.71821 135.000
25.73815 126.000
25.75810 127.000
25.77805 131.000
25.79799 140.000
25.81794 123.000
25.83789 126.000
25.85783 124.000
25.87778 138.000
25.89773 140.000
25.91768 159.000
25.93762 163.000
25.95757 207.000
25.97752 251.000
25.99746 244.000
26.01741 222.000
26.03736 226.000
26.05730 192.000
26.07725 225.000
26.09720 155.000
26.11715 154.000
26.13709 150.000
26.15704 143.000
26.17699 145.000
26.19693 148.000
26.21688 105.000
26.23683 137.000
26.25677 125.000
26.27672 130.000
26.29667 111.000
26.31661 142.000
26.33656 131.000
26.35651 142.000
26.37646 125.000
26.39640 124.000
26.41635 143.000
26.43630 128.000
26.45624 135.000
26.47619 133.000
26.49614 109.000
26.51608 140.000
26.53603 118.000
26.55598 133.000
26.57593 130.000
26.59587 105.000
26.61582 136.000
26.63577 132.000
26.65571 132.000
26.67566 131.000
26.69561 151.000
26.71555 122.000
26.73550 108.000
26.75545 128.000
26.77539 129.000
26.79534 120.000
26.81529 142.000
26.83524 142.000
26.85518 115.000
26.87513 122.000
26.89508 122.000
26.91502 152.000
26.93497 135.000
26.95492 121.000
26.97486 132.000
26.99481 131.000
27.01476 140.000
27.03471 126.000
27.05465 137.000
27.07460 141.000
27.09455 117.000
27.11449 133.000
27.13444 127.000
27.15439 120.000
27.17433 145.000
27.19428 137.000
27.21423 103.000
27.23417 131.000
27.25412 126.000
27.27407 144.000
27.29402 133.000
27.31396 137.000
27.33391 134.000
27.35386 137.000
27.37380 132.000
27.39375 132.000
27.41370 125.000
27.43364 134.000
27.45359 131.000
27.47354 136.000
27.49349 141.000
27.51343 132.000
27.53338 156.000
27.55333 129.000
27.57327 145.000
27.59322 139.000
27.61317 133.000
27.63311 132.000
27.65306 118.000
27.67301 145.000
27.69296 141.000
27.71290 136.000
27.73285 144.000
27.75280 127.000
27.77274 130.000
27.79269 127.000
27.81264 130.000
27.83258 132.000
27.85253 122.000
27.87248 136.000
27.89242 134.000
27.91237 144.000
27.93232 128.000
27.95227 120.000
27.97221 139.000
27.99216 129.000
28.01211 143.000
28.03205 136.000
28.05200 148.000
28.07195 112.000
28.09189 121.000
28.11184 117.000
28.13179 148.000
28.15174 149.000
28.17168 137.000
28.19163 128.000
28.21158 141.000
28.23152 151.000
28.25147 130.000
28.27142 134.000
28.29136 149.000
28.31131 136.000
28.33126 130.000
28.35120 157.000
28.37115 150.000
28.39110 137.000
28.41105 137.000
28.43099 133.000
28.45094 162.000
28.47089 128.000
28.49083 134.000
28.51078 135.000
28.53073 127.000
28.55067 138.000
28.57062 132.000
28.59057 155.000
28.61052 131.000
28.63046 126.000
28.65041 145.000
28.67036 159.000
28.69030 148.000
28.71025 166.000
28.73020 140.000
28.75014 151.000
28.77009 176.000
28.79004 139.000
28.80998 151.000
28.82993 157.000
28.84988 149.000
28.86983 154.000
28.88977 164.000
28.90972 163.000
28.92967 123.000
28.94961 148.000
28.96956 155.000
28.98951 141.000
29.00945 154.000
29.02940 150.000
29.04935 152.000
29.06930 171.000
29.08924 175.000
29.10919 171.000
29.12914 158.000
29.14908 171.000
29.16903 149.000
29.18898 162.000
29.20892 157.000
29.22887 181.000
29.24882 162.000
29.26877 187.000
29.28871 206.000
29.30866 246.000
29.32861 234.000
29.34855 253.000
29.36850 302.000
29.38845 305.000
29.40839 330.000
29.42834 344.000
29.44829 446.000
29.46823 513.000
29.48818 715.000
29.50813 900.000
29.52808 970.000
29.54802 934.000
29.56797 765.000
29.58792 700.000
29.60786 603.000
29.62781 488.000
29.64776 329.000
29.66770 260.000
29.68765 189.000
29.70760 211.000
29.72755 180.000
29.74749 164.000
29.76744 156.000
29.78739 159.000
29.80733 160.000
29.82728 150.000
29.84723 167.000
29.86717 164.000
29.88712 166.000
29.90707 127.000
29.92701 162.000
29.94696 131.000
29.96691 132.000
29.98686 159.000
30.00680 154.000
30.02675 167.000
30.04670 168.000
30.06664 188.000
30.08659 173.000
30.10654 150.000
30.12648 177.000
30.14643 149.000
30.16638 165.000
30.18633 160.000
30.20627 174.000
30.22622 167.000
30.24617 133.000
30.26611 186.000
30.28606 176.000
30.30601 176.000
30.32595 181.000
30.34590 164.000
30.36585 156.000
30.38579 147.000
30.40574 177.000
30.42569 143.000
30.44564 147.000
30.46558 137.000
30.48553 152.000
30.50548 156.000
30.52542 121.000
30.54537 141.000
30.56532 146.000
30.58526 169.000
30.60521 139.000
30.62516 177.000
30.64511 140.000
30.66505 138.000
30.68500 151.000
30.70495 161.000
30.72489 158.000
30.74484 149.000
30.76479 151.000
30.78473 138.000
30.80468 142.000
30.82463 153.000
30.84458 139.000
30.86452 134.000
30.88447 164.000
30.90442 146.000
30.92436 109.000
30.94431 140.000
30.96426 164.000
30.98420 132.000
31.00415 162.000
31.02410 154.000
31.04404 137.000
31.06399 148.000
31.08394 133.000
31.10389 141.000
31.12383 129.000
31.14378 153.000
31.16373 139.000
31.18367 163.000
31.20362 145.000
31.22357 155.000
31.24351 144.000
31.26346 140.000
31.28341 154.000
31.30336 165.000
31.32330 159.000
31.34325 150.000
31.36320 194.000
31.38314 175.000
31.40309 187.000
31.42304 174.000
31.44298 226.000
31.46293 276.000
31.48288 336.000
31.50282 439.000
31.52277 485.000
31.54272 448.000
31.56267 473.000
31.58261 497.000
31.60256 464.000
31.62251 468.000
31.64245 447.000
31.66240 381.000
31.68235 377.000
31.70229 325.000
31.72224 302.000
31.74219 259.000
31.76214 264.000
31.78208 241.000
31.80203 241.000
31.82198 191.000
31.84192 211.000
31.86187 227.000
31.88182 223.000
31.90176 204.000
31.92171 220.000
31.94166 195.000
31.96160 198.000
31.98155 199.000
32.00150 175.000
32.02145 166.000
32.04139 170.000
32.06134 152.000
32.08129 139.000
32.10123 168.000
32.12118 147.000
32.14113 143.000
32.16107 157.000
32.18102 156.000
32.20097 164.000
32.22092 144.000
32.24086 145.000
32.26081 149.000
32.28076 165.000
32.30070 145.000
32.32065 148.000
32.34060 150.000
32.36054 153.000
32.38049 154.000
32.40044 164.000
32.42039 159.000
32.44033 149.000
32.46028 174.000
32.48023 164.000
32.50017 142.000
32.52012 172.000
32.54007 138.000
32.56001 146.000
32.57996 176.000
32.59991 153.000
32.61985 165.000
32.63980 178.000
32.65975 152.000
32.67970 161.000
32.69964 150.000
32.71959 164.000
32.73954 147.000
32.75948 167.000
32.77943 163.000
32.79938 165.000
32.81932 171.000
32.83927 148.000
32.85922 149.000
32.87917 164.000
32.89911 141.000
32.91906 160.000
32.93901 160.000
32.95895 178.000
32.97890 167.000
32.99885 157.000
33.01879 185.000
33.03874 176.000
33.05869 185.000
33.07863 194.000
33.09858 253.000
33.11853 194.000
33.13848 245.000
33.15842 269.000
33.17837 360.000
33.19832 506.000
33.21826 668.000
33.23821 858.000
33.25816 936.000
33.27810 855.000
33.29805 742.000
33.31800 803.000
33.33795 707.000
33.35789 652.000
33.37784 588.000
33.39779 474.000
33.41773 402.000
33.43768 370.000
33.45763 322.000
33.47757 315.000
33.49752 289.000
33.51747 274.000
33.53741 251.000
33.55736 254.000
33.57731 244.000
33.59726 251.000
33.61720 227.000
33.63715 232.000
33.65710 226.000
33.67704 223.000
33.69699 241.000
33.71694 244.000
33.73688 266.000
33.75683 253.000
33.77678 267.000
33.79673 259.000
33.81667 257.000
33.83662 338.000
33.85657 366.000
33.87651 443.000
33.89646 519.000
33.91641 719.000
33.93635 1007.000
33.95630 1183.000
33.97625 1525.000
33.99620 1477.000
34.01614 1272.000
34.03609 1171.000
34.05604 1030.000
34.07598 989.000
34.09593 893.000
34.11588 618.000
34.13582 496.000
34.15577 441.000
34.17572 345.000
34.19566 291.000
34.21561 313.000
34.23556 288.000
34.25551 279.000
34.27545 227.000
34.29540 231.000
34.31535 228.000
34.33529 230.000
34.35524 218.000
34.37519 236.000
34.39513 234.000
34.41508 194.000
34.43503 230.000
34.45498 216.000
34.47492 182.000
34.49487 204.000
34.51482 194.000
34.53476 187.000
34.55471 215.000
34.57466 187.000
34.59460 196.000
34.61455 208.000
34.63450 189.000
34.65444 192.000
34.67439 161.000
34.69434 178.000
34.71429 190.000
34.73423 213.000
34.75418 203.000
34.77413 223.000
34.79407 263.000
34.81402 241.000
34.83397 236.000
34.85391 275.000
34.87386 267.000
34.89381 238.000
34.91376 230.000
34.93370 224.000
34.95365 263.000
34.97360 228.000
34.99354 210.000
35.01349 217.000
35.03344 220.000
35.05338 191.000
35.07333 216.000
35.09328 201.000
35.11322 188.000
35.13317 178.000
35.15312 191.000
35.17307 215.000
35.19301 191.000
35.21296 209.000
35.23291 181.000
35.25285 209.000
35.27280 192.000
35.29275 188.000
35.31269 212.000
35.33264 190.000
35.35259 219.000
35.37254 226.000
35.39248 227.000
35.41243 236.000
35.43238 234.000
35.45232 256.000
35.47227 262.000
35.49222 241.000
35.51216 231.000
35.53211 284.000
35.55206 288.000
35.57201 316.000
35.59195 320.000
35.61190 326.000
35.63185 353.000
35.65179 364.000
35.67174 346.000
35.69169 394.000
35.71163 400.000
35.73158 422.000
35.75153 464.000
35.77147 465.000
35.79142 426.000
35.81137 458.000
35.83132 436.000
35.85126 429.000
35.87121 398.000
35.89116 359.000
35.91110 320.000
35.93105 314.000
35.95100 282.000
35.97094 254.000
35.99089 254.000
36.01084 270.000
36.03079 248.000
36.05073 230.000
36.07068 265.000
36.09063 223.000
36.11057 244.000
36.13052 260.000
36.15047 241.000
36.17041 253.000
36.19036 264.000
36.21031 286.000
36.23025 273.000
36.25020 266.000
36.27015 294.000
36.29010 343.000
36.31004 390.000
36.32999 382.000
36.34994 394.000
36.36988 412.000
36.38983 361.000
36.40978 367.000
36.42972 350.000
36.44967 348.000
36.46962 313.000
36.48957 290.000
36.50951 330.000
36.52946 269.000
36.54941 287.000
36.56935 280.000
36.58930 269.000
36.60925 264.000
36.62919 290.000
36.64914 308.000
36.66909 273.000
36.68903 282.000
36.70898 276.000
36.72893 270.000
36.74888 249.000
36.76882 266.000
36.78877 285.000
36.80872 245.000
36.82866 264.000
36.84861 265.000
36.86856 232.000
36.88850 245.000
36.90845 278.000
36.92840 276.000
36.94835 223.000
36.96829 258.000
36.98824 245.000
37.00819 267.000
37.02813 245.000
37.04808 224.000
37.06803 251.000
37.08797 237.000
37.10792 249.000
37.12787 231.000
37.14781 203.000
37.16776 228.000
37.18771 206.000
37.20766 207.000
37.22760 190.000
37.24755 195.000
37.26750 195.000
37.28744 198.000
37.30739 198.000
37.32734 164.000
37.34728 165.000
37.36723 174.000
37.38718 141.000
37.40713 150.000
37.42707 146.000
37.44702 135.000
37.46697 146.000
37.48691 162.000
37.50686 141.000
37.52681 126.000
37.54675 159.000
37.56670 154.000
37.58665 153.000
37.60660 121.000
37.62654 137.000
37.64649 137.000
37.66644 127.000
37.68638 127.000
37.70633 135.000
37.72628 151.000
37.74622 133.000
37.76617 138.000
37.78612 144.000
37.80606 148.000
37.82601 141.000
37.84596 131.000
37.86591 144.000
37.88585 161.000
37.90580 130.000
37.92575 146.000
37.94569 173.000
37.96564 174.000
37.98559 164.000
38.00553 194.000
38.02548 195.000
38.04543 181.000
38.06538 164.000
38.08532 200.000
38.10527 171.000
38.12522 168.000
38.14516 169.000
38.16511 146.000
38.18506 147.000
38.20500 165.000
38.22495 151.000
38.24490 158.000
38.26484 137.000
38.28479 143.000
38.30474 156.000
38.32469 126.000
38.34463 135.000
38.36458 150.000
38.38453 153.000
38.40447 154.000
38.42442 147.000
38.44437 164.000
38.46431 181.000
38.48426 146.000
38.50421 174.000
38.52416 167.000
38.54410 167.000
38.56405 170.000
38.58400 156.000
38.60394 186.000
38.62389 205.000
38.64384 195.000
38.66378 197.000
38.68373 236.000
38.70368 215.000
38.72362 203.000
38.74357 222.000
38.76352 224.000
38.78347 202.000
38.80341 234.000
38.82336 217.000
38.84331 207.000
38.86325 209.000
38.88320 208.000
38.90315 216.000
38.92309 213.000
38.94304 222.000
38.96299 212.000
38.98294 201.000
39.00288 204.000
39.02283 211.000
39.04278 183.000
39.06272 206.000
39.08267 230.000
39.10262 192.000
39.12256 215.000
39.14251 187.000
39.16246 187.000
39.18241 202.000
39.20235 180.000
39.22230 159.000
39.24225 144.000
39.26219 136.000
39.28214 160.000
39.30209 138.000
39.32203 144.000
39.34198 147.000
39.36193 132.000
39.38187 144.000
39.40182 140.000
39.42177 139.000
39.44172 149.000
39.46166 148.000
39.48161 131.000
39.50156 129.000
39.52150 142.000
39.54145 139.000
39.56140 121.000
39.58134 129.000
39.60129 126.000
39.62124 122.000
39.64119 147.000
39.66113 132.000
39.68108 153.000
39.70103 133.000
39.72097 148.000
39.74092 128.000
39.76087 118.000
39.78081 153.000
39.80076 122.000
39.82071 125.000
39.84065 139.000
39.86060 120.000
39.88055 145.000
39.90050 137.000
39.92044 122.000
39.94039 146.000
39.96034 147.000
39.98028 143.000
40.00023 154.000
40.02018 135.000
40.04012 129.000
40.06007 138.000
40.08002 163.000
40.09997 133.000
40.11991 142.000
40.13986 129.000
40.15981 120.000
40.17975 125.000
40.19970 146.000
40.21965 137.000
40.23959 131.000
40.25954 144.000
40.27949 152.000
40.29943 136.000
40.31938 123.000
40.33933 148.000
40.35928 134.000
40.37922 158.000
40.39917 150.000
40.41912 130.000
40.43906 133.000
40.45901 139.000
40.47896 131.000
40.49890 147.000
40.51885 142.000
40.53880 157.000
40.55875 153.000
40.57869 154.000
40.59864 126.000
40.61859 153.000
40.63853 146.000
40.65848 156.000
40.67843 158.000
40.69837 159.000
40.71832 157.000
40.73827 161.000
40.75822 148.000
40.77816 154.000
40.79811 162.000
40.81806 178.000
40.83800 164.000
40.85795 168.000
40.87790 160.000
40.89784 180.000
40.91779 184.000
40.93774 198.000
40.95768 200.000
40.97763 163.000
40.99758 162.000
41.01753 191.000
41.03747 180.000
41.05742 166.000
41.07737 227.000
41.09731 191.000
41.11726 219.000
41.13721 200.000
41.15715 204.000
41.17710 222.000
41.19705 235.000
41.21700 240.000
41.23694 227.000
41.25689 235.000
41.27684 233.000
41.29678 238.000
41.31673 205.000
41.33668 248.000
41.35662 228.000
41.37657 209.000
41.39652 237.000
41.41646 241.000
41.43641 270.000
41.45636 265.000
41.47631 248.000
41.49625 227.000
41.51620 232.000
41.53615 240.000
41.55609 240.000
41.57604 270.000
41.59599 275.000
41.61593 263.000
41.63588 297.000
41.65583 308.000
41.67578 338.000
41.69572 333.000
41.71567 376.000
41.73562 413.000
41.75556 440.000
41.77551 494.000
41.79546 457.000
41.81540 514.000
41.83535 475.000
41.85530 466.000
41.87524 479.000
41.89519 416.000
41.91514 379.000
41.93509 361.000
41.95503 322.000
41.97498 341.000
41.99493 325.000
42.01487 285.000
42.03482 260.000
42.05477 264.000
42.07471 224.000
42.09466 250.000
42.11461 258.000
42.13456 230.000
42.15450 207.000
42.17445 203.000
42.19440 246.000
42.21434 209.000
42.23429 234.000
42.25424 232.000
42.27418 204.000
42.29413 202.000
42.31408 236.000
42.33403 199.000
42.35397 220.000
42.37392 227.000
42.39387 194.000
42.41381 211.000
42.43376 213.000
42.45371 221.000
42.47365 182.000
42.49360 219.000
42.51355 251.000
42.53349 200.000
42.55344 205.000
42.57339 200.000
42.59334 231.000
42.61328 224.000
42.63323 207.000
42.65318 227.000
42.67312 225.000
42.69307 248.000
42.71302 232.000
42.73296 228.000
42.75291 221.000
42.77286 232.000
42.79281 239.000
42.81275 216.000
42.83270 221.000
42.85265 259.000
42.87259 233.000
42.89254 213.000
42.91249 230.000
42.93243 246.000
42.95238 249.000
42.97233 231.000
42.99227 222.000
43.01222 213.000
43.03217 239.000
43.05212 230.000
43.07206 223.000
43.09201 219.000
43.11196 197.000
43.13190 220.000
43.15185 210.000
43.17180 219.000
43.19174 213.000
43.21169 200.000
43.23164 218.000
43.25159 190.000
43.27153 200.000
43.29148 171.000
43.31143 172.000
43.33137 176.000
43.35132 164.000
43.37127 182.000
43.39121 164.000
43.41116 164.000
43.43111 199.000
43.45105 166.000
43.47100 160.000
43.49095 161.000
43.51090 160.000
43.53084 159.000
43.55079 153.000
43.57074 138.000
43.59068 128.000
43.61063 144.000
43.63058 139.000
43.65052 144.000
43.67047 150.000
43.69042 131.000
43.71037 147.000
43.73031 137.000
43.75026 149.000
43.77021 121.000
43.79015 133.000
43.81010 140.000
43.83005 145.000
43.84999 120.000
43.86994 130.000
43.88989 145.000
43.90984 104.000
43.92978 123.000
43.94973 117.000
43.96968 127.000
43.98962 153.000
44.00957 128.000
44.02952 132.000
44.04946 145.000
44.06941 126.000
44.08936 126.000
44.10930 136.000
44.12925 157.000
44.14920 145.000
44.16915 144.000
44.18909 127.000
44.20904 135.000
44.22899 136.000
44.24893 132.000
44.26888 131.000
44.28883 134.000
44.30877 136.000
44.32872 140.000
44.34867 132.000
44.36862 141.000
44.38856 142.000
44.40851 164.000
44.42846 154.000
44.44840 161.000
44.46835 164.000
44.48830 166.000
44.50824 171.000
44.52819 201.000
44.54814 197.000
44.56808 175.000
44.58803 169.000
44.60798 166.000
44.62793 162.000
44.64787 179.000
44.66782 140.000
44.68777 153.000
44.70771 138.000
44.72766 134.000
44.74761 141.000
44.76755 157.000
44.78750 126.000
44.80745 124.000
44.82740 161.000
44.84734 147.000
44.86729 153.000
44.88724 135.000
44.90718 167.000
44.92713 175.000
44.94708 169.000
44.96702 195.000
44.98697 222.000
45.00692 245.000
45.02686 300.000
45.04681 310.000
45.06676 320.000
45.08671 324.000
45.10665 286.000
45.12660 270.000
45.14655 241.000
45.16649 279.000
45.18644 260.000
45.20639 239.000
45.22633 200.000
45.24628 195.000
45.26623 211.000
45.28618 183.000
45.30612 153.000
45.32607 165.000
45.34602 144.000
45.36596 142.000
45.38591 143.000
45.40586 140.000
45.42580 143.000
45.44575 137.000
45.46570 148.000
45.48565 146.000
45.50559 164.000
45.52554 135.000
45.54549 121.000
45.56543 131.000
45.58538 151.000
45.60533 137.000
45.62527 115.000
45.64522 147.000
45.66517 118.000
45.68511 126.000
45.70506 143.000
45.72501 132.000
45.74496 138.000
45.76490 108.000
45.78485 121.000
45.80480 136.000
45.82474 112.000
45.84469 128.000
45.86464 113.000
45.88458 114.000
45.90453 125.000
45.92448 111.000
45.94443 118.000
45.96437 127.000
45.98432 130.000
46.00427 123.000
46.02421 127.000
46.04416 129.000
46.06411 110.000
46.08405 122.000
46.10400 102.000
46.12395 124.000
46.14389 116.000
46.16384 121.000
46.18379 138.000
46.20374 137.000
46.22368 127.000
46.24363 128.000
46.26358 133.000
46.28352 138.000
46.30347 130.000
46.32342 120.000
46.34336 141.000
46.36331 155.000
46.38326 154.000
46.40321 136.000
46.42315 170.000
46.44310 209.000
46.46305 222.000
46.48299 215.000
46.50294 199.000
46.52289 204.000
46.54283 218.000
46.56278 207.000
46.58273 192.000
46.60267 202.000
46.62262 197.000
46.64257 169.000
46.66252 175.000
46.68246 173.000
46.70241 185.000
46.72236 158.000
46.74230 136.000
46.76225 154.000
46.78220 121.000
46.80214 148.000
46.82209 124.000
46.84204 162.000
46.86199 120.000
46.88193 114.000
46.90188 142.000
46.92183 135.000
46.94177 133.000
46.96172 111.000
46.98167 122.000
47.00161 131.000
47.02156 112.000
47.04151 101.000
47.06146 132.000
47.08140 121.000
47.10135 115.000
47.12130 125.000
47.14124 118.000
47.16119 123.000
47.18114 131.000
47.20108 117.000
47.22103 132.000
47.24098 114.000
47.26092 107.000
47.28087 123.000
47.30082 110.000
47.32077 145.000
47.34071 120.000
47.36066 108.000
47.38061 110.000
47.40055 108.000
47.42050 130.000
47.44045 120.000
47.46039 136.000
47.48034 131.000
47.50029 123.000
47.52024 117.000
47.54018 113.000
47.56013 123.000
47.58008 124.000
47.60002 117.000
47.61997 117.000
47.63992 140.000
47.65986 134.000
47.67981 132.000
47.69976 127.000
47.71970 126.000
47.73965 121.000
47.75960 113.000
47.77955 129.000
47.79949 130.000
47.81944 114.000
47.83939 141.000
47.85933 144.000
47.87928 128.000
47.89923 147.000
47.91917 134.000
47.93912 146.000
47.95907 140.000
47.97902 131.000
47.99896 123.000
48.01891 122.000
48.03886 132.000
48.05880 141.000
48.07875 154.000
48.09870 131.000
48.11864 160.000
48.13859 155.000
48.15854 136.000
48.17848 128.000
48.19843 133.000
48.21838 117.000
48.23833 154.000
48.25827 146.000
48.27822 133.000
48.29817 175.000
48.31811 157.000
48.33806 137.000
48.35801 128.000
48.37795 138.000
48.39790 147.000
48.41785 124.000
48.43780 142.000
48.45774 128.000
48.47769 113.000
48.49764 122.000
48.51758 146.000
48.53753 171.000
48.55748 129.000
48.57742 137.000
48.59737 123.000
48.61732 126.000
48.63726 129.000
48.65721 124.000
48.67716 127.000
48.69711 136.000
48.71705 124.000
48.73700 131.000
48.75695 134.000
48.77689 150.000
48.79684 157.000
48.81679 133.000
48.83673 133.000
48.85668 121.000
48.87663 139.000
48.89658 123.000
48.91652 134.000
48.93647 123.000
48.95642 143.000
48.97636 108.000
48.99631 133.000
49.01626 140.000
49.03620 127.000
49.05615 109.000
49.07610 128.000
49.09605 111.000
49.11599 116.000
49.13594 119.000
49.15589 129.000
49.17583 109.000
49.19578 129.000
49.21573 112.000
49.23567 118.000
49.25562 128.000
49.27557 117.000
49.29551 120.000
49.31546 123.000
49.33541 126.000
49.35536 115.000
49.37530 106.000
49.39525 127.000
49.41520 137.000
49.43514 130.000
49.45509 119.000
49.47504 96.000
49.49498 122.000
49.51493 102.000
49.53488 120.000
49.55483 104.000
49.57477 121.000
49.59472 118.000
49.61467 120.000
49.63461 112.000
49.65456 114.000
49.67451 137.000
49.69445 126.000
49.71440 104.000
49.73435 124.000
49.75429 110.000
49.77424 111.000
49.79419 94.000
49.81414 118.000
49.83408 127.000
49.85403 141.000
49.87398 142.000
49.89392 141.000
49.91387 129.000
49.93382 153.000
49.95376 112.000
49.97371 141.000
49.99366 161.000
50.01361 144.000
50.03355 119.000
50.05350 106.000
50.07345 137.000
50.09339 119.000
50.11334 138.000
50.13329 143.000
50.15323 130.000
50.17318 130.000
50.19313 129.000
50.21307 117.000
50.23302 142.000
50.25297 108.000
50.27292 129.000
50.29286 130.000
50.31281 117.000
50.33276 113.000
50.35270 105.000
50.37265 114.000
50.39260 101.000
50.41254 113.000
50.43249 125.000
50.45244 117.000
50.47239 118.000
50.49233 123.000
50.51228 101.000
50.53223 139.000
50.55217 128.000
50.57212 112.000
50.59207 128.000
50.61201 132.000
50.63196 116.000
50.65191 102.000
50.67186 126.000
50.69180 131.000
50.71175 155.000
50.73170 145.000
50.75164 130.000
50.77159 137.000
50.79154 157.000
50.81148 152.000
50.83143 166.000
50.85138 171.000
50.87132 154.000
50.89127 173.000
50.91122 190.000
50.93117 186.000
50.95111 204.000
50.97106 229.000
50.99101 211.000
51.01095 211.000
51.03090 225.000
51.05085 222.000
51.07079 232.000
51.09074 238.000
51.11069 233.000
51.13064 246.000
51.15058 226.000
51.17053 184.000
51.19048 186.000
51.21042 153.000
51.23037 174.000
51.25032 181.000
51.27026 146.000
51.29021 148.000
51.31016 131.000
51.33010 99.000
51.35005 119.000
51.37000 129.000
51.38995 134.000
51.40989 138.000
51.42984 96.000
51.44979 111.000
51.46973 105.000
51.48968 119.000
51.50963 128.000
51.52957 110.000
51.54952 139.000
51.56947 118.000
51.58942 104.000
51.60936 128.000
51.62931 128.000
51.64926 105.000
51.66920 87.000
51.68915 103.000
51.70910 111.000
51.72904 94.000
51.74899 114.000
51.76894 117.000
51.78888 86.000
51.80883 106.000
51.82878 93.000
51.84873 103.000
51.86867 128.000
51.88862 101.000
51.90857 110.000
51.92851 118.000
51.94846 111.000
51.96841 113.000
51.98835 125.000
52.00830 111.000
52.02825 109.000
52.04820 135.000
52.06814 144.000
52.08809 140.000
52.10804 126.000
52.12798 114.000
52.14793 111.000
52.16788 128.000
52.18782 129.000
52.20777 143.000
52.22772 125.000
52.24767 112.000
52.26761 111.000
52.28756 113.000
52.30751 121.000
52.32745 123.000
52.34740 126.000
52.36735 112.000
52.38729 124.000
52.40724 123.000
52.42719 110.000
52.44713 140.000
52.46708 150.000
52.48703 144.000
52.50698 144.000
52.52692 154.000
52.54687 137.000
52.56682 137.000
52.58676 155.000
52.60671 138.000
52.62666 152.000
52.64660 145.000
52.66655 140.000
52.68650 139.000
52.70645 132.000
52.72639 143.000
52.74634 125.000
52.76629 132.000
52.78623 106.000
52.80618 132.000
52.82613 145.000
52.84607 140.000
52.86602 126.000
52.88597 152.000
52.90591 131.000
52.92586 151.000
52.94581 133.000
52.96576 139.000
52.98570 182.000
53.00565 143.000
53.02560 151.000
53.04554 145.000
53.06549 117.000
53.08544 168.000
53.10538 155.000
53.12533 147.000
53.14528 138.000
53.16523 110.000
53.18517 121.000
53.20512 122.000
53.22507 118.000
53.24501 106.000
53.26496 105.000
53.28491 112.000
53.30485 117.000
53.32480 111.000
53.34475 140.000
53.36469 129.000
53.38464 124.000
53.40459 122.000
53.42454 131.000
53.44448 125.000
53.46443 124.000
53.48438 112.000
53.50432 117.000
53.52427 123.000
53.54422 140.000
53.56416 119.000
53.58411 113.000
53.60406 131.000
53.62401 135.000
53.64395 113.000
53.66390 122.000
53.68385 107.000
53.70379 135.000
53.72374 141.000
53.74369 125.000
53.76363 141.000
53.78358 173.000
53.80353 155.000
53.82348 162.000
53.84342 151.000
53.86337 129.000
53.88332 142.000
53.90326 146.000
53.92321 121.000
53.94316 154.000
53.96310 151.000
53.98305 129.000
54.00300 145.000
54.02294 120.000
54.04289 120.000
54.06284 124.000
54.08279 122.000
54.10273 114.000
54.12268 107.000
54.14263 121.000
54.16257 115.000
54.18252 113.000
54.20247 112.000
54.22241 113.000
54.24236 121.000
54.26231 128.000
54.28226 122.000
54.30220 113.000
54.32215 117.000
54.34210 101.000
54.36204 133.000
54.38199 132.000
54.40194 133.000
54.42188 107.000
54.44183 151.000
54.46178 125.000
54.48172 118.000
54.50167 112.000
54.52162 112.000
54.54157 130.000
54.56151 147.000
54.58146 135.000
54.60141 145.000
54.62135 144.000
54.64130 127.000
54.66125 115.000
54.68119 138.000
54.70114 127.000
54.72109 152.000
54.74104 118.000
54.76098 140.000
54.78093 157.000
54.80088 141.000
54.82082 169.000
54.84077 212.000
54.86072 218.000
54.88066 267.000
54.90061 332.000
54.92056 295.000
54.94050 293.000
54.96045 282.000
54.98040 292.000
55.00035 259.000
55.02029 295.000
55.04024 287.000
55.06019 252.000
55.08013 265.000
55.10008 239.000
55.12003 238.000
55.13997 232.000
55.15992 216.000
55.17987 211.000
55.19982 175.000
55.21976 188.000
55.23971 160.000
55.25966 187.000
55.27960 177.000
55.29955 152.000
55.31950 141.000
55.33944 147.000
55.35939 160.000
55.37934 153.000
55.39929 134.000
55.41923 133.000
55.43918 145.000
55.45913 149.000
55.47907 160.000
55.49902 123.000
55.51897 114.000
55.53891 142.000
55.55886 127.000
55.57881 113.000
55.59875 117.000
55.61870 126.000
55.63865 131.000
55.65860 109.000
55.67854 96.000
55.69849 160.000
55.71844 126.000
55.73838 118.000
55.75833 123.000
55.77828 112.000
55.79822 156.000
55.81817 114.000
55.83812 123.000
55.85807 112.000
55.87801 130.000
55.89796 109.000
55.91791 123.000
55.93785 109.000
55.95780 117.000
55.97775 102.000
55.99769 139.000
56.01764 119.000
56.03759 120.000
56.05753 115.000
56.07748 103.000
56.09743 117.000
56.11738 98.000
56.13732 118.000
56.15727 106.000
56.17722 128.000
56.19716 115.000
56.21711 120.000
56.23706 113.000
56.25700 122.000
56.27695 101.000
56.29690 110.000
56.31685 116.000
56.33679 94.000
56.35674 125.000
56.37669 100.000
56.39663 108.000
56.41658 102.000
56.43653 115.000
56.45647 92.000
56.47642 100.000
56.49637 105.000
56.51631 135.000
56.53626 112.000
56.55621 131.000
56.57616 133.000
56.59610 125.000
56.61605 118.000
56.63600 113.000
56.65594 105.000
56.67589 119.000
56.69584 96.000
56.71578 124.000
56.73573 109.000
56.75568 95.000
56.77563 114.000
56.79557 119.000
56.81552 126.000
56.83547 113.000
56.85541 96.000
56.87536 120.000
56.89531 103.000
56.91525 106.000
56.93520 101.000
56.95515 107.000
56.97510 125.000
56.99504 118.000
57.01499 119.000
57.03494 116.000
57.05488 98.000
57.07483 115.000
57.09478 150.000
57.11472 103.000
57.13467 100.000
57.15462 132.000
57.17456 113.000
57.19451 112.000
57.21446 114.000
57.23441 121.000
57.25435 127.000
57.27430 124.000
57.29425 125.000
57.31419 117.000
57.33414 129.000
57.35409 131.000
57.37403 141.000
57.39398 133.000
57.41393 135.000
57.43388 146.000
57.45382 114.000
57.47377 117.000
57.49372 114.000
57.51366 124.000
57.53361 131.000
57.55356 128.000
57.57350 120.000
57.59345 128.000
57.61340 130.000
57.63334 123.000
57.65329 144.000
57.67324 113.000
57.69319 152.000
57.71313 130.000
57.73308 148.000
57.75303 152.000
57.77297 134.000
57.79292 133.000
57.81287 144.000
57.83281 154.000
57.85276 141.000
57.87271 157.000
57.89266 112.000
57.91260 128.000
57.93255 126.000
57.95250 143.000
57.97244 125.000
57.99239 140.000
58.01234 145.000
58.03228 132.000
58.05223 122.000
58.07218 126.000
58.09212 138.000
58.11207 133.000
58.13202 128.000
58.15197 142.000
58.17191 154.000
58.19186 141.000
58.21181 116.000
58.23175 122.000
58.25170 133.000
58.27165 151.000
58.29159 121.000
58.31154 126.000
58.33149 137.000
58.35144 141.000
58.37138 129.000
58.39133 124.000
58.41128 132.000
58.43122 139.000
58.45117 127.000
58.47112 110.000
58.49106 113.000
58.51101 149.000
58.53096 132.000
58.55090 127.000
58.57085 114.000
58.59080 121.000
58.61075 108.000
58.63069 120.000
58.65064 122.000
58.67059 130.000
58.69053 103.000
58.71048 133.000
58.73043 126.000
58.75037 98.000
58.77032 126.000
58.79027 145.000
58.81022 110.000
58.83016 123.000
58.85011 119.000
58.87006 146.000
58.89000 122.000
58.90995 122.000
58.92990 121.000
58.94984 130.000
58.96979 109.000
58.98974 132.000
59.00969 116.000
59.02963 132.000
59.04958 125.000
59.06953 126.000
59.08947 127.000
59.10942 119.000
59.12937 116.000
59.14931 111.000
59.16926 122.000
59.18921 135.000
59.20915 151.000
59.22910 93.000
59.24905 150.000
59.26900 130.000
59.28894 141.000
59.30889 150.000
59.32884 124.000
59.34878 134.000
59.36873 150.000
59.38868 142.000
59.40862 136.000
59.42857 161.000
59.44852 162.000
59.46847 171.000
59.48841 164.000
59.50836 163.000
59.52831 159.000
59.54825 160.000
59.56820 176.000
59.58815 188.000
59.60809 196.000
59.62804 202.000
59.64799 197.000
59.66793 177.000
59.68788 190.000
59.70783 224.000
59.72778 215.000
59.74772 248.000
59.76767 253.000
59.78762 254.000
59.80756 328.000
59.82751 365.000
59.84746 370.000
59.86740 404.000
59.88735 402.000
59.90730 439.000
59.92725 348.000
59.94719 318.000
59.96714 308.000
59.98709 301.000
60.00703 309.000
60.02698 318.000
60.04693 321.000
60.06687 304.000
60.08682 301.000
60.10677 260.000
60.12671 217.000
60.14666 196.000
60.16661 229.000
60.18656 225.000
60.20650 187.000
60.22645 156.000
60.24640 180.000
60.26634 157.000
60.28629 157.000
60.30624 170.000
60.32618 161.000
60.34613 152.000
60.36608 176.000
60.38603 155.000
60.40597 146.000
60.42592 159.000
60.44587 153.000
60.46581 141.000
60.48576 147.000
60.50571 133.000
60.52565 154.000
60.54560 139.000
60.56555 163.000
60.58550 138.000
60.60544 170.000
60.62539 146.000
60.64534 151.000
60.66528 150.000
60.68523 156.000
60.70518 153.000
60.72512 143.000
60.74507 155.000
60.76502 144.000
60.78496 156.000
60.80491 145.000
60.82486 162.000
60.84481 153.000
60.86475 177.000
60.88470 166.000
60.90465 152.000
60.92459 192.000
60.94454 179.000
60.96449 197.000
60.98443 191.000
61.00438 166.000
61.02433 220.000
61.04428 200.000
61.06422 215.000
61.08417 223.000
61.10412 257.000
61.12406 255.000
61.14401 213.000
61.16396 250.000
61.18390 239.000
61.20385 260.000
61.22380 275.000
61.24374 274.000
61.26369 279.000
61.28364 249.000
61.30359 265.000
61.32353 276.000
61.34348 278.000
61.36343 267.000
61.38337 269.000
61.40332 263.000
61.42327 222.000
61.44321 282.000
61.46316 265.000
61.48311 291.000
61.50306 251.000
61.52300 255.000
61.54295 262.000
61.56290 304.000
61.58284 311.000
61.60279 251.000
61.62274 263.000
61.64268 250.000
61.66263 277.000
61.68258 251.000
61.70252 245.000
61.72247 247.000
61.74242 221.000
61.76237 257.000
61.78231 205.000
61.80226 230.000
61.82221 233.000
61.84215 203.000
61.86210 222.000
61.88205 233.000
61.90199 190.000
61.92194 214.000
61.94189 191.000
61.96184 185.000
61.98178 209.000
62.00173 206.000
62.02168 182.000
62.04162 193.000
62.06157 194.000
62.08152 203.000
62.10146 243.000
62.12141 215.000
62.14136 235.000
62.16131 217.000
62.18125 238.000
62.20120 224.000
62.22115 220.000
62.24109 265.000
62.26104 283.000
62.28099 238.000
62.30093 243.000
62.32088 273.000
62.34083 257.000
62.36077 241.000
62.38072 266.000
62.40067 259.000
62.42062 230.000
62.44056 232.000
62.46051 223.000
62.48046 231.000
62.50040 245.000
62.52035 220.000
62.54030 249.000
62.56024 237.000
62.58019 203.000
62.60014 175.000
62.62009 194.000
62.64003 218.000
62.65998 185.000
62.67993 184.000
62.69987 165.000
62.71982 197.000
62.73977 166.000
62.75971 170.000
62.77966 156.000
62.79961 174.000
62.81955 178.000
62.83950 163.000
62.85945 166.000
62.87940 159.000
62.89934 188.000
62.91929 159.000
62.93924 176.000
62.95918 146.000
62.97913 180.000
62.99908 148.000
63.01902 180.000
63.03897 155.000
63.05892 152.000
63.07887 150.000
63.09881 145.000
63.11876 172.000
63.13871 146.000
63.15865 143.000
63.17860 154.000
63.19855 144.000
63.21849 124.000
63.23844 158.000
63.25839 128.000
63.27833 140.000
63.29828 116.000
63.31823 116.000
63.33818 140.000
63.35812 131.000
63.37807 117.000
63.39802 130.000
63.41796 138.000
63.43791 119.000
63.45786 141.000
63.47780 144.000
63.49775 130.000
63.51770 138.000
63.53765 128.000
63.55759 125.000
63.57754 122.000
63.59749 131.000
63.61743 152.000
63.63738 147.000
63.65733 128.000
63.67727 138.000
63.69722 155.000
63.71717 147.000
63.73712 146.000
63.75706 159.000
63.77701 149.000
63.79696 145.000
63.81690 165.000
63.83685 161.000
63.85680 187.000
63.87674 164.000
63.89669 183.000
63.91664 146.000
63.93658 189.000
63.95653 193.000
63.97648 163.000
63.99643 190.000
64.01637 163.000
64.03632 167.000
64.05627 156.000
64.07621 146.000
64.09616 168.000
64.11611 159.000
64.13605 158.000
64.15600 154.000
64.17595 141.000
64.19590 146.000
64.21584 117.000
64.23579 130.000
64.25574 131.000
64.27568 121.000
64.29563 128.000
64.31558 119.000
64.33552 124.000
64.35547 141.000
64.37542 162.000
64.39536 138.000
64.41531 125.000
64.43526 97.000
64.45521 121.000
64.47515 115.000
64.49510 106.000
64.51505 120.000
64.53499 107.000
64.55494 124.000
64.57489 122.000
64.59483 134.000
64.61478 136.000
64.63473 143.000
64.65468 122.000
64.67462 117.000
64.69457 129.000
64.71452 117.000
64.73446 128.000
64.75441 133.000
64.77436 136.000
64.79430 121.000
64.81425 136.000
64.83420 104.000
64.85414 112.000
64.87409 118.000
64.89404 120.000
64.91399 108.000
64.93393 133.000
64.95388 123.000
64.97383 119.000
64.99377 148.000
65.01372 126.000
65.03367 140.000
65.05361 136.000
65.07356 154.000
65.09351 118.000
65.11346 132.000
65.13340 139.000
65.15335 133.000
65.17330 124.000
65.19324 121.000
65.21319 131.000
65.23314 166.000
65.25308 137.000
65.27303 146.000
65.29298 183.000
65.31293 153.000
65.33287 162.000
65.35282 171.000
65.37277 133.000
65.39271 140.000
65.41266 171.000
65.43261 157.000
65.45255 179.000
65.47250 167.000
65.49245 167.000
65.51239 168.000
65.53234 154.000
65.55229 167.000
65.57224 175.000
65.59218 162.000
65.61213 183.000
65.63208 192.000
65.65202 188.000
65.67197 216.000
65.69192 258.000
65.71186 262.000
65.73181 266.000
65.75176 261.000
65.77171 234.000
65.79165 248.000
65.81160 267.000
65.83155 204.000
65.85149 226.000
65.87144 228.000
65.89139 243.000
65.91133 226.000
65.93128 236.000
65.95123 197.000
65.97117 170.000
65.99112 191.000
66.01107 176.000
66.03102 176.000
66.05096 168.000
66.07091 163.000
66.09086 154.000
66.11080 181.000
66.13075 156.000
66.15070 155.000
66.17064 162.000
66.19059 136.000
66.21054 151.000
66.23049 162.000
66.25043 134.000
66.27038 174.000
66.29033 133.000
66.31027 118.000
66.33022 141.000
66.35017 121.000
66.37011 133.000
66.39006 133.000
66.41001 147.000
66.42995 146.000
66.44990 152.000
66.46985 143.000
66.48980 121.000
66.50974 126.000
66.52969 135.000
66.54964 121.000
66.56958 118.000
66.58953 117.000
66.60948 117.000
66.62942 123.000
66.64937 113.000
66.66932 105.000
66.68927 135.000
66.70921 107.000
66.72916 128.000
66.74911 112.000
66.76905 125.000
66.78900 117.000
66.80895 127.000
66.82889 117.000
66.84884 109.000
66.86879 123.000
66.88874 110.000
66.90868 119.000
66.92863 91.000
66.94858 124.000
66.96852 118.000
66.98847 120.000
67.00842 129.000
67.02836 107.000
67.04831 105.000
67.06826 134.000
67.08820 114.000
67.10815 100.000
67.12810 108.000
67.14805 120.000
67.16799 144.000
67.18794 115.000
67.20789 117.000
67.22783 131.000
67.24778 109.000
67.26773 120.000
67.28767 116.000
67.30762 132.000
67.32757 152.000
67.34752 140.000
67.36746 116.000
67.38741 119.000
67.40736 115.000
67.42730 137.000
67.44725 152.000
67.46720 141.000
67.48714 130.000
67.50709 112.000
67.52704 119.000
67.54698 127.000
67.56693 127.000
67.58688 135.000
67.60683 138.000
67.62677 138.000
67.64672 140.000
67.66667 135.000
67.68661 120.000
67.70656 133.000
67.72651 149.000
67.74645 147.000
67.76640 127.000
67.78635 148.000
67.80630 129.000
67.82624 128.000
67.84619 134.000
67.86614 120.000
67.88608 117.000
67.90603 124.000
67.92598 125.000
67.94592 132.000
67.96587 137.000
67.98582 136.000
68.00576 109.000
68.02571 136.000
68.04566 119.000
68.06561 122.000
68.08555 135.000
68.10550 139.000
68.12545 113.000
68.14539 127.000
68.16534 127.000
68.18529 129.000
68.20523 131.000
68.22518 138.000
68.24513 137.000
68.26508 123.000
68.28502 124.000
68.30497 141.000
68.32492 153.000
68.34486 129.000
68.36481 149.000
68.38476 155.000
68.40470 146.000
68.42465 129.000
68.44460 150.000
68.46455 136.000
68.48449 144.000
68.50444 111.000
68.52439 150.000
68.54433 153.000
68.56428 152.000
68.58423 162.000
68.60417 129.000
68.62412 154.000
68.64407 135.000
68.66401 139.000
68.68396 119.000
68.70391 126.000
68.72386 132.000
68.74380 135.000
68.76375 120.000
68.78370 140.000
68.80364 118.000
68.82359 98.000
68.84354 120.000
68.86348 130.000
68.88343 115.000
68.90338 115.000
68.92333 112.000
68.94327 129.000
68.96322 106.000
68.98317 116.000
69.00311 123.000
69.02306 135.000
69.04301 113.000
69.06295 138.000
69.08290 114.000
69.10285 110.000
69.12279 111.000
69.14274 105.000
69.16269 103.000
69.18264 103.000
69.20258 129.000
69.22253 136.000
69.24248 103.000
69.26242 96.000
69.28237 100.000
69.30232 117.000
69.32226 121.000
69.34221 110.000
69.36216 101.000
69.38211 129.000
69.40205 132.000
69.42200 105.000
69.44195 118.000
69.46189 110.000
69.48184 111.000
69.50179 113.000
69.52173 124.000
69.54168 112.000
69.56163 107.000
69.58157 121.000
69.60152 104.000
69.62147 125.000
69.64142 93.000
69.66136 117.000
69.68131 112.000
69.70126 124.000
69.72120 112.000
69.74115 134.000
69.76110 122.000
69.78104 127.000
69.80099 124.000
69.82094 128.000
69.84089 122.000
69.86083 126.000
69.88078 120.000
69.90073 112.000
69.92067 103.000
69.94062 126.000
69.96057 121.000
69.98051 125.000
70.00046 116.000
70.02041 134.000
70.04035 110.000
70.06030 128.000
70.08025 118.000
70.10020 117.000
70.12014 122.000
70.14009 117.000
70.16004 105.000
70.17998 120.000
70.19993 122.000
70.21988 110.000
70.23982 114.000
70.25977 109.000
70.27972 125.000
70.29967 112.000
70.31961 119.000
70.33956 103.000
70.35951 125.000
70.37945 98.000
70.39940 94.000
70.41935 113.000
70.43929 109.000
70.45924 118.000
70.47919 114.000
70.49914 111.000
70.51908 118.000
70.53903 114.000
70.55898 112.000
70.57892 114.000
70.59887 99.000
70.61882 115.000
70.63876 95.000
70.65871 108.000
70.67866 103.000
70.69860 110.000
70.71855 112.000
70.73850 128.000
70.75845 126.000
70.77839 114.000
70.79834 107.000
70.81829 109.000
70.83823 139.000
70.85818 115.000
70.87813 124.000
70.89807 140.000
70.91802 112.000
70.93797 108.000
70.95792 118.000
70.97786 133.000
70.99781 118.000
71.01776 100.000
71.03770 121.000
71.05765 131.000
71.07760 120.000
71.09754 106.000
71.11749 112.000
71.13744 120.000
71.15738 128.000
71.17733 122.000
71.19728 120.000
71.21723 138.000
71.23717 119.000
71.25712 116.000
71.27707 134.000
71.29701 110.000
71.31696 132.000
71.33691 162.000
71.35685 145.000
71.37680 119.000
71.39675 148.000
71.41670 152.000
71.43664 153.000
71.45659 126.000
71.47654 164.000
71.49648 163.000
71.51643 170.000
71.53638 163.000
71.55632 191.000
71.57627 152.000
71.59622 150.000
71.61616 140.000
71.63611 149.000
71.65606 131.000
71.67601 141.000
71.69595 156.000
71.71590 156.000
71.73585 170.000
71.75579 129.000
71.77574 133.000
71.79569 137.000
71.81563 139.000
71.83558 123.000
71.85553 111.000
71.87548 121.000
71.89542 105.000
71.91537 112.000
71.93532 113.000
71.95526 126.000
71.97521 105.000
71.99516 128.000
72.01510 128.000
72.03505 126.000
72.05500 100.000
72.07495 130.000
72.09489 116.000
72.11484 100.000
72.13479 124.000
72.15473 127.000
72.17468 118.000
72.19463 119.000
72.21457 119.000
72.23452 132.000
72.25447 111.000
72.27441 109.000
72.29436 112.000
72.31431 118.000
72.33426 134.000
72.35420 130.000
72.37415 120.000
72.39410 102.000
72.41404 141.000
72.43399 118.000
72.45394 125.000
72.47388 133.000
72.49383 122.000
72.51378 131.000
72.53373 138.000
72.55367 132.000
72.57362 135.000
72.59357 98.000
72.61351 130.000
72.63346 136.000
72.65341 124.000
72.67335 147.000
72.69330 126.000
72.71325 149.000
72.73319 134.000
72.75314 153.000
72.77309 122.000
72.79304 125.000
72.81298 128.000
72.83293 132.000
72.85288 131.000
72.87282 132.000
72.89277 127.000
72.91272 154.000
72.93266 127.000
72.95261 127.000
72.97256 153.000
72.99251 135.000
73.01245 135.000
73.03240 118.000
73.05235 130.000
73.07229 120.000
73.09224 135.000
73.11219 109.000
73.13213 125.000
73.15208 119.000
73.17203 132.000
73.19197 122.000
73.21192 109.000
73.23187 132.000
73.25182 124.000
73.27176 111.000
73.29171 113.000
73.31166 136.000
73.33160 114.000
73.35155 127.000
73.37150 121.000
73.39144 144.000
73.41139 144.000
73.43134 135.000
73.45129 117.000
73.47123 120.000
73.49118 136.000
73.51113 126.000
73.53107 136.000
73.55102 113.000
73.57097 119.000
73.59091 144.000
73.61086 126.000
73.63081 147.000
73.65076 133.000
73.67070 159.000
73.69065 138.000
73.71060 130.000
73.73054 149.000
73.75049 127.000
73.77044 131.000
73.79038 113.000
73.81033 121.000
73.83028 147.000
73.85022 142.000
73.87017 114.000
73.89012 140.000
73.91007 138.000
73.93001 131.000
73.94996 133.000
73.96991 158.000
73.98985 140.000
74.00980 150.000
74.02975 142.000
74.04969 151.000
74.06964 119.000
74.08959 117.000
74.10954 143.000
74.12948 128.000
74.14943 134.000
74.16938 142.000
74.18932 140.000
74.20927 119.000
74.22922 124.000
74.24916 109.000
74.26911 126.000
74.28906 140.000
74.30900 105.000
74.32895 133.000
74.34890 125.000
74.36885 136.000
74.38879 119.000
74.40874 147.000
74.42869 120.000
74.44863 118.000
74.46858 112.000
74.48853 114.000
74.50847 124.000
74.52842 134.000
74.54837 124.000
74.56832 135.000
74.58826 123.000
74.60821 109.000
74.62816 137.000
74.64810 128.000
74.66805 130.000
74.68800 128.000
74.70794 133.000
74.72789 114.000
74.74784 118.000
74.76778 127.000
74.78773 115.000
74.80768 114.000
74.82763 119.000
74.84757 137.000
74.86752 126.000
74.88747 144.000
74.90741 135.000
74.92736 116.000
74.94731 112.000
74.96725 139.000
74.98720 121.000
75.00715 122.000
75.02710 138.000
75.04704 122.000
75.06699 110.000
75.08694 108.000
75.10688 124.000
75.12683 125.000
75.14678 145.000
75.16672 113.000
75.18667 118.000
75.20662 102.000
75.22657 106.000
75.24651 116.000
75.26646 120.000
75.28641 120.000
75.30635 123.000
75.32630 133.000
75.34625 131.000
75.36619 110.000
75.38614 113.000
75.40609 117.000
75.42603 119.000
75.44598 129.000
75.46593 128.000
75.48588 118.000
75.50582 107.000
75.52577 126.000
75.54572 115.000
75.56566 111.000
75.58561 120.000
75.60556 113.000
75.62550 113.000
75.64545 125.000
75.66540 104.000
75.68535 104.000
75.70529 116.000
75.72524 120.000
75.74519 116.000
75.76513 108.000
75.78508 113.000
75.80503 113.000
75.82497 128.000
75.84492 114.000
75.86487 118.000
75.88481 130.000
75.90476 108.000
75.92471 123.000
75.94466 107.000
75.96460 107.000
75.98455 123.000
76.00450 94.000
76.02444 111.000
76.04439 107.000
76.06434 129.000
76.08428 121.000
76.10423 118.000
76.12418 100.000
76.14413 109.000
76.16407 113.000
76.18402 127.000
76.20397 111.000
76.22391 105.000
76.24386 117.000
76.26381 96.000
76.28375 117.000
76.30370 122.000
76.32365 95.000
76.34359 140.000
76.36354 115.000
76.38349 118.000
76.40344 108.000
76.42338 109.000
76.44333 113.000
76.46328 122.000
76.48322 125.000
76.50317 120.000
76.52312 124.000
76.54306 122.000
76.56301 113.000
76.58296 117.000
76.60291 104.000
76.62285 110.000
76.64280 122.000
76.66275 105.000
76.68269 135.000
76.70264 121.000
76.72259 118.000
76.74253 132.000
76.76248 137.000
76.78243 122.000
76.80238 115.000
76.82232 144.000
76.84227 118.000
76.86222 111.000
76.88216 107.000
76.90211 104.000
76.92206 112.000
76.94200 121.000
76.96195 105.000
76.98190 107.000
77.00184 133.000
77.02179 150.000
77.04174 133.000
77.06169 134.000
77.08163 121.000
77.10158 147.000
77.12153 166.000
77.14147 154.000
77.16142 146.000
77.18137 140.000
77.20131 136.000
77.22126 146.000
77.24121 137.000
77.26116 156.000
77.28110 146.000
77.30105 131.000
77.32100 127.000
77.34094 145.000
77.36089 130.000
77.38084 134.000
77.40078 135.000
77.42073 139.000
77.44068 127.000
77.46062 134.000
77.48057 125.000
77.50052 129.000
77.52047 155.000
77.54041 155.000
77.56036 140.000
77.58031 134.000
77.60025 137.000
77.62020 127.000
77.64015 140.000
77.66009 123.000
77.68004 155.000
77.69999 149.000
77.71994 145.000
77.73988 134.000
77.75983 123.000
77.77978 107.000
77.79972 112.000
77.81967 126.000
77.83962 127.000
77.85956 131.000
77.87951 127.000
77.89946 123.000
77.91940 139.000
77.93935 131.000
77.95930 113.000
77.97925 135.000
77.99919 131.000
78.01914 113.000
78.03909 129.000
78.05903 147.000
78.07898 131.000
78.09893 131.000
78.11887 145.000
78.13882 105.000
78.15877 124.000
78.17872 115.000
78.19866 115.000
78.21861 116.000
78.23856 107.000
78.25850 121.000
78.27845 133.000
78.29840 133.000
78.31834 130.000
78.33829 132.000
78.35824 140.000
78.37819 129.000
78.39813 130.000
78.41808 135.000
78.43803 127.000
78.45797 128.000
78.47792 142.000
78.49787 129.000
78.51781 150.000
78.53776 120.000
78.55771 128.000
78.57765 126.000
78.59760 121.000
78.61755 153.000
78.63750 127.000
78.65744 113.000
78.67739 124.000
78.69734 123.000
78.71728 126.000
78.73723 108.000
78.75718 135.000
78.77712 134.000
78.79707 105.000
78.81702 126.000
78.83697 129.000
78.85691 121.000
78.87686 107.000
78.89681 128.000
78.91675 141.000
78.93670 137.000
78.95665 109.000
78.97659 123.000
78.99654 133.000
79.01649 115.000
79.03643 116.000
79.05638 111.000
79.07633 111.000
79.09628 121.000
79.11622 120.000
79.13617 106.000
79.15612 103.000
79.17606 108.000
79.19601 113.000
79.21596 102.000
79.23590 115.000
79.25585 118.000
79.27580 111.000
79.29575 120.000
79.31569 94.000
79.33564 101.000
79.35559 111.000
79.37553 106.000
79.39548 104.000
79.41543 135.000
79.43537 118.000
79.45532 116.000
79.47527 115.000
79.49521 105.000
79.51516 105.000
79.53511 95.000
79.55506 118.000
79.57500 94.000
79.59495 102.000
79.61490 127.000
79.63484 132.000
79.65479 95.000
79.67474 101.000
79.69468 99.000
79.71463 94.000
79.73458 129.000
79.75453 87.000
79.77447 109.000
79.79442 111.000
79.81437 113.000
79.83431 116.000
79.85426 113.000
79.87421 103.000
79.89415 121.000
79.91410 103.000
79.93405 105.000
79.95399 116.000
79.97394 100.000
79.99389 118.000
80.01384 92.000
80.03378 116.000
80.05373 106.000
80.07368 115.000
80.09362 111.000
80.11357 95.000
80.13352 117.000
80.15346 100.000
80.17341 119.000
80.19336 107.000
80.21331 121.000
80.23325 117.000
80.25320 134.000
80.27315 116.000
80.29309 107.000
80.31304 103.000
80.33299 114.000
80.35293 114.000
80.37288 119.000
80.39283 109.000
80.41278 98.000
80.43272 109.000
80.45267 109.000
80.47262 100.000
80.49256 105.000
80.51251 99.000
80.53246 98.000
80.55240 110.000
80.57235 106.000
80.59230 116.000
80.61224 98.000
80.63219 107.000
80.65214 94.000
80.67209 127.000
80.69203 116.000
80.71198 113.000
80.73193 110.000
80.75187 114.000
80.77182 109.000
80.79177 93.000
80.81171 104.000
80.83166 112.000
80.85161 93.000
80.87156 91.000
80.89150 105.000
80.91145 97.000
80.93140 108.000
80.95134 104.000
80.97129 109.000
80.99124 98.000
81.01118 101.000
81.03113 105.000
81.05108 99.000
81.07102 105.000
81.09097 93.000
81.11092 107.000
81.13087 112.000
81.15081 93.000
81.17076 105.000
81.19071 93.000
81.21065 118.000
81.23060 96.000
81.25055 118.000
81.27049 101.000
81.29044 110.000
81.31039 105.000
81.33034 94.000
81.35028 105.000
81.37023 94.000
81.39018 115.000
81.41012 82.000
81.43007 110.000
81.45002 112.000
81.46996 109.000
81.48991 113.000
81.50986 97.000
81.52980 119.000
81.54975 110.000
81.56970 101.000
81.58965 102.000
81.60959 89.000
81.62954 103.000
81.64949 121.000
81.66943 129.000
81.68938 105.000
81.70933 90.000
81.72927 117.000
81.74922 101.000
81.76917 103.000
81.78912 115.000
81.80906 108.000
81.82901 103.000
81.84896 116.000
81.86890 109.000
81.88885 104.000
81.90880 105.000
81.92874 113.000
81.94869 94.000
81.96864 111.000
81.98859 90.000
82.00853 111.000
82.02848 111.000
82.04843 105.000
82.06837 113.000
82.08832 107.000
82.10827 101.000
82.12821 110.000
82.14816 91.000
82.16811 99.000
82.18805 112.000
82.20800 111.000
82.22795 96.000
82.24790 103.000
82.26784 113.000
82.28779 116.000
82.30774 105.000
82.32768 78.000
82.34763 104.000
82.36758 98.000
82.38752 99.000
82.40747 97.000
82.42742 106.000
82.44737 105.000
82.46731 120.000
82.48726 104.000
82.50721 100.000
82.52715 104.000
82.54710 113.000
82.56705 111.000
82.58699 120.000
82.60694 120.000
82.62689 93.000
82.64683 102.000
82.66678 103.000
82.68673 120.000
82.70668 124.000
82.72662 117.000
82.74657 101.000
82.76652 107.000
82.78646 101.000
82.80641 128.000
82.82636 101.000
82.84630 130.000
82.86625 129.000
82.88620 101.000
82.90615 113.000
82.92609 97.000
82.94604 114.000
82.96599 103.000
82.98593 106.000
83.00588 105.000
83.02583 87.000
83.04577 137.000
83.06572 128.000
83.08567 113.000
83.10561 111.000
83.12556 90.000
83.14551 114.000
83.16546 86.000
83.18540 118.000
83.20535 122.000
83.22530 122.000
83.24524 108.000
83.26519 99.000
83.28514 117.000
83.30508 133.000
83.32503 123.000
83.34498 128.000
83.36493 110.000
83.38487 110.000
83.40482 136.000
83.42477 125.000
83.44471 129.000
83.46466 140.000
83.48461 148.000
83.50455 123.000
83.52450 122.000
83.54445 154.000
83.56440 158.000
83.58434 139.000
83.60429 142.000
83.62424 112.000
83.64418 141.000
83.66413 118.000
83.68408 116.000
83.70402 113.000
83.72397 128.000
83.74392 136.000
83.76386 129.000
83.78381 144.000
83.80376 147.000
83.82371 119.000
83.84365 123.000
83.86360 118.000
83.88355 135.000
83.90349 119.000
83.92344 147.000
83.94339 126.000
83.96333 112.000
83.98328 110.000
84.00323 112.000
84.02318 99.000
84.04312 100.000
84.06307 120.000
84.08302 109.000
84.10296 107.000
84.12291 113.000
84.14286 101.000
84.16280 127.000
84.18275 125.000
84.20270 118.000
84.22264 125.000
84.24259 105.000
84.26254 120.000
84.28249 129.000
84.30243 124.000
84.32238 95.000
84.34233 120.000
84.36227 111.000
84.38222 126.000
84.40217 132.000
84.42211 123.000
84.44206 105.000
84.46201 107.000
84.48196 107.000
84.50190 116.000
84.52185 131.000
84.54180 111.000
84.56174 119.000
84.58169 136.000
84.60164 99.000
84.62158 123.000
84.64153 136.000
84.66148 104.000
84.68142 124.000
84.70137 133.000
84.72132 108.000
84.74127 129.000
84.76121 129.000
84.78116 137.000
84.80111 122.000
84.82105 121.000
84.84100 130.000
84.86095 134.000
84.88089 118.000
84.90084 123.000
84.92079 141.000
84.94074 131.000
84.96068 145.000
84.98063 152.000
85.00058 143.000
85.02052 149.000
85.04047 128.000
85.06042 116.000
85.08036 166.000
85.10031 131.000
85.12026 141.000
85.14021 133.000
85.16015 119.000
85.18010 140.000
85.20005 134.000
85.21999 116.000
85.23994 146.000
85.25989 130.000
85.27983 126.000
85.29978 127.000
85.31973 131.000
85.33967 110.000
85.35962 105.000
85.37957 115.000
85.39952 109.000
85.41946 117.000
85.43941 94.000
85.45936 115.000
85.47930 124.000
85.49925 89.000
85.51920 106.000
85.53914 111.000
85.55909 89.000
85.57904 97.000
85.59899 117.000
85.61893 98.000
85.63888 101.000
85.65883 92.000
85.67877 110.000
85.69872 113.000
85.71867 103.000
85.73861 95.000
85.75856 111.000
85.77851 80.000
85.79845 92.000
85.81840 109.000
85.83835 109.000
85.85830 99.000
85.87824 116.000
85.89819 117.000
85.91814 112.000
85.93808 102.000
85.95803 120.000
85.97798 96.000
85.99792 118.000
86.01787 104.000
86.03782 110.000
86.05777 120.000
86.07771 126.000
86.09766 121.000
86.11761 92.000
86.13755 103.000
86.15750 96.000
86.17745 102.000
86.19739 97.000
86.21734 103.000
86.23729 117.000
86.25723 111.000
86.27718 119.000
86.29713 92.000
86.31708 115.000
86.33702 99.000
86.35697 114.000
86.37692 104.000
86.39686 104.000
86.41681 90.000
86.43676 117.000
86.45670 98.000
86.47665 106.000
86.49660 79.000
86.51655 105.000
86.53649 93.000
86.55644 118.000
86.57639 112.000
86.59633 120.000
86.61628 116.000
86.63623 102.000
86.65617 109.000
86.67612 111.000
86.69607 92.000
86.71602 109.000
86.73596 121.000
86.75591 115.000
86.77586 108.000
86.79580 113.000
86.81575 101.000
86.83570 116.000
86.85564 119.000
86.87559 115.000
86.89554 104.000
86.91548 135.000
86.93543 100.000
86.95538 102.000
86.97533 108.000
86.99527 106.000
87.01522 109.000
87.03517 105.000
87.05511 114.000
87.07506 107.000
87.09501 112.000
87.11495 128.000
87.13490 96.000
87.15485 119.000
87.17480 106.000
87.19474 124.000
87.21469 112.000
87.23464 113.000
87.25458 98.000
87.27453 99.000
87.29448 113.000
87.31442 109.000
87.33437 106.000
87.35432 113.000
87.37426 109.000
87.39421 120.000
87.41416 105.000
87.43411 129.000
87.45405 110.000
87.47400 127.000
87.49395 117.000
87.51389 130.000
87.53384 130.000
87.55379 115.000
87.57373 111.000
87.59368 106.000
87.61363 120.000
87.63358 134.000
87.65352 108.000
87.67347 105.000
87.69342 106.000
87.71336 113.000
87.73331 122.000
87.75326 124.000
87.77320 122.000
87.79315 132.000
87.81310 108.000
87.83304 126.000
87.85299 115.000
87.87294 120.000
87.89289 86.000
87.91283 103.000
87.93278 105.000
87.95273 124.000
87.97267 123.000
87.99262 125.000
88.01257 99.000
88.03251 120.000
88.05246 131.000
88.07241 116.000
88.09236 117.000
88.11230 114.000
88.13225 97.000
88.15220 113.000
88.17214 113.000
88.19209 111.000
88.21204 115.000
88.23198 120.000
88.25193 114.000
88.27188 125.000
88.29183 116.000
88.31177 104.000
88.33172 122.000
88.35167 109.000
88.37161 109.000
88.39156 110.000
88.41151 105.000
88.43145 121.000
88.45140 116.000
88.47135 104.000
88.49129 115.000
88.51124 119.000
88.53119 123.000
88.55114 108.000
88.57108 111.000
88.59103 85.000
88.61098 100.000
88.63092 103.000
88.65087 131.000
88.67082 110.000
88.69076 121.000
88.71071 96.000
88.73066 96.000
88.75061 112.000
88.77055 100.000
88.79050 112.000
88.81045 102.000
88.83039 94.000
88.85034 108.000
88.87029 127.000
88.89023 87.000
88.91018 137.000
88.93013 97.000
88.95007 104.000
88.97002 107.000
88.98997 96.000
89.00992 127.000
89.02986 95.000
89.04981 113.000
89.06976 101.000
89.08970 104.000
89.10965 115.000
89.12960 105.000
89.14954 113.000
89.16949 118.000
89.18944 108.000
89.20939 107.000
89.22933 93.000
89.24928 103.000
89.26923 113.000
89.28917 110.000
89.30912 113.000
89.32907 100.000
89.34901 116.000
89.36896 103.000
89.38891 106.000
89.40885 94.000
89.42880 104.000
89.44875 105.000
89.46870 99.000
89.48864 115.000
89.50859 107.000
89.52854 114.000
89.54848 108.000
89.56843 90.000
89.58838 111.000
89.60832 100.000
89.62827 94.000
89.64822 117.000
89.66817 104.000
89.68811 113.000
89.70806 90.000
89.72801 115.000
89.74795 100.000
89.76790 116.000
89.78785 108.000
89.80779 99.000
89.82774 103.000
89.84769 128.000
89.86764 113.000
89.88758 107.000
89.90753 96.000
89.92748 94.000
89.94742 123.000
89.96737 99.000
89.98732 119.000
90.00726 116.000
