10.00000 98.000
10.01995 114.000
10.03989 123.000
10.05984 114.000
10.07979 132.000
10.09973 128.000
10.11968 126.000
10.13963 103.000
10.15958 119.000
10.17952 114.000
10.19947 99.000
10.21942 106.000
10.23936 117.000
10.25931 115.000
10.27926 114.000
10.29920 92.000
10.31915 126.000
10.33910 100.000
10.35905 108.000
10.37899 135.000
10.39894 111.000
10.41889 104.000
10.43883 118.000
10.45878 122.000
10.47873 102.000
10.49867 121.000
10.51862 102.000
10.53857 112.000
10.55851 101.000
10.57846 115.000
10.59841 118.000
10.61836 98.000
10.63830 96.000
10.65825 116.000
10.67820 125.000
10.69814 110.000
10.71809 109.000
10.73804 122.000
10.75798 107.000
10.77793 112.000
10.79788 110.000
10.81783 112.000
10.83777 101.000
10.85772 115.000
10.87767 111.000
10.89761 117.000
10.91756 118.000
10.93751 105.000
10.95745 98.000
10.97740 129.000
10.99735 114.000
11.01730 126.000
11.03724 105.000
11.05719 101.000
11.07714 125.000
11.09708 121.000
11.11703 117.000
11.13698 103.000
11.15692 112.000
11.17687 114.000
11.19682 107.000
11.21676 117.000
11.23671 119.000
11.25666 114.000
11.27661 119.000
11.29655 128.000
11.31650 116.000
11.33645 100.000
11.35639 116.000
11.37634 110.000
11.39629 108.000
11.41623 120.000
11.43618 111.000
11.45613 109.000
11.47608 117.000
11.49602 111.000
11.51597 139.000
11.53592 119.000
11.55586 109.000
11.57581 118.000
11.59576 127.000
11.61570 124.000
11.63565 115.000
11.65560 115.000
11.67554 119.000
11.69549 105.000
11.71544 112.000
11.73539 130.000
11.75533 113.000
11.77528 133.000
11.79523 104.000
11.81517 109.000
11.83512 105.000
11.85507 102.000
11.87501 117.000
11.89496 100.000
11.91491 113.000
11.93486 118.000
11.95480 125.000
11.97475 124.000
11.99470 122.000
12.01464 122.000
12.03459 94.000
12.05454 133.000
12.07448 136.000
12.09443 112.000
12.11438 108.000
12.13432 102.000
12.15427 123.000
12.17422 132.000
12.19417 112.000
12.21411 97.000
12.23406 119.000
12.25401 107.000
12.27395 153.000
12.29390 111.000
12.31385 125.000
12.33379 110.000
12.35374 104.000
12.37369 127.000
12.39364 115.000
12.41358 98.000
12.43353 128.000
12.45348 114.000
12.47342 107.000
12.49337 115.000
12.51332 112.000
12.53326 125.000
12.55321 113.000
12.57316 105.000
12.59311 101.000
12.61305 113.000
12.63300 123.000
12.65295 119.000
12.67289 122.000
12.69284 129.000
12.71279 100.000
12.73273 110.000
12.75268 125.000
12.77263 121.000
12.79257 110.000
12.81252 125.000
12.83247 114.000
12.85242 126.000
12.87236 119.000
12.89231 119.000
12.91226 132.000
12.93220 118.000
12.95215 114.000
12.97210 127.000
12.99204 133.000
13.01199 106.000
13.03194 121.000
13.05189 114.000
13.07183 129.000
13.09178 106.000
13.11173 119.000
13.13167 119.000
13.15162 102.000
13.17157 111.000
13.19151 121.000
13.21146 118.000
13.23141 128.000
13.25135 124.000
13.27130 123.000
13.29125 129.000
13.31120 112.000
13.33114 120.000
13.35109 109.000
13.37104 109.000
13.39098 131.000
13.41093 117.000
13.43088 119.000
13.45082 124.000
13.47077 131.000
13.49072 115.000
13.51067 136.000
13.53061 125.000
13.55056 121.000
13.57051 127.000
13.59045 122.000
13.61040 105.000
13.63035 132.000
13.65029 122.000
13.67024 127.000
13.69019 101.000
13.71013 110.000
13.73008 147.000
13.75003 119.000
13.76998 115.000
13.78992 113.000
13.80987 128.000
13.82982 115.000
13.84976 141.000
13.86971 106.000
13.88966 134.000
13.90960 109.000
13.92955 115.000
13.94950 125.000
13.96945 118.000
13.98939 120.000
14.00934 105.000
14.02929 141.000
14.04923 118.000
14.06918 97.000
14.08913 136.000
14.10907 121.000
14.12902 114.000
14.14897 110.000
14.16892 140.000
14.18886 126.000
14.20881 176.000
14.22876 157.000
14.24870 165.000
14.26865 146.000
14.28860 140.000
14.30854 134.000
14.32849 134.000
14.34844 156.000
14.36838 126.000
14.38833 140.000
14.40828 107.000
14.42823 112.000
14.44817 122.000
14.46812 130.000
14.48807 145.000
14.50801 145.000
14.52796 134.000
14.54791 119.000
14.56785 134.000
14.58780 152.000
14.60775 116.000
14.62770 144.000
14.64764 131.000
14.66759 163.000
14.68754 145.000
14.70748 154.000
14.72743 169.000
14.74738 147.000
14.76732 135.000
14.78727 157.000
14.80722 140.000
14.82716 148.000
14.84711 137.000
14.86706 151.000
14.88701 139.000
14.90695 190.000
14.92690 181.000
14.94685 179.000
14.96679 175.000
14.98674 195.000
15.00669 212.000
15.02663 207.000
15.04658 211.000
15.06653 289.000
15.08648 294.000
15.10642 241.000
15.12637 239.000
15.14632 252.000
15.16626 234.000
15.18621 257.000
15.20616 268.000
15.22610 256.000
15.24605 228.000
15.26600 270.000
15.28594 304.000
15.30589 270.000
15.32584 293.000
15.34579 274.000
15.36573 312.000
15.38568 332.000
15.40563 367.000
15.42557 351.000
15.44552 414.000
15.46547 415.000
15.48541 462.000
15.50536 488.000
15.52531 589.000
15.54526 713.000
15.56520 760.000
15.58515 1055.000
15.60510 1369.000
15.62504 1972.000
15.64499 3020.000
15.66494 4934.000
15.68488 8272.000
15.70483 14447.000
15.72478 23023.000
15.74472 25299.000
15.76467 20208.000
15.78462 13952.000
15.80457 7044.000
15.82451 3245.000
15.84446 1779.000
15.86441 1031.000
15.88435 775.000
15.90430 601.000
15.92425 513.000
15.94419 420.000
15.96414 367.000
15.98409 356.000
16.00404 335.000
16.02398 317.000
16.04393 305.000
16.06388 294.000
16.08382 281.000
16.10377 275.000
16.12372 245.000
16.14366 239.000
16.16361 248.000
16.18356 212.000
16.20351 227.000
16.22345 188.000
16.24340 205.000
16.26335 195.000
16.28329 194.000
16.30324 187.000
16.32319 173.000
16.34313 189.000
16.36308 174.000
16.38303 178.000
16.40297 147.000
16.42292 176.000
16.44287 148.000
16.46282 129.000
16.48276 167.000
16.50271 168.000
16.52266 145.000
16.54260 139.000
16.56255 140.000
16.58250 153.000
16.60244 162.000
16.62239 136.000
16.64234 146.000
16.66229 137.000
16.68223 145.000
16.70218 138.000
16.72213 133.000
16.74207 124.000
16.76202 132.000
16.78197 143.000
16.80191 136.000
16.82186 131.000
16.84181 131.000
16.86175 112.000
16.88170 116.000
16.90165 108.000
16.92160 127.000
16.94154 122.000
16.96149 117.000
16.98144 126.000
17.00138 122.000
17.02133 95.000
17.04128 105.000
17.06122 116.000
17.08117 119.000
17.10112 103.000
17.12107 109.000
17.14101 113.000
17.16096 105.000
17.18091 125.000
17.20085 109.000
17.22080 126.000
17.24075 128.000
17.26069 120.000
17.28064 112.000
17.30059 107.000
17.32053 113.000
17.34048 131.000
17.36043 122.000
17.38038 125.000
17.40032 122.000
17.42027 125.000
17.44022 103.000
17.46016 136.000
17.48011 123.000
17.50006 113.000
17.52000 112.000
17.53995 98.000
17.55990 115.000
17.57985 108.000
17.59979 136.000
17.61974 122.000
17.63969 131.000
17.65963 105.000
17.67958 84.000
17.69953 112.000
17.71947 102.000
17.73942 114.000
17.75937 126.000
17.77932 107.000
17.79926 114.000
17.81921 120.000
17.83916 118.000
17.85910 108.000
17.87905 106.000
17.89900 122.000
17.91894 116.000
17.93889 110.000
17.95884 116.000
17.97878 104.000
17.99873 113.000
18.01868 105.000
18.03863 108.000
18.05857 108.000
18.07852 118.000
18.09847 118.000
18.11841 108.000
18.13836 127.000
18.15831 117.000
18.17825 99.000
18.19820 100.000
18.21815 120.000
18.23810 98.000
18.25804 106.000
18.27799 101.000
18.29794 112.000
18.31788 114.000
18.33783 112.000
18.35778 123.000
18.37772 106.000
18.39767 144.000
18.41762 98.000
18.43756 116.000
18.45751 127.000
18.47746 118.000
18.49741 128.000
18.51735 121.000
18.53730 125.000
18.55725 116.000
18.57719 123.000
18.59714 121.000
18.61709 106.000
18.63703 100.000
18.65698 111.000
18.67693 121.000
18.69688 119.000
18.71682 121.000
18.73677 111.000
18.75672 141.000
18.77666 113.000
18.79661 103.000
18.81656 114.000
18.83650 117.000
18.85645 116.000
18.87640 106.000
18.89634 113.000
18.91629 106.000
18.93624 121.000
18.95619 100.000
18.97613 114.000
18.99608 105.000
19.01603 104.000
19.03597 110.000
19.05592 114.000
19.07587 122.000
19.09581 124.000
19.11576 96.000
19.13571 131.000
19.15566 112.000
19.17560 112.000
19.19555 118.000
19.21550 128.000
19.23544 105.000
19.25539 114.000
19.27534 118.000
19.29528 131.000
19.31523 96.000
19.33518 116.000
19.35513 125.000
19.37507 99.000
19.39502 122.000
19.41497 130.000
19.43491 125.000
19.45486 113.000
19.47481 104.000
19.49475 100.000
19.51470 134.000
19.53465 123.000
19.55459 104.000
19.57454 127.000
19.59449 104.000
19.61444 104.000
19.63438 107.000
19.65433 109.000
19.67428 114.000
19.69422 100.000
19.71417 106.000
19.73412 101.000
19.75406 108.000
19.77401 98.000
19.79396 98.000
19.81391 105.000
19.83385 128.000
19.85380 117.000
19.87375 106.000
19.89369 93.000
19.91364 99.000
19.93359 116.000
19.95353 119.000
19.97348 112.000
19.99343 122.000
20.01337 124.000
20.03332 98.000
20.05327 126.000
20.07322 112.000
20.09316 103.000
20.11311 123.000
20.13306 117.000
20.15300 134.000
20.17295 119.000
20.19290 107.000
20.21284 106.000
20.23279 117.000
20.25274 102.000
20.27269 108.000
20.29263 105.000
20.31258 107.000
20.33253 102.000
20.35247 102.000
20.37242 111.000
20.39237 93.000
20.41231 110.000
20.43226 105.000
20.45221 105.000
20.47215 106.000
20.49210 114.000
20.51205 99.000
20.53200 115.000
20.55194 114.000
20.57189 106.000
20.59184 118.000
20.61178 115.000
20.63173 108.000
20.65168 115.000
20.67162 123.000
20.69157 107.000
20.71152 105.000
20.73147 125.000
20.75141 99.000
20.77136 109.000
20.79131 101.000
20.81125 97.000
20.83120 112.000
20.85115 117.000
20.87109 100.000
20.89104 108.000
20.91099 104.000
20.93094 97.000
20.95088 120.000
20.97083 114.000
20.99078 117.000
21.01072 93.000
21.03067 138.000
21.05062 106.000
21.07056 127.000
21.09051 121.000
21.11046 92.000
21.13040 120.000
21.15035 114.000
21.17030 115.000
21.19025 109.000
21.21019 124.000
21.23014 106.000
21.25009 120.000
21.27003 101.000
21.28998 124.000
21.30993 122.000
21.32987 112.000
21.34982 111.000
21.36977 94.000
21.38972 100.000
21.40966 99.000
21.42961 126.000
21.44956 115.000
21.46950 91.000
21.48945 92.000
21.50940 94.000
21.52934 108.000
21.54929 107.000
21.56924 118.000
21.58918 110.000
21.60913 123.000
21.62908 107.000
21.64903 110.000
21.66897 110.000
21.68892 92.000
21.70887 114.000
21.72881 94.000
21.74876 104.000
21.76871 121.000
21.78865 117.000
21.80860 123.000
21.82855 116.000
21.84850 93.000
21.86844 117.000
21.88839 114.000
21.90834 119.000
21.92828 134.000
21.94823 110.000
21.96818 135.000
21.98812 136.000
22.00807 145.000
22.02802 137.000
22.04796 119.000
22.06791 87.000
22.08786 130.000
22.10781 114.000
22.12775 115.000
22.14770 121.000
22.16765 108.000
22.18759 96.000
22.20754 87.000
22.22749 116.000
22.24743 126.000
22.26738 127.000
22.28733 106.000
22.30728 120.000
22.32722 106.000
22.34717 112.000
22.36712 120.000
22.38706 92.000
22.40701 114.000
22.42696 117.000
22.44690 113.000
22.46685 122.000
22.48680 97.000
22.50675 109.000
22.52669 125.000
22.54664 102.000
22.56659 110.000
22.58653 103.000
22.60648 96.000
22.62643 96.000
22.64637 130.000
22.66632 98.000
22.68627 107.000
22.70621 118.000
22.72616 127.000
22.74611 114.000
22.76606 134.000
22.78600 116.000
22.80595 109.000
22.82590 110.000
22.84584 96.000
22.86579 112.000
22.88574 112.000
22.90568 124.000
22.92563 119.000
22.94558 113.000
22.96553 121.000
22.98547 123.000
23.00542 97.000
23.02537 104.000
23.04531 98.000
23.06526 111.000
23.08521 121.000
23.10515 134.000
23.12510 113.000
23.14505 118.000
23.16499 131.000
23.18494 121.000
23.20489 134.000
23.22484 110.000
23.24478 103.000
23.26473 110.000
23.28468 112.000
23.30462 115.000
23.32457 133.000
23.34452 90.000
23.36446 102.000
23.38441 110.000
23.40436 142.000
23.42431 113.000
23.44425 116.000
23.46420 99.000
23.48415 104.000
23.50409 116.000
23.52404 116.000
23.54399 106.000
23.56393 105.000
23.58388 127.000
23.60383 111.000
23.62377 89.000
23.64372 123.000
23.66367 100.000
23.68362 116.000
23.70356 120.000
23.72351 111.000
23.74346 112.000
23.76340 122.000
23.78335 111.000
23.80330 104.000
23.82324 116.000
23.84319 112.000
23.86314 115.000
23.88309 102.000
23.90303 105.000
23.92298 122.000
23.94293 128.000
23.96287 114.000
23.98282 124.000
24.00277 119.000
24.02271 127.000
24.04266 106.000
24.06261 145.000
24.08256 120.000
24.10250 123.000
24.12245 112.000
24.14240 130.000
24.16234 111.000
24.18229 104.000
24.20224 122.000
24.22218 113.000
24.24213 100.000
24.26208 120.000
24.28202 110.000
24.30197 126.000
24.32192 113.000
24.34187 107.000
24.36181 132.000
24.38176 118.000
24.40171 116.000
24.42165 128.000
24.44160 120.000
24.46155 114.000
24.48149 137.000
24.50144 103.000
24.52139 113.000
24.54134 131.000
24.56128 120.000
24.58123 113.000
24.60118 106.000
24.62112 101.000
24.64107 119.000
24.66102 130.000
24.68096 137.000
24.70091 132.000
24.72086 114.000
24.74080 123.000
24.76075 101.000
24.78070 110.000
24.80065 114.000
24.82059 104.000
24.84054 117.000
24.86049 135.000
24.88043 121.000
24.90038 107.000
24.92033 114.000
24.94027 98.000
24.96022 141.000
24.98017 106.000
25.00012 135.000
25.02006 123.000
25.04001 137.000
25.05996 136.000
25.07990 121.000
25.09985 127.000
25.11980 121.000
25.13974 120.000
25.15969 161.000
25.17964 107.000
25.19958 106.000
25.21953 115.000
25.23948 145.000
25.25943 133.000
25.27937 127.000
25.29932 122.000
25.31927 101.000
25.33921 105.000
25.35916 122.000
25.37911 125.000
25.39905 125.000
25.41900 123.000
25.43895 124.000
25.45890 141.000
25.47884 122.000
25.49879 119.000
25.51874 140.000
25.53868 115.000
25.55863 99.000
25.57858 127.000
25.59852 126.000
25.61847 106.000
25.63842 124.000
25.65837 128.000
25.67831 138.000
25.69826 137.000
25.71821 117.000
25.73815 123.000
25.75810 140.000
25.77805 122.000
25.79799 116.000
25.81794 128.000
25.83789 133.000
25.85783 124.000
25.87778 114.000
25.89773 112.000
25.91768 143.000
25.93762 131.000
25.95757 137.000
25.97752 140.000
25.99746 140.000
26.01741 134.000
26.03736 127.000
26.05730 119.000
26.07725 129.000
26.09720 137.000
26.11715 122.000
26.13709 128.000
26.15704 109.000
26.17699 100.000
26.19693 124.000
26.21688 121.000
26.23683 117.000
26.25677 108.000
26.27672 116.000
26.29667 140.000
26.31661 105.000
26.33656 115.000
26.35651 119.000
26.37646 126.000
26.39640 101.000
26.41635 142.000
26.43630 120.000
26.45624 142.000
26.47619 117.000
26.49614 128.000
26.51608 115.000
26.53603 133.000
26.55598 143.000
26.57593 126.000
26.59587 120.000
26.61582 124.000
26.63577 142.000
26.65571 130.000
26.67566 122.000
26.69561 141.000
26.71555 145.000
26.73550 124.000
26.75545 132.000
26.77539 115.000
26.79534 106.000
26.81529 120.000
26.83524 109.000
26.85518 126.000
26.87513 115.000
26.89508 112.000
26.91502 122.000
26.93497 113.000
26.95492 96.000
26.97486 102.000
26.99481 149.000
27.01476 124.000
27.03471 118.000
27.05465 125.000
27.07460 121.000
27.09455 145.000
27.11449 133.000
27.13444 123.000
27.15439 141.000
27.17433 132.000
27.19428 120.000
27.21423 125.000
27.23417 134.000
27.25412 125.000
27.27407 125.000
27.29402 129.000
27.31396 121.000
27.33391 123.000
27.35386 129.000
27.37380 109.000
27.39375 127.000
27.41370 127.000
27.43364 108.000
27.45359 147.000
27.47354 123.000
27.49349 125.000
27.51343 133.000
27.53338 113.000
27.55333 103.000
27.57327 123.000
27.59322 138.000
27.61317 133.000
27.63311 149.000
27.65306 116.000
27.67301 107.000
27.69296 126.000
27.71290 139.000
27.73285 124.000
27.75280 118.000
27.77274 141.000
27.79269 139.000
27.81264 133.000
27.83258 118.000
27.85253 109.000
27.87248 118.000
27.89242 111.000
27.91237 126.000
27.93232 126.000
27.95227 112.000
27.97221 119.000
27.99216 109.000
28.01211 107.000
28.03205 107.000
28.05200 105.000
28.07195 118.000
28.09189 111.000
28.11184 151.000
28.13179 123.000
28.15174 116.000
28.17168 118.000
28.19163 119.000
28.21158 104.000
28.23152 135.000
28.25147 114.000
28.27142 138.000
28.29136 120.000
28.31131 121.000
28.33126 143.000
28.35120 124.000
28.37115 130.000
28.39110 124.000
28.41105 140.000
28.43099 113.000
28.45094 128.000
28.47089 110.000
28.49083 121.000
28.51078 121.000
28.53073 132.000
28.55067 98.000
28.57062 117.000
28.59057 124.000
28.61052 121.000
28.63046 111.000
28.65041 112.000
28.67036 123.000
28.69030 126.000
28.71025 105.000
28.73020 130.000
28.75014 126.000
28.77009 102.000
28.79004 118.000
28.80998 115.000
28.82993 120.000
28.84988 120.000
28.86983 132.000
28.88977 133.000
28.90972 126.000
28.92967 118.000
28.94961 121.000
28.96956 116.000
28.98951 109.000
29.00945 130.000
29.02940 132.000
29.04935 132.000
29.06930 138.000
29.08924 117.000
29.10919 117.000
29.12914 123.000
29.14908 121.000
29.16903 112.000
29.18898 123.000
29.20892 126.000
29.22887 115.000
29.24882 131.000
29.26877 130.000
29.28871 110.000
29.30866 123.000
29.32861 123.000
29.34855 109.000
29.36850 103.000
29.38845 148.000
29.40839 107.000
29.42834 136.000
29.44829 116.000
29.46823 123.000
29.48818 116.000
29.50813 123.000
29.52808 128.000
29.54802 135.000
29.56797 111.000
29.58792 139.000
29.60786 126.000
29.62781 124.000
29.64776 127.000
29.66770 134.000
29.68765 125.000
29.70760 124.000
29.72755 129.000
29.74749 132.000
29.76744 135.000
29.78739 132.000
29.80733 115.000
29.82728 138.000
29.84723 133.000
29.86717 122.000
29.88712 118.000
29.90707 130.000
29.92701 131.000
29.94696 136.000
29.96691 125.000
29.98686 112.000
30.00680 157.000
30.02675 133.000
30.04670 125.000
30.06664 128.000
30.08659 147.000
30.10654 155.000
30.12648 140.000
30.14643 141.000
30.16638 157.000
30.18633 140.000
30.20627 122.000
30.22622 124.000
30.24617 127.000
30.26611 138.000
30.28606 137.000
30.30601 135.000
30.32595 144.000
30.34590 129.000
30.36585 126.000
30.38579 144.000
30.40574 140.000
30.42569 152.000
30.44564 145.000
30.46558 146.000
30.48553 138.000
30.50548 135.000
30.52542 139.000
30.54537 130.000
30.56532 110.000
30.58526 132.000
30.60521 121.000
30.62516 127.000
30.64511 136.000
30.66505 123.000
30.68500 114.000
30.70495 111.000
30.72489 117.000
30.74484 122.000
30.76479 126.000
30.78473 134.000
30.80468 114.000
30.82463 147.000
30.84458 148.000
30.86452 135.000
30.88447 147.000
30.90442 137.000
30.92436 123.000
30.94431 122.000
30.96426 153.000
30.98420 108.000
31.00415 121.000
31.02410 155.000
31.04404 123.000
31.06399 112.000
31.08394 131.000
31.10389 127.000
31.12383 125.000
31.14378 124.000
31.16373 127.000
31.18367 118.000
31.20362 124.000
31.22357 130.000
31.24351 149.000
31.26346 140.000
31.28341 120.000
31.30336 146.000
31.32330 128.000
31.34325 145.000
31.36320 129.000
31.38314 129.000
31.40309 142.000
31.42304 134.000
31.44298 160.000
31.46293 143.000
31.48288 140.000
31.50282 158.000
31.52277 161.000
31.54272 172.000
31.56267 195.000
31.58261 179.000
31.60256 212.000
31.62251 212.000
31.64245 223.000
31.66240 266.000
31.68235 329.000
31.70229 412.000
31.72224 587.000
31.74219 1011.000
31.76214 1460.000
31.78208 1737.000
31.80203 1594.000
31.82198 1337.000
31.84192 1304.000
31.86187 1212.000
31.88182 1033.000
31.90176 717.000
31.92171 476.000
31.94166 339.000
31.96160 299.000
31.98155 234.000
32.00150 206.000
32.02145 189.000
32.04139 157.000
32.06134 156.000
32.08129 150.000
32.10123 142.000
32.12118 154.000
32.14113 128.000
32.16107 132.000
32.18102 161.000
32.20097 148.000
32.22092 135.000
32.24086 116.000
32.26081 129.000
32.28076 137.000
32.30070 138.000
32.32065 115.000
32.34060 148.000
32.36054 140.000
32.38049 138.000
32.40044 140.000
32.42039 165.000
32.44033 166.000
32.46028 164.000
32.48023 149.000
32.50017 158.000
32.52012 123.000
32.54007 137.000
32.56001 144.000
32.57996 127.000
32.59991 120.000
32.61985 129.000
32.63980 126.000
32.65975 123.000
32.67970 113.000
32.69964 125.000
32.71959 120.000
32.73954 114.000
32.75948 128.000
32.77943 121.000
32.79938 129.000
32.81932 124.000
32.83927 131.000
32.85922 143.000
32.87917 118.000
32.89911 134.000
32.91906 115.000
32.93901 110.000
32.95895 125.000
32.97890 128.000
32.99885 122.000
33.01879 131.000
33.03874 132.000
33.05869 138.000
33.07863 129.000
33.09858 132.000
33.11853 137.000
33.13848 130.000
33.15842 130.000
33.17837 115.000
33.19832 115.000
33.21826 114.000
33.23821 129.000
33.25816 131.000
33.27810 113.000
33.29805 108.000
33.31800 119.000
33.33795 125.000
33.35789 119.000
33.37784 132.000
33.39779 135.000
33.41773 125.000
33.43768 118.000
33.45763 132.000
33.47757 134.000
33.49752 140.000
33.51747 119.000
33.53741 141.000
33.55736 130.000
33.57731 116.000
33.59726 125.000
33.61720 117.000
33.63715 126.000
33.65710 115.000
33.67704 126.000
33.69699 117.000
33.71694 129.000
33.73688 117.000
33.75683 130.000
33.77678 152.000
33.79673 123.000
33.81667 144.000
33.83662 140.000
33.85657 119.000
33.87651 133.000
33.89646 120.000
33.91641 124.000
33.93635 127.000
33.95630 119.000
33.97625 128.000
33.99620 123.000
34.01614 129.000
34.03609 141.000
34.05604 135.000
34.07598 123.000
34.09593 139.000
34.11588 111.000
34.13582 137.000
34.15577 117.000
34.17572 120.000
34.19566 147.000
34.21561 145.000
34.23556 123.000
34.25551 136.000
34.27545 126.000
34.29540 119.000
34.31535 122.000
34.33529 142.000
34.35524 137.000
34.37519 128.000
34.39513 141.000
34.41508 137.000
34.43503 149.000
34.45498 149.000
34.47492 135.000
34.49487 133.000
34.51482 117.000
34.53476 128.000
34.55471 144.000
34.57466 124.000
34.59460 96.000
34.61455 149.000
34.63450 150.000
34.65444 124.000
34.67439 122.000
34.69434 138.000
34.71429 136.000
34.73423 136.000
34.75418 136.000
34.77413 124.000
34.79407 137.000
34.81402 128.000
34.83397 155.000
34.85391 135.000
34.87386 137.000
34.89381 118.000
34.91376 131.000
34.93370 157.000
34.95365 132.000
34.97360 133.000
34.99354 132.000
35.01349 127.000
35.03344 134.000
35.05338 123.000
35.07333 134.000
35.09328 118.000
35.11322 149.000
35.13317 152.000
35.15312 151.000
35.17307 162.000
35.19301 143.000
35.21296 151.000
35.23291 137.000
35.25285 142.000
35.27280 126.000
35.29275 161.000
35.31269 147.000
35.33264 163.000
35.35259 164.000
35.37254 196.000
35.39248 222.000
35.41243 250.000
35.43238 228.000
35.45232 261.000
35.47227 294.000
35.49222 384.000
35.51216 392.000
35.53211 356.000
35.55206 353.000
35.57201 345.000
35.59195 316.000
35.61190 320.000
35.63185 301.000
35.65179 240.000
35.67174 254.000
35.69169 230.000
35.71163 226.000
35.73158 241.000
35.75153 240.000
35.77147 211.000
35.79142 236.000
35.81137 277.000
35.83132 263.000
35.85126 331.000
35.87121 435.000
35.89116 602.000
35.91110 989.000
35.93105 1528.000
35.95100 1848.000
35.97094 1597.000
35.99089 1112.000
36.01084 1013.000
36.03079 1103.000
36.05073 1028.000
36.07068 764.000
36.09063 512.000
36.11057 333.000
36.13052 260.000
36.15047 234.000
36.17041 201.000
36.19036 206.000
36.21031 199.000
36.23025 172.000
36.25020 179.000
36.27015 160.000
36.29010 130.000
36.31004 156.000
36.32999 140.000
36.34994 129.000
36.36988 155.000
36.38983 145.000
36.40978 153.000
36.42972 122.000
36.44967 130.000
36.46962 154.000
36.48957 144.000
36.50951 165.000
36.52946 140.000
36.54941 128.000
36.56935 136.000
36.58930 133.000
36.60925 127.000
36.62919 156.000
36.64914 152.000
36.66909 137.000
36.68903 135.000
36.70898 119.000
36.72893 148.000
36.74888 138.000
36.76882 140.000
36.78877 154.000
36.80872 198.000
36.82866 280.000
36.84861 308.000
36.86856 272.000
36.88850 246.000
36.90845 216.000
36.92840 235.000
36.94835 222.000
36.96829 228.000
36.98824 198.000
37.00819 166.000
37.02813 144.000
37.04808 164.000
37.06803 140.000
37.08797 130.000
37.10792 138.000
37.12787 150.000
37.14781 164.000
37.16776 152.000
37.18771 149.000
37.20766 166.000
37.22760 127.000
37.24755 137.000
37.26750 147.000
37.28744 161.000
37.30739 150.000
37.32734 126.000
37.34728 151.000
37.36723 149.000
37.38718 137.000
37.40713 139.000
37.42707 147.000
37.44702 144.000
37.46697 130.000
37.48691 145.000
37.50686 146.000
37.52681 140.000
37.54675 142.000
37.56670 148.000
37.58665 150.000
37.60660 146.000
37.62654 125.000
37.64649 151.000
37.66644 134.000
37.68638 124.000
37.70633 137.000
37.72628 151.000
37.74622 164.000
37.76617 170.000
37.78612 140.000
37.80606 114.000
37.82601 149.000
37.84596 130.000
37.86591 142.000
37.88585 145.000
37.90580 156.000
37.92575 130.000
37.94569 141.000
37.96564 131.000
37.98559 134.000
38.00553 151.000
38.02548 110.000
38.04543 123.000
38.06538 154.000
38.08532 148.000
38.10527 132.000
38.12522 148.000
38.14516 134.000
38.16511 128.000
38.18506 166.000
38.20500 136.000
38.22495 132.000
38.24490 128.000
38.26484 146.000
38.28479 130.000
38.30474 141.000
38.32469 129.000
38.34463 139.000
38.36458 176.000
38.38453 127.000
38.40447 153.000
38.42442 154.000
38.44437 150.000
38.46431 147.000
38.48426 154.000
38.50421 170.000
38.52416 200.000
38.54410 194.000
38.56405 226.000
38.58400 304.000
38.60394 318.000
38.62389 363.000
38.64384 366.000
38.66378 356.000
38.68373 369.000
38.70368 308.000
38.72362 298.000
38.74357 328.000
38.76352 290.000
38.78347 275.000
38.80341 244.000
38.82336 265.000
38.84331 227.000
38.86325 209.000
38.88320 215.000
38.90315 175.000
38.92309 187.000
38.94304 228.000
38.96299 219.000
38.98294 246.000
39.00288 209.000
39.02283 206.000
39.04278 207.000
39.06272 214.000
39.08267 228.000
39.10262 213.000
39.12256 242.000
39.14251 230.000
39.16246 208.000
39.18241 230.000
39.20235 234.000
39.22230 254.000
39.24225 282.000
39.26219 335.000
39.28214 335.000
39.30209 367.000
39.32203 440.000
39.34198 467.000
39.36193 615.000
39.38187 739.000
39.40182 1076.000
39.42177 1638.000
39.44172 2520.000
39.46166 3241.000
39.48161 2875.000
39.50156 2135.000
39.52150 1857.000
39.54145 1895.000
39.56140 1946.000
39.58134 1671.000
39.60129 1156.000
39.62124 864.000
39.64119 653.000
39.66113 455.000
39.68108 404.000
39.70103 326.000
39.72097 299.000
39.74092 241.000
39.76087 245.000
39.78081 228.000
39.80076 213.000
39.82071 214.000
39.84065 191.000
39.86060 194.000
39.88055 185.000
39.90050 182.000
39.92044 184.000
39.94039 169.000
39.96034 155.000
39.98028 149.000
40.00023 152.000
40.02018 152.000
40.04012 148.000
40.06007 153.000
40.08002 144.000
40.09997 145.000
40.11991 154.000
40.13986 135.000
40.15981 115.000
40.17975 122.000
40.19970 136.000
40.21965 133.000
40.23959 160.000
40.25954 111.000
40.27949 119.000
40.29943 134.000
40.31938 152.000
40.33933 172.000
40.35928 143.000
40.37922 127.000
40.39917 132.000
40.41912 134.000
40.43906 140.000
40.45901 127.000
40.47896 132.000
40.49890 144.000
40.51885 117.000
40.53880 137.000
40.55875 108.000
40.57869 121.000
40.59864 130.000
40.61859 136.000
40.63853 107.000
40.65848 142.000
40.67843 107.000
40.69837 152.000
40.71832 131.000
40.73827 133.000
40.75822 131.000
40.77816 129.000
40.79811 134.000
40.81806 135.000
40.83800 125.000
40.85795 142.000
40.87790 125.000
40.89784 134.000
40.91779 137.000
40.93774 121.000
40.95768 127.000
40.97763 130.000
40.99758 127.000
41.01753 138.000
41.03747 122.000
41.05742 122.000
41.07737 148.000
41.09731 128.000
41.11726 121.000
41.13721 159.000
41.15715 140.000
41.17710 116.000
41.19705 128.000
41.21700 146.000
41.23694 140.000
41.25689 125.000
41.27684 120.000
41.29678 153.000
41.31673 123.000
41.33668 120.000
41.35662 121.000
41.37657 123.000
41.39652 115.000
41.41646 146.000
41.43641 125.000
41.45636 134.000
41.47631 127.000
41.49625 110.000
41.51620 134.000
41.53615 138.000
41.55609 118.000
41.57604 134.000
41.59599 114.000
41.61593 135.000
41.63588 116.000
41.65583 118.000
41.67578 129.000
41.69572 132.000
41.71567 127.000
41.73562 113.000
41.75556 120.000
41.77551 115.000
41.79546 134.000
41.81540 114.000
41.83535 122.000
41.85530 124.000
41.87524 125.000
41.89519 133.000
41.91514 134.000
41.93509 128.000
41.95503 120.000
41.97498 118.000
41.99493 120.000
42.01487 125.000
42.03482 128.000
42.05477 121.000
42.07471 105.000
42.09466 130.000
42.11461 112.000
42.13456 119.000
42.15450 116.000
42.17445 114.000
42.19440 134.000
42.21434 128.000
42.23429 125.000
42.25424 114.000
42.27418 132.000
42.29413 125.000
42.31408 137.000
42.33403 122.000
42.35397 121.000
42.37392 138.000
42.39387 115.000
42.41381 125.000
42.43376 121.000
42.45371 114.000
42.47365 125.000
42.49360 141.000
42.51355 111.000
42.53349 145.000
42.55344 141.000
42.57339 118.000
42.59334 132.000
42.61328 111.000
42.63323 152.000
42.65318 132.000
42.67312 133.000
42.69307 148.000
42.71302 132.000
42.73296 107.000
42.75291 120.000
42.77286 140.000
42.79281 115.000
42.81275 123.000
42.83270 137.000
42.85265 115.000
42.87259 149.000
42.89254 119.000
42.91249 127.000
42.93243 139.000
42.95238 119.000
42.97233 121.000
42.99227 142.000
43.01222 124.000
43.03217 139.000
43.05212 155.000
43.07206 169.000
43.09201 143.000
43.11196 154.000
43.13190 152.000
43.15185 174.000
43.17180 155.000
43.19174 167.000
43.21169 188.000
43.23164 184.000
43.25159 203.000
43.27153 179.000
43.29148 197.000
43.31143 227.000
43.33137 266.000
43.35132 226.000
43.37127 248.000
43.39121 267.000
43.41116 299.000
43.43111 377.000
43.45105 463.000
43.47100 651.000
43.49095 889.000
43.51090 1108.000
43.53084 1177.000
43.55079 945.000
43.57074 806.000
43.59068 700.000
43.61063 797.000
43.63058 756.000
43.65052 702.000
43.67047 541.000
43.69042 429.000
43.71037 357.000
43.73031 252.000
43.75026 244.000
43.77021 206.000
43.79015 209.000
43.81010 182.000
43.83005 156.000
43.84999 160.000
43.86994 162.000
43.88989 153.000
43.90984 163.000
43.92978 175.000
43.94973 129.000
43.96968 155.000
43.98962 155.000
44.00957 120.000
44.02952 149.000
44.04946 166.000
44.06941 134.000
44.08936 146.000
44.10930 142.000
44.12925 116.000
44.14920 151.000
44.16915 121.000
44.18909 124.000
44.20904 129.000
44.22899 146.000
44.24893 110.000
44.26888 135.000
44.28883 128.000
44.30877 138.000
44.32872 133.000
44.34867 124.000
44.36862 126.000
44.38856 115.000
44.40851 109.000
44.42846 109.000
44.44840 129.000
44.46835 116.000
44.48830 128.000
44.50824 128.000
44.52819 116.000
44.54814 135.000
44.56808 105.000
44.58803 137.000
44.60798 129.000
44.62793 127.000
44.64787 123.000
44.66782 130.000
44.68777 130.000
44.70771 117.000
44.72766 114.000
44.74761 119.000
44.76755 143.000
44.78750 126.000
44.80745 132.000
44.82740 125.000
44.84734 149.000
44.86729 113.000
44.88724 130.000
44.90718 125.000
44.92713 127.000
44.94708 146.000
44.96702 139.000
44.98697 131.000
45.00692 133.000
45.02686 142.000
45.04681 98.000
45.06676 103.000
45.08671 128.000
45.10665 131.000
45.12660 136.000
45.14655 141.000
45.16649 130.000
45.18644 119.000
45.20639 113.000
45.22633 110.000
45.24628 134.000
45.26623 116.000
45.28618 121.000
45.30612 139.000
45.32607 133.000
45.34602 138.000
45.36596 141.000
45.38591 137.000
45.40586 132.000
45.42580 136.000
45.44575 112.000
45.46570 141.000
45.48565 112.000
45.50559 135.000
45.52554 134.000
45.54549 139.000
45.56543 125.000
45.58538 125.000
45.60533 126.000
45.62527 102.000
45.64522 144.000
45.66517 114.000
45.68511 122.000
45.70506 104.000
45.72501 105.000
45.74496 140.000
45.76490 128.000
45.78485 118.000
45.80480 110.000
45.82474 134.000
45.84469 132.000
45.86464 120.000
45.88458 111.000
45.90453 119.000
45.92448 109.000
45.94443 118.000
45.96437 139.000
45.98432 139.000
46.00427 105.000
46.02421 129.000
46.04416 108.000
46.06411 114.000
46.08405 121.000
46.10400 111.000
46.12395 121.000
46.14389 144.000
46.16384 111.000
46.18379 119.000
46.20374 141.000
46.22368 144.000
46.24363 124.000
46.26358 147.000
46.28352 109.000
46.30347 154.000
46.32342 119.000
46.34336 129.000
46.36331 140.000
46.38326 95.000
46.40321 124.000
46.42315 158.000
46.44310 98.000
46.46305 135.000
46.48299 130.000
46.50294 132.000
46.52289 116.000
46.54283 130.000
46.56278 149.000
46.58273 130.000
46.60267 132.000
46.62262 146.000
46.64257 130.000
46.66252 110.000
46.68246 139.000
46.70241 129.000
46.72236 127.000
46.74230 143.000
46.76225 136.000
46.78220 129.000
46.80214 125.000
46.82209 139.000
46.84204 102.000
46.86199 133.000
46.88193 110.000
46.90188 117.000
46.92183 125.000
46.94177 109.000
46.96172 120.000
46.98167 134.000
47.00161 125.000
47.02156 121.000
47.04151 115.000
47.06146 128.000
47.08140 136.000
47.10135 141.000
47.12130 123.000
47.14124 114.000
47.16119 113.000
47.18114 123.000
47.20108 124.000
47.22103 136.000
47.24098 126.000
47.26092 140.000
47.28087 105.000
47.30082 130.000
47.32077 142.000
47.34071 136.000
47.36066 127.000
47.38061 126.000
47.40055 138.000
47.42050 121.000
47.44045 116.000
47.46039 136.000
47.48034 138.000
47.50029 129.000
47.52024 141.000
47.54018 127.000
47.56013 127.000
47.58008 127.000
47.60002 141.000
47.61997 136.000
47.63992 149.000
47.65986 134.000
47.67981 121.000
47.69976 119.000
47.71970 139.000
47.73965 136.000
47.75960 138.000
47.77955 147.000
47.79949 136.000
47.81944 123.000
47.83939 126.000
47.85933 148.000
47.87928 135.000
47.89923 146.000
47.91917 136.000
47.93912 139.000
47.95907 158.000
47.97902 126.000
47.99896 130.000
48.01891 155.000
48.03886 145.000
48.05880 140.000
48.07875 163.000
48.09870 144.000
48.11864 170.000
48.13859 161.000
48.15854 158.000
48.17848 129.000
48.19843 143.000
48.21838 176.000
48.23833 169.000
48.25827 163.000
48.27822 182.000
48.29817 183.000
48.31811 194.000
48.33806 195.000
48.35801 212.000
48.37795 226.000
48.39790 222.000
48.41785 238.000
48.43780 253.000
48.45774 257.000
48.47769 322.000
48.49764 357.000
48.51758 334.000
48.53753 397.000
48.55748 421.000
48.57742 471.000
48.59737 515.000
48.61732 581.000
48.63726 710.000
48.65721 939.000
48.67716 1240.000
48.69711 1723.000
48.71705 2199.000
48.73700 2585.000
48.75695 2546.000
48.77689 2158.000
48.79684 1819.000
48.81679 1534.000
48.83673 1636.000
48.85668 1632.000
48.87663 1569.000
48.89658 1387.000
48.91652 1161.000
48.93647 799.000
48.95642 660.000
48.97636 574.000
48.99631 445.000
49.01626 391.000
49.03620 365.000
49.05615 333.000
49.07610 272.000
49.09605 245.000
49.11599 219.000
49.13594 208.000
49.15589 207.000
49.17583 194.000
49.19578 182.000
49.21573 219.000
49.23567 162.000
49.25562 177.000
49.27557 159.000
49.29551 189.000
49.31546 177.000
49.33541 156.000
49.35536 149.000
49.37530 183.000
49.39525 146.000
49.41520 162.000
49.43514 139.000
49.45509 134.000
49.47504 140.000
49.49498 125.000
49.51493 121.000
49.53488 143.000
49.55483 153.000
49.57477 135.000
49.59472 126.000
49.61467 138.000
49.63461 129.000
49.65456 134.000
49.67451 144.000
49.69445 142.000
49.71440 136.000
49.73435 138.000
49.75429 117.000
49.77424 129.000
49.79419 122.000
49.81414 135.000
49.83408 138.000
49.85403 125.000
49.87398 122.000
49.89392 109.000
49.91387 138.000
49.93382 108.000
49.95376 136.000
49.97371 131.000
49.99366 116.000
50.01361 151.000
50.03355 120.000
50.05350 104.000
50.07345 129.000
50.09339 134.000
50.11334 121.000
50.13329 126.000
50.15323 140.000
50.17318 118.000
50.19313 133.000
50.21307 117.000
50.23302 141.000
50.25297 123.000
50.27292 124.000
50.29286 121.000
50.31281 113.000
50.33276 132.000
50.35270 100.000
50.37265 112.000
50.39260 118.000
50.41254 131.000
50.43249 105.000
50.45244 126.000
50.47239 114.000
50.49233 121.000
50.51228 103.000
50.53223 108.000
50.55217 126.000
50.57212 132.000
50.59207 127.000
50.61201 113.000
50.63196 138.000
50.65191 120.000
50.67186 126.000
50.69180 121.000
50.71175 125.000
50.73170 117.000
50.75164 128.000
50.77159 131.000
50.79154 118.000
50.81148 122.000
50.83143 124.000
50.85138 124.000
50.87132 129.000
50.89127 125.000
50.91122 114.000
50.93117 107.000
50.95111 108.000
50.97106 118.000
50.99101 120.000
51.01095 130.000
51.03090 110.000
51.05085 98.000
51.07079 130.000
51.09074 113.000
51.11069 128.000
51.13064 147.000
51.15058 132.000
51.17053 103.000
51.19048 102.000
51.21042 116.000
51.23037 117.000
51.25032 129.000
51.27026 122.000
51.29021 129.000
51.31016 127.000
51.33010 114.000
51.35005 116.000
51.37000 115.000
51.38995 107.000
51.40989 141.000
51.42984 105.000
51.44979 108.000
51.46973 114.000
51.48968 117.000
51.50963 121.000
51.52957 129.000
51.54952 130.000
51.56947 109.000
51.58942 101.000
51.60936 118.000
51.62931 100.000
51.64926 105.000
51.66920 101.000
51.68915 146.000
51.70910 106.000
51.72904 134.000
51.74899 94.000
51.76894 104.000
51.78888 126.000
51.80883 128.000
51.82878 107.000
51.84873 84.000
51.86867 121.000
51.88862 134.000
51.90857 116.000
51.92851 108.000
51.94846 95.000
51.96841 125.000
51.98835 121.000
52.00830 109.000
52.02825 117.000
52.04820 94.000
52.06814 115.000
52.08809 116.000
52.10804 128.000
52.12798 114.000
52.14793 109.000
52.16788 110.000
52.18782 115.000
52.20777 112.000
52.22772 106.000
52.24767 124.000
52.26761 117.000
52.28756 137.000
52.30751 113.000
52.32745 116.000
52.34740 97.000
52.36735 113.000
52.38729 104.000
52.40724 126.000
52.42719 120.000
52.44713 108.000
52.46708 101.000
52.48703 105.000
52.50698 117.000
52.52692 108.000
52.54687 102.000
52.56682 107.000
52.58676 123.000
52.60671 106.000
52.62666 118.000
52.64660 121.000
52.66655 102.000
52.68650 133.000
52.70645 104.000
52.72639 114.000
52.74634 92.000
52.76629 125.000
52.78623 109.000
52.80618 136.000
52.82613 121.000
52.84607 109.000
52.86602 114.000
52.88597 99.000
52.90591 103.000
52.92586 126.000
52.94581 121.000
52.96576 136.000
52.98570 121.000
53.00565 97.000
53.02560 129.000
53.04554 123.000
53.06549 115.000
53.08544 102.000
53.10538 102.000
53.12533 126.000
53.14528 101.000
53.16523 132.000
53.18517 123.000
53.20512 136.000
53.22507 126.000
53.24501 138.000
53.26496 113.000
53.28491 117.000
53.30485 123.000
53.32480 121.000
53.34475 131.000
53.36469 142.000
53.38464 121.000
53.40459 113.000
53.42454 135.000
53.44448 141.000
53.46443 122.000
53.48438 136.000
53.50432 103.000
53.52427 125.000
53.54422 128.000
53.56416 122.000
53.58411 111.000
53.60406 136.000
53.62401 111.000
53.64395 120.000
53.66390 132.000
53.68385 108.000
53.70379 120.000
53.72374 117.000
53.74369 110.000
53.76363 132.000
53.78358 120.000
53.80353 110.000
53.82348 90.000
53.84342 103.000
53.86337 124.000
53.88332 123.000
53.90326 140.000
53.92321 111.000
53.94316 123.000
53.96310 120.000
53.98305 111.000
54.00300 109.000
54.02294 101.000
54.04289 115.000
54.06284 109.000
54.08279 101.000
54.10273 135.000
54.12268 110.000
54.14263 116.000
54.16257 108.000
54.18252 131.000
54.20247 108.000
54.22241 112.000
54.24236 104.000
54.26231 118.000
54.28226 113.000
54.30220 109.000
54.32215 117.000
54.34210 132.000
54.36204 104.000
54.38199 104.000
54.40194 111.000
54.42188 141.000
54.44183 138.000
54.46178 130.000
54.48172 108.000
54.50167 113.000
54.52162 109.000
54.54157 112.000
54.56151 110.000
54.58146 130.000
54.60141 140.000
54.62135 101.000
54.64130 97.000
54.66125 118.000
54.68119 103.000
54.70114 119.000
54.72109 109.000
54.74104 100.000
54.76098 120.000
54.78093 137.000
54.80088 133.000
54.82082 104.000
54.84077 114.000
54.86072 103.000
54.88066 124.000
54.90061 106.000
54.92056 84.000
54.94050 116.000
54.96045 121.000
54.98040 116.000
55.00035 118.000
55.02029 111.000
55.04024 130.000
55.06019 129.000
55.08013 116.000
55.10008 111.000
55.12003 107.000
55.13997 98.000
55.15992 99.000
55.17987 115.000
55.19982 117.000
55.21976 117.000
55.23971 111.000
55.25966 111.000
55.27960 130.000
55.29955 115.000
55.31950 120.000
55.33944 114.000
55.35939 117.000
55.37934 127.000
55.39929 119.000
55.41923 125.000
55.43918 120.000
55.45913 120.000
55.47907 110.000
55.49902 89.000
55.51897 105.000
55.53891 112.000
55.55886 118.000
55.57881 108.000
55.59875 117.000
55.61870 117.000
55.63865 116.000
55.65860 105.000
55.67854 124.000
55.69849 107.000
55.71844 118.000
55.73838 102.000
55.75833 116.000
55.77828 131.000
55.79822 117.000
55.81817 117.000
55.83812 122.000
55.85807 109.000
55.87801 115.000
55.89796 122.000
55.91791 109.000
55.93785 110.000
55.95780 107.000
55.97775 114.000
55.99769 118.000
56.01764 101.000
56.03759 109.000
56.05753 116.000
56.07748 110.000
56.09743 120.000
56.11738 106.000
56.13732 117.000
56.15727 106.000
56.17722 95.000
56.19716 122.000
56.21711 119.000
56.23706 114.000
56.25700 131.000
56.27695 110.000
56.29690 135.000
56.31685 125.000
56.33679 127.000
56.35674 118.000
56.37669 106.000
56.39663 117.000
56.41658 109.000
56.43653 116.000
56.45647 144.000
56.47642 114.000
56.49637 105.000
56.51631 120.000
56.53626 123.000
56.55621 117.000
56.57616 118.000
56.59610 118.000
56.61605 118.000
56.63600 124.000
56.65594 121.000
56.67589 119.000
56.69584 124.000
56.71578 130.000
56.73573 103.000
56.75568 105.000
56.77563 127.000
56.79557 119.000
56.81552 119.000
56.83547 113.000
56.85541 124.000
56.87536 121.000
56.89531 114.000
56.91525 125.000
56.93520 133.000
56.95515 113.000
56.97510 115.000
56.99504 106.000
57.01499 114.000
57.03494 111.000
57.05488 113.000
57.07483 122.000
57.09478 116.000
57.11472 112.000
57.13467 114.000
57.15462 120.000
57.17456 154.000
57.19451 130.000
57.21446 141.000
57.23441 117.000
57.25435 119.000
57.27430 111.000
57.29425 96.000
57.31419 127.000
57.33414 129.000
57.35409 138.000
57.37403 130.000
57.39398 117.000
57.41393 114.000
57.43388 106.000
57.45382 114.000
57.47377 117.000
57.49372 108.000
57.51366 132.000
57.53361 141.000
57.55356 118.000
57.57350 127.000
57.59345 123.000
57.61340 132.000
57.63334 144.000
57.65329 116.000
57.67324 116.000
57.69319 126.000
57.71313 112.000
57.73308 138.000
57.75303 120.000
57.77297 121.000
57.79292 108.000
57.81287 135.000
57.83281 117.000
57.85276 102.000
57.87271 118.000
57.89266 102.000
57.91260 119.000
57.93255 125.000
57.95250 109.000
57.97244 116.000
57.99239 126.000
58.01234 141.000
58.03228 112.000
58.05223 115.000
58.07218 141.000
58.09212 109.000
58.11207 119.000
58.13202 154.000
58.15197 131.000
58.17191 119.000
58.19186 125.000
58.21181 141.000
58.23175 150.000
58.25170 120.000
58.27165 130.000
58.29159 132.000
58.31154 142.000
58.33149 142.000
58.35144 143.000
58.37138 131.000
58.39133 110.000
58.41128 129.000
58.43122 141.000
58.45117 120.000
58.47112 112.000
58.49106 126.000
58.51101 125.000
58.53096 115.000
58.55090 100.000
58.57085 125.000
58.59080 107.000
58.61075 131.000
58.63069 116.000
58.65064 117.000
58.67059 123.000
58.69053 118.000
58.71048 126.000
58.73043 131.000
58.75037 113.000
58.77032 115.000
58.79027 124.000
58.81022 108.000
58.83016 126.000
58.85011 106.000
58.87006 115.000
58.89000 143.000
58.90995 110.000
58.92990 134.000
58.94984 125.000
58.96979 143.000
58.98974 104.000
59.00969 127.000
59.02963 132.000
59.04958 104.000
59.06953 133.000
59.08947 82.000
59.10942 131.000
59.12937 115.000
59.14931 134.000
59.16926 125.000
59.18921 106.000
59.20915 130.000
59.22910 126.000
59.24905 129.000
59.26900 145.000
59.28894 111.000
59.30889 113.000
59.32884 120.000
59.34878 119.000
59.36873 135.000
59.38868 109.000
59.40862 117.000
59.42857 121.000
59.44852 104.000
59.46847 116.000
59.48841 111.000
59.50836 111.000
59.52831 121.000
59.54825 125.000
59.56820 116.000
59.58815 138.000
59.60809 124.000
59.62804 130.000
59.64799 113.000
59.66793 124.000
59.68788 107.000
59.70783 115.000
59.72778 126.000
59.74772 122.000
59.76767 104.000
59.78762 119.000
59.80756 113.000
59.82751 132.000
59.84746 123.000
59.86740 121.000
59.88735 133.000
59.90730 101.000
59.92725 120.000
59.94719 111.000
59.96714 135.000
59.98709 117.000
60.00703 121.000
60.02698 125.000
60.04693 113.000
60.06687 119.000
60.08682 121.000
60.10677 126.000
60.12671 122.000
60.14666 129.000
60.16661 116.000
60.18656 140.000
60.20650 118.000
60.22645 127.000
60.24640 104.000
60.26634 132.000
60.28629 136.000
60.30624 120.000
60.32618 100.000
60.34613 129.000
60.36608 107.000
60.38603 122.000
60.40597 129.000
60.42592 116.000
60.44587 154.000
60.46581 146.000
60.48576 113.000
60.50571 107.000
60.52565 136.000
60.54560 143.000
60.56555 133.000
60.58550 129.000
60.60544 132.000
60.62539 130.000
60.64534 111.000
60.66528 107.000
60.68523 108.000
60.70518 117.000
60.72512 125.000
60.74507 120.000
60.76502 121.000
60.78496 122.000
60.80491 152.000
60.82486 144.000
60.84481 135.000
60.86475 136.000
60.88470 148.000
60.90465 122.000
60.92459 115.000
60.94454 131.000
60.96449 113.000
60.98443 124.000
61.00438 133.000
61.02433 122.000
61.04428 150.000
61.06422 128.000
61.08417 122.000
61.10412 136.000
61.12406 138.000
61.14401 111.000
61.16396 136.000
61.18390 124.000
61.20385 130.000
61.22380 143.000
61.24374 144.000
61.26369 140.000
61.28364 126.000
61.30359 148.000
61.32353 146.000
61.34348 137.000
61.36343 157.000
61.38337 161.000
61.40332 173.000
61.42327 178.000
61.44321 170.000
61.46316 173.000
61.48311 189.000
61.50306 196.000
61.52300 233.000
61.54295 259.000
61.56290 256.000
61.58284 244.000
61.60279 253.000
61.62274 265.000
61.64268 268.000
61.66263 296.000
61.68258 348.000
61.70252 356.000
61.72247 399.000
61.74242 441.000
61.76237 557.000
61.78231 664.000
61.80226 795.000
61.82221 910.000
61.84215 1068.000
61.86210 954.000
61.88205 880.000
61.90199 774.000
61.92194 738.000
61.94189 692.000
61.96184 662.000
61.98178 650.000
62.00173 739.000
62.02168 648.000
62.04162 577.000
62.06157 532.000
62.08152 401.000
62.10146 367.000
62.12141 318.000
62.14136 305.000
62.16131 261.000
62.18125 247.000
62.20120 236.000
62.22115 211.000
62.24109 185.000
62.26104 182.000
62.28099 157.000
62.30093 152.000
62.32088 154.000
62.34083 169.000
62.36077 137.000
62.38072 155.000
62.40067 147.000
62.42062 136.000
62.44056 131.000
62.46051 151.000
62.48046 136.000
62.50040 144.000
62.52035 128.000
62.54030 136.000
62.56024 145.000
62.58019 130.000
62.60014 131.000
62.62009 149.000
62.64003 152.000
62.65998 146.000
62.67993 160.000
62.69987 165.000
62.71982 151.000
62.73977 134.000
62.75971 136.000
62.77966 148.000
62.79961 146.000
62.81955 129.000
62.83950 149.000
62.85945 149.000
62.87940 148.000
62.89934 133.000
62.91929 126.000
62.93924 137.000
62.95918 144.000
62.97913 123.000
62.99908 130.000
63.01902 134.000
63.03897 125.000
63.05892 120.000
63.07887 129.000
63.09881 118.000
63.11876 118.000
63.13871 123.000
63.15865 119.000
63.17860 143.000
63.19855 141.000
63.21849 115.000
63.23844 134.000
63.25839 148.000
63.27833 146.000
63.29828 135.000
63.31823 130.000
63.33818 141.000
63.35812 121.000
63.37807 138.000
63.39802 124.000
63.41796 130.000
63.43791 138.000
63.45786 132.000
63.47780 133.000
63.49775 113.000
63.51770 118.000
63.53765 125.000
63.55759 125.000
63.57754 116.000
63.59749 134.000
63.61743 126.000
63.63738 109.000
63.65733 110.000
63.67727 125.000
63.69722 132.000
63.71717 133.000
63.73712 141.000
63.75706 125.000
63.77701 132.000
63.79696 131.000
63.81690 119.000
63.83685 148.000
63.85680 142.000
63.87674 134.000
63.89669 130.000
63.91664 138.000
63.93658 121.000
63.95653 129.000
63.97648 135.000
63.99643 128.000
64.01637 125.000
64.03632 141.000
64.05627 122.000
64.07621 137.000
64.09616 108.000
64.11611 127.000
64.13605 148.000
64.15600 132.000
64.17595 135.000
64.19590 150.000
64.21584 151.000
64.23579 117.000
64.25574 140.000
64.27568 166.000
64.29563 147.000
64.31558 158.000
64.33552 177.000
64.35547 163.000
64.37542 175.000
64.39536 167.000
64.41531 186.000
64.43526 191.000
64.45521 183.000
64.47515 177.000
64.49510 246.000
64.51505 258.000
64.53499 353.000
64.55494 412.000
64.57489 522.000
64.59483 717.000
64.61478 942.000
64.63473 975.000
64.65468 787.000
64.67462 692.000
64.69457 532.000
64.71452 458.000
64.73446 447.000
64.75441 422.000
64.77436 500.000
64.79430 549.000
64.81425 563.000
64.83420 512.000
64.85414 393.000
64.87409 301.000
64.89404 273.000
64.91399 229.000
64.93393 215.000
64.95388 182.000
64.97383 173.000
64.99377 154.000
65.01372 174.000
65.03367 143.000
65.05361 126.000
65.07356 167.000
65.09351 152.000
65.11346 159.000
65.13340 159.000
65.15335 146.000
65.17330 130.000
65.19324 131.000
65.21319 141.000
65.23314 150.000
65.25308 151.000
65.27303 120.000
65.29298 127.000
65.31293 143.000
65.33287 143.000
65.35282 134.000
65.37277 144.000
65.39271 137.000
65.41266 131.000
65.43261 128.000
65.45255 116.000
65.47250 124.000
65.49245 135.000
65.51239 124.000
65.53234 162.000
65.55229 151.000
65.57224 129.000
65.59218 133.000
65.61213 160.000
65.63208 148.000
65.65202 143.000
65.67197 114.000
65.69192 117.000
65.71186 134.000
65.73181 142.000
65.75176 148.000
65.77171 145.000
65.79165 129.000
65.81160 113.000
65.83155 117.000
65.85149 118.000
65.87144 122.000
65.89139 127.000
65.91133 148.000
65.93128 147.000
65.95123 150.000
65.97117 144.000
65.99112 142.000
66.01107 133.000
66.03102 137.000
66.05096 134.000
66.07091 142.000
66.09086 131.000
66.11080 128.000
66.13075 153.000
66.15070 148.000
66.17064 139.000
66.19059 156.000
66.21054 145.000
66.23049 153.000
66.25043 162.000
66.27038 170.000
66.29033 194.000
66.31027 199.000
66.33022 191.000
66.35017 242.000
66.37011 285.000
66.39006 279.000
66.41001 265.000
66.42995 288.000
66.44990 288.000
66.46985 274.000
66.48980 221.000
66.50974 236.000
66.52969 233.000
66.54964 227.000
66.56958 219.000
66.58953 213.000
66.60948 230.000
66.62942 211.000
66.64937 207.000
66.66932 208.000
66.68927 200.000
66.70921 190.000
66.72916 188.000
66.74911 186.000
66.76905 191.000
66.78900 200.000
66.80895 187.000
66.82889 217.000
66.84884 222.000
66.86879 215.000
66.88874 298.000
66.90868 344.000
66.92863 404.000
66.94858 528.000
66.96852 625.000
66.98847 677.000
67.00842 620.000
67.02836 499.000
67.04831 396.000
67.06826 379.000
67.08820 341.000
67.10815 333.000
67.12810 380.000
67.14805 413.000
67.16799 393.000
67.18794 373.000
67.20789 340.000
67.22783 277.000
67.24778 213.000
67.26773 214.000
67.28767 180.000
67.30762 196.000
67.32757 169.000
67.34752 172.000
67.36746 164.000
67.38741 138.000
67.40736 155.000
67.42730 154.000
67.44725 131.000
67.46720 161.000
67.48714 146.000
67.50709 128.000
67.52704 138.000
67.54698 120.000
67.56693 157.000
67.58688 137.000
67.60683 128.000
67.62677 134.000
67.64672 125.000
67.66667 116.000
67.68661 128.000
67.70656 157.000
67.72651 130.000
67.74645 137.000
67.76640 122.000
67.78635 136.000
67.80630 162.000
67.82624 142.000
67.84619 149.000
67.86614 144.000
67.88608 144.000
67.90603 163.000
67.92598 138.000
67.94592 144.000
67.96587 157.000
67.98582 159.000
68.00576 160.000
68.02571 148.000
68.04566 128.000
68.06561 139.000
68.08555 147.000
68.10550 150.000
68.12545 129.000
68.14539 143.000
68.16534 121.000
68.18529 139.000
68.20523 136.000
68.22518 121.000
68.24513 123.000
68.26508 124.000
68.28502 135.000
68.30497 125.000
68.32492 112.000
68.34486 131.000
68.36481 120.000
68.38476 120.000
68.40470 128.000
68.42465 112.000
68.44460 136.000
68.46455 101.000
68.48449 112.000
68.50444 139.000
68.52439 102.000
68.54433 105.000
68.56428 120.000
68.58423 115.000
68.60417 118.000
68.62412 116.000
68.64407 118.000
68.66401 137.000
68.68396 113.000
68.70391 119.000
68.72386 123.000
68.74380 111.000
68.76375 98.000
68.78370 124.000
68.80364 114.000
68.82359 128.000
68.84354 136.000
68.86348 128.000
68.88343 136.000
68.90338 111.000
68.92333 110.000
68.94327 94.000
68.96322 120.000
68.98317 126.000
69.00311 124.000
69.02306 135.000
69.04301 143.000
69.06295 108.000
69.08290 131.000
69.10285 113.000
69.12279 129.000
69.14274 108.000
69.16269 118.000
69.18264 111.000
69.20258 119.000
69.22253 117.000
69.24248 116.000
69.26242 130.000
69.28237 120.000
69.30232 120.000
69.32226 102.000
69.34221 114.000
69.36216 136.000
69.38211 109.000
69.40205 107.000
69.42200 127.000
69.44195 105.000
69.46189 139.000
69.48184 129.000
69.50179 148.000
69.52173 126.000
69.54168 143.000
69.56163 135.000
69.58157 126.000
69.60152 118.000
69.62147 134.000
69.64142 130.000
69.66136 112.000
69.68131 98.000
69.70126 134.000
69.72120 113.000
69.74115 113.000
69.76110 127.000
69.78104 136.000
69.80099 116.000
69.82094 91.000
69.84089 127.000
69.86083 105.000
69.88078 113.000
69.90073 122.000
69.92067 126.000
69.94062 119.000
69.96057 131.000
69.98051 88.000
70.00046 137.000
70.02041 101.000
70.04035 118.000
70.06030 123.000
70.08025 105.000
70.10020 123.000
70.12014 121.000
70.14009 131.000
70.16004 133.000
70.17998 125.000
70.19993 106.000
70.21988 91.000
70.23982 114.000
70.25977 111.000
70.27972 117.000
70.29967 117.000
70.31961 103.000
70.33956 115.000
70.35951 111.000
70.37945 111.000
70.39940 119.000
70.41935 110.000
70.43929 118.000
70.45924 120.000
70.47919 99.000
70.49914 92.000
70.51908 121.000
70.53903 103.000
70.55898 94.000
70.57892 110.000
70.59887 101.000
70.61882 118.000
70.63876 131.000
70.65871 125.000
70.67866 129.000
70.69860 128.000
70.71855 120.000
70.73850 106.000
70.75845 115.000
70.77839 126.000
70.79834 109.000
70.81829 120.000
70.83823 113.000
70.85818 111.000
70.87813 122.000
70.89807 110.000
70.91802 121.000
70.93797 100.000
70.95792 113.000
70.97786 130.000
70.99781 93.000
71.01776 114.000
71.03770 101.000
71.05765 123.000
71.07760 117.000
71.09754 107.000
71.11749 127.000
71.13744 105.000
71.15738 116.000
71.17733 101.000
71.19728 126.000
71.21723 114.000
71.23717 107.000
71.25712 132.000
71.27707 112.000
71.29701 111.000
71.31696 117.000
71.33691 115.000
71.35685 114.000
71.37680 111.000
71.39675 114.000
71.41670 104.000
71.43664 112.000
71.45659 102.000
71.47654 123.000
71.49648 93.000
71.51643 114.000
71.53638 121.000
71.55632 118.000
71.57627 114.000
71.59622 114.000
71.61616 100.000
71.63611 124.000
71.65606 101.000
71.67601 116.000
71.69595 118.000
71.71590 110.000
71.73585 112.000
71.75579 112.000
71.77574 130.000
71.79569 120.000
71.81563 104.000
71.83558 119.000
71.85553 94.000
71.87548 103.000
71.89542 121.000
71.91537 105.000
71.93532 92.000
71.95526 111.000
71.97521 110.000
71.99516 113.000
72.01510 136.000
72.03505 124.000
72.05500 118.000
72.07495 111.000
72.09489 107.000
72.11484 113.000
72.13479 140.000
72.15473 127.000
72.17468 115.000
72.19463 112.000
72.21457 111.000
72.23452 142.000
72.25447 118.000
72.27441 108.000
72.29436 129.000
72.31431 100.000
72.33426 108.000
72.35420 115.000
72.37415 112.000
72.39410 146.000
72.41404 124.000
72.43399 117.000
72.45394 113.000
72.47388 129.000
72.49383 116.000
72.51378 124.000
72.53373 116.000
72.55367 116.000
72.57362 117.000
72.59357 122.000
72.61351 112.000
72.63346 102.000
72.65341 130.000
72.67335 133.000
72.69330 123.000
72.71325 102.000
72.73319 130.000
72.75314 103.000
72.77309 126.000
72.79304 122.000
72.81298 117.000
72.83293 112.000
72.85288 114.000
72.87282 99.000
72.89277 104.000
72.91272 104.000
72.93266 127.000
72.95261 114.000
72.97256 121.000
72.99251 101.000
73.01245 114.000
73.03240 116.000
73.05235 111.000
73.07229 132.000
73.09224 122.000
73.11219 127.000
73.13213 117.000
73.15208 136.000
73.17203 129.000
73.19197 111.000
73.21192 121.000
73.23187 121.000
73.25182 106.000
73.27176 119.000
73.29171 118.000
73.31166 131.000
73.33160 105.000
73.35155 99.000
73.37150 127.000
73.39144 125.000
73.41139 103.000
73.43134 131.000
73.45129 114.000
73.47123 114.000
73.49118 117.000
73.51113 139.000
73.53107 142.000
73.55102 147.000
73.57097 127.000
73.59091 149.000
73.61086 138.000
73.63081 123.000
73.65076 136.000
73.67070 151.000
73.69065 115.000
73.71060 159.000
73.73054 184.000
73.75049 192.000
73.77044 238.000
73.79038 251.000
73.81033 286.000
73.83028 360.000
73.85022 332.000
73.87017 291.000
73.89012 247.000
73.91007 225.000
73.93001 231.000
73.94996 225.000
73.96991 176.000
73.98985 197.000
74.00980 221.000
74.02975 245.000
74.04969 230.000
74.06964 219.000
74.08959 202.000
74.10954 175.000
74.12948 191.000
74.14943 156.000
74.16938 137.000
74.18932 133.000
74.20927 146.000
74.22922 131.000
74.24916 123.000
74.26911 116.000
74.28906 106.000
74.30900 136.000
74.32895 133.000
74.34890 138.000
74.36885 104.000
74.38879 114.000
74.40874 131.000
74.42869 123.000
74.44863 120.000
74.46858 97.000
74.48853 120.000
74.50847 123.000
74.52842 115.000
74.54837 121.000
74.56832 118.000
74.58826 121.000
74.60821 116.000
74.62816 129.000
74.64810 114.000
74.66805 102.000
74.68800 119.000
74.70794 127.000
74.72789 122.000
74.74784 101.000
74.76778 121.000
74.78773 113.000
74.80768 158.000
74.82763 131.000
74.84757 124.000
74.86752 153.000
74.88747 117.000
74.90741 131.000
74.92736 119.000
74.94731 145.000
74.96725 146.000
74.98720 104.000
75.00715 133.000
75.02710 133.000
75.04704 132.000
75.06699 138.000
75.08694 124.000
75.10688 139.000
75.12683 107.000
75.14678 124.000
75.16672 134.000
75.18667 140.000
75.20662 140.000
75.22657 124.000
75.24651 122.000
75.26646 128.000
75.28641 128.000
75.30635 129.000
75.32630 124.000
75.34625 126.000
75.36619 120.000
75.38614 109.000
75.40609 105.000
75.42603 127.000
75.44598 112.000
75.46593 117.000
75.48588 115.000
75.50582 111.000
75.52577 110.000
75.54572 96.000
75.56566 127.000
75.58561 119.000
75.60556 115.000
75.62550 105.000
75.64545 98.000
75.66540 122.000
75.68535 114.000
75.70529 127.000
75.72524 123.000
75.74519 132.000
75.76513 105.000
75.78508 126.000
75.80503 92.000
75.82497 141.000
75.84492 104.000
75.86487 109.000
75.88481 116.000
75.90476 112.000
75.92471 118.000
75.94466 115.000
75.96460 142.000
75.98455 116.000
76.00450 131.000
76.02444 128.000
76.04439 138.000
76.06434 104.000
76.08428 113.000
76.10423 121.000
76.12418 128.000
76.14413 142.000
76.16407 149.000
76.18402 167.000
76.20397 192.000
76.22391 184.000
76.24386 203.000
76.26381 186.000
76.28375 170.000
76.30370 164.000
76.32365 165.000
76.34359 143.000
76.36354 136.000
76.38349 162.000
76.40344 171.000
76.42338 154.000
76.44333 160.000
76.46328 176.000
76.48322 167.000
76.50317 153.000
76.52312 136.000
76.54306 139.000
76.56301 133.000
76.58296 134.000
76.60291 124.000
76.62285 124.000
76.64280 120.000
76.66275 139.000
76.68269 125.000
76.70264 113.000
76.72259 124.000
76.74253 114.000
76.76248 122.000
76.78243 142.000
76.80238 135.000
76.82232 131.000
76.84227 117.000
76.86222 131.000
76.88216 115.000
76.90211 122.000
76.92206 127.000
76.94200 116.000
76.96195 114.000
76.98190 102.000
77.00184 118.000
77.02179 121.000
77.04174 137.000
77.06169 122.000
77.08163 109.000
77.10158 127.000
77.12153 122.000
77.14147 124.000
77.16142 104.000
77.18137 123.000
77.20131 111.000
77.22126 129.000
77.24121 142.000
77.26116 115.000
77.28110 134.000
77.30105 89.000
77.32100 122.000
77.34094 126.000
77.36089 126.000
77.38084 135.000
77.40078 126.000
77.42073 114.000
77.44068 122.000
77.46062 116.000
77.48057 126.000
77.50052 136.000
77.52047 124.000
77.54041 120.000
77.56036 120.000
77.58031 137.000
77.60025 142.000
77.62020 127.000
77.64015 150.000
77.66009 143.000
77.68004 136.000
77.69999 154.000
77.71994 138.000
77.73988 195.000
77.75983 181.000
77.77978 197.000
77.79972 210.000
77.81967 239.000
77.83962 264.000
77.85956 256.000
77.87951 295.000
77.89946 358.000
77.91940 329.000
77.93935 335.000
77.95930 330.000
77.97925 279.000
77.99919 277.000
78.01914 274.000
78.03909 265.000
78.05903 259.000
78.07898 268.000
78.09893 269.000
78.11887 292.000
78.13882 282.000
78.15877 268.000
78.17872 295.000
78.19866 222.000
78.21861 246.000
78.23856 226.000
78.25850 236.000
78.27845 205.000
78.29840 204.000
78.31834 209.000
78.33829 232.000
78.35824 193.000
78.37819 268.000
78.39813 296.000
78.41808 331.000
78.43803 315.000
78.45797 336.000
78.47792 255.000
78.49787 264.000
78.51781 229.000
78.53776 211.000
78.55771 211.000
78.57765 198.000
78.59760 201.000
78.61755 218.000
78.63750 219.000
78.65744 231.000
78.67739 236.000
78.69734 205.000
78.71728 196.000
78.73723 174.000
78.75718 147.000
78.77712 155.000
78.79707 145.000
78.81702 139.000
78.83697 136.000
78.85691 120.000
78.87686 133.000
78.89681 130.000
78.91675 120.000
78.93670 129.000
78.95665 125.000
78.97659 114.000
78.99654 133.000
79.01649 110.000
79.03643 127.000
79.05638 111.000
79.07633 138.000
79.09628 130.000
79.11622 99.000
79.13617 117.000
79.15612 135.000
79.17606 107.000
79.19601 112.000
79.21596 114.000
79.23590 112.000
79.25585 108.000
79.27580 138.000
79.29575 130.000
79.31569 120.000
79.33564 103.000
79.35559 120.000
79.37553 107.000
79.39548 108.000
79.41543 127.000
79.43537 113.000
79.45532 102.000
79.47527 103.000
79.49521 98.000
79.51516 128.000
79.53511 112.000
79.55506 110.000
79.57500 131.000
79.59495 125.000
79.61490 104.000
79.63484 114.000
79.65479 108.000
79.67474 106.000
79.69468 128.000
79.71463 111.000
79.73458 115.000
79.75453 111.000
79.77447 107.000
79.79442 101.000
79.81437 84.000
79.83431 105.000
79.85426 114.000
79.87421 111.000
79.89415 126.000
79.91410 100.000
79.93405 113.000
79.95399 124.000
79.97394 136.000
79.99389 125.000
80.01384 129.000
80.03378 107.000
80.05373 115.000
80.07368 99.000
80.09362 110.000
80.11357 116.000
80.13352 105.000
80.15346 115.000
80.17341 103.000
80.19336 128.000
80.21331 117.000
80.23325 108.000
80.25320 117.000
80.27315 133.000
80.29309 129.000
80.31304 119.000
80.33299 107.000
80.35293 111.000
80.37288 117.000
80.39283 116.000
80.41278 126.000
80.43272 111.000
80.45267 145.000
80.47262 116.000
80.49256 106.000
80.51251 97.000
80.53246 128.000
80.55240 112.000
80.57235 123.000
80.59230 119.000
80.61224 109.000
80.63219 113.000
80.65214 130.000
80.67209 85.000
80.69203 135.000
80.71198 116.000
80.73193 122.000
80.75187 125.000
80.77182 121.000
80.79177 112.000
80.81171 115.000
80.83166 118.000
80.85161 108.000
80.87156 125.000
80.89150 108.000
80.91145 108.000
80.93140 117.000
80.95134 126.000
80.97129 121.000
80.99124 120.000
81.01118 113.000
81.03113 120.000
81.05108 112.000
81.07102 127.000
81.09097 124.000
81.11092 164.000
81.13087 151.000
81.15081 138.000
81.17076 144.000
81.19071 168.000
81.21065 153.000
81.23060 154.000
81.25055 131.000
81.27049 126.000
81.29044 122.000
81.31039 103.000
81.33034 123.000
81.35028 135.000
81.37023 151.000
81.39018 127.000
81.41012 126.000
81.43007 112.000
81.45002 113.000
81.46996 124.000
81.48991 112.000
81.50986 133.000
81.52980 123.000
81.54975 105.000
81.56970 108.000
81.58965 110.000
81.60959 119.000
81.62954 104.000
81.64949 123.000
81.66943 107.000
81.68938 105.000
81.70933 110.000
81.72927 122.000
81.74922 111.000
81.76917 109.000
81.78912 122.000
81.80906 116.000
81.82901 107.000
81.84896 131.000
81.86890 124.000
81.88885 98.000
81.90880 111.000
81.92874 130.000
81.94869 136.000
81.96864 113.000
81.98859 97.000
82.00853 105.000
82.02848 113.000
82.04843 112.000
82.06837 126.000
82.08832 100.000
82.10827 130.000
82.12821 113.000
82.14816 101.000
82.16811 123.000
82.18805 104.000
82.20800 126.000
82.22795 107.000
82.24790 121.000
82.26784 108.000
82.28779 111.000
82.30774 122.000
82.32768 113.000
82.34763 99.000
82.36758 117.000
82.38752 109.000
82.40747 147.000
82.42742 101.000
82.44737 102.000
82.46731 124.000
82.48726 149.000
82.50721 109.000
82.52715 125.000
82.54710 109.000
82.56705 122.000
82.58699 127.000
82.60694 119.000
82.62689 110.000
82.64683 123.000
82.66678 106.000
82.68673 120.000
82.70668 122.000
82.72662 121.000
82.74657 109.000
82.76652 133.000
82.78646 130.000
82.80641 125.000
82.82636 135.000
82.84630 109.000
82.86625 102.000
82.88620 116.000
82.90615 111.000
82.92609 138.000
82.94604 111.000
82.96599 109.000
82.98593 129.000
83.00588 141.000
83.02583 103.000
83.04577 78.000
83.06572 104.000
83.08567 113.000
83.10561 103.000
83.12556 125.000
83.14551 115.000
83.16546 125.000
83.18540 117.000
83.20535 127.000
83.22530 135.000
83.24524 107.000
83.26519 105.000
83.28514 126.000
83.30508 132.000
83.32503 101.000
83.34498 115.000
83.36493 135.000
83.38487 114.000
83.40482 117.000
83.42477 120.000
83.44471 106.000
83.46466 90.000
83.48461 123.000
83.50455 108.000
83.52450 113.000
83.54445 123.000
83.56440 110.000
83.58434 103.000
83.60429 113.000
83.62424 110.000
83.64418 113.000
83.66413 119.000
83.68408 114.000
83.70402 110.000
83.72397 115.000
83.74392 105.000
83.76386 119.000
83.78381 122.000
83.80376 120.000
83.82371 119.000
83.84365 102.000
83.86360 106.000
83.88355 129.000
83.90349 134.000
83.92344 122.000
83.94339 111.000
83.96333 110.000
83.98328 116.000
84.00323 102.000
84.02318 111.000
84.04312 133.000
84.06307 100.000
84.08302 112.000
84.10296 115.000
84.12291 95.000
84.14286 109.000
84.16280 111.000
84.18275 112.000
84.20270 103.000
84.22264 108.000
84.24259 119.000
84.26254 126.000
84.28249 103.000
84.30243 121.000
84.32238 122.000
84.34233 117.000
84.36227 106.000
84.38222 108.000
84.40217 111.000
84.42211 126.000
84.44206 120.000
84.46201 108.000
84.48196 120.000
84.50190 130.000
84.52185 114.000
84.54180 130.000
84.56174 134.000
84.58169 134.000
84.60164 141.000
84.62158 119.000
84.64153 147.000
84.66148 171.000
84.68142 154.000
84.70137 169.000
84.72132 146.000
84.74127 158.000
84.76121 196.000
84.78116 174.000
84.80111 199.000
84.82105 206.000
84.84100 209.000
84.86095 234.000
84.88089 240.000
84.90084 258.000
84.92079 290.000
84.94074 326.000
84.96068 313.000
84.98063 307.000
85.00058 294.000
85.02052 281.000
85.04047 257.000
85.06042 245.000
85.08036 193.000
85.10031 204.000
85.12026 223.000
85.14021 235.000
85.16015 240.000
85.18010 211.000
85.20005 244.000
85.21999 223.000
85.23994 222.000
85.25989 208.000
85.27983 187.000
85.29978 171.000
85.31973 183.000
85.33967 155.000
85.35962 159.000
85.37957 141.000
85.39952 136.000
85.41946 127.000
85.43941 124.000
85.45936 148.000
85.47930 122.000
85.49925 133.000
85.51920 131.000
85.53914 113.000
85.55909 142.000
85.57904 127.000
85.59899 127.000
85.61893 117.000
85.63888 112.000
85.65883 101.000
85.67877 116.000
85.69872 118.000
85.71867 113.000
85.73861 126.000
85.75856 118.000
85.77851 97.000
85.79845 122.000
85.81840 115.000
85.83835 120.000
85.85830 125.000
85.87824 121.000
85.89819 130.000
85.91814 122.000
85.93808 124.000
85.95803 127.000
85.97798 115.000
85.99792 121.000
86.01787 99.000
86.03782 109.000
86.05777 126.000
86.07771 100.000
86.09766 117.000
86.11761 104.000
86.13755 120.000
86.15750 116.000
86.17745 120.000
86.19739 124.000
86.21734 116.000
86.23729 136.000
86.25723 138.000
86.27718 131.000
86.29713 131.000
86.31708 122.000
86.33702 132.000
86.35697 156.000
86.37692 149.000
86.39686 147.000
86.41681 176.000
86.43676 152.000
86.45670 142.000
86.47665 141.000
86.49660 139.000
86.51655 144.000
86.53649 137.000
86.55644 143.000
86.57639 128.000
86.59633 152.000
86.61628 127.000
86.63623 135.000
86.65617 141.000
86.67612 125.000
86.69607 142.000
86.71602 128.000
86.73596 146.000
86.75591 126.000
86.77586 130.000
86.79580 110.000
86.81575 135.000
86.83570 122.000
86.85564 137.000
86.87559 115.000
86.89554 118.000
86.91548 128.000
86.93543 123.000
86.95538 132.000
86.97533 121.000
86.99527 124.000
87.01522 120.000
87.03517 100.000
87.05511 124.000
87.07506 118.000
87.09501 138.000
87.11495 134.000
87.13490 138.000
87.15485 136.000
87.17480 148.000
87.19474 125.000
87.21469 136.000
87.23464 133.000
87.25458 145.000
87.27453 121.000
87.29448 128.000
87.31442 117.000
87.33437 131.000
87.35432 137.000
87.37426 118.000
87.39421 125.000
87.41416 131.000
87.43411 115.000
87.45405 127.000
87.47400 132.000
87.49395 128.000
87.51389 117.000
87.53384 133.000
87.55379 143.000
87.57373 118.000
87.59368 115.000
87.61363 122.000
87.63358 128.000
87.65352 118.000
87.67347 115.000
87.69342 113.000
87.71336 140.000
87.73331 90.000
87.75326 114.000
87.77320 100.000
87.79315 114.000
87.81310 121.000
87.83304 118.000
87.85299 115.000
87.87294 129.000
87.89289 121.000
87.91283 117.000
87.93278 115.000
87.95273 116.000
87.97267 112.000
87.99262 111.000
88.01257 118.000
88.03251 130.000
88.05246 110.000
88.07241 107.000
88.09236 105.000
88.11230 109.000
88.13225 103.000
88.15220 118.000
88.17214 104.000
88.19209 117.000
88.21204 108.000
88.23198 115.000
88.25193 133.000
88.27188 129.000
88.29183 135.000
88.31177 113.000
88.33172 108.000
88.35167 108.000
88.37161 110.000
88.39156 111.000
88.41151 116.000
88.43145 120.000
88.45140 117.000
88.47135 119.000
88.49129 100.000
88.51124 108.000
88.53119 99.000
88.55114 115.000
88.57108 111.000
88.59103 107.000
88.61098 120.000
88.63092 102.000
88.65087 119.000
88.67082 102.000
88.69076 109.000
88.71071 118.000
88.73066 121.000
88.75061 111.000
88.77055 90.000
88.79050 113.000
88.81045 101.000
88.83039 99.000
88.85034 100.000
88.87029 140.000
88.89023 110.000
88.91018 115.000
88.93013 106.000
88.95007 118.000
88.97002 109.000
88.98997 130.000
89.00992 121.000
89.02986 107.000
89.04981 109.000
89.06976 136.000
89.08970 88.000
89.10965 132.000
89.12960 110.000
89.14954 114.000
89.16949 96.000
89.18944 122.000
89.20939 117.000
89.22933 118.000
89.24928 115.000
89.26923 111.000
89.28917 117.000
89.30912 108.000
89.32907 100.000
89.34901 129.000
89.36896 101.000
89.38891 107.000
89.40885 93.000
89.42880 105.000
89.44875 116.000
89.46870 105.000
89.48864 114.000
89.50859 116.000
89.52854 119.000
89.54848 120.000
89.56843 119.000
89.58838 105.000
89.60832 117.000
89.62827 96.000
89.64822 99.000
89.66817 126.000
89.68811 105.000
89.70806 114.000
89.72801 115.000
89.74795 105.000
89.76790 134.000
89.78785 109.000
89.80779 97.000
89.82774 112.000
89.84769 101.000
89.86764 117.000
89.88758 97.000
89.90753 112.000
89.92748 114.000
89.94742 107.000
89.96737 102.000
89.98732 119.000
90.00726 120.000
