10.00000 114.000
10.01995 116.000
10.03989 126.000
10.05984 103.000
10.07979 114.000
10.09973 115.000
10.11968 112.000
10.13963 119.000
10.15958 109.000
10.17952 133.000
10.19947 111.000
10.21942 123.000
10.23936 113.000
10.25931 113.000
10.27926 116.000
10.29920 107.000
10.31915 117.000
10.33910 100.000
10.35905 98.000
10.37899 98.000
10.39894 99.000
10.41889 111.000
10.43883 86.000
10.45878 105.000
10.47873 120.000
10.49867 112.000
10.51862 121.000
10.53857 105.000
10.55851 103.000
10.57846 106.000
10.59841 108.000
10.61836 113.000
10.63830 106.000
10.65825 117.000
10.67820 114.000
10.69814 109.000
10.71809 112.000
10.73804 106.000
10.75798 113.000
10.77793 120.000
10.79788 92.000
10.81783 131.000
10.83777 90.000
10.85772 98.000
10.87767 96.000
10.89761 99.000
10.91756 128.000
10.93751 85.000
10.95745 110.000
10.97740 100.000
10.99735 110.000
11.01730 104.000
11.03724 104.000
11.05719 98.000
11.07714 85.000
11.09708 110.000
11.11703 103.000
11.13698 92.000
11.15692 94.000
11.17687 108.000
11.19682 99.000
11.21676 109.000
11.23671 92.000
11.25666 102.000
11.27661 121.000
11.29655 91.000
11.31650 119.000
11.33645 108.000
11.35639 106.000
11.37634 104.000
11.39629 86.000
11.41623 123.000
11.43618 105.000
11.45613 99.000
11.47608 113.000
11.49602 121.000
11.51597 115.000
11.53592 115.000
11.55586 102.000
11.57581 102.000
11.59576 100.000
11.61570 101.000
11.63565 107.000
11.65560 98.000
11.67554 112.000
11.69549 91.000
11.71544 106.000
11.73539 99.000
11.75533 88.000
11.77528 103.000
11.79523 113.000
11.81517 106.000
11.83512 98.000
11.85507 107.000
11.87501 113.000
11.89496 103.000
11.91491 115.000
11.93486 103.000
11.95480 108.000
11.97475 125.000
11.99470 109.000
12.01464 106.000
12.03459 92.000
12.05454 91.000
12.07448 99.000
12.09443 98.000
12.11438 95.000
12.13432 95.000
12.15427 81.000
12.17422 95.000
12.19417 106.000
12.21411 111.000
12.23406 107.000
12.25401 103.000
12.27395 101.000
12.29390 80.000
12.31385 97.000
12.33379 104.000
12.35374 107.000
12.37369 100.000
12.39364 91.000
12.41358 92.000
12.43353 93.000
12.45348 117.000
12.47342 125.000
12.49337 121.000
12.51332 104.000
12.53326 118.000
12.55321 111.000
12.57316 101.000
12.59311 116.000
12.61305 93.000
12.63300 90.000
12.65295 94.000
12.67289 98.000
12.69284 113.000
12.71279 96.000
12.73273 97.000
12.75268 97.000
12.77263 116.000
12.79257 101.000
12.81252 88.000
12.83247 110.000
12.85242 87.000
12.87236 94.000
12.89231 105.000
12.91226 118.000
12.93220 97.000
12.95215 105.000
12.97210 95.000
12.99204 94.000
13.01199 88.000
13.03194 104.000
13.05189 104.000
13.07183 97.000
13.09178 108.000
13.11173 97.000
13.13167 86.000
13.15162 94.000
13.17157 112.000
13.19151 105.000
13.21146 95.000
13.23141 103.000
13.25135 98.000
13.27130 115.000
13.29125 103.000
13.31120 85.000
13.33114 99.000
13.35109 101.000
13.37104 108.000
13.39098 99.000
13.41093 78.000
13.43088 107.000
13.45082 92.000
13.47077 95.000
13.49072 117.000
13.51067 123.000
13.53061 115.000
13.55056 83.000
13.57051 101.000
13.59045 97.000
13.61040 99.000
13.63035 81.000
13.65029 89.000
13.67024 94.000
13.69019 88.000
13.71013 83.000
13.73008 99.000
13.75003 103.000
13.76998 100.000
13.78992 106.000
13.80987 92.000
13.82982 100.000
13.84976 88.000
13.86971 90.000
13.88966 102.000
13.90960 122.000
13.92955 118.000
13.94950 100.000
13.96945 99.000
13.98939 98.000
14.00934 98.000
14.02929 122.000
14.04923 99.000
14.06918 100.000
14.08913 106.000
14.10907 115.000
14.12902 103.000
14.14897 88.000
14.16892 102.000
14.18886 88.000
14.20881 119.000
14.22876 87.000
14.24870 102.000
14.26865 109.000
14.28860 100.000
14.30854 126.000
14.32849 101.000
14.34844 99.000
14.36838 105.000
14.38833 115.000
14.40828 115.000
14.42823 95.000
14.44817 124.000
14.46812 91.000
14.48807 94.000
14.50801 111.000
14.52796 92.000
14.54791 113.000
14.56785 96.000
14.58780 98.000
14.60775 94.000
14.62770 117.000
14.64764 112.000
14.66759 93.000
14.68754 108.000
14.70748 116.000
14.72743 103.000
14.74738 97.000
14.76732 106.000
14.78727 107.000
14.80722 113.000
14.82716 101.000
14.84711 86.000
14.86706 110.000
14.88701 108.000
14.90695 117.000
14.92690 104.000
14.94685 104.000
14.96679 77.000
14.98674 102.000
15.00669 116.000
15.02663 115.000
15.04658 93.000
15.06653 98.000
15.08648 112.000
15.10642 101.000
15.12637 96.000
15.14632 93.000
15.16626 106.000
15.18621 123.000
15.20616 132.000
15.22610 115.000
15.24605 102.000
15.26600 86.000
15.28594 111.000
15.30589 109.000
15.32584 95.000
15.34579 88.000
15.36573 94.000
15.38568 115.000
15.40563 115.000
15.42557 107.000
15.44552 109.000
15.46547 97.000
15.48541 99.000
15.50536 101.000
15.52531 108.000
15.54526 115.000
15.56520 105.000
15.58515 108.000
15.60510 113.000
15.62504 112.000
15.64499 151.000
15.66494 121.000
15.68488 147.000
15.70483 151.000
15.72478 136.000
15.74472 151.000
15.76467 122.000
15.78462 123.000
15.80457 102.000
15.82451 111.000
15.84446 107.000
15.86441 89.000
15.88435 116.000
15.90430 85.000
15.92425 108.000
15.94419 111.000
15.96414 112.000
15.98409 104.000
16.00404 106.000
16.02398 111.000
16.04393 110.000
16.06388 128.000
16.08382 105.000
16.10377 128.000
16.12372 113.000
16.14366 121.000
16.16361 106.000
16.18356 102.000
16.20351 118.000
16.22345 97.000
16.24340 89.000
16.26335 124.000
16.28329 118.000
16.30324 118.000
16.32319 149.000
16.34313 144.000
16.36308 151.000
16.38303 133.000
16.40297 118.000
16.42292 117.000
16.44287 136.000
16.46282 129.000
16.48276 122.000
16.50271 132.000
16.52266 138.000
16.54260 119.000
16.56255 97.000
16.58250 137.000
16.60244 137.000
16.62239 118.000
16.64234 130.000
16.66229 136.000
16.68223 133.000
16.70218 128.000
16.72213 117.000
16.74207 131.000
16.76202 133.000
16.78197 139.000
16.80191 119.000
16.82186 131.000
16.84181 138.000
16.86175 118.000
16.88170 122.000
16.90165 131.000
16.92160 149.000
16.94154 138.000
16.96149 128.000
16.98144 131.000
17.00138 128.000
17.02133 129.000
17.04128 160.000
17.06122 191.000
17.08117 196.000
17.10112 188.000
17.12107 235.000
17.14101 213.000
17.16096 212.000
17.18091 210.000
17.20085 175.000
17.22080 193.000
17.24075 143.000
17.26069 142.000
17.28064 138.000
17.30059 112.000
17.32053 111.000
17.34048 126.000
17.36043 132.000
17.38038 97.000
17.40032 112.000
17.42027 108.000
17.44022 100.000
17.46016 115.000
17.48011 100.000
17.50006 108.000
17.52000 109.000
17.53995 106.000
17.55990 118.000
17.57985 105.000
17.59979 115.000
17.61974 106.000
17.63969 110.000
17.65963 97.000
17.67958 122.000
17.69953 124.000
17.71947 83.000
17.73942 96.000
17.75937 105.000
17.77932 104.000
17.79926 94.000
17.81921 108.000
17.83916 101.000
17.85910 108.000
17.87905 103.000
17.89900 101.000
17.91894 99.000
17.93889 103.000
17.95884 82.000
17.97878 121.000
17.99873 118.000
18.01868 108.000
18.03863 96.000
18.05857 106.000
18.07852 100.000
18.09847 97.000
18.11841 89.000
18.13836 107.000
18.15831 101.000
18.17825 100.000
18.19820 107.000
18.21815 103.000
18.23810 117.000
18.25804 122.000
18.27799 105.000
18.29794 136.000
18.31788 127.000
18.33783 133.000
18.35778 191.000
18.37772 187.000
18.39767 260.000
18.41762 201.000
18.43756 182.000
18.45751 165.000
18.47746 141.000
18.49741 131.000
18.51735 117.000
18.53730 121.000
18.55725 101.000
18.57719 115.000
18.59714 112.000
18.61709 111.000
18.63703 117.000
18.65698 97.000
18.67693 100.000
18.69688 103.000
18.71682 125.000
18.73677 115.000
18.75672 120.000
18.77666 105.000
18.79661 105.000
18.81656 87.000
18.83650 108.000
18.85645 100.000
18.87640 108.000
18.89634 89.000
18.91629 92.000
18.93624 111.000
18.95619 112.000
18.97613 102.000
18.99608 107.000
19.01603 107.000
19.03597 101.000
19.05592 80.000
19.07587 110.000
19.09581 109.000
19.11576 105.000
19.13571 112.000
19.15566 103.000
19.17560 80.000
19.19555 90.000
19.21550 88.000
19.23544 103.000
19.25539 101.000
19.27534 105.000
19.29528 99.000
19.31523 114.000
19.33518 92.000
19.35513 81.000
19.37507 120.000
19.39502 128.000
19.41497 102.000
19.43491 122.000
19.45486 104.000
19.47481 120.000
19.49475 123.000
19.51470 110.000
19.53465 114.000
19.55459 107.000
19.57454 112.000
19.59449 113.000
19.61444 104.000
19.63438 124.000
19.65433 95.000
19.67428 125.000
19.69422 106.000
19.71417 109.000
19.73412 110.000
19.75406 118.000
19.77401 125.000
19.79396 155.000
19.81391 136.000
19.83385 118.000
19.85380 119.000
19.87375 146.000
19.89369 177.000
19.91364 166.000
19.93359 217.000
19.95353 231.000
19.97348 333.000
19.99343 365.000
20.01337 399.000
20.03332 431.000
20.05327 448.000
20.07322 362.000
20.09316 402.000
20.11311 359.000
20.13306 299.000
20.15300 284.000
20.17295 281.000
20.19290 251.000
20.21284 218.000
20.23279 237.000
20.25274 198.000
20.27269 167.000
20.29263 162.000
20.31258 179.000
20.33253 158.000
20.35247 163.000
20.37242 156.000
20.39237 170.000
20.41231 188.000
20.43226 208.000
20.45221 217.000
20.47215 232.000
20.49210 286.000
20.51205 334.000
20.53200 343.000
20.55194 448.000
20.57189 494.000
20.59184 642.000
20.61178 711.000
20.63173 734.000
20.65168 789.000
20.67162 650.000
20.69157 590.000
20.71152 454.000
20.73147 388.000
20.75141 296.000
20.77136 257.000
20.79131 251.000
20.81125 232.000
20.83120 219.000
20.85115 186.000
20.87109 168.000
20.89104 184.000
20.91099 172.000
20.93094 155.000
20.95088 160.000
20.97083 149.000
20.99078 146.000
21.01072 154.000
21.03067 126.000
21.05062 119.000
21.07056 124.000
21.09051 106.000
21.11046 121.000
21.13040 99.000
21.15035 116.000
21.17030 142.000
21.19025 111.000
21.21019 126.000
21.23014 124.000
21.25009 96.000
21.27003 137.000
21.28998 107.000
21.30993 114.000
21.32987 120.000
21.34982 100.000
21.36977 114.000
21.38972 109.000
21.40966 124.000
21.42961 110.000
21.44956 105.000
21.46950 123.000
21.48945 110.000
21.50940 109.000
21.52934 116.000
21.54929 128.000
21.56924 125.000
21.58918 109.000
21.60913 126.000
21.62908 114.000
21.64903 123.000
21.66897 119.000
21.68892 113.000
21.70887 107.000
21.72881 102.000
21.74876 109.000
21.76871 111.000
21.78865 124.000
21.80860 108.000
21.82855 107.000
21.84850 116.000
21.86844 115.000
21.88839 122.000
21.90834 109.000
21.92828 127.000
21.94823 113.000
21.96818 108.000
21.98812 114.000
22.00807 112.000
22.02802 124.000
22.04796 117.000
22.06791 119.000
22.08786 105.000
22.10781 120.000
22.12775 105.000
22.14770 111.000
22.16765 105.000
22.18759 121.000
22.20754 116.000
22.22749 107.000
22.24743 112.000
22.26738 122.000
22.28733 108.000
22.30728 109.000
22.32722 96.000
22.34717 111.000
22.36712 106.000
22.38706 109.000
22.40701 111.000
22.42696 99.000
22.44690 110.000
22.46685 107.000
22.48680 109.000
22.50675 119.000
22.52669 114.000
22.54664 125.000
22.56659 111.000
22.58653 119.000
22.60648 120.000
22.62643 108.000
22.64637 123.000
22.66632 112.000
22.68627 115.000
22.70621 127.000
22.72616 110.000
22.74611 132.000
22.76606 142.000
22.78600 103.000
22.80595 118.000
22.82590 105.000
22.84584 116.000
22.86579 127.000
22.88574 118.000
22.90568 132.000
22.92563 105.000
22.94558 113.000
22.96553 111.000
22.98547 113.000
23.00542 113.000
23.02537 110.000
23.04531 117.000
23.06526 105.000
23.08521 113.000
23.10515 123.000
23.12510 128.000
23.14505 135.000
23.16499 123.000
23.18494 116.000
23.20489 124.000
23.22484 124.000
23.24478 116.000
23.26473 127.000
23.28468 117.000
23.30462 109.000
23.32457 126.000
23.34452 110.000
23.36446 117.000
23.38441 110.000
23.40436 114.000
23.42431 139.000
23.44425 104.000
23.46420 132.000
23.48415 128.000
23.50409 132.000
23.52404 129.000
23.54399 121.000
23.56393 151.000
23.58388 147.000
23.60383 110.000
23.62377 103.000
23.64372 113.000
23.66367 129.000
23.68362 112.000
23.70356 132.000
23.72351 122.000
23.74346 121.000
23.76340 124.000
23.78335 119.000
23.80330 107.000
23.82324 117.000
23.84319 118.000
23.86314 119.000
23.88309 137.000
23.90303 112.000
23.92298 114.000
23.94293 114.000
23.96287 147.000
23.98282 134.000
24.00277 154.000
24.02271 121.000
24.04266 127.000
24.06261 102.000
24.08256 122.000
24.10250 139.000
24.12245 122.000
24.14240 108.000
24.16234 146.000
24.18229 145.000
24.20224 119.000
24.22218 132.000
24.24213 115.000
24.26208 133.000
24.28202 101.000
24.30197 122.000
24.32192 113.000
24.34187 123.000
24.36181 133.000
24.38176 116.000
24.40171 128.000
24.42165 127.000
24.44160 91.000
24.46155 124.000
24.48149 122.000
24.50144 127.000
24.52139 111.000
24.54134 126.000
24.56128 114.000
24.58123 151.000
24.60118 125.000
24.62112 113.000
24.64107 138.000
24.66102 119.000
24.68096 134.000
24.70091 143.000
24.72086 133.000
24.74080 136.000
24.76075 160.000
24.78070 121.000
24.80065 127.000
24.82059 122.000
24.84054 129.000
24.86049 136.000
24.88043 136.000
24.90038 145.000
24.92033 103.000
24.94027 143.000
24.96022 120.000
24.98017 140.000
25.00012 135.000
25.02006 118.000
25.04001 130.000
25.05996 131.000
25.07990 117.000
25.09985 129.000
25.11980 109.000
25.13974 135.000
25.15969 132.000
25.17964 129.000
25.19958 145.000
25.21953 159.000
25.23948 113.000
25.25943 130.000
25.27937 121.000
25.29932 131.000
25.31927 136.000
25.33921 152.000
25.35916 136.000
25.37911 149.000
25.39905 127.000
25.41900 134.000
25.43895 144.000
25.45890 135.000
25.47884 119.000
25.49879 129.000
25.51874 123.000
25.53868 137.000
25.55863 162.000
25.57858 125.000
25.59852 139.000
25.61847 123.000
25.63842 154.000
25.65837 136.000
25.67831 168.000
25.69826 128.000
25.71821 157.000
25.73815 138.000
25.75810 152.000
25.77805 130.000
25.79799 138.000
25.81794 144.000
25.83789 125.000
25.85783 151.000
25.87778 161.000
25.89773 164.000
25.91768 152.000
25.93762 190.000
25.95757 162.000
25.97752 159.000
25.99746 195.000
26.01741 181.000
26.03736 193.000
26.05730 187.000
26.07725 204.000
26.09720 204.000
26.11715 182.000
26.13709 191.000
26.15704 173.000
26.17699 161.000
26.19693 164.000
26.21688 168.000
26.23683 153.000
26.25677 178.000
26.27672 154.000
26.29667 139.000
26.31661 153.000
26.33656 171.000
26.35651 149.000
26.37646 169.000
26.39640 161.000
26.41635 149.000
26.43630 132.000
26.45624 133.000
26.47619 122.000
26.49614 147.000
26.51608 159.000
26.53603 155.000
26.55598 163.000
26.57593 146.000
26.59587 154.000
26.61582 148.000
26.63577 144.000
26.65571 116.000
26.67566 155.000
26.69561 153.000
26.71555 141.000
26.73550 134.000
26.75545 151.000
26.77539 141.000
26.79534 148.000
26.81529 136.000
26.83524 171.000
26.85518 145.000
26.87513 135.000
26.89508 150.000
26.91502 143.000
26.93497 166.000
26.95492 150.000
26.97486 145.000
26.99481 177.000
27.01476 169.000
27.03471 168.000
27.05465 161.000
27.07460 154.000
27.09455 139.000
27.11449 155.000
27.13444 148.000
27.15439 146.000
27.17433 161.000
27.19428 156.000
27.21423 170.000
27.23417 145.000
27.25412 156.000
27.27407 162.000
27.29402 159.000
27.31396 151.000
27.33391 146.000
27.35386 170.000
27.37380 156.000
27.39375 126.000
27.41370 136.000
27.43364 165.000
27.45359 157.000
27.47354 178.000
27.49349 153.000
27.51343 144.000
27.53338 152.000
27.55333 160.000
27.57327 159.000
27.59322 165.000
27.61317 165.000
27.63311 157.000
27.65306 175.000
27.67301 152.000
27.69296 166.000
27.71290 147.000
27.73285 159.000
27.75280 148.000
27.77274 143.000
27.79269 147.000
27.81264 163.000
27.83258 143.000
27.85253 167.000
27.87248 148.000
27.89242 146.000
27.91237 173.000
27.93232 166.000
27.95227 154.000
27.97221 162.000
27.99216 166.000
28.01211 166.000
28.03205 170.000
28.05200 179.000
28.07195 165.000
28.09189 158.000
28.11184 161.000
28.13179 168.000
28.15174 176.000
28.17168 154.000
28.19163 146.000
28.21158 155.000
28.23152 145.000
28.25147 207.000
28.27142 177.000
28.29136 189.000
28.31131 148.000
28.33126 151.000
28.35120 179.000
28.37115 156.000
28.39110 187.000
28.41105 159.000
28.43099 162.000
28.45094 149.000
28.47089 163.000
28.49083 167.000
28.51078 156.000
28.53073 172.000
28.55067 163.000
28.57062 159.000
28.59057 164.000
28.61052 165.000
28.63046 208.000
28.65041 161.000
28.67036 169.000
28.69030 166.000
28.71025 183.000
28.73020 176.000
28.75014 176.000
28.77009 175.000
28.79004 172.000
28.80998 175.000
28.82993 178.000
28.84988 187.000
28.86983 149.000
28.88977 168.000
28.90972 177.000
28.92967 188.000
28.94961 167.000
28.96956 192.000
28.98951 166.000
29.00945 166.000
29.02940 186.000
29.04935 181.000
29.06930 161.000
29.08924 178.000
29.10919 179.000
29.12914 195.000
29.14908 175.000
29.16903 193.000
29.18898 201.000
29.20892 175.000
29.22887 185.000
29.24882 223.000
29.26877 215.000
29.28871 200.000
29.30866 203.000
29.32861 227.000
29.34855 229.000
29.36850 225.000
29.38845 265.000
29.40839 314.000
29.42834 353.000
29.44829 404.000
29.46823 427.000
29.48818 508.000
29.50813 510.000
29.52808 507.000
29.54802 484.000
29.56797 500.000
29.58792 413.000
29.60786 366.000
29.62781 341.000
29.64776 285.000
29.66770 285.000
29.68765 252.000
29.70760 237.000
29.72755 213.000
29.74749 224.000
29.76744 187.000
29.78739 190.000
29.80733 214.000
29.82728 186.000
29.84723 196.000
29.86717 192.000
29.88712 185.000
29.90707 216.000
29.92701 199.000
29.94696 184.000
29.96691 200.000
29.98686 184.000
30.00680 172.000
30.02675 208.000
30.04670 208.000
30.06664 185.000
30.08659 195.000
30.10654 212.000
30.12648 189.000
30.14643 236.000
30.16638 236.000
30.18633 279.000
30.20627 295.000
30.22622 385.000
30.24617 513.000
30.26611 490.000
30.28606 460.000
30.30601 396.000
30.32595 365.000
30.34590 393.000
30.36585 318.000
30.38579 249.000
30.40574 206.000
30.42569 216.000
30.44564 201.000
30.46558 203.000
30.48553 196.000
30.50548 170.000
30.52542 195.000
30.54537 168.000
30.56532 170.000
30.58526 193.000
30.60521 187.000
30.62516 171.000
30.64511 198.000
30.66505 195.000
30.68500 195.000
30.70495 161.000
30.72489 179.000
30.74484 193.000
30.76479 186.000
30.78473 202.000
30.80468 172.000
30.82463 203.000
30.84458 173.000
30.86452 173.000
30.88447 182.000
30.90442 189.000
30.92436 174.000
30.94431 177.000
30.96426 189.000
30.98420 197.000
31.00415 177.000
31.02410 181.000
31.04404 178.000
31.06399 176.000
31.08394 162.000
31.10389 172.000
31.12383 208.000
31.14378 172.000
31.16373 183.000
31.18367 167.000
31.20362 157.000
31.22357 155.000
31.24351 157.000
31.26346 177.000
31.28341 202.000
31.30336 167.000
31.32330 134.000
31.34325 174.000
31.36320 184.000
31.38314 178.000
31.40309 193.000
31.42304 188.000
31.44298 163.000
31.46293 175.000
31.48288 199.000
31.50282 214.000
31.52277 229.000
31.54272 218.000
31.56267 210.000
31.58261 225.000
31.60256 247.000
31.62251 227.000
31.64245 262.000
31.66240 261.000
31.68235 277.000
31.70229 306.000
31.72224 327.000
31.74219 279.000
31.76214 282.000
31.78208 295.000
31.80203 289.000
31.82198 291.000
31.84192 268.000
31.86187 246.000
31.88182 227.000
31.90176 257.000
31.92171 256.000
31.94166 243.000
31.96160 241.000
31.98155 254.000
32.00150 252.000
32.02145 224.000
32.04139 241.000
32.06134 240.000
32.08129 208.000
32.10123 226.000
32.12118 230.000
32.14113 231.000
32.16107 233.000
32.18102 203.000
32.20097 217.000
32.22092 207.000
32.24086 173.000
32.26081 207.000
32.28076 213.000
32.30070 220.000
32.32065 205.000
32.34060 203.000
32.36054 179.000
32.38049 209.000
32.40044 193.000
32.42039 192.000
32.44033 197.000
32.46028 213.000
32.48023 204.000
32.50017 197.000
32.52012 190.000
32.54007 201.000
32.56001 195.000
32.57996 217.000
32.59991 189.000
32.61985 181.000
32.63980 186.000
32.65975 202.000
32.67970 172.000
32.69964 185.000
32.71959 185.000
32.73954 164.000
32.75948 190.000
32.77943 196.000
32.79938 214.000
32.81932 205.000
32.83927 190.000
32.85922 192.000
32.87917 172.000
32.89911 178.000
32.91906 209.000
32.93901 180.000
32.95895 186.000
32.97890 185.000
32.99885 217.000
33.01879 186.000
33.03874 211.000
33.05869 198.000
33.07863 238.000
33.09858 186.000
33.11853 226.000
33.13848 259.000
33.15842 247.000
33.17837 281.000
33.19832 333.000
33.21826 361.000
33.23821 426.000
33.25816 459.000
33.27810 513.000
33.29805 545.000
33.31800 578.000
33.33795 536.000
33.35789 539.000
33.37784 503.000
33.39779 500.000
33.41773 479.000
33.43768 435.000
33.45763 396.000
33.47757 356.000
33.49752 343.000
33.51747 321.000
33.53741 290.000
33.55736 272.000
33.57731 285.000
33.59726 249.000
33.61720 257.000
33.63715 225.000
33.65710 230.000
33.67704 247.000
33.69699 242.000
33.71694 276.000
33.73688 255.000
33.75683 287.000
33.77678 276.000
33.79673 288.000
33.81667 339.000
33.83662 399.000
33.85657 397.000
33.87651 463.000
33.89646 515.000
33.91641 620.000
33.93635 711.000
33.95630 755.000
33.97625 852.000
33.99620 862.000
34.01614 817.000
34.03609 782.000
34.05604 691.000
34.07598 703.000
34.09593 650.000
34.11588 551.000
34.13582 501.000
34.15577 439.000
34.17572 425.000
34.19566 375.000
34.21561 385.000
34.23556 336.000
34.25551 334.000
34.27545 304.000
34.29540 322.000
34.31535 299.000
34.33529 314.000
34.35524 312.000
34.37519 286.000
34.39513 269.000
34.41508 294.000
34.43503 255.000
34.45498 273.000
34.47492 270.000
34.49487 278.000
34.51482 278.000
34.53476 285.000
34.55471 223.000
34.57466 244.000
34.59460 240.000
34.61455 240.000
34.63450 219.000
34.65444 265.000
34.67439 272.000
34.69434 229.000
34.71429 280.000
34.73423 245.000
34.75418 265.000
34.77413 235.000
34.79407 245.000
34.81402 241.000
34.83397 258.000
34.85391 293.000
34.87386 274.000
34.89381 259.000
34.91376 223.000
34.93370 253.000
34.95365 242.000
34.97360 218.000
34.99354 220.000
35.01349 231.000
35.03344 230.000
35.05338 238.000
35.07333 223.000
35.09328 228.000
35.11322 234.000
35.13317 242.000
35.15312 243.000
35.17307 250.000
35.19301 246.000
35.21296 244.000
35.23291 262.000
35.25285 247.000
35.27280 253.000
35.29275 263.000
35.31269 264.000
35.33264 246.000
35.35259 264.000
35.37254 285.000
35.39248 334.000
35.41243 316.000
35.43238 371.000
35.45232 402.000
35.47227 403.000
35.49222 418.000
35.51216 448.000
35.53211 511.000
35.55206 541.000
35.57201 653.000
35.59195 793.000
35.61190 1005.000
35.63185 1225.000
35.65179 1252.000
35.67174 1194.000
35.69169 1015.000
35.71163 920.000
35.73158 870.000
35.75153 867.000
35.77147 659.000
35.79142 536.000
35.81137 482.000
35.83132 385.000
35.85126 362.000
35.87121 371.000
35.89116 365.000
35.91110 333.000
35.93105 311.000
35.95100 288.000
35.97094 295.000
35.99089 277.000
36.01084 257.000
36.03079 254.000
36.05073 274.000
36.07068 270.000
36.09063 279.000
36.11057 304.000
36.13052 282.000
36.15047 255.000
36.17041 288.000
36.19036 299.000
36.21031 302.000
36.23025 358.000
36.25020 360.000
36.27015 425.000
36.29010 410.000
36.31004 438.000
36.32999 439.000
36.34994 398.000
36.36988 401.000
36.38983 373.000
36.40978 335.000
36.42972 288.000
36.44967 241.000
36.46962 227.000
36.48957 273.000
36.50951 200.000
36.52946 238.000
36.54941 227.000
36.56935 209.000
36.58930 207.000
36.60925 174.000
36.62919 208.000
36.64914 187.000
36.66909 174.000
36.68903 155.000
36.70898 192.000
36.72893 186.000
36.74888 183.000
36.76882 201.000
36.78877 183.000
36.80872 186.000
36.82866 189.000
36.84861 166.000
36.86856 187.000
36.88850 158.000
36.90845 204.000
36.92840 199.000
36.94835 196.000
36.96829 187.000
36.98824 194.000
37.00819 170.000
37.02813 198.000
37.04808 179.000
37.06803 184.000
37.08797 183.000
37.10792 173.000
37.12787 195.000
37.14781 172.000
37.16776 178.000
37.18771 175.000
37.20766 210.000
37.22760 209.000
37.24755 211.000
37.26750 232.000
37.28744 226.000
37.30739 221.000
37.32734 225.000
37.34728 227.000
37.36723 200.000
37.38718 211.000
37.40713 187.000
37.42707 204.000
37.44702 181.000
37.46697 165.000
37.48691 147.000
37.50686 167.000
37.52681 172.000
37.54675 164.000
37.56670 171.000
37.58665 166.000
37.60660 185.000
37.62654 139.000
37.64649 162.000
37.66644 171.000
37.68638 160.000
37.70633 159.000
37.72628 156.000
37.74622 153.000
37.76617 160.000
37.78612 128.000
37.80606 167.000
37.82601 157.000
37.84596 160.000
37.86591 159.000
37.88585 147.000
37.90580 141.000
37.92575 174.000
37.94569 172.000
37.96564 173.000
37.98559 159.000
38.00553 179.000
38.02548 155.000
38.04543 164.000
38.06538 182.000
38.08532 178.000
38.10527 185.000
38.12522 165.000
38.14516 184.000
38.16511 152.000
38.18506 153.000
38.20500 174.000
38.22495 178.000
38.24490 180.000
38.26484 178.000
38.28479 152.000
38.30474 182.000
38.32469 176.000
38.34463 162.000
38.36458 173.000
38.38453 180.000
38.40447 201.000
38.42442 198.000
38.44437 189.000
38.46431 216.000
38.48426 179.000
38.50421 211.000
38.52416 211.000
38.54410 209.000
38.56405 215.000
38.58400 258.000
38.60394 260.000
38.62389 251.000
38.64384 227.000
38.66378 265.000
38.68373 270.000
38.70368 276.000
38.72362 251.000
38.74357 302.000
38.76352 255.000
38.78347 286.000
38.80341 261.000
38.82336 260.000
38.84331 284.000
38.86325 275.000
38.88320 278.000
38.90315 245.000
38.92309 278.000
38.94304 258.000
38.96299 235.000
38.98294 223.000
39.00288 224.000
39.02283 233.000
39.04278 197.000
39.06272 232.000
39.08267 218.000
39.10262 211.000
39.12256 193.000
39.14251 190.000
39.16246 183.000
39.18241 203.000
39.20235 164.000
39.22230 179.000
39.24225 188.000
39.26219 174.000
39.28214 172.000
39.30209 170.000
39.32203 159.000
39.34198 152.000
39.36193 199.000
39.38187 173.000
39.40182 191.000
39.42177 170.000
39.44172 175.000
39.46166 127.000
39.48161 155.000
39.50156 147.000
39.52150 163.000
39.54145 177.000
39.56140 132.000
39.58134 172.000
39.60129 146.000
39.62124 146.000
39.64119 155.000
39.66113 133.000
39.68108 146.000
39.70103 142.000
39.72097 157.000
39.74092 153.000
39.76087 141.000
39.78081 158.000
39.80076 169.000
39.82071 149.000
39.84065 152.000
39.86060 178.000
39.88055 156.000
39.90050 137.000
39.92044 132.000
39.94039 184.000
39.96034 152.000
39.98028 147.000
40.00023 182.000
40.02018 165.000
40.04012 167.000
40.06007 146.000
40.08002 152.000
40.09997 154.000
40.11991 146.000
40.13986 155.000
40.15981 144.000
40.17975 160.000
40.19970 150.000
40.21965 136.000
40.23959 159.000
40.25954 160.000
40.27949 132.000
40.29943 141.000
40.31938 149.000
40.33933 147.000
40.35928 158.000
40.37922 162.000
40.39917 138.000
40.41912 158.000
40.43906 149.000
40.45901 159.000
40.47896 145.000
40.49890 157.000
40.51885 152.000
40.53880 151.000
40.55875 156.000
40.57869 154.000
40.59864 151.000
40.61859 167.000
40.63853 136.000
40.65848 162.000
40.67843 166.000
40.69837 167.000
40.71832 166.000
40.73827 194.000
40.75822 167.000
40.77816 172.000
40.79811 166.000
40.81806 183.000
40.83800 177.000
40.85795 196.000
40.87790 174.000
40.89784 190.000
40.91779 198.000
40.93774 188.000
40.95768 175.000
40.97763 203.000
40.99758 191.000
41.01753 208.000
41.03747 254.000
41.05742 238.000
41.07737 197.000
41.09731 245.000
41.11726 245.000
41.13721 221.000
41.15715 258.000
41.17710 239.000
41.19705 269.000
41.21700 262.000
41.23694 258.000
41.25689 234.000
41.27684 267.000
41.29678 273.000
41.31673 251.000
41.33668 286.000
41.35662 264.000
41.37657 281.000
41.39652 257.000
41.41646 255.000
41.43641 273.000
41.45636 305.000
41.47631 298.000
41.49625 278.000
41.51620 294.000
41.53615 318.000
41.55609 360.000
41.57604 400.000
41.59599 419.000
41.61593 489.000
41.63588 523.000
41.65583 561.000
41.67578 597.000
41.69572 556.000
41.71567 628.000
41.73562 568.000
41.75556 637.000
41.77551 538.000
41.79546 558.000
41.81540 485.000
41.83535 459.000
41.85530 441.000
41.87524 384.000
41.89519 351.000
41.91514 316.000
41.93509 282.000
41.95503 256.000
41.97498 276.000
41.99493 266.000
42.01487 258.000
42.03482 233.000
42.05477 208.000
42.07471 208.000
42.09466 204.000
42.11461 184.000
42.13456 187.000
42.15450 174.000
42.17445 189.000
42.19440 191.000
42.21434 188.000
42.23429 201.000
42.25424 171.000
42.27418 169.000
42.29413 170.000
42.31408 177.000
42.33403 155.000
42.35397 147.000
42.37392 176.000
42.39387 172.000
42.41381 161.000
42.43376 169.000
42.45371 153.000
42.47365 145.000
42.49360 170.000
42.51355 143.000
42.53349 163.000
42.55344 187.000
42.57339 161.000
42.59334 143.000
42.61328 164.000
42.63323 181.000
42.65318 170.000
42.67312 181.000
42.69307 168.000
42.71302 172.000
42.73296 161.000
42.75291 167.000
42.77286 146.000
42.79281 180.000
42.81275 165.000
42.83270 169.000
42.85265 156.000
42.87259 180.000
42.89254 168.000
42.91249 188.000
42.93243 155.000
42.95238 175.000
42.97233 161.000
42.99227 161.000
43.01222 185.000
43.03217 211.000
43.05212 188.000
43.07206 170.000
43.09201 170.000
43.11196 212.000
43.13190 181.000
43.15185 187.000
43.17180 179.000
43.19174 211.000
43.21169 203.000
43.23164 204.000
43.25159 245.000
43.27153 263.000
43.29148 292.000
43.31143 289.000
43.33137 324.000
43.35132 306.000
43.37127 308.000
43.39121 302.000
43.41116 274.000
43.43111 273.000
43.45105 231.000
43.47100 218.000
43.49095 211.000
43.51090 210.000
43.53084 193.000
43.55079 178.000
43.57074 189.000
43.59068 141.000
43.61063 170.000
43.63058 145.000
43.65052 159.000
43.67047 159.000
43.69042 149.000
43.71037 132.000
43.73031 143.000
43.75026 170.000
43.77021 147.000
43.79015 140.000
43.81010 157.000
43.83005 142.000
43.84999 130.000
43.86994 115.000
43.88989 134.000
43.90984 144.000
43.92978 128.000
43.94973 134.000
43.96968 116.000
43.98962 139.000
44.00957 141.000
44.02952 132.000
44.04946 137.000
44.06941 120.000
44.08936 121.000
44.10930 134.000
44.12925 149.000
44.14920 138.000
44.16915 136.000
44.18909 140.000
44.20904 140.000
44.22899 144.000
44.24893 125.000
44.26888 149.000
44.28883 122.000
44.30877 156.000
44.32872 158.000
44.34867 156.000
44.36862 149.000
44.38856 141.000
44.40851 142.000
44.42846 165.000
44.44840 154.000
44.46835 167.000
44.48830 157.000
44.50824 156.000
44.52819 168.000
44.54814 146.000
44.56808 170.000
44.58803 120.000
44.60798 148.000
44.62793 158.000
44.64787 147.000
44.66782 144.000
44.68777 161.000
44.70771 146.000
44.72766 134.000
44.74761 136.000
44.76755 123.000
44.78750 146.000
44.80745 154.000
44.82740 136.000
44.84734 129.000
44.86729 154.000
44.88724 150.000
44.90718 172.000
44.92713 161.000
44.94708 156.000
44.96702 152.000
44.98697 183.000
45.00692 185.000
45.02686 197.000
45.04681 245.000
45.06676 197.000
45.08671 226.000
45.10665 164.000
45.12660 213.000
45.14655 185.000
45.16649 204.000
45.18644 209.000
45.20639 200.000
45.22633 175.000
45.24628 159.000
45.26623 169.000
45.28618 187.000
45.30612 169.000
45.32607 144.000
45.34602 148.000
45.36596 141.000
45.38591 140.000
45.40586 138.000
45.42580 134.000
45.44575 131.000
45.46570 138.000
45.48565 124.000
45.50559 157.000
45.52554 139.000
45.54549 162.000
45.56543 160.000
45.58538 126.000
45.60533 138.000
45.62527 148.000
45.64522 135.000
45.66517 135.000
45.68511 127.000
45.70506 115.000
45.72501 130.000
45.74496 144.000
45.76490 125.000
45.78485 129.000
45.80480 101.000
45.82474 131.000
45.84469 143.000
45.86464 136.000
45.88458 121.000
45.90453 119.000
45.92448 130.000
45.94443 125.000
45.96437 124.000
45.98432 115.000
46.00427 129.000
46.02421 144.000
46.04416 148.000
46.06411 127.000
46.08405 116.000
46.10400 138.000
46.12395 152.000
46.14389 139.000
46.16384 125.000
46.18379 127.000
46.20374 142.000
46.22368 128.000
46.24363 148.000
46.26358 139.000
46.28352 121.000
46.30347 146.000
46.32342 116.000
46.34336 133.000
46.36331 127.000
46.38326 150.000
46.40321 159.000
46.42315 152.000
46.44310 130.000
46.46305 150.000
46.48299 159.000
46.50294 148.000
46.52289 160.000
46.54283 148.000
46.56278 161.000
46.58273 135.000
46.60267 161.000
46.62262 163.000
46.64257 132.000
46.66252 155.000
46.68246 154.000
46.70241 167.000
46.72236 179.000
46.74230 151.000
46.76225 176.000
46.78220 174.000
46.80214 150.000
46.82209 179.000
46.84204 157.000
46.86199 173.000
46.88193 144.000
46.90188 141.000
46.92183 157.000
46.94177 174.000
46.96172 159.000
46.98167 153.000
47.00161 159.000
47.02156 148.000
47.04151 153.000
47.06146 144.000
47.08140 163.000
47.10135 141.000
47.12130 124.000
47.14124 133.000
47.16119 134.000
47.18114 116.000
47.20108 120.000
47.22103 151.000
47.24098 130.000
47.26092 145.000
47.28087 153.000
47.30082 135.000
47.32077 150.000
47.34071 142.000
47.36066 133.000
47.38061 128.000
47.40055 139.000
47.42050 123.000
47.44045 148.000
47.46039 140.000
47.48034 110.000
47.50029 150.000
47.52024 138.000
47.54018 147.000
47.56013 129.000
47.58008 133.000
47.60002 125.000
47.61997 157.000
47.63992 137.000
47.65986 134.000
47.67981 149.000
47.69976 130.000
47.71970 112.000
47.73965 145.000
47.75960 119.000
47.77955 134.000
47.79949 107.000
47.81944 116.000
47.83939 115.000
47.85933 124.000
47.87928 141.000
47.89923 147.000
47.91917 116.000
47.93912 128.000
47.95907 128.000
47.97902 120.000
47.99896 122.000
48.01891 137.000
48.03886 136.000
48.05880 147.000
48.07875 145.000
48.09870 116.000
48.11864 135.000
48.13859 139.000
48.15854 142.000
48.17848 134.000
48.19843 123.000
48.21838 139.000
48.23833 155.000
48.25827 121.000
48.27822 141.000
48.29817 145.000
48.31811 140.000
48.33806 158.000
48.35801 143.000
48.37795 148.000
48.39790 148.000
48.41785 158.000
48.43780 141.000
48.45774 123.000
48.47769 131.000
48.49764 145.000
48.51758 177.000
48.53753 148.000
48.55748 141.000
48.57742 140.000
48.59737 137.000
48.61732 158.000
48.63726 171.000
48.65721 152.000
48.67716 161.000
48.69711 161.000
48.71705 149.000
48.73700 157.000
48.75695 160.000
48.77689 148.000
48.79684 169.000
48.81679 163.000
48.83673 153.000
48.85668 147.000
48.87663 133.000
48.89658 138.000
48.91652 153.000
48.93647 141.000
48.95642 148.000
48.97636 175.000
48.99631 168.000
49.01626 165.000
49.03620 157.000
49.05615 148.000
49.07610 183.000
49.09605 132.000
49.11599 133.000
49.13594 144.000
49.15589 162.000
49.17583 140.000
49.19578 144.000
49.21573 139.000
49.23567 142.000
49.25562 116.000
49.27557 149.000
49.29551 117.000
49.31546 137.000
49.33541 130.000
49.35536 125.000
49.37530 116.000
49.39525 110.000
49.41520 132.000
49.43514 131.000
49.45509 125.000
49.47504 144.000
49.49498 126.000
49.51493 125.000
49.53488 134.000
49.55483 118.000
49.57477 134.000
49.59472 126.000
49.61467 111.000
49.63461 119.000
49.65456 134.000
49.67451 106.000
49.69445 134.000
49.71440 104.000
49.73435 135.000
49.75429 117.000
49.77424 112.000
49.79419 138.000
49.81414 139.000
49.83408 114.000
49.85403 147.000
49.87398 134.000
49.89392 125.000
49.91387 137.000
49.93382 131.000
49.95376 136.000
49.97371 135.000
49.99366 131.000
50.01361 140.000
50.03355 113.000
50.05350 129.000
50.07345 160.000
50.09339 135.000
50.11334 119.000
50.13329 129.000
50.15323 112.000
50.17318 145.000
50.19313 114.000
50.21307 118.000
50.23302 139.000
50.25297 125.000
50.27292 125.000
50.29286 132.000
50.31281 109.000
50.33276 155.000
50.35270 112.000
50.37265 124.000
50.39260 147.000
50.41254 132.000
50.43249 151.000
50.45244 127.000
50.47239 143.000
50.49233 148.000
50.51228 163.000
50.53223 135.000
50.55217 154.000
50.57212 135.000
50.59207 135.000
50.61201 140.000
50.63196 148.000
50.65191 173.000
50.67186 148.000
50.69180 158.000
50.71175 176.000
50.73170 167.000
50.75164 160.000
50.77159 171.000
50.79154 180.000
50.81148 160.000
50.83143 182.000
50.85138 180.000
50.87132 204.000
50.89127 194.000
50.91122 162.000
50.93117 169.000
50.95111 168.000
50.97106 164.000
50.99101 154.000
51.01095 141.000
51.03090 163.000
51.05085 151.000
51.07079 132.000
51.09074 125.000
51.11069 141.000
51.13064 137.000
51.15058 147.000
51.17053 127.000
51.19048 129.000
51.21042 135.000
51.23037 113.000
51.25032 118.000
51.27026 124.000
51.29021 119.000
51.31016 123.000
51.33010 139.000
51.35005 132.000
51.37000 104.000
51.38995 141.000
51.40989 115.000
51.42984 126.000
51.44979 116.000
51.46973 103.000
51.48968 106.000
51.50963 120.000
51.52957 115.000
51.54952 112.000
51.56947 131.000
51.58942 119.000
51.60936 115.000
51.62931 104.000
51.64926 120.000
51.66920 105.000
51.68915 122.000
51.70910 110.000
51.72904 108.000
51.74899 111.000
51.76894 110.000
51.78888 100.000
51.80883 112.000
51.82878 119.000
51.84873 110.000
51.86867 110.000
51.88862 105.000
51.90857 100.000
51.92851 110.000
51.94846 114.000
51.96841 109.000
51.98835 119.000
52.00830 122.000
52.02825 130.000
52.04820 125.000
52.06814 123.000
52.08809 133.000
52.10804 121.000
52.12798 138.000
52.14793 143.000
52.16788 133.000
52.18782 118.000
52.20777 135.000
52.22772 117.000
52.24767 130.000
52.26761 124.000
52.28756 119.000
52.30751 116.000
52.32745 115.000
52.34740 135.000
52.36735 129.000
52.38729 133.000
52.40724 116.000
52.42719 129.000
52.44713 122.000
52.46708 127.000
52.48703 117.000
52.50698 129.000
52.52692 119.000
52.54687 129.000
52.56682 116.000
52.58676 120.000
52.60671 138.000
52.62666 139.000
52.64660 132.000
52.66655 136.000
52.68650 132.000
52.70645 136.000
52.72639 125.000
52.74634 144.000
52.76629 121.000
52.78623 135.000
52.80618 109.000
52.82613 101.000
52.84607 122.000
52.86602 153.000
52.88597 151.000
52.90591 123.000
52.92586 139.000
52.94581 117.000
52.96576 139.000
52.98570 141.000
53.00565 151.000
53.02560 132.000
53.04554 137.000
53.06549 145.000
53.08544 118.000
53.10538 133.000
53.12533 129.000
53.14528 145.000
53.16523 151.000
53.18517 143.000
53.20512 149.000
53.22507 137.000
53.24501 126.000
53.26496 138.000
53.28491 147.000
53.30485 121.000
53.32480 138.000
53.34475 132.000
53.36469 111.000
53.38464 144.000
53.40459 147.000
53.42454 130.000
53.44448 144.000
53.46443 155.000
53.48438 136.000
53.50432 145.000
53.52427 139.000
53.54422 130.000
53.56416 166.000
53.58411 144.000
53.60406 118.000
53.62401 160.000
53.64395 141.000
53.66390 185.000
53.68385 182.000
53.70379 182.000
53.72374 183.000
53.74369 210.000
53.76363 200.000
53.78358 209.000
53.80353 199.000
53.82348 174.000
53.84342 193.000
53.86337 185.000
53.88332 169.000
53.90326 176.000
53.92321 162.000
53.94316 158.000
53.96310 156.000
53.98305 159.000
54.00300 152.000
54.02294 141.000
54.04289 150.000
54.06284 136.000
54.08279 115.000
54.10273 143.000
54.12268 133.000
54.14263 133.000
54.16257 124.000
54.18252 133.000
54.20247 122.000
54.22241 140.000
54.24236 126.000
54.26231 125.000
54.28226 140.000
54.30220 122.000
54.32215 110.000
54.34210 123.000
54.36204 136.000
54.38199 128.000
54.40194 139.000
54.42188 122.000
54.44183 120.000
54.46178 141.000
54.48172 142.000
54.50167 128.000
54.52162 126.000
54.54157 147.000
54.56151 130.000
54.58146 148.000
54.60141 109.000
54.62135 124.000
54.64130 132.000
54.66125 144.000
54.68119 121.000
54.70114 145.000
54.72109 140.000
54.74104 132.000
54.76098 141.000
54.78093 151.000
54.80088 115.000
54.82082 148.000
54.84077 155.000
54.86072 149.000
54.88066 140.000
54.90061 143.000
54.92056 128.000
54.94050 142.000
54.96045 134.000
54.98040 162.000
55.00035 170.000
55.02029 160.000
55.04024 164.000
55.06019 154.000
55.08013 162.000
55.10008 167.000
55.12003 198.000
55.13997 181.000
55.15992 185.000
55.17987 185.000
55.19982 185.000
55.21976 155.000
55.23971 181.000
55.25966 173.000
55.27960 168.000
55.29955 156.000
55.31950 160.000
55.33944 194.000
55.35939 159.000
55.37934 167.000
55.39929 167.000
55.41923 166.000
55.43918 168.000
55.45913 156.000
55.47907 158.000
55.49902 152.000
55.51897 175.000
55.53891 135.000
55.55886 163.000
55.57881 149.000
55.59875 134.000
55.61870 135.000
55.63865 155.000
55.65860 162.000
55.67854 148.000
55.69849 147.000
55.71844 136.000
55.73838 140.000
55.75833 128.000
55.77828 115.000
55.79822 129.000
55.81817 149.000
55.83812 112.000
55.85807 140.000
55.87801 140.000
55.89796 133.000
55.91791 113.000
55.93785 158.000
55.95780 133.000
55.97775 129.000
55.99769 141.000
56.01764 118.000
56.03759 111.000
56.05753 124.000
56.07748 136.000
56.09743 129.000
56.11738 125.000
56.13732 134.000
56.15727 131.000
56.17722 125.000
56.19716 108.000
56.21711 87.000
56.23706 135.000
56.25700 110.000
56.27695 113.000
56.29690 122.000
56.31685 125.000
56.33679 123.000
56.35674 106.000
56.37669 117.000
56.39663 134.000
56.41658 120.000
56.43653 107.000
56.45647 125.000
56.47642 142.000
56.49637 138.000
56.51631 120.000
56.53626 155.000
56.55621 114.000
56.57616 141.000
56.59610 143.000
56.61605 112.000
56.63600 130.000
56.65594 123.000
56.67589 137.000
56.69584 141.000
56.71578 102.000
56.73573 129.000
56.75568 116.000
56.77563 125.000
56.79557 131.000
56.81552 126.000
56.83547 118.000
56.85541 133.000
56.87536 111.000
56.89531 119.000
56.91525 151.000
56.93520 133.000
56.95515 152.000
56.97510 119.000
56.99504 133.000
57.01499 138.000
57.03494 168.000
57.05488 158.000
57.07483 134.000
57.09478 152.000
57.11472 173.000
57.13467 147.000
57.15462 150.000
57.17456 189.000
57.19451 172.000
57.21446 178.000
57.23441 233.000
57.25435 229.000
57.27430 304.000
57.29425 318.000
57.31419 348.000
57.33414 315.000
57.35409 282.000
57.37403 268.000
57.39398 235.000
57.41393 245.000
57.43388 266.000
57.45382 241.000
57.47377 274.000
57.49372 249.000
57.51366 222.000
57.53361 206.000
57.55356 187.000
57.57350 157.000
57.59345 174.000
57.61340 159.000
57.63334 139.000
57.65329 160.000
57.67324 142.000
57.69319 133.000
57.71313 149.000
57.73308 142.000
57.75303 127.000
57.77297 153.000
57.79292 130.000
57.81287 142.000
57.83281 135.000
57.85276 130.000
57.87271 169.000
57.89266 145.000
57.91260 159.000
57.93255 159.000
57.95250 141.000
57.97244 127.000
57.99239 150.000
58.01234 143.000
58.03228 142.000
58.05223 139.000
58.07218 142.000
58.09212 161.000
58.11207 170.000
58.13202 146.000
58.15197 156.000
58.17191 130.000
58.19186 134.000
58.21181 140.000
58.23175 142.000
58.25170 164.000
58.27165 157.000
58.29159 156.000
58.31154 135.000
58.33149 143.000
58.35144 144.000
58.37138 126.000
58.39133 164.000
58.41128 152.000
58.43122 146.000
58.45117 130.000
58.47112 131.000
58.49106 145.000
58.51101 136.000
58.53096 146.000
58.55090 139.000
58.57085 161.000
58.59080 133.000
58.61075 119.000
58.63069 141.000
58.65064 129.000
58.67059 168.000
58.69053 151.000
58.71048 129.000
58.73043 148.000
58.75037 156.000
58.77032 130.000
58.79027 136.000
58.81022 158.000
58.83016 163.000
58.85011 129.000
58.87006 159.000
58.89000 140.000
58.90995 141.000
58.92990 130.000
58.94984 149.000
58.96979 127.000
58.98974 125.000
59.00969 149.000
59.02963 167.000
59.04958 165.000
59.06953 168.000
59.08947 124.000
59.10942 136.000
59.12937 136.000
59.14931 136.000
59.16926 166.000
59.18921 146.000
59.20915 141.000
59.22910 164.000
59.24905 148.000
59.26900 164.000
59.28894 152.000
59.30889 167.000
59.32884 162.000
59.34878 173.000
59.36873 168.000
59.38868 198.000
59.40862 182.000
59.42857 187.000
59.44852 184.000
59.46847 187.000
59.48841 170.000
59.50836 190.000
59.52831 168.000
59.54825 179.000
59.56820 177.000
59.58815 170.000
59.60809 141.000
59.62804 179.000
59.64799 198.000
59.66793 167.000
59.68788 180.000
59.70783 188.000
59.72778 171.000
59.74772 198.000
59.76767 184.000
59.78762 200.000
59.80756 185.000
59.82751 204.000
59.84746 231.000
59.86740 218.000
59.88735 215.000
59.90730 213.000
59.92725 248.000
59.94719 230.000
59.96714 242.000
59.98709 233.000
60.00703 221.000
60.02698 232.000
60.04693 241.000
60.06687 248.000
60.08682 208.000
60.10677 211.000
60.12671 227.000
60.14666 222.000
60.16661 197.000
60.18656 173.000
60.20650 207.000
60.22645 211.000
60.24640 166.000
60.26634 159.000
60.28629 168.000
60.30624 161.000
60.32618 153.000
60.34613 163.000
60.36608 143.000
60.38603 149.000
60.40597 155.000
60.42592 173.000
60.44587 139.000
60.46581 155.000
60.48576 167.000
60.50571 142.000
60.52565 172.000
60.54560 135.000
60.56555 156.000
60.58550 141.000
60.60544 146.000
60.62539 130.000
60.64534 153.000
60.66528 155.000
60.68523 131.000
60.70518 127.000
60.72512 153.000
60.74507 149.000
60.76502 157.000
60.78496 169.000
60.80491 138.000
60.82486 141.000
60.84481 158.000
60.86475 142.000
60.88470 155.000
60.90465 177.000
60.92459 160.000
60.94454 144.000
60.96449 129.000
60.98443 166.000
61.00438 170.000
61.02433 179.000
61.04428 182.000
61.06422 174.000
61.08417 177.000
61.10412 183.000
61.12406 226.000
61.14401 194.000
61.16396 222.000
61.18390 199.000
61.20385 224.000
61.22380 233.000
61.24374 243.000
61.26369 236.000
61.28364 265.000
61.30359 250.000
61.32353 271.000
61.34348 279.000
61.36343 269.000
61.38337 283.000
61.40332 294.000
61.42327 304.000
61.44321 308.000
61.46316 310.000
61.48311 311.000
61.50306 343.000
61.52300 323.000
61.54295 315.000
61.56290 315.000
61.58284 304.000
61.60279 281.000
61.62274 299.000
61.64268 285.000
61.66263 273.000
61.68258 260.000
61.70252 248.000
61.72247 242.000
61.74242 229.000
61.76237 214.000
61.78231 217.000
61.80226 203.000
61.82221 214.000
61.84215 192.000
61.86210 215.000
61.88205 206.000
61.90199 194.000
61.92194 178.000
61.94189 173.000
61.96184 168.000
61.98178 173.000
62.00173 189.000
62.02168 188.000
62.04162 190.000
62.06157 186.000
62.08152 206.000
62.10146 199.000
62.12141 182.000
62.14136 204.000
62.16131 190.000
62.18125 177.000
62.20120 180.000
62.22115 219.000
62.24109 193.000
62.26104 193.000
62.28099 187.000
62.30093 176.000
62.32088 190.000
62.34083 180.000
62.36077 169.000
62.38072 187.000
62.40067 178.000
62.42062 194.000
62.44056 169.000
62.46051 165.000
62.48046 205.000
62.50040 171.000
62.52035 150.000
62.54030 163.000
62.56024 154.000
62.58019 153.000
62.60014 181.000
62.62009 154.000
62.64003 140.000
62.65998 175.000
62.67993 162.000
62.69987 195.000
62.71982 184.000
62.73977 197.000
62.75971 203.000
62.77966 194.000
62.79961 194.000
62.81955 226.000
62.83950 265.000
62.85945 257.000
62.87940 341.000
62.89934 365.000
62.91929 373.000
62.93924 442.000
62.95918 425.000
62.97913 383.000
62.99908 350.000
63.01902 290.000
63.03897 287.000
63.05892 281.000
63.07887 327.000
63.09881 283.000
63.11876 315.000
63.13871 305.000
63.15865 287.000
63.17860 245.000
63.19855 205.000
63.21849 190.000
63.23844 167.000
63.25839 162.000
63.27833 160.000
63.29828 166.000
63.31823 174.000
63.33818 151.000
63.35812 127.000
63.37807 153.000
63.39802 148.000
63.41796 141.000
63.43791 128.000
63.45786 143.000
63.47780 145.000
63.49775 139.000
63.51770 111.000
63.53765 129.000
63.55759 112.000
63.57754 115.000
63.59749 126.000
63.61743 137.000
63.63738 119.000
63.65733 135.000
63.67727 143.000
63.69722 159.000
63.71717 133.000
63.73712 146.000
63.75706 150.000
63.77701 171.000
63.79696 146.000
63.81690 120.000
63.83685 150.000
63.85680 151.000
63.87674 148.000
63.89669 141.000
63.91664 169.000
63.93658 158.000
63.95653 143.000
63.97648 126.000
63.99643 155.000
64.01637 141.000
64.03632 128.000
64.05627 134.000
64.07621 146.000
64.09616 143.000
64.11611 134.000
64.13605 107.000
64.15600 136.000
64.17595 127.000
64.19590 114.000
64.21584 156.000
64.23579 133.000
64.25574 111.000
64.27568 132.000
64.29563 138.000
64.31558 146.000
64.33552 128.000
64.35547 122.000
64.37542 136.000
64.39536 142.000
64.41531 110.000
64.43526 131.000
64.45521 111.000
64.47515 143.000
64.49510 118.000
64.51505 130.000
64.53499 128.000
64.55494 136.000
64.57489 105.000
64.59483 115.000
64.61478 114.000
64.63473 107.000
64.65468 142.000
64.67462 104.000
64.69457 111.000
64.71452 116.000
64.73446 138.000
64.75441 120.000
64.77436 148.000
64.79430 113.000
64.81425 131.000
64.83420 116.000
64.85414 125.000
64.87409 111.000
64.89404 113.000
64.91399 134.000
64.93393 111.000
64.95388 118.000
64.97383 124.000
64.99377 130.000
65.01372 128.000
65.03367 104.000
65.05361 129.000
65.07356 128.000
65.09351 135.000
65.11346 134.000
65.13340 114.000
65.15335 138.000
65.17330 134.000
65.19324 131.000
65.21319 138.000
65.23314 114.000
65.25308 121.000
65.27303 136.000
65.29298 131.000
65.31293 140.000
65.33287 113.000
65.35282 118.000
65.37277 152.000
65.39271 130.000
65.41266 137.000
65.43261 138.000
65.45255 129.000
65.47250 154.000
65.49245 142.000
65.51239 156.000
65.53234 140.000
65.55229 145.000
65.57224 137.000
65.59218 135.000
65.61213 115.000
65.63208 133.000
65.65202 132.000
65.67197 142.000
65.69192 160.000
65.71186 178.000
65.73181 170.000
65.75176 145.000
65.77171 183.000
65.79165 162.000
65.81160 164.000
65.83155 204.000
65.85149 161.000
65.87144 144.000
65.89139 189.000
65.91133 180.000
65.93128 199.000
65.95123 178.000
65.97117 193.000
65.99112 165.000
66.01107 183.000
66.03102 158.000
66.05096 154.000
66.07091 161.000
66.09086 149.000
66.11080 185.000
66.13075 140.000
66.15070 178.000
66.17064 128.000
66.19059 167.000
66.21054 172.000
66.23049 177.000
66.25043 192.000
66.27038 180.000
66.29033 157.000
66.31027 149.000
66.33022 154.000
66.35017 187.000
66.37011 157.000
66.39006 153.000
66.41001 157.000
66.42995 149.000
66.44990 169.000
66.46985 135.000
66.48980 151.000
66.50974 141.000
66.52969 136.000
66.54964 141.000
66.56958 132.000
66.58953 120.000
66.60948 127.000
66.62942 125.000
66.64937 132.000
66.66932 149.000
66.68927 129.000
66.70921 160.000
66.72916 140.000
66.74911 134.000
66.76905 94.000
66.78900 103.000
66.80895 136.000
66.82889 143.000
66.84884 140.000
66.86879 139.000
66.88874 114.000
66.90868 129.000
66.92863 149.000
66.94858 108.000
66.96852 122.000
66.98847 123.000
67.00842 129.000
67.02836 127.000
67.04831 134.000
67.06826 142.000
67.08820 121.000
67.10815 139.000
67.12810 141.000
67.14805 108.000
67.16799 131.000
67.18794 135.000
67.20789 141.000
67.22783 133.000
67.24778 127.000
67.26773 130.000
67.28767 118.000
67.30762 127.000
67.32757 140.000
67.34752 133.000
67.36746 139.000
67.38741 139.000
67.40736 128.000
67.42730 126.000
67.44725 136.000
67.46720 144.000
67.48714 129.000
67.50709 127.000
67.52704 118.000
67.54698 130.000
67.56693 124.000
67.58688 132.000
67.60683 140.000
67.62677 131.000
67.64672 120.000
67.66667 137.000
67.68661 126.000
67.70656 123.000
67.72651 123.000
67.74645 126.000
67.76640 128.000
67.78635 139.000
67.80630 124.000
67.82624 129.000
67.84619 133.000
67.86614 153.000
67.88608 130.000
67.90603 113.000
67.92598 136.000
67.94592 140.000
67.96587 155.000
67.98582 128.000
68.00576 127.000
68.02571 133.000
68.04566 142.000
68.06561 112.000
68.08555 132.000
68.10550 123.000
68.12545 119.000
68.14539 132.000
68.16534 133.000
68.18529 140.000
68.20523 133.000
68.22518 123.000
68.24513 140.000
68.26508 127.000
68.28502 103.000
68.30497 147.000
68.32492 135.000
68.34486 125.000
68.36481 134.000
68.38476 111.000
68.40470 109.000
68.42465 132.000
68.44460 129.000
68.46455 134.000
68.48449 113.000
68.50444 117.000
68.52439 138.000
68.54433 119.000
68.56428 135.000
68.58423 104.000
68.60417 118.000
68.62412 119.000
68.64407 126.000
68.66401 116.000
68.68396 124.000
68.70391 134.000
68.72386 146.000
68.74380 129.000
68.76375 143.000
68.78370 134.000
68.80364 122.000
68.82359 110.000
68.84354 130.000
68.86348 123.000
68.88343 139.000
68.90338 121.000
68.92333 123.000
68.94327 115.000
68.96322 125.000
68.98317 135.000
69.00311 124.000
69.02306 132.000
69.04301 118.000
69.06295 123.000
69.08290 104.000
69.10285 114.000
69.12279 105.000
69.14274 132.000
69.16269 116.000
69.18264 121.000
69.20258 118.000
69.22253 117.000
69.24248 117.000
69.26242 122.000
69.28237 127.000
69.30232 134.000
69.32226 117.000
69.34221 127.000
69.36216 110.000
69.38211 128.000
69.40205 130.000
69.42200 106.000
69.44195 114.000
69.46189 117.000
69.48184 101.000
69.50179 112.000
69.52173 129.000
69.54168 92.000
69.56163 102.000
69.58157 99.000
69.60152 105.000
69.62147 103.000
69.64142 126.000
69.66136 152.000
69.68131 127.000
69.70126 107.000
69.72120 129.000
69.74115 113.000
69.76110 122.000
69.78104 141.000
69.80099 114.000
69.82094 103.000
69.84089 117.000
69.86083 120.000
69.88078 102.000
69.90073 121.000
69.92067 127.000
69.94062 128.000
69.96057 121.000
69.98051 121.000
70.00046 121.000
70.02041 117.000
70.04035 116.000
70.06030 119.000
70.08025 124.000
70.10020 120.000
70.12014 118.000
70.14009 119.000
70.16004 113.000
70.17998 139.000
70.19993 99.000
70.21988 119.000
70.23982 102.000
70.25977 121.000
70.27972 135.000
70.29967 135.000
70.31961 136.000
70.33956 98.000
70.35951 123.000
70.37945 118.000
70.39940 115.000
70.41935 125.000
70.43929 126.000
70.45924 115.000
70.47919 108.000
70.49914 142.000
70.51908 135.000
70.53903 103.000
70.55898 119.000
70.57892 132.000
70.59887 119.000
70.61882 143.000
70.63876 119.000
70.65871 143.000
70.67866 131.000
70.69860 132.000
70.71855 124.000
70.73850 123.000
70.75845 154.000
70.77839 119.000
70.79834 113.000
70.81829 112.000
70.83823 118.000
70.85818 89.000
70.87813 121.000
70.89807 129.000
70.91802 135.000
70.93797 113.000
70.95792 120.000
70.97786 134.000
70.99781 129.000
71.01776 127.000
71.03770 141.000
71.05765 124.000
71.07760 119.000
71.09754 125.000
71.11749 128.000
71.13744 136.000
71.15738 100.000
71.17733 111.000
71.19728 135.000
71.21723 137.000
71.23717 108.000
71.25712 132.000
71.27707 141.000
71.29701 142.000
71.31696 129.000
71.33691 133.000
71.35685 151.000
71.37680 165.000
71.39675 147.000
71.41670 168.000
71.43664 163.000
71.45659 160.000
71.47654 138.000
71.49648 132.000
71.51643 152.000
71.53638 137.000
71.55632 138.000
71.57627 148.000
71.59622 137.000
71.61616 150.000
71.63611 165.000
71.65606 159.000
71.67601 144.000
71.69595 150.000
71.71590 138.000
71.73585 131.000
71.75579 137.000
71.77574 144.000
71.79569 140.000
71.81563 124.000
71.83558 119.000
71.85553 129.000
71.87548 128.000
71.89542 131.000
71.91537 121.000
71.93532 120.000
71.95526 123.000
71.97521 107.000
71.99516 125.000
72.01510 132.000
72.03505 121.000
72.05500 130.000
72.07495 119.000
72.09489 131.000
72.11484 116.000
72.13479 120.000
72.15473 138.000
72.17468 119.000
72.19463 146.000
72.21457 109.000
72.23452 133.000
72.25447 132.000
72.27441 126.000
72.29436 124.000
72.31431 142.000
72.33426 145.000
72.35420 158.000
72.37415 129.000
72.39410 143.000
72.41404 134.000
72.43399 147.000
72.45394 142.000
72.47388 159.000
72.49383 128.000
72.51378 140.000
72.53373 126.000
72.55367 133.000
72.57362 159.000
72.59357 147.000
72.61351 146.000
72.63346 132.000
72.65341 130.000
72.67335 148.000
72.69330 145.000
72.71325 125.000
72.73319 143.000
72.75314 149.000
72.77309 153.000
72.79304 116.000
72.81298 129.000
72.83293 139.000
72.85288 157.000
72.87282 142.000
72.89277 141.000
72.91272 138.000
72.93266 119.000
72.95261 154.000
72.97256 127.000
72.99251 109.000
73.01245 128.000
73.03240 104.000
73.05235 131.000
73.07229 138.000
73.09224 135.000
73.11219 130.000
73.13213 136.000
73.15208 118.000
73.17203 125.000
73.19197 119.000
73.21192 152.000
73.23187 112.000
73.25182 124.000
73.27176 112.000
73.29171 126.000
73.31166 123.000
73.33160 115.000
73.35155 130.000
73.37150 126.000
73.39144 105.000
73.41139 111.000
73.43134 123.000
73.45129 118.000
73.47123 139.000
73.49118 131.000
73.51113 134.000
73.53107 134.000
73.55102 155.000
73.57097 119.000
73.59091 114.000
73.61086 127.000
73.63081 149.000
73.65076 133.000
73.67070 113.000
73.69065 124.000
73.71060 138.000
73.73054 140.000
73.75049 113.000
73.77044 137.000
73.79038 154.000
73.81033 129.000
73.83028 127.000
73.85022 140.000
73.87017 126.000
73.89012 131.000
73.91007 147.000
73.93001 133.000
73.94996 127.000
73.96991 124.000
73.98985 117.000
74.00980 130.000
74.02975 141.000
74.04969 154.000
74.06964 135.000
74.08959 123.000
74.10954 111.000
74.12948 124.000
74.14943 129.000
74.16938 129.000
74.18932 132.000
74.20927 137.000
74.22922 142.000
74.24916 128.000
74.26911 127.000
74.28906 144.000
74.30900 121.000
74.32895 135.000
74.34890 147.000
74.36885 155.000
74.38879 163.000
74.40874 138.000
74.42869 167.000
74.44863 170.000
74.46858 151.000
74.48853 197.000
74.50847 161.000
74.52842 170.000
74.54837 154.000
74.56832 134.000
74.58826 152.000
74.60821 151.000
74.62816 144.000
74.64810 161.000
74.66805 148.000
74.68800 157.000
74.70794 131.000
74.72789 149.000
74.74784 171.000
74.76778 126.000
74.78773 131.000
74.80768 135.000
74.82763 123.000
74.84757 135.000
74.86752 120.000
74.88747 125.000
74.90741 132.000
74.92736 142.000
74.94731 128.000
74.96725 136.000
74.98720 119.000
75.00715 126.000
75.02710 116.000
75.04704 133.000
75.06699 135.000
75.08694 105.000
75.10688 116.000
75.12683 116.000
75.14678 138.000
75.16672 129.000
75.18667 125.000
75.20662 121.000
75.22657 140.000
75.24651 147.000
75.26646 126.000
75.28641 133.000
75.30635 131.000
75.32630 114.000
75.34625 107.000
75.36619 142.000
75.38614 129.000
75.40609 105.000
75.42603 133.000
75.44598 154.000
75.46593 123.000
75.48588 144.000
75.50582 123.000
75.52577 146.000
75.54572 135.000
75.56566 133.000
75.58561 156.000
75.60556 124.000
75.62550 135.000
75.64545 125.000
75.66540 128.000
75.68535 146.000
75.70529 120.000
75.72524 152.000
75.74519 133.000
75.76513 112.000
75.78508 109.000
75.80503 98.000
75.82497 116.000
75.84492 114.000
75.86487 106.000
75.88481 110.000
75.90476 116.000
75.92471 112.000
75.94466 118.000
75.96460 106.000
75.98455 107.000
76.00450 119.000
76.02444 105.000
76.04439 111.000
76.06434 115.000
76.08428 119.000
76.10423 117.000
76.12418 137.000
76.14413 105.000
76.16407 103.000
76.18402 101.000
76.20397 103.000
76.22391 119.000
76.24386 127.000
76.26381 129.000
76.28375 103.000
76.30370 112.000
76.32365 107.000
76.34359 111.000
76.36354 128.000
76.38349 140.000
76.40344 118.000
76.42338 114.000
76.44333 123.000
76.46328 123.000
76.48322 123.000
76.50317 111.000
76.52312 105.000
76.54306 115.000
76.56301 118.000
76.58296 131.000
76.60291 115.000
76.62285 114.000
76.64280 116.000
76.66275 121.000
76.68269 115.000
76.70264 133.000
76.72259 141.000
76.74253 138.000
76.76248 137.000
76.78243 107.000
76.80238 113.000
76.82232 124.000
76.84227 130.000
76.86222 110.000
76.88216 122.000
76.90211 132.000
76.92206 131.000
76.94200 143.000
76.96195 150.000
76.98190 119.000
77.00184 148.000
77.02179 164.000
77.04174 130.000
77.06169 142.000
77.08163 115.000
77.10158 148.000
77.12153 133.000
77.14147 138.000
77.16142 156.000
77.18137 141.000
77.20131 137.000
77.22126 122.000
77.24121 143.000
77.26116 127.000
77.28110 141.000
77.30105 148.000
77.32100 127.000
77.34094 135.000
77.36089 122.000
77.38084 132.000
77.40078 136.000
77.42073 115.000
77.44068 115.000
77.46062 115.000
77.48057 129.000
77.50052 97.000
77.52047 128.000
77.54041 124.000
77.56036 121.000
77.58031 117.000
77.60025 105.000
77.62020 123.000
77.64015 108.000
77.66009 111.000
77.68004 133.000
77.69999 121.000
77.71994 117.000
77.73988 112.000
77.75983 116.000
77.77978 113.000
77.79972 130.000
77.81967 109.000
77.83962 111.000
77.85956 122.000
77.87951 108.000
77.89946 111.000
77.91940 121.000
77.93935 119.000
77.95930 132.000
77.97925 117.000
77.99919 96.000
78.01914 108.000
78.03909 125.000
78.05903 115.000
78.07898 101.000
78.09893 115.000
78.11887 97.000
78.13882 126.000
78.15877 96.000
78.17872 88.000
78.19866 94.000
78.21861 111.000
78.23856 112.000
78.25850 129.000
78.27845 111.000
78.29840 118.000
78.31834 132.000
78.33829 105.000
78.35824 99.000
78.37819 99.000
78.39813 104.000
78.41808 116.000
78.43803 106.000
78.45797 95.000
78.47792 109.000
78.49787 135.000
78.51781 130.000
78.53776 121.000
78.55771 95.000
78.57765 110.000
78.59760 101.000
78.61755 115.000
78.63750 119.000
78.65744 139.000
78.67739 105.000
78.69734 127.000
78.71728 113.000
78.73723 112.000
78.75718 128.000
78.77712 116.000
78.79707 109.000
78.81702 125.000
78.83697 120.000
78.85691 140.000
78.87686 117.000
78.89681 115.000
78.91675 114.000
78.93670 116.000
78.95665 112.000
78.97659 129.000
78.99654 111.000
79.01649 117.000
79.03643 119.000
79.05638 119.000
79.07633 103.000
79.09628 113.000
79.11622 110.000
79.13617 101.000
79.15612 113.000
79.17606 138.000
79.19601 103.000
79.21596 108.000
79.23590 131.000
79.25585 111.000
79.27580 122.000
79.29575 127.000
79.31569 94.000
79.33564 115.000
79.35559 123.000
79.37553 103.000
79.39548 117.000
79.41543 108.000
79.43537 102.000
79.45532 121.000
79.47527 117.000
79.49521 108.000
79.51516 119.000
79.53511 107.000
79.55506 116.000
79.57500 129.000
79.59495 119.000
79.61490 115.000
79.63484 120.000
79.65479 105.000
79.67474 99.000
79.69468 105.000
79.71463 104.000
79.73458 100.000
79.75453 117.000
79.77447 113.000
79.79442 109.000
79.81437 119.000
79.83431 99.000
79.85426 112.000
79.87421 118.000
79.89415 120.000
79.91410 98.000
79.93405 104.000
79.95399 120.000
79.97394 119.000
79.99389 109.000
80.01384 118.000
80.03378 101.000
80.05373 113.000
80.07368 116.000
80.09362 105.000
80.11357 103.000
80.13352 112.000
80.15346 83.000
80.17341 98.000
80.19336 87.000
80.21331 126.000
80.23325 109.000
80.25320 119.000
80.27315 120.000
80.29309 94.000
80.31304 120.000
80.33299 96.000
80.35293 102.000
80.37288 112.000
80.39283 94.000
80.41278 101.000
80.43272 105.000
80.45267 103.000
80.47262 117.000
80.49256 108.000
80.51251 106.000
80.53246 95.000
80.55240 104.000
80.57235 87.000
80.59230 88.000
80.61224 112.000
80.63219 103.000
80.65214 119.000
80.67209 91.000
80.69203 100.000
80.71198 109.000
80.73193 113.000
80.75187 79.000
80.77182 90.000
80.79177 116.000
80.81171 92.000
80.83166 106.000
80.85161 100.000
80.87156 103.000
80.89150 105.000
80.91145 112.000
80.93140 109.000
80.95134 110.000
80.97129 107.000
80.99124 127.000
81.01118 90.000
81.03113 93.000
81.05108 109.000
81.07102 106.000
81.09097 101.000
81.11092 107.000
81.13087 105.000
81.15081 104.000
81.17076 103.000
81.19071 91.000
81.21065 107.000
81.23060 110.000
81.25055 123.000
81.27049 117.000
81.29044 101.000
81.31039 98.000
81.33034 112.000
81.35028 112.000
81.37023 108.000
81.39018 107.000
81.41012 98.000
81.43007 101.000
81.45002 102.000
81.46996 124.000
81.48991 107.000
81.50986 111.000
81.52980 115.000
81.54975 111.000
81.56970 108.000
81.58965 111.000
81.60959 120.000
81.62954 114.000
81.64949 88.000
81.66943 103.000
81.68938 89.000
81.70933 108.000
81.72927 108.000
81.74922 104.000
81.76917 109.000
81.78912 117.000
81.80906 101.000
81.82901 110.000
81.84896 108.000
81.86890 104.000
81.88885 97.000
81.90880 112.000
81.92874 95.000
81.94869 99.000
81.96864 107.000
81.98859 130.000
82.00853 96.000
82.02848 86.000
82.04843 108.000
82.06837 89.000
82.08832 97.000
82.10827 117.000
82.12821 99.000
82.14816 103.000
82.16811 116.000
82.18805 108.000
82.20800 112.000
82.22795 101.000
82.24790 107.000
82.26784 118.000
82.28779 98.000
82.30774 114.000
82.32768 111.000
82.34763 104.000
82.36758 133.000
82.38752 101.000
82.40747 123.000
82.42742 94.000
82.44737 119.000
82.46731 117.000
82.48726 114.000
82.50721 128.000
82.52715 114.000
82.54710 107.000
82.56705 117.000
82.58699 136.000
82.60694 110.000
82.62689 114.000
82.64683 112.000
82.66678 97.000
82.68673 97.000
82.70668 120.000
82.72662 83.000
82.74657 127.000
82.76652 124.000
82.78646 104.000
82.80641 100.000
82.82636 141.000
82.84630 108.000
82.86625 96.000
82.88620 103.000
82.90615 126.000
82.92609 128.000
82.94604 98.000
82.96599 111.000
82.98593 122.000
83.00588 100.000
83.02583 112.000
83.04577 115.000
83.06572 108.000
83.08567 112.000
83.10561 109.000
83.12556 130.000
83.14551 130.000
83.16546 110.000
83.18540 127.000
83.20535 122.000
83.22530 103.000
83.24524 115.000
83.26519 126.000
83.28514 106.000
83.30508 112.000
83.32503 112.000
83.34498 115.000
83.36493 124.000
83.38487 140.000
83.40482 119.000
83.42477 133.000
83.44471 115.000
83.46466 131.000
83.48461 122.000
83.50455 115.000
83.52450 114.000
83.54445 114.000
83.56440 144.000
83.58434 122.000
83.60429 110.000
83.62424 123.000
83.64418 123.000
83.66413 128.000
83.68408 126.000
83.70402 122.000
83.72397 125.000
83.74392 124.000
83.76386 145.000
83.78381 122.000
83.80376 118.000
83.82371 119.000
83.84365 109.000
83.86360 100.000
83.88355 98.000
83.90349 127.000
83.92344 126.000
83.94339 114.000
83.96333 121.000
83.98328 121.000
84.00323 122.000
84.02318 96.000
84.04312 119.000
84.06307 92.000
84.08302 108.000
84.10296 112.000
84.12291 113.000
84.14286 108.000
84.16280 101.000
84.18275 117.000
84.20270 125.000
84.22264 114.000
84.24259 117.000
84.26254 97.000
84.28249 121.000
84.30243 125.000
84.32238 131.000
84.34233 132.000
84.36227 109.000
84.38222 117.000
84.40217 124.000
84.42211 115.000
84.44206 117.000
84.46201 108.000
84.48196 99.000
84.50190 121.000
84.52185 126.000
84.54180 111.000
84.56174 111.000
84.58169 123.000
84.60164 115.000
84.62158 125.000
84.64153 139.000
84.66148 104.000
84.68142 142.000
84.70137 122.000
84.72132 118.000
84.74127 122.000
84.76121 137.000
84.78116 122.000
84.80111 124.000
84.82105 117.000
84.84100 113.000
84.86095 114.000
84.88089 124.000
84.90084 125.000
84.92079 114.000
84.94074 128.000
84.96068 135.000
84.98063 132.000
85.00058 138.000
85.02052 124.000
85.04047 124.000
85.06042 110.000
85.08036 121.000
85.10031 121.000
85.12026 114.000
85.14021 123.000
85.16015 125.000
85.18010 114.000
85.20005 98.000
85.21999 120.000
85.23994 111.000
85.25989 116.000
85.27983 93.000
85.29978 108.000
85.31973 115.000
85.33967 103.000
85.35962 117.000
85.37957 109.000
85.39952 92.000
85.41946 107.000
85.43941 104.000
85.45936 97.000
85.47930 98.000
85.49925 111.000
85.51920 93.000
85.53914 103.000
85.55909 120.000
85.57904 101.000
85.59899 88.000
85.61893 100.000
85.63888 93.000
85.65883 94.000
85.67877 109.000
85.69872 116.000
85.71867 102.000
85.73861 123.000
85.75856 127.000
85.77851 103.000
85.79845 106.000
85.81840 115.000
85.83835 93.000
85.85830 102.000
85.87824 108.000
85.89819 107.000
85.91814 101.000
85.93808 103.000
85.95803 117.000
85.97798 108.000
85.99792 117.000
86.01787 86.000
86.03782 110.000
86.05777 97.000
86.07771 112.000
86.09766 122.000
86.11761 97.000
86.13755 119.000
86.15750 99.000
86.17745 95.000
86.19739 104.000
86.21734 99.000
86.23729 98.000
86.25723 111.000
86.27718 110.000
86.29713 108.000
86.31708 106.000
86.33702 102.000
86.35697 105.000
86.37692 107.000
86.39686 107.000
86.41681 104.000
86.43676 110.000
86.45670 102.000
86.47665 108.000
86.49660 113.000
86.51655 99.000
86.53649 105.000
86.55644 121.000
86.57639 125.000
86.59633 107.000
86.61628 94.000
86.63623 121.000
86.65617 113.000
86.67612 94.000
86.69607 118.000
86.71602 111.000
86.73596 90.000
86.75591 118.000
86.77586 103.000
86.79580 98.000
86.81575 116.000
86.83570 101.000
86.85564 111.000
86.87559 103.000
86.89554 113.000
86.91548 122.000
86.93543 111.000
86.95538 103.000
86.97533 109.000
86.99527 120.000
87.01522 113.000
87.03517 115.000
87.05511 105.000
87.07506 112.000
87.09501 110.000
87.11495 121.000
87.13490 113.000
87.15485 111.000
87.17480 120.000
87.19474 123.000
87.21469 135.000
87.23464 99.000
87.25458 114.000
87.27453 117.000
87.29448 115.000
87.31442 133.000
87.33437 120.000
87.35432 125.000
87.37426 128.000
87.39421 127.000
87.41416 125.000
87.43411 105.000
87.45405 111.000
87.47400 102.000
87.49395 118.000
87.51389 114.000
87.53384 97.000
87.55379 123.000
87.57373 120.000
87.59368 118.000
87.61363 125.000
87.63358 116.000
87.65352 131.000
87.67347 107.000
87.69342 115.000
87.71336 119.000
87.73331 108.000
87.75326 116.000
87.77320 123.000
87.79315 99.000
87.81310 113.000
87.83304 116.000
87.85299 110.000
87.87294 125.000
87.89289 90.000
87.91283 105.000
87.93278 100.000
87.95273 97.000
87.97267 109.000
87.99262 111.000
88.01257 106.000
88.03251 125.000
88.05246 106.000
88.07241 114.000
88.09236 109.000
88.11230 123.000
88.13225 121.000
88.15220 101.000
88.17214 98.000
88.19209 116.000
88.21204 105.000
88.23198 109.000
88.25193 102.000
88.27188 110.000
88.29183 106.000
88.31177 113.000
88.33172 98.000
88.35167 120.000
88.37161 99.000
88.39156 98.000
88.41151 111.000
88.43145 97.000
88.45140 102.000
88.47135 89.000
88.49129 101.000
88.51124 127.000
88.53119 126.000
88.55114 121.000
88.57108 117.000
88.59103 117.000
88.61098 118.000
88.63092 101.000
88.65087 95.000
88.67082 91.000
88.69076 115.000
88.71071 100.000
88.73066 117.000
88.75061 120.000
88.77055 105.000
88.79050 103.000
88.81045 113.000
88.83039 111.000
88.85034 119.000
88.87029 99.000
88.89023 94.000
88.91018 105.000
88.93013 107.000
88.95007 92.000
88.97002 106.000
88.98997 125.000
89.00992 114.000
89.02986 122.000
89.04981 96.000
89.06976 102.000
89.08970 94.000
89.10965 80.000
89.12960 117.000
89.14954 108.000
89.16949 102.000
89.18944 113.000
89.20939 93.000
89.22933 105.000
89.24928 110.000
89.26923 108.000
89.28917 86.000
89.30912 110.000
89.32907 100.000
89.34901 106.000
89.36896 119.000
89.38891 107.000
89.40885 115.000
89.42880 98.000
89.44875 122.000
89.46870 113.000
89.48864 105.000
89.50859 95.000
89.52854 109.000
89.54848 137.000
89.56843 102.000
89.58838 102.000
89.60832 117.000
89.62827 110.000
89.64822 111.000
89.66817 104.000
89.68811 108.000
89.70806 93.000
89.72801 111.000
89.74795 130.000
89.76790 116.000
89.78785 91.000
89.80779 112.000
89.82774 118.000
89.84769 121.000
89.86764 117.000
89.88758 117.000
89.90753 113.000
89.92748 135.000
89.94742 124.000
89.96737 116.000
89.98732 123.000
90.00726 129.000
