10.00000 124.000
10.01995 133.000
10.03989 126.000
10.05984 145.000
10.07979 121.000
10.09973 144.000
10.11968 133.000
10.13963 131.000
10.15958 128.000
10.17952 136.000
10.19947 136.000
10.21942 125.000
10.23936 126.000
10.25931 151.000
10.27926 128.000
10.29920 123.000
10.31915 124.000
10.33910 142.000
10.35905 135.000
10.37899 127.000
10.39894 131.000
10.41889 114.000
10.43883 146.000
10.45878 138.000
10.47873 141.000
10.49867 139.000
10.51862 172.000
10.53857 124.000
10.55851 126.000
10.57846 133.000
10.59841 143.000
10.61836 149.000
10.63830 125.000
10.65825 131.000
10.67820 124.000
10.69814 118.000
10.71809 119.000
10.73804 119.000
10.75798 127.000
10.77793 120.000
10.79788 134.000
10.81783 112.000
10.83777 148.000
10.85772 135.000
10.87767 157.000
10.89761 133.000
10.91756 131.000
10.93751 129.000
10.95745 146.000
10.97740 101.000
10.99735 121.000
11.01730 127.000
11.03724 131.000
11.05719 129.000
11.07714 128.000
11.09708 114.000
11.11703 130.000
11.13698 146.000
11.15692 100.000
11.17687 122.000
11.19682 121.000
11.21676 143.000
11.23671 117.000
11.25666 121.000
11.27661 117.000
11.29655 129.000
11.31650 140.000
11.33645 115.000
11.35639 131.000
11.37634 133.000
11.39629 151.000
11.41623 146.000
11.43618 131.000
11.45613 136.000
11.47608 128.000
11.49602 138.000
11.51597 125.000
11.53592 124.000
11.55586 136.000
11.57581 124.000
11.59576 138.000
11.61570 148.000
11.63565 117.000
11.65560 130.000
11.67554 136.000
11.69549 149.000
11.71544 138.000
11.73539 137.000
11.75533 145.000
11.77528 141.000
11.79523 131.000
11.81517 132.000
11.83512 138.000
11.85507 128.000
11.87501 117.000
11.89496 116.000
11.91491 146.000
11.93486 148.000
11.95480 127.000
11.97475 134.000
11.99470 136.000
12.01464 143.000
12.03459 121.000
12.05454 143.000
12.07448 116.000
12.09443 133.000
12.11438 152.000
12.13432 116.000
12.15427 129.000
12.17422 133.000
12.19417 146.000
12.21411 134.000
12.23406 141.000
12.25401 128.000
12.27395 129.000
12.29390 127.000
12.31385 110.000
12.33379 130.000
12.35374 133.000
12.37369 162.000
12.39364 133.000
12.41358 142.000
12.43353 127.000
12.45348 142.000
12.47342 150.000
12.49337 117.000
12.51332 128.000
12.53326 148.000
12.55321 134.000
12.57316 138.000
12.59311 142.000
12.61305 131.000
12.63300 140.000
12.65295 141.000
12.67289 128.000
12.69284 146.000
12.71279 120.000
12.73273 130.000
12.75268 141.000
12.77263 122.000
12.79257 168.000
12.81252 113.000
12.83247 130.000
12.85242 129.000
12.87236 143.000
12.89231 131.000
12.91226 161.000
12.93220 159.000
12.95215 134.000
12.97210 164.000
12.99204 117.000
13.01199 133.000
13.03194 144.000
13.05189 132.000
13.07183 121.000
13.09178 133.000
13.11173 117.000
13.13167 141.000
13.15162 139.000
13.17157 122.000
13.19151 139.000
13.21146 125.000
13.23141 115.000
13.25135 144.000
13.27130 139.000
13.29125 115.000
13.31120 130.000
13.33114 138.000
13.35109 144.000
13.37104 134.000
13.39098 142.000
13.41093 126.000
13.43088 143.000
13.45082 143.000
13.47077 144.000
13.49072 140.000
13.51067 123.000
13.53061 126.000
13.55056 129.000
13.57051 132.000
13.59045 127.000
13.61040 132.000
13.63035 134.000
13.65029 120.000
13.67024 122.000
13.69019 137.000
13.71013 142.000
13.73008 121.000
13.75003 121.000
13.76998 118.000
13.78992 126.000
13.80987 135.000
13.82982 113.000
13.84976 102.000
13.86971 132.000
13.88966 128.000
13.90960 133.000
13.92955 135.000
13.94950 138.000
13.96945 118.000
13.98939 125.000
14.00934 127.000
14.02929 133.000
14.04923 150.000
14.06918 121.000
14.08913 125.000
14.10907 126.000
14.12902 136.000
14.14897 128.000
14.16892 125.000
14.18886 147.000
14.20881 135.000
14.22876 102.000
14.24870 138.000
14.26865 131.000
14.28860 146.000
14.30854 128.000
14.32849 130.000
14.34844 128.000
14.36838 133.000
14.38833 133.000
14.40828 122.000
14.42823 131.000
14.44817 136.000
14.46812 157.000
14.48807 127.000
14.50801 151.000
14.52796 160.000
14.54791 124.000
14.56785 143.000
14.58780 136.000
14.60775 122.000
14.62770 148.000
14.64764 140.000
14.66759 141.000
14.68754 132.000
14.70748 136.000
14.72743 120.000
14.74738 140.000
14.76732 138.000
14.78727 130.000
14.80722 129.000
14.82716 132.000
14.84711 125.000
14.86706 147.000
14.88701 133.000
14.90695 173.000
14.92690 134.000
14.94685 169.000
14.96679 119.000
14.98674 138.000
15.00669 119.000
15.02663 150.000
15.04658 134.000
15.06653 153.000
15.08648 144.000
15.10642 131.000
15.12637 148.000
15.14632 152.000
15.16626 146.000
15.18621 133.000
15.20616 140.000
15.22610 124.000
15.24605 109.000
15.26600 128.000
15.28594 156.000
15.30589 147.000
15.32584 114.000
15.34579 141.000
15.36573 163.000
15.38568 157.000
15.40563 158.000
15.42557 160.000
15.44552 171.000
15.46547 153.000
15.48541 153.000
15.50536 140.000
15.52531 156.000
15.54526 148.000
15.56520 161.000
15.58515 204.000
15.60510 196.000
15.62504 204.000
15.64499 198.000
15.66494 233.000
15.68488 256.000
15.70483 270.000
15.72478 405.000
15.74472 516.000
15.76467 656.000
15.78462 850.000
15.80457 1150.000
15.82451 1462.000
15.84446 1733.000
15.86441 1757.000
15.88435 1621.000
15.90430 1225.000
15.92425 843.000
15.94419 539.000
15.96414 403.000
15.98409 375.000
16.00404 378.000
16.02398 415.000
16.04393 509.000
16.06388 629.000
16.08382 789.000
16.10377 857.000
16.12372 1036.000
16.14366 1081.000
16.16361 1123.000
16.18356 1135.000
16.20351 982.000
16.22345 974.000
16.24340 794.000
16.26335 649.000
16.28329 521.000
16.30324 470.000
16.32319 394.000
16.34313 314.000
16.36308 278.000
16.38303 249.000
16.40297 187.000
16.42292 194.000
16.44287 167.000
16.46282 182.000
16.48276 164.000
16.50271 179.000
16.52266 168.000
16.54260 169.000
16.56255 152.000
16.58250 160.000
16.60244 149.000
16.62239 163.000
16.64234 148.000
16.66229 134.000
16.68223 157.000
16.70218 194.000
16.72213 155.000
16.74207 168.000
16.76202 192.000
16.78197 198.000
16.80191 213.000
16.82186 216.000
16.84181 226.000
16.86175 192.000
16.88170 174.000
16.90165 169.000
16.92160 166.000
16.94154 161.000
16.96149 154.000
16.98144 167.000
17.00138 136.000
17.02133 155.000
17.04128 165.000
17.06122 159.000
17.08117 164.000
17.10112 150.000
17.12107 131.000
17.14101 135.000
17.16096 132.000
17.18091 130.000
17.20085 127.000
17.22080 126.000
17.24075 150.000
17.26069 137.000
17.28064 131.000
17.30059 159.000
17.32053 144.000
17.34048 130.000
17.36043 136.000
17.38038 128.000
17.40032 139.000
17.42027 144.000
17.44022 137.000
17.46016 134.000
17.48011 123.000
17.50006 127.000
17.52000 137.000
17.53995 129.000
17.55990 133.000
17.57985 148.000
17.59979 141.000
17.61974 153.000
17.63969 143.000
17.65963 119.000
17.67958 128.000
17.69953 120.000
17.71947 136.000
17.73942 137.000
17.75937 138.000
17.77932 148.000
17.79926 138.000
17.81921 131.000
17.83916 140.000
17.85910 159.000
17.87905 137.000
17.89900 146.000
17.91894 151.000
17.93889 123.000
17.95884 129.000
17.97878 137.000
17.99873 125.000
18.01868 144.000
18.03863 125.000
18.05857 157.000
18.07852 155.000
18.09847 141.000
18.11841 141.000
18.13836 150.000
18.15831 134.000
18.17825 140.000
18.19820 139.000
18.21815 148.000
18.23810 132.000
18.25804 138.000
18.27799 149.000
18.29794 157.000
18.31788 175.000
18.33783 217.000
18.35778 195.000
18.37772 225.000
18.39767 265.000
18.41762 209.000
18.43756 225.000
18.45751 180.000
18.47746 165.000
18.49741 140.000
18.51735 167.000
18.53730 138.000
18.55725 155.000
18.57719 141.000
18.59714 143.000
18.61709 123.000
18.63703 165.000
18.65698 149.000
18.67693 128.000
18.69688 139.000
18.71682 126.000
18.73677 152.000
18.75672 147.000
18.77666 164.000
18.79661 136.000
18.81656 136.000
18.83650 160.000
18.85645 143.000
18.87640 157.000
18.89634 143.000
18.91629 133.000
18.93624 131.000
18.95619 134.000
18.97613 134.000
18.99608 148.000
19.01603 134.000
19.03597 129.000
19.05592 128.000
19.07587 116.000
19.09581 130.000
19.11576 141.000
19.13571 152.000
19.15566 116.000
19.17560 125.000
19.19555 147.000
19.21550 141.000
19.23544 135.000
19.25539 105.000
19.27534 141.000
19.29528 129.000
19.31523 134.000
19.33518 149.000
19.35513 147.000
19.37507 170.000
19.39502 116.000
19.41497 139.000
19.43491 144.000
19.45486 149.000
19.47481 138.000
19.49475 130.000
19.51470 146.000
19.53465 138.000
19.55459 152.000
19.57454 134.000
19.59449 142.000
19.61444 138.000
19.63438 139.000
19.65433 117.000
19.67428 144.000
19.69422 129.000
19.71417 139.000
19.73412 156.000
19.75406 117.000
19.77401 134.000
19.79396 118.000
19.81391 142.000
19.83385 121.000
19.85380 123.000
19.87375 161.000
19.89369 138.000
19.91364 123.000
19.93359 144.000
19.95353 154.000
19.97348 130.000
19.99343 133.000
20.01337 135.000
20.03332 123.000
20.05327 169.000
20.07322 138.000
20.09316 127.000
20.11311 139.000
20.13306 136.000
20.15300 143.000
20.17295 153.000
20.19290 142.000
20.21284 126.000
20.23279 140.000
20.25274 163.000
20.27269 157.000
20.29263 128.000
20.31258 138.000
20.33253 147.000
20.35247 148.000
20.37242 113.000
20.39237 121.000
20.41231 131.000
20.43226 142.000
20.45221 155.000
20.47215 158.000
20.49210 134.000
20.51205 139.000
20.53200 150.000
20.55194 136.000
20.57189 182.000
20.59184 137.000
20.61178 147.000
20.63173 172.000
20.65168 154.000
20.67162 157.000
20.69157 166.000
20.71152 224.000
20.73147 169.000
20.75141 169.000
20.77136 172.000
20.79131 238.000
20.81125 223.000
20.83120 231.000
20.85115 230.000
20.87109 249.000
20.89104 247.000
20.91099 267.000
20.93094 247.000
20.95088 230.000
20.97083 274.000
20.99078 237.000
21.01072 215.000
21.03067 203.000
21.05062 190.000
21.07056 184.000
21.09051 190.000
21.11046 182.000
21.13040 150.000
21.15035 177.000
21.17030 184.000
21.19025 142.000
21.21019 141.000
21.23014 158.000
21.25009 154.000
21.27003 143.000
21.28998 154.000
21.30993 128.000
21.32987 114.000
21.34982 164.000
21.36977 155.000
21.38972 161.000
21.40966 137.000
21.42961 144.000
21.44956 127.000
21.46950 161.000
21.48945 140.000
21.50940 134.000
21.52934 146.000
21.54929 158.000
21.56924 153.000
21.58918 153.000
21.60913 138.000
21.62908 142.000
21.64903 147.000
21.66897 124.000
21.68892 143.000
21.70887 151.000
21.72881 144.000
21.74876 142.000
21.76871 149.000
21.78865 125.000
21.80860 137.000
21.82855 148.000
21.84850 157.000
21.86844 174.000
21.88839 142.000
21.90834 130.000
21.92828 148.000
21.94823 161.000
21.96818 171.000
21.98812 131.000
22.00807 143.000
22.02802 138.000
22.04796 152.000
22.06791 145.000
22.08786 164.000
22.10781 130.000
22.12775 144.000
22.14770 148.000
22.16765 144.000
22.18759 137.000
22.20754 133.000
22.22749 134.000
22.24743 145.000
22.26738 141.000
22.28733 130.000
22.30728 142.000
22.32722 140.000
22.34717 126.000
22.36712 152.000
22.38706 136.000
22.40701 135.000
22.42696 163.000
22.44690 138.000
22.46685 153.000
22.48680 143.000
22.50675 137.000
22.52669 125.000
22.54664 146.000
22.56659 144.000
22.58653 175.000
22.60648 147.000
22.62643 132.000
22.64637 165.000
22.66632 158.000
22.68627 143.000
22.70621 145.000
22.72616 126.000
22.74611 131.000
22.76606 151.000
22.78600 162.000
22.80595 131.000
22.82590 145.000
22.84584 156.000
22.86579 169.000
22.88574 134.000
22.90568 155.000
22.92563 137.000
22.94558 131.000
22.96553 135.000
22.98547 119.000
23.00542 166.000
23.02537 152.000
23.04531 147.000
23.06526 171.000
23.08521 137.000
23.10515 139.000
23.12510 139.000
23.14505 165.000
23.16499 138.000
23.18494 139.000
23.20489 136.000
23.22484 122.000
23.24478 134.000
23.26473 150.000
23.28468 133.000
23.30462 142.000
23.32457 129.000
23.34452 167.000
23.36446 148.000
23.38441 161.000
23.40436 149.000
23.42431 125.000
23.44425 144.000
23.46420 162.000
23.48415 135.000
23.50409 136.000
23.52404 133.000
23.54399 118.000
23.56393 152.000
23.58388 160.000
23.60383 142.000
23.62377 127.000
23.64372 158.000
23.66367 146.000
23.68362 138.000
23.70356 153.000
23.72351 158.000
23.74346 132.000
23.76340 130.000
23.78335 139.000
23.80330 132.000
23.82324 152.000
23.84319 132.000
23.86314 147.000
23.88309 150.000
23.90303 157.000
23.92298 162.000
23.94293 129.000
23.96287 140.000
23.98282 136.000
24.00277 140.000
24.02271 155.000
24.04266 152.000
24.06261 156.000
24.08256 152.000
24.10250 139.000
24.12245 148.000
24.14240 143.000
24.16234 130.000
24.18229 147.000
24.20224 132.000
24.22218 155.000
24.24213 129.000
24.26208 150.000
24.28202 158.000
24.30197 139.000
24.32192 130.000
24.34187 163.000
24.36181 150.000
24.38176 156.000
24.40171 139.000
24.42165 139.000
24.44160 144.000
24.46155 140.000
24.48149 171.000
24.50144 148.000
24.52139 136.000
24.54134 112.000
24.56128 147.000
24.58123 147.000
24.60118 140.000
24.62112 152.000
24.64107 155.000
24.66102 138.000
24.68096 150.000
24.70091 171.000
24.72086 154.000
24.74080 177.000
24.76075 162.000
24.78070 154.000
24.80065 150.000
24.82059 166.000
24.84054 158.000
24.86049 178.000
24.88043 137.000
24.90038 151.000
24.92033 170.000
24.94027 176.000
24.96022 193.000
24.98017 182.000
25.00012 197.000
25.02006 161.000
25.04001 169.000
25.05996 151.000
25.07990 171.000
25.09985 142.000
25.11980 155.000
25.13974 161.000
25.15969 154.000
25.17964 141.000
25.19958 159.000
25.21953 157.000
25.23948 141.000
25.25943 152.000
25.27937 146.000
25.29932 135.000
25.31927 164.000
25.33921 157.000
25.35916 135.000
25.37911 146.000
25.39905 159.000
25.41900 145.000
25.43895 151.000
25.45890 150.000
25.47884 143.000
25.49879 168.000
25.51874 166.000
25.53868 145.000
25.55863 152.000
25.57858 155.000
25.59852 148.000
25.61847 126.000
25.63842 160.000
25.65837 160.000
25.67831 160.000
25.69826 156.000
25.71821 151.000
25.73815 135.000
25.75810 136.000
25.77805 145.000
25.79799 141.000
25.81794 146.000
25.83789 160.000
25.85783 150.000
25.87778 145.000
25.89773 177.000
25.91768 146.000
25.93762 163.000
25.95757 185.000
25.97752 153.000
25.99746 150.000
26.01741 146.000
26.03736 165.000
26.05730 163.000
26.07725 183.000
26.09720 137.000
26.11715 164.000
26.13709 166.000
26.15704 144.000
26.17699 153.000
26.19693 175.000
26.21688 156.000
26.23683 146.000
26.25677 148.000
26.27672 137.000
26.29667 133.000
26.31661 156.000
26.33656 150.000
26.35651 142.000
26.37646 139.000
26.39640 179.000
26.41635 144.000
26.43630 167.000
26.45624 179.000
26.47619 157.000
26.49614 129.000
26.51608 144.000
26.53603 154.000
26.55598 144.000
26.57593 162.000
26.59587 154.000
26.61582 181.000
26.63577 174.000
26.65571 137.000
26.67566 159.000
26.69561 170.000
26.71555 158.000
26.73550 158.000
26.75545 177.000
26.77539 165.000
26.79534 147.000
26.81529 159.000
26.83524 159.000
26.85518 157.000
26.87513 130.000
26.89508 167.000
26.91502 190.000
26.93497 139.000
26.95492 153.000
26.97486 152.000
26.99481 163.000
27.01476 180.000
27.03471 139.000
27.05465 145.000
27.07460 175.000
27.09455 179.000
27.11449 151.000
27.13444 189.000
27.15439 169.000
27.17433 141.000
27.19428 178.000
27.21423 154.000
27.23417 153.000
27.25412 176.000
27.27407 163.000
27.29402 164.000
27.31396 190.000
27.33391 163.000
27.35386 158.000
27.37380 136.000
27.39375 186.000
27.41370 198.000
27.43364 169.000
27.45359 146.000
27.47354 166.000
27.49349 160.000
27.51343 153.000
27.53338 163.000
27.55333 160.000
27.57327 165.000
27.59322 148.000
27.61317 177.000
27.63311 148.000
27.65306 173.000
27.67301 162.000
27.69296 172.000
27.71290 181.000
27.73285 149.000
27.75280 150.000
27.77274 178.000
27.79269 139.000
27.81264 177.000
27.83258 187.000
27.85253 156.000
27.87248 147.000
27.89242 156.000
27.91237 160.000
27.93232 152.000
27.95227 170.000
27.97221 165.000
27.99216 174.000
28.01211 169.000
28.03205 169.000
28.05200 171.000
28.07195 160.000
28.09189 168.000
28.11184 187.000
28.13179 169.000
28.15174 158.000
28.17168 179.000
28.19163 167.000
28.21158 198.000
28.23152 172.000
28.25147 173.000
28.27142 149.000
28.29136 159.000
28.31131 158.000
28.33126 172.000
28.35120 159.000
28.37115 152.000
28.39110 188.000
28.41105 170.000
28.43099 190.000
28.45094 154.000
28.47089 157.000
28.49083 173.000
28.51078 169.000
28.53073 143.000
28.55067 187.000
28.57062 169.000
28.59057 140.000
28.61052 146.000
28.63046 166.000
28.65041 176.000
28.67036 169.000
28.69030 151.000
28.71025 169.000
28.73020 166.000
28.75014 179.000
28.77009 173.000
28.79004 166.000
28.80998 150.000
28.82993 174.000
28.84988 152.000
28.86983 163.000
28.88977 165.000
28.90972 153.000
28.92967 183.000
28.94961 171.000
28.96956 167.000
28.98951 183.000
29.00945 173.000
29.02940 161.000
29.04935 171.000
29.06930 159.000
29.08924 199.000
29.10919 181.000
29.12914 166.000
29.14908 175.000
29.16903 197.000
29.18898 196.000
29.20892 204.000
29.22887 205.000
29.24882 220.000
29.26877 250.000
29.28871 269.000
29.30866 290.000
29.32861 272.000
29.34855 310.000
29.36850 243.000
29.38845 279.000
29.40839 288.000
29.42834 264.000
29.44829 255.000
29.46823 235.000
29.48818 242.000
29.50813 200.000
29.52808 205.000
29.54802 202.000
29.56797 187.000
29.58792 213.000
29.60786 184.000
29.62781 182.000
29.64776 175.000
29.66770 184.000
29.68765 176.000
29.70760 160.000
29.72755 195.000
29.74749 187.000
29.76744 158.000
29.78739 158.000
29.80733 192.000
29.82728 206.000
29.84723 156.000
29.86717 183.000
29.88712 170.000
29.90707 168.000
29.92701 184.000
29.94696 169.000
29.96691 187.000
29.98686 208.000
30.00680 238.000
30.02675 188.000
30.04670 214.000
30.06664 199.000
30.08659 217.000
30.10654 227.000
30.12648 252.000
30.14643 229.000
30.16638 248.000
30.18633 266.000
30.20627 306.000
30.22622 354.000
30.24617 351.000
30.26611 388.000
30.28606 431.000
30.30601 353.000
30.32595 309.000
30.34590 347.000
30.36585 321.000
30.38579 254.000
30.40574 238.000
30.42569 229.000
30.44564 190.000
30.46558 194.000
30.48553 191.000
30.50548 161.000
30.52542 173.000
30.54537 204.000
30.56532 177.000
30.58526 192.000
30.60521 199.000
30.62516 172.000
30.64511 186.000
30.66505 202.000
30.68500 185.000
30.70495 183.000
30.72489 174.000
30.74484 181.000
30.76479 177.000
30.78473 194.000
30.80468 197.000
30.82463 166.000
30.84458 185.000
30.86452 176.000
30.88447 159.000
30.90442 190.000
30.92436 165.000
30.94431 188.000
30.96426 184.000
30.98420 142.000
31.00415 169.000
31.02410 157.000
31.04404 161.000
31.06399 187.000
31.08394 172.000
31.10389 165.000
31.12383 176.000
31.14378 177.000
31.16373 175.000
31.18367 172.000
31.20362 169.000
31.22357 154.000
31.24351 173.000
31.26346 160.000
31.28341 169.000
31.30336 169.000
31.32330 189.000
31.34325 181.000
31.36320 167.000
31.38314 173.000
31.40309 179.000
31.42304 201.000
31.44298 211.000
31.46293 155.000
31.48288 176.000
31.50282 172.000
31.52277 185.000
31.54272 190.000
31.56267 188.000
31.58261 162.000
31.60256 172.000
31.62251 178.000
31.64245 189.000
31.66240 194.000
31.68235 169.000
31.70229 166.000
31.72224 191.000
31.74219 177.000
31.76214 176.000
31.78208 168.000
31.80203 164.000
31.82198 201.000
31.84192 192.000
31.86187 210.000
31.88182 198.000
31.90176 205.000
31.92171 218.000
31.94166 209.000
31.96160 242.000
31.98155 242.000
32.00150 290.000
32.02145 310.000
32.04139 285.000
32.06134 296.000
32.08129 305.000
32.10123 327.000
32.12118 287.000
32.14113 240.000
32.16107 264.000
32.18102 252.000
32.20097 210.000
32.22092 178.000
32.24086 176.000
32.26081 155.000
32.28076 191.000
32.30070 199.000
32.32065 183.000
32.34060 162.000
32.36054 167.000
32.38049 191.000
32.40044 174.000
32.42039 178.000
32.44033 191.000
32.46028 210.000
32.48023 208.000
32.50017 176.000
32.52012 213.000
32.54007 220.000
32.56001 212.000
32.57996 208.000
32.59991 226.000
32.61985 259.000
32.63980 238.000
32.65975 236.000
32.67970 241.000
32.69964 256.000
32.71959 298.000
32.73954 243.000
32.75948 261.000
32.77943 254.000
32.79938 242.000
32.81932 231.000
32.83927 227.000
32.85922 218.000
32.87917 231.000
32.89911 220.000
32.91906 206.000
32.93901 201.000
32.95895 198.000
32.97890 186.000
32.99885 169.000
33.01879 201.000
33.03874 171.000
33.05869 201.000
33.07863 208.000
33.09858 176.000
33.11853 160.000
33.13848 185.000
33.15842 179.000
33.17837 166.000
33.19832 188.000
33.21826 179.000
33.23821 147.000
33.25816 194.000
33.27810 175.000
33.29805 170.000
33.31800 175.000
33.33795 169.000
33.35789 183.000
33.37784 161.000
33.39779 164.000
33.41773 147.000
33.43768 163.000
33.45763 182.000
33.47757 161.000
33.49752 183.000
33.51747 157.000
33.53741 167.000
33.55736 166.000
33.57731 177.000
33.59726 158.000
33.61720 143.000
33.63715 184.000
33.65710 175.000
33.67704 155.000
33.69699 178.000
33.71694 179.000
33.73688 171.000
33.75683 182.000
33.77678 173.000
33.79673 152.000
33.81667 168.000
33.83662 163.000
33.85657 160.000
33.87651 169.000
33.89646 163.000
33.91641 174.000
33.93635 175.000
33.95630 197.000
33.97625 190.000
33.99620 176.000
34.01614 198.000
34.03609 196.000
34.05604 181.000
34.07598 192.000
34.09593 206.000
34.11588 247.000
34.13582 214.000
34.15577 194.000
34.17572 247.000
34.19566 223.000
34.21561 218.000
34.23556 229.000
34.25551 213.000
34.27545 258.000
34.29540 241.000
34.31535 283.000
34.33529 247.000
34.35524 246.000
34.37519 258.000
34.39513 234.000
34.41508 237.000
34.43503 231.000
34.45498 262.000
34.47492 257.000
34.49487 247.000
34.51482 253.000
34.53476 255.000
34.55471 260.000
34.57466 241.000
34.59460 239.000
34.61455 219.000
34.63450 242.000
34.65444 228.000
34.67439 210.000
34.69434 286.000
34.71429 233.000
34.73423 240.000
34.75418 204.000
34.77413 233.000
34.79407 241.000
34.81402 273.000
34.83397 248.000
34.85391 229.000
34.87386 239.000
34.89381 248.000
34.91376 243.000
34.93370 207.000
34.95365 191.000
34.97360 216.000
34.99354 215.000
35.01349 220.000
35.03344 190.000
35.05338 189.000
35.07333 200.000
35.09328 235.000
35.11322 217.000
35.13317 207.000
35.15312 221.000
35.17307 220.000
35.19301 236.000
35.21296 219.000
35.23291 216.000
35.25285 206.000
35.27280 206.000
35.29275 207.000
35.31269 225.000
35.33264 248.000
35.35259 230.000
35.37254 247.000
35.39248 290.000
35.41243 262.000
35.43238 304.000
35.45232 360.000
35.47227 352.000
35.49222 410.000
35.51216 450.000
35.53211 535.000
35.55206 648.000
35.57201 755.000
35.59195 858.000
35.61190 980.000
35.63185 1020.000
35.65179 1153.000
35.67174 1150.000
35.69169 1064.000
35.71163 979.000
35.73158 895.000
35.75153 837.000
35.77147 741.000
35.79142 622.000
35.81137 547.000
35.83132 502.000
35.85126 423.000
35.87121 377.000
35.89116 334.000
35.91110 298.000
35.93105 267.000
35.95100 244.000
35.97094 245.000
35.99089 237.000
36.01084 222.000
36.03079 200.000
36.05073 217.000
36.07068 226.000
36.09063 197.000
36.11057 198.000
36.13052 192.000
36.15047 215.000
36.17041 210.000
36.19036 236.000
36.21031 234.000
36.23025 213.000
36.25020 170.000
36.27015 203.000
36.29010 210.000
36.31004 220.000
36.32999 191.000
36.34994 220.000
36.36988 223.000
36.38983 184.000
36.40978 220.000
36.42972 216.000
36.44967 190.000
36.46962 221.000
36.48957 226.000
36.50951 191.000
36.52946 213.000
36.54941 226.000
36.56935 224.000
36.58930 243.000
36.60925 262.000
36.62919 260.000
36.64914 235.000
36.66909 278.000
36.68903 262.000
36.70898 282.000
36.72893 291.000
36.74888 300.000
36.76882 315.000
36.78877 324.000
36.80872 371.000
36.82866 413.000
36.84861 424.000
36.86856 423.000
36.88850 452.000
36.90845 473.000
36.92840 481.000
36.94835 527.000
36.96829 457.000
36.98824 571.000
37.00819 580.000
37.02813 604.000
37.04808 677.000
37.06803 829.000
37.08797 1072.000
37.10792 1387.000
37.12787 1846.000
37.14781 2314.000
37.16776 2958.000
37.18771 3158.000
37.20766 3055.000
37.22760 2782.000
37.24755 2532.000
37.26750 2348.000
37.28744 2050.000
37.30739 1717.000
37.32734 1339.000
37.34728 1037.000
37.36723 801.000
37.38718 637.000
37.40713 540.000
37.42707 404.000
37.44702 358.000
37.46697 311.000
37.48691 289.000
37.50686 266.000
37.52681 236.000
37.54675 228.000
37.56670 241.000
37.58665 242.000
37.60660 193.000
37.62654 229.000
37.64649 223.000
37.66644 196.000
37.68638 206.000
37.70633 169.000
37.72628 192.000
37.74622 204.000
37.76617 178.000
37.78612 178.000
37.80606 170.000
37.82601 211.000
37.84596 176.000
37.86591 193.000
37.88585 175.000
37.90580 194.000
37.92575 190.000
37.94569 180.000
37.96564 197.000
37.98559 193.000
38.00553 188.000
38.02548 191.000
38.04543 166.000
38.06538 196.000
38.08532 168.000
38.10527 170.000
38.12522 178.000
38.14516 179.000
38.16511 183.000
38.18506 170.000
38.20500 151.000
38.22495 157.000
38.24490 154.000
38.26484 164.000
38.28479 189.000
38.30474 172.000
38.32469 184.000
38.34463 153.000
38.36458 177.000
38.38453 170.000
38.40447 201.000
38.42442 157.000
38.44437 176.000
38.46431 171.000
38.48426 177.000
38.50421 193.000
38.52416 201.000
38.54410 180.000
38.56405 179.000
38.58400 178.000
38.60394 205.000
38.62389 157.000
38.64384 196.000
38.66378 171.000
38.68373 157.000
38.70368 161.000
38.72362 178.000
38.74357 164.000
38.76352 196.000
38.78347 174.000
38.80341 182.000
38.82336 167.000
38.84331 169.000
38.86325 176.000
38.88320 178.000
38.90315 199.000
38.92309 203.000
38.94304 172.000
38.96299 198.000
38.98294 187.000
39.00288 196.000
39.02283 203.000
39.04278 193.000
39.06272 237.000
39.08267 252.000
39.10262 281.000
39.12256 320.000
39.14251 333.000
39.16246 397.000
39.18241 446.000
39.20235 457.000
39.22230 464.000
39.24225 470.000
39.26219 474.000
39.28214 505.000
39.30209 456.000
39.32203 434.000
39.34198 431.000
39.36193 395.000
39.38187 378.000
39.40182 375.000
39.42177 337.000
39.44172 302.000
39.46166 296.000
39.48161 250.000
39.50156 235.000
39.52150 220.000
39.54145 197.000
39.56140 196.000
39.58134 188.000
39.60129 169.000
39.62124 185.000
39.64119 159.000
39.66113 171.000
39.68108 168.000
39.70103 172.000
39.72097 173.000
39.74092 190.000
39.76087 172.000
39.78081 163.000
39.80076 186.000
39.82071 139.000
39.84065 179.000
39.86060 182.000
39.88055 155.000
39.90050 133.000
39.92044 134.000
39.94039 181.000
39.96034 143.000
39.98028 161.000
40.00023 179.000
40.02018 169.000
40.04012 155.000
40.06007 157.000
40.08002 159.000
40.09997 176.000
40.11991 169.000
40.13986 163.000
40.15981 160.000
40.17975 155.000
40.19970 152.000
40.21965 183.000
40.23959 165.000
40.25954 150.000
40.27949 137.000
40.29943 158.000
40.31938 160.000
40.33933 179.000
40.35928 153.000
40.37922 172.000
40.39917 176.000
40.41912 166.000
40.43906 173.000
40.45901 146.000
40.47896 158.000
40.49890 160.000
40.51885 168.000
40.53880 138.000
40.55875 167.000
40.57869 170.000
40.59864 152.000
40.61859 144.000
40.63853 179.000
40.65848 181.000
40.67843 153.000
40.69837 170.000
40.71832 156.000
40.73827 182.000
40.75822 164.000
40.77816 139.000
40.79811 173.000
40.81806 170.000
40.83800 126.000
40.85795 149.000
40.87790 167.000
40.89784 181.000
40.91779 172.000
40.93774 157.000
40.95768 164.000
40.97763 158.000
40.99758 172.000
41.01753 171.000
41.03747 161.000
41.05742 171.000
41.07737 179.000
41.09731 200.000
41.11726 190.000
41.13721 167.000
41.15715 170.000
41.17710 216.000
41.19705 176.000
41.21700 187.000
41.23694 175.000
41.25689 196.000
41.27684 201.000
41.29678 200.000
41.31673 181.000
41.33668 203.000
41.35662 207.000
41.37657 213.000
41.39652 220.000
41.41646 212.000
41.43641 231.000
41.45636 222.000
41.47631 253.000
41.49625 320.000
41.51620 267.000
41.53615 331.000
41.55609 385.000
41.57604 486.000
41.59599 541.000
41.61593 612.000
41.63588 820.000
41.65583 839.000
41.67578 993.000
41.69572 1023.000
41.71567 968.000
41.73562 943.000
41.75556 835.000
41.77551 808.000
41.79546 706.000
41.81540 646.000
41.83535 579.000
41.85530 501.000
41.87524 447.000
41.89519 379.000
41.91514 308.000
41.93509 286.000
41.95503 246.000
41.97498 264.000
41.99493 239.000
42.01487 249.000
42.03482 222.000
42.05477 208.000
42.07471 218.000
42.09466 239.000
42.11461 189.000
42.13456 175.000
42.15450 172.000
42.17445 198.000
42.19440 180.000
42.21434 210.000
42.23429 195.000
42.25424 194.000
42.27418 181.000
42.29413 192.000
42.31408 189.000
42.33403 181.000
42.35397 196.000
42.37392 209.000
42.39387 193.000
42.41381 224.000
42.43376 202.000
42.45371 180.000
42.47365 217.000
42.49360 199.000
42.51355 200.000
42.53349 206.000
42.55344 229.000
42.57339 222.000
42.59334 237.000
42.61328 213.000
42.63323 265.000
42.65318 242.000
42.67312 269.000
42.69307 273.000
42.71302 268.000
42.73296 298.000
42.75291 260.000
42.77286 276.000
42.79281 284.000
42.81275 329.000
42.83270 295.000
42.85265 293.000
42.87259 321.000
42.89254 341.000
42.91249 366.000
42.93243 462.000
42.95238 383.000
42.97233 476.000
42.99227 501.000
43.01222 571.000
43.03217 604.000
43.05212 687.000
43.07206 853.000
43.09201 1017.000
43.11196 1299.000
43.13190 1893.000
43.15185 2648.000
43.17180 3477.000
43.19174 4512.000
43.21169 4837.000
43.23164 4820.000
43.25159 4376.000
43.27153 3980.000
43.29148 3584.000
43.31143 3378.000
43.33137 3256.000
43.35132 2721.000
43.37127 2297.000
43.39121 1821.000
43.41116 1308.000
43.43111 1040.000
43.45105 794.000
43.47100 668.000
43.49095 584.000
43.51090 503.000
43.53084 475.000
43.55079 415.000
43.57074 351.000
43.59068 272.000
43.61063 294.000
43.63058 257.000
43.65052 247.000
43.67047 264.000
43.69042 216.000
43.71037 204.000
43.73031 234.000
43.75026 211.000
43.77021 214.000
43.79015 200.000
43.81010 186.000
43.83005 189.000
43.84999 192.000
43.86994 186.000
43.88989 216.000
43.90984 162.000
43.92978 166.000
43.94973 157.000
43.96968 210.000
43.98962 175.000
44.00957 197.000
44.02952 182.000
44.04946 207.000
44.06941 174.000
44.08936 172.000
44.10930 169.000
44.12925 158.000
44.14920 157.000
44.16915 173.000
44.18909 183.000
44.20904 171.000
44.22899 155.000
44.24893 178.000
44.26888 165.000
44.28883 160.000
44.30877 177.000
44.32872 174.000
44.34867 163.000
44.36862 164.000
44.38856 178.000
44.40851 165.000
44.42846 143.000
44.44840 171.000
44.46835 161.000
44.48830 170.000
44.50824 156.000
44.52819 175.000
44.54814 179.000
44.56808 157.000
44.58803 166.000
44.60798 157.000
44.62793 173.000
44.64787 178.000
44.66782 148.000
44.68777 170.000
44.70771 146.000
44.72766 166.000
44.74761 159.000
44.76755 147.000
44.78750 151.000
44.80745 152.000
44.82740 165.000
44.84734 177.000
44.86729 168.000
44.88724 153.000
44.90718 149.000
44.92713 182.000
44.94708 177.000
44.96702 191.000
44.98697 195.000
45.00692 206.000
45.02686 181.000
45.04681 196.000
45.06676 190.000
45.08671 180.000
45.10665 198.000
45.12660 201.000
45.14655 178.000
45.16649 181.000
45.18644 182.000
45.20639 180.000
45.22633 170.000
45.24628 147.000
45.26623 169.000
45.28618 166.000
45.30612 174.000
45.32607 165.000
45.34602 168.000
45.36596 156.000
45.38591 156.000
45.40586 155.000
45.42580 162.000
45.44575 170.000
45.46570 157.000
45.48565 151.000
45.50559 169.000
45.52554 149.000
45.54549 169.000
45.56543 143.000
45.58538 162.000
45.60533 181.000
45.62527 166.000
45.64522 171.000
45.66517 147.000
45.68511 169.000
45.70506 158.000
45.72501 161.000
45.74496 161.000
45.76490 143.000
45.78485 171.000
45.80480 156.000
45.82474 156.000
45.84469 152.000
45.86464 147.000
45.88458 136.000
45.90453 158.000
45.92448 159.000
45.94443 163.000
45.96437 170.000
45.98432 161.000
46.00427 170.000
46.02421 159.000
46.04416 175.000
46.06411 140.000
46.08405 144.000
46.10400 144.000
46.12395 148.000
46.14389 157.000
46.16384 138.000
46.18379 157.000
46.20374 157.000
46.22368 143.000
46.24363 156.000
46.26358 149.000
46.28352 141.000
46.30347 171.000
46.32342 158.000
46.34336 144.000
46.36331 129.000
46.38326 144.000
46.40321 146.000
46.42315 181.000
46.44310 154.000
46.46305 148.000
46.48299 160.000
46.50294 180.000
46.52289 165.000
46.54283 157.000
46.56278 138.000
46.58273 155.000
46.60267 133.000
46.62262 150.000
46.64257 150.000
46.66252 154.000
46.68246 157.000
46.70241 148.000
46.72236 128.000
46.74230 133.000
46.76225 143.000
46.78220 136.000
46.80214 146.000
46.82209 134.000
46.84204 130.000
46.86199 138.000
46.88193 147.000
46.90188 141.000
46.92183 138.000
46.94177 142.000
46.96172 156.000
46.98167 147.000
47.00161 161.000
47.02156 144.000
47.04151 156.000
47.06146 152.000
47.08140 149.000
47.10135 153.000
47.12130 159.000
47.14124 136.000
47.16119 149.000
47.18114 142.000
47.20108 147.000
47.22103 98.000
47.24098 143.000
47.26092 152.000
47.28087 142.000
47.30082 154.000
47.32077 153.000
47.34071 151.000
47.36066 134.000
47.38061 139.000
47.40055 167.000
47.42050 123.000
47.44045 139.000
47.46039 153.000
47.48034 140.000
47.50029 162.000
47.52024 142.000
47.54018 137.000
47.56013 150.000
47.58008 152.000
47.60002 156.000
47.61997 155.000
47.63992 150.000
47.65986 151.000
47.67981 150.000
47.69976 155.000
47.71970 139.000
47.73965 142.000
47.75960 167.000
47.77955 144.000
47.79949 152.000
47.81944 154.000
47.83939 153.000
47.85933 156.000
47.87928 154.000
47.89923 176.000
47.91917 172.000
47.93912 159.000
47.95907 180.000
47.97902 148.000
47.99896 182.000
48.01891 162.000
48.03886 181.000
48.05880 160.000
48.07875 172.000
48.09870 175.000
48.11864 173.000
48.13859 160.000
48.15854 168.000
48.17848 163.000
48.19843 185.000
48.21838 171.000
48.23833 164.000
48.25827 163.000
48.27822 162.000
48.29817 146.000
48.31811 158.000
48.33806 161.000
48.35801 166.000
48.37795 169.000
48.39790 172.000
48.41785 171.000
48.43780 217.000
48.45774 222.000
48.47769 180.000
48.49764 169.000
48.51758 212.000
48.53753 210.000
48.55748 252.000
48.57742 281.000
48.59737 297.000
48.61732 353.000
48.63726 387.000
48.65721 426.000
48.67716 468.000
48.69711 467.000
48.71705 426.000
48.73700 438.000
48.75695 395.000
48.77689 410.000
48.79684 395.000
48.81679 372.000
48.83673 358.000
48.85668 335.000
48.87663 317.000
48.89658 274.000
48.91652 280.000
48.93647 233.000
48.95642 207.000
48.97636 200.000
48.99631 194.000
49.01626 182.000
49.03620 179.000
49.05615 184.000
49.07610 182.000
49.09605 161.000
49.11599 172.000
49.13594 177.000
49.15589 159.000
49.17583 175.000
49.19578 144.000
49.21573 146.000
49.23567 165.000
49.25562 162.000
49.27557 163.000
49.29551 162.000
49.31546 157.000
49.33541 166.000
49.35536 174.000
49.37530 173.000
49.39525 149.000
49.41520 154.000
49.43514 144.000
49.45509 161.000
49.47504 173.000
49.49498 179.000
49.51493 161.000
49.53488 163.000
49.55483 162.000
49.57477 137.000
49.59472 159.000
49.61467 174.000
49.63461 152.000
49.65456 143.000
49.67451 134.000
49.69445 149.000
49.71440 157.000
49.73435 171.000
49.75429 152.000
49.77424 154.000
49.79419 150.000
49.81414 177.000
49.83408 145.000
49.85403 145.000
49.87398 139.000
49.89392 149.000
49.91387 159.000
49.93382 163.000
49.95376 150.000
49.97371 157.000
49.99366 148.000
50.01361 141.000
50.03355 141.000
50.05350 152.000
50.07345 147.000
50.09339 156.000
50.11334 159.000
50.13329 163.000
50.15323 156.000
50.17318 151.000
50.19313 137.000
50.21307 131.000
50.23302 141.000
50.25297 166.000
50.27292 155.000
50.29286 156.000
50.31281 147.000
50.33276 154.000
50.35270 134.000
50.37265 122.000
50.39260 151.000
50.41254 133.000
50.43249 140.000
50.45244 167.000
50.47239 167.000
50.49233 156.000
50.51228 139.000
50.53223 136.000
50.55217 158.000
50.57212 161.000
50.59207 158.000
50.61201 145.000
50.63196 159.000
50.65191 153.000
50.67186 126.000
50.69180 148.000
50.71175 128.000
50.73170 127.000
50.75164 136.000
50.77159 145.000
50.79154 130.000
50.81148 131.000
50.83143 176.000
50.85138 150.000
50.87132 147.000
50.89127 146.000
50.91122 135.000
50.93117 123.000
50.95111 155.000
50.97106 148.000
50.99101 170.000
51.01095 155.000
51.03090 158.000
51.05085 147.000
51.07079 153.000
51.09074 154.000
51.11069 132.000
51.13064 144.000
51.15058 149.000
51.17053 160.000
51.19048 147.000
51.21042 141.000
51.23037 134.000
51.25032 162.000
51.27026 142.000
51.29021 158.000
51.31016 146.000
51.33010 156.000
51.35005 148.000
51.37000 173.000
51.38995 159.000
51.40989 139.000
51.42984 148.000
51.44979 161.000
51.46973 164.000
51.48968 156.000
51.50963 124.000
51.52957 124.000
51.54952 161.000
51.56947 160.000
51.58942 135.000
51.60936 122.000
51.62931 138.000
51.64926 139.000
51.66920 152.000
51.68915 163.000
51.70910 140.000
51.72904 155.000
51.74899 150.000
51.76894 154.000
51.78888 152.000
51.80883 141.000
51.82878 144.000
51.84873 166.000
51.86867 150.000
51.88862 148.000
51.90857 157.000
51.92851 155.000
51.94846 198.000
51.96841 164.000
51.98835 171.000
52.00830 153.000
52.02825 170.000
52.04820 183.000
52.06814 192.000
52.08809 176.000
52.10804 165.000
52.12798 169.000
52.14793 180.000
52.16788 183.000
52.18782 202.000
52.20777 200.000
52.22772 165.000
52.24767 167.000
52.26761 175.000
52.28756 151.000
52.30751 173.000
52.32745 163.000
52.34740 166.000
52.36735 168.000
52.38729 132.000
52.40724 159.000
52.42719 158.000
52.44713 131.000
52.46708 132.000
52.48703 171.000
52.50698 151.000
52.52692 159.000
52.54687 166.000
52.56682 152.000
52.58676 143.000
52.60671 150.000
52.62666 172.000
52.64660 152.000
52.66655 167.000
52.68650 168.000
52.70645 166.000
52.72639 144.000
52.74634 154.000
52.76629 156.000
52.78623 144.000
52.80618 164.000
52.82613 174.000
52.84607 187.000
52.86602 166.000
52.88597 171.000
52.90591 190.000
52.92586 213.000
52.94581 197.000
52.96576 193.000
52.98570 216.000
53.00565 249.000
53.02560 213.000
53.04554 232.000
53.06549 232.000
53.08544 236.000
53.10538 233.000
53.12533 254.000
53.14528 217.000
53.16523 195.000
53.18517 193.000
53.20512 225.000
53.22507 225.000
53.24501 202.000
53.26496 201.000
53.28491 171.000
53.30485 205.000
53.32480 170.000
53.34475 177.000
53.36469 154.000
53.38464 162.000
53.40459 169.000
53.42454 159.000
53.44448 179.000
53.46443 157.000
53.48438 140.000
53.50432 156.000
53.52427 168.000
53.54422 170.000
53.56416 123.000
53.58411 175.000
53.60406 168.000
53.62401 163.000
53.64395 170.000
53.66390 168.000
53.68385 163.000
53.70379 171.000
53.72374 201.000
53.74369 175.000
53.76363 177.000
53.78358 172.000
53.80353 207.000
53.82348 173.000
53.84342 229.000
53.86337 181.000
53.88332 201.000
53.90326 206.000
53.92321 179.000
53.94316 163.000
53.96310 139.000
53.98305 192.000
54.00300 172.000
54.02294 183.000
54.04289 170.000
54.06284 146.000
54.08279 165.000
54.10273 145.000
54.12268 162.000
54.14263 149.000
54.16257 154.000
54.18252 162.000
54.20247 159.000
54.22241 146.000
54.24236 157.000
54.26231 142.000
54.28226 123.000
54.30220 155.000
54.32215 148.000
54.34210 151.000
54.36204 166.000
54.38199 142.000
54.40194 172.000
54.42188 157.000
54.44183 131.000
54.46178 159.000
54.48172 150.000
54.50167 147.000
54.52162 140.000
54.54157 145.000
54.56151 132.000
54.58146 151.000
54.60141 152.000
54.62135 163.000
54.64130 147.000
54.66125 151.000
54.68119 176.000
54.70114 142.000
54.72109 167.000
54.74104 154.000
54.76098 133.000
54.78093 156.000
54.80088 126.000
54.82082 152.000
54.84077 162.000
54.86072 159.000
54.88066 138.000
54.90061 155.000
54.92056 168.000
54.94050 144.000
54.96045 139.000
54.98040 140.000
55.00035 141.000
55.02029 136.000
55.04024 126.000
55.06019 157.000
55.08013 148.000
55.10008 147.000
55.12003 140.000
55.13997 132.000
55.15992 152.000
55.17987 141.000
55.19982 147.000
55.21976 153.000
55.23971 157.000
55.25966 139.000
55.27960 126.000
55.29955 127.000
55.31950 177.000
55.33944 152.000
55.35939 158.000
55.37934 133.000
55.39929 159.000
55.41923 152.000
55.43918 148.000
55.45913 137.000
55.47907 158.000
55.49902 126.000
55.51897 136.000
55.53891 143.000
55.55886 139.000
55.57881 166.000
55.59875 164.000
55.61870 154.000
55.63865 142.000
55.65860 140.000
55.67854 154.000
55.69849 144.000
55.71844 167.000
55.73838 142.000
55.75833 134.000
55.77828 159.000
55.79822 135.000
55.81817 150.000
55.83812 151.000
55.85807 149.000
55.87801 163.000
55.89796 168.000
55.91791 144.000
55.93785 138.000
55.95780 146.000
55.97775 128.000
55.99769 139.000
56.01764 142.000
56.03759 140.000
56.05753 138.000
56.07748 145.000
56.09743 154.000
56.11738 158.000
56.13732 172.000
56.15727 158.000
56.17722 161.000
56.19716 163.000
56.21711 152.000
56.23706 150.000
56.25700 154.000
56.27695 153.000
56.29690 168.000
56.31685 139.000
56.33679 165.000
56.35674 145.000
56.37669 144.000
56.39663 142.000
56.41658 152.000
56.43653 144.000
56.45647 155.000
56.47642 155.000
56.49637 156.000
56.51631 137.000
56.53626 159.000
56.55621 141.000
56.57616 142.000
56.59610 144.000
56.61605 170.000
56.63600 158.000
56.65594 161.000
56.67589 156.000
56.69584 153.000
56.71578 156.000
56.73573 134.000
56.75568 153.000
56.77563 139.000
56.79557 153.000
56.81552 160.000
56.83547 160.000
56.85541 163.000
56.87536 142.000
56.89531 159.000
56.91525 172.000
56.93520 160.000
56.95515 161.000
56.97510 198.000
56.99504 150.000
57.01499 174.000
57.03494 183.000
57.05488 205.000
57.07483 178.000
57.09478 208.000
57.11472 194.000
57.13467 197.000
57.15462 214.000
57.17456 215.000
57.19451 223.000
57.21446 249.000
57.23441 258.000
57.25435 238.000
57.27430 270.000
57.29425 267.000
57.31419 294.000
57.33414 285.000
57.35409 305.000
57.37403 290.000
57.39398 346.000
57.41393 298.000
57.43388 308.000
57.45382 296.000
57.47377 311.000
57.49372 320.000
57.51366 317.000
57.53361 317.000
57.55356 313.000
57.57350 313.000
57.59345 291.000
57.61340 303.000
57.63334 301.000
57.65329 290.000
57.67324 319.000
57.69319 330.000
57.71313 286.000
57.73308 297.000
57.75303 298.000
57.77297 248.000
57.79292 258.000
57.81287 257.000
57.83281 245.000
57.85276 243.000
57.87271 237.000
57.89266 227.000
57.91260 221.000
57.93255 191.000
57.95250 183.000
57.97244 190.000
57.99239 207.000
58.01234 180.000
58.03228 204.000
58.05223 188.000
58.07218 174.000
58.09212 165.000
58.11207 170.000
58.13202 179.000
58.15197 156.000
58.17191 161.000
58.19186 146.000
58.21181 149.000
58.23175 176.000
58.25170 131.000
58.27165 150.000
58.29159 162.000
58.31154 181.000
58.33149 167.000
58.35144 165.000
58.37138 153.000
58.39133 164.000
58.41128 157.000
58.43122 153.000
58.45117 156.000
58.47112 168.000
58.49106 127.000
58.51101 166.000
58.53096 133.000
58.55090 159.000
58.57085 146.000
58.59080 165.000
58.61075 132.000
58.63069 159.000
58.65064 133.000
58.67059 135.000
58.69053 149.000
58.71048 186.000
58.73043 134.000
58.75037 132.000
58.77032 138.000
58.79027 151.000
58.81022 137.000
58.83016 153.000
58.85011 143.000
58.87006 128.000
58.89000 177.000
58.90995 142.000
58.92990 143.000
58.94984 151.000
58.96979 155.000
58.98974 144.000
59.00969 139.000
59.02963 136.000
59.04958 149.000
59.06953 140.000
59.08947 153.000
59.10942 139.000
59.12937 142.000
59.14931 160.000
59.16926 153.000
59.18921 158.000
59.20915 141.000
59.22910 133.000
59.24905 134.000
59.26900 160.000
59.28894 140.000
59.30889 162.000
59.32884 155.000
59.34878 142.000
59.36873 156.000
59.38868 165.000
59.40862 160.000
59.42857 150.000
59.44852 130.000
59.46847 153.000
59.48841 136.000
59.50836 169.000
59.52831 148.000
59.54825 164.000
59.56820 154.000
59.58815 127.000
59.60809 151.000
59.62804 164.000
59.64799 131.000
59.66793 154.000
59.68788 163.000
59.70783 166.000
59.72778 167.000
59.74772 156.000
59.76767 147.000
59.78762 134.000
59.80756 156.000
59.82751 148.000
59.84746 149.000
59.86740 160.000
59.88735 157.000
59.90730 163.000
59.92725 138.000
59.94719 133.000
59.96714 159.000
59.98709 152.000
60.00703 152.000
60.02698 170.000
60.04693 153.000
60.06687 161.000
60.08682 161.000
60.10677 145.000
60.12671 166.000
60.14666 155.000
60.16661 137.000
60.18656 166.000
60.20650 151.000
60.22645 170.000
60.24640 165.000
60.26634 154.000
60.28629 162.000
60.30624 170.000
60.32618 162.000
60.34613 160.000
60.36608 152.000
60.38603 157.000
60.40597 158.000
60.42592 151.000
60.44587 159.000
60.46581 148.000
60.48576 134.000
60.50571 165.000
60.52565 144.000
60.54560 167.000
60.56555 163.000
60.58550 154.000
60.60544 150.000
60.62539 148.000
60.64534 156.000
60.66528 148.000
60.68523 175.000
60.70518 166.000
60.72512 158.000
60.74507 153.000
60.76502 145.000
60.78496 136.000
60.80491 149.000
60.82486 144.000
60.84481 177.000
60.86475 185.000
60.88470 179.000
60.90465 157.000
60.92459 142.000
60.94454 144.000
60.96449 156.000
60.98443 147.000
61.00438 162.000
61.02433 139.000
61.04428 160.000
61.06422 165.000
61.08417 141.000
61.10412 162.000
61.12406 131.000
61.14401 169.000
61.16396 155.000
61.18390 150.000
61.20385 138.000
61.22380 164.000
61.24374 162.000
61.26369 145.000
61.28364 137.000
61.30359 164.000
61.32353 164.000
61.34348 146.000
61.36343 151.000
61.38337 179.000
61.40332 172.000
61.42327 183.000
61.44321 180.000
61.46316 164.000
61.48311 185.000
61.50306 181.000
61.52300 155.000
61.54295 166.000
61.56290 196.000
61.58284 197.000
61.60279 183.000
61.62274 190.000
61.64268 170.000
61.66263 182.000
61.68258 195.000
61.70252 188.000
61.72247 186.000
61.74242 191.000
61.76237 178.000
61.78231 179.000
61.80226 219.000
61.82221 217.000
61.84215 197.000
61.86210 209.000
61.88205 200.000
61.90199 247.000
61.92194 222.000
61.94189 248.000
61.96184 265.000
61.98178 323.000
62.00173 299.000
62.02168 305.000
62.04162 322.000
62.06157 320.000
62.08152 303.000
62.10146 285.000
62.12141 286.000
62.14136 275.000
62.16131 276.000
62.18125 282.000
62.20120 275.000
62.22115 256.000
62.24109 269.000
62.26104 285.000
62.28099 243.000
62.30093 268.000
62.32088 275.000
62.34083 270.000
62.36077 249.000
62.38072 235.000
62.40067 274.000
62.42062 266.000
62.44056 276.000
62.46051 269.000
62.48046 300.000
62.50040 322.000
62.52035 357.000
62.54030 375.000
62.56024 388.000
62.58019 424.000
62.60014 512.000
62.62009 529.000
62.64003 682.000
62.65998 711.000
62.67993 922.000
62.69987 1113.000
62.71982 1438.000
62.73977 1611.000
62.75971 1774.000
62.77966 1816.000
62.79961 1796.000
62.81955 1783.000
62.83950 1658.000
62.85945 1593.000
62.87940 1555.000
62.89934 1549.000
62.91929 1450.000
62.93924 1476.000
62.95918 1362.000
62.97913 1272.000
62.99908 1221.000
63.01902 1076.000
63.03897 947.000
63.05892 894.000
63.07887 753.000
63.09881 643.000
63.11876 582.000
63.13871 521.000
63.15865 492.000
63.17860 494.000
63.19855 455.000
63.21849 402.000
63.23844 420.000
63.25839 363.000
63.27833 335.000
63.29828 310.000
63.31823 292.000
63.33818 302.000
63.35812 292.000
63.37807 262.000
63.39802 242.000
63.41796 238.000
63.43791 233.000
63.45786 214.000
63.47780 216.000
63.49775 223.000
63.51770 205.000
63.53765 212.000
63.55759 181.000
63.57754 211.000
63.59749 194.000
63.61743 171.000
63.63738 184.000
63.65733 203.000
63.67727 190.000
63.69722 177.000
63.71717 187.000
63.73712 191.000
63.75706 187.000
63.77701 165.000
63.79696 175.000
63.81690 195.000
63.83685 192.000
63.85680 203.000
63.87674 245.000
63.89669 210.000
63.91664 217.000
63.93658 237.000
63.95653 225.000
63.97648 227.000
63.99643 238.000
64.01637 228.000
64.03632 255.000
64.05627 225.000
64.07621 260.000
64.09616 255.000
64.11611 220.000
64.13605 217.000
64.15600 211.000
64.17595 230.000
64.19590 204.000
64.21584 207.000
64.23579 193.000
64.25574 220.000
64.27568 206.000
64.29563 195.000
64.31558 208.000
64.33552 231.000
64.35547 223.000
64.37542 196.000
64.39536 212.000
64.41531 201.000
64.43526 195.000
64.45521 210.000
64.47515 198.000
64.49510 192.000
64.51505 174.000
64.53499 185.000
64.55494 188.000
64.57489 174.000
64.59483 173.000
64.61478 168.000
64.63473 152.000
64.65468 176.000
64.67462 145.000
64.69457 147.000
64.71452 144.000
64.73446 168.000
64.75441 162.000
64.77436 174.000
64.79430 160.000
64.81425 150.000
64.83420 160.000
64.85414 159.000
64.87409 157.000
64.89404 145.000
64.91399 148.000
64.93393 164.000
64.95388 152.000
64.97383 179.000
64.99377 167.000
65.01372 165.000
65.03367 167.000
65.05361 156.000
65.07356 158.000
65.09351 153.000
65.11346 161.000
65.13340 160.000
65.15335 149.000
65.17330 161.000
65.19324 160.000
65.21319 156.000
65.23314 168.000
65.25308 161.000
65.27303 136.000
65.29298 162.000
65.31293 157.000
65.33287 183.000
65.35282 191.000
65.37277 168.000
65.39271 167.000
65.41266 176.000
65.43261 186.000
65.45255 193.000
65.47250 190.000
65.49245 196.000
65.51239 187.000
65.53234 202.000
65.55229 216.000
65.57224 214.000
65.59218 212.000
65.61213 231.000
65.63208 222.000
65.65202 220.000
65.67197 198.000
65.69192 223.000
65.71186 205.000
65.73181 206.000
65.75176 234.000
65.77171 215.000
65.79165 213.000
65.81160 201.000
65.83155 191.000
65.85149 178.000
65.87144 186.000
65.89139 184.000
65.91133 182.000
65.93128 174.000
65.95123 188.000
65.97117 170.000
65.99112 168.000
66.01107 175.000
66.03102 174.000
66.05096 190.000
66.07091 210.000
66.09086 177.000
66.11080 156.000
66.13075 166.000
66.15070 176.000
66.17064 182.000
66.19059 163.000
66.21054 152.000
66.23049 180.000
66.25043 185.000
66.27038 188.000
66.29033 168.000
66.31027 167.000
66.33022 198.000
66.35017 193.000
66.37011 203.000
66.39006 228.000
66.41001 168.000
66.42995 205.000
66.44990 193.000
66.46985 199.000
66.48980 231.000
66.50974 199.000
66.52969 174.000
66.54964 166.000
66.56958 203.000
66.58953 198.000
66.60948 203.000
66.62942 200.000
66.64937 177.000
66.66932 174.000
66.68927 167.000
66.70921 171.000
66.72916 174.000
66.74911 168.000
66.76905 187.000
66.78900 197.000
66.80895 183.000
66.82889 168.000
66.84884 178.000
66.86879 199.000
66.88874 195.000
66.90868 179.000
66.92863 163.000
66.94858 158.000
66.96852 154.000
66.98847 182.000
67.00842 167.000
67.02836 170.000
67.04831 177.000
67.06826 164.000
67.08820 172.000
67.10815 160.000
67.12810 154.000
67.14805 155.000
67.16799 170.000
67.18794 137.000
67.20789 171.000
67.22783 168.000
67.24778 170.000
67.26773 145.000
67.28767 147.000
67.30762 141.000
67.32757 164.000
67.34752 174.000
67.36746 170.000
67.38741 148.000
67.40736 163.000
67.42730 170.000
67.44725 142.000
67.46720 134.000
67.48714 185.000
67.50709 160.000
67.52704 153.000
67.54698 166.000
67.56693 142.000
67.58688 150.000
67.60683 163.000
67.62677 162.000
67.64672 155.000
67.66667 161.000
67.68661 132.000
67.70656 154.000
67.72651 168.000
67.74645 155.000
67.76640 167.000
67.78635 167.000
67.80630 166.000
67.82624 173.000
67.84619 176.000
67.86614 171.000
67.88608 176.000
67.90603 164.000
67.92598 178.000
67.94592 157.000
67.96587 186.000
67.98582 190.000
68.00576 180.000
68.02571 156.000
68.04566 154.000
68.06561 167.000
68.08555 169.000
68.10550 169.000
68.12545 171.000
68.14539 156.000
68.16534 144.000
68.18529 191.000
68.20523 169.000
68.22518 166.000
68.24513 150.000
68.26508 175.000
68.28502 146.000
68.30497 168.000
68.32492 155.000
68.34486 181.000
68.36481 126.000
68.38476 157.000
68.40470 156.000
68.42465 170.000
68.44460 159.000
68.46455 170.000
68.48449 154.000
68.50444 174.000
68.52439 166.000
68.54433 154.000
68.56428 146.000
68.58423 149.000
68.60417 191.000
68.62412 165.000
68.64407 127.000
68.66401 140.000
68.68396 170.000
68.70391 149.000
68.72386 154.000
68.74380 148.000
68.76375 153.000
68.78370 171.000
68.80364 143.000
68.82359 149.000
68.84354 150.000
68.86348 146.000
68.88343 139.000
68.90338 141.000
68.92333 174.000
68.94327 155.000
68.96322 155.000
68.98317 152.000
69.00311 158.000
69.02306 157.000
69.04301 154.000
69.06295 142.000
69.08290 134.000
69.10285 157.000
69.12279 160.000
69.14274 153.000
69.16269 175.000
69.18264 156.000
69.20258 150.000
69.22253 147.000
69.24248 146.000
69.26242 153.000
69.28237 148.000
69.30232 160.000
69.32226 114.000
69.34221 157.000
69.36216 149.000
69.38211 149.000
69.40205 123.000
69.42200 133.000
69.44195 165.000
69.46189 136.000
69.48184 119.000
69.50179 150.000
69.52173 123.000
69.54168 169.000
69.56163 137.000
69.58157 146.000
69.60152 168.000
69.62147 157.000
69.64142 137.000
69.66136 151.000
69.68131 140.000
69.70126 151.000
69.72120 127.000
69.74115 140.000
69.76110 134.000
69.78104 137.000
69.80099 145.000
69.82094 121.000
69.84089 149.000
69.86083 143.000
69.88078 146.000
69.90073 157.000
69.92067 133.000
69.94062 128.000
69.96057 151.000
69.98051 110.000
70.00046 138.000
70.02041 129.000
70.04035 142.000
70.06030 159.000
70.08025 136.000
70.10020 158.000
70.12014 144.000
70.14009 150.000
70.16004 141.000
70.17998 153.000
70.19993 186.000
70.21988 132.000
70.23982 111.000
70.25977 142.000
70.27972 132.000
70.29967 137.000
70.31961 146.000
70.33956 156.000
70.35951 145.000
70.37945 146.000
70.39940 137.000
70.41935 130.000
70.43929 142.000
70.45924 131.000
70.47919 136.000
70.49914 159.000
70.51908 121.000
70.53903 162.000
70.55898 145.000
70.57892 129.000
70.59887 155.000
70.61882 150.000
70.63876 126.000
70.65871 153.000
70.67866 158.000
70.69860 151.000
70.71855 130.000
70.73850 140.000
70.75845 136.000
70.77839 134.000
70.79834 147.000
70.81829 124.000
70.83823 125.000
70.85818 168.000
70.87813 137.000
70.89807 144.000
70.91802 138.000
70.93797 150.000
70.95792 135.000
70.97786 154.000
70.99781 119.000
71.01776 140.000
71.03770 152.000
71.05765 146.000
71.07760 146.000
71.09754 140.000
71.11749 140.000
71.13744 149.000
71.15738 145.000
71.17733 155.000
71.19728 153.000
71.21723 132.000
71.23717 149.000
71.25712 139.000
71.27707 152.000
71.29701 136.000
71.31696 152.000
71.33691 142.000
71.35685 151.000
71.37680 147.000
71.39675 163.000
71.41670 154.000
71.43664 146.000
71.45659 142.000
71.47654 165.000
71.49648 156.000
71.51643 167.000
71.53638 143.000
71.55632 166.000
71.57627 185.000
71.59622 178.000
71.61616 164.000
71.63611 166.000
71.65606 147.000
71.67601 144.000
71.69595 169.000
71.71590 156.000
71.73585 163.000
71.75579 145.000
71.77574 173.000
71.79569 151.000
71.81563 165.000
71.83558 175.000
71.85553 172.000
71.87548 151.000
71.89542 174.000
71.91537 131.000
71.93532 140.000
71.95526 156.000
71.97521 146.000
71.99516 134.000
72.01510 157.000
72.03505 130.000
72.05500 164.000
72.07495 153.000
72.09489 167.000
72.11484 145.000
72.13479 164.000
72.15473 146.000
72.17468 152.000
72.19463 142.000
72.21457 149.000
72.23452 170.000
72.25447 146.000
72.27441 165.000
72.29436 140.000
72.31431 165.000
72.33426 158.000
72.35420 147.000
72.37415 138.000
72.39410 142.000
72.41404 129.000
72.43399 144.000
72.45394 164.000
72.47388 142.000
72.49383 165.000
72.51378 159.000
72.53373 143.000
72.55367 165.000
72.57362 161.000
72.59357 151.000
72.61351 148.000
72.63346 148.000
72.65341 153.000
72.67335 160.000
72.69330 166.000
72.71325 147.000
72.73319 152.000
72.75314 166.000
72.77309 151.000
72.79304 149.000
72.81298 184.000
72.83293 180.000
72.85288 187.000
72.87282 188.000
72.89277 177.000
72.91272 176.000
72.93266 181.000
72.95261 202.000
72.97256 199.000
72.99251 176.000
73.01245 196.000
73.03240 188.000
73.05235 188.000
73.07229 200.000
73.09224 154.000
73.11219 176.000
73.13213 183.000
73.15208 200.000
73.17203 193.000
73.19197 182.000
73.21192 214.000
73.23187 176.000
73.25182 176.000
73.27176 172.000
73.29171 161.000
73.31166 189.000
73.33160 188.000
73.35155 185.000
73.37150 180.000
73.39144 186.000
73.41139 150.000
73.43134 181.000
73.45129 184.000
73.47123 175.000
73.49118 184.000
73.51113 201.000
73.53107 194.000
73.55102 169.000
73.57097 206.000
73.59091 198.000
73.61086 174.000
73.63081 160.000
73.65076 176.000
73.67070 189.000
73.69065 161.000
73.71060 175.000
73.73054 165.000
73.75049 163.000
73.77044 166.000
73.79038 153.000
73.81033 164.000
73.83028 152.000
73.85022 159.000
73.87017 156.000
73.89012 170.000
73.91007 174.000
73.93001 145.000
73.94996 147.000
73.96991 162.000
73.98985 169.000
74.00980 150.000
74.02975 165.000
74.04969 146.000
74.06964 161.000
74.08959 148.000
74.10954 157.000
74.12948 135.000
74.14943 168.000
74.16938 159.000
74.18932 141.000
74.20927 140.000
74.22922 152.000
74.24916 132.000
74.26911 171.000
74.28906 154.000
74.30900 153.000
74.32895 181.000
74.34890 158.000
74.36885 160.000
74.38879 176.000
74.40874 158.000
74.42869 152.000
74.44863 172.000
74.46858 171.000
74.48853 192.000
74.50847 170.000
74.52842 176.000
74.54837 178.000
74.56832 208.000
74.58826 194.000
74.60821 183.000
74.62816 205.000
74.64810 212.000
74.66805 196.000
74.68800 208.000
74.70794 200.000
74.72789 176.000
74.74784 181.000
74.76778 181.000
74.78773 193.000
74.80768 190.000
74.82763 193.000
74.84757 189.000
74.86752 192.000
74.88747 182.000
74.90741 183.000
74.92736 203.000
74.94731 188.000
74.96725 170.000
74.98720 207.000
75.00715 229.000
75.02710 213.000
75.04704 228.000
75.06699 243.000
75.08694 244.000
75.10688 264.000
75.12683 294.000
75.14678 326.000
75.16672 365.000
75.18667 405.000
75.20662 478.000
75.22657 535.000
75.24651 601.000
75.26646 668.000
75.28641 671.000
75.30635 725.000
75.32630 680.000
75.34625 678.000
75.36619 577.000
75.38614 598.000
75.40609 557.000
75.42603 534.000
75.44598 539.000
75.46593 533.000
75.48588 494.000
75.50582 484.000
75.52577 470.000
75.54572 475.000
75.56566 456.000
75.58561 381.000
75.60556 401.000
75.62550 322.000
75.64545 331.000
75.66540 286.000
75.68535 249.000
75.70529 212.000
75.72524 249.000
75.74519 208.000
75.76513 166.000
75.78508 189.000
75.80503 192.000
75.82497 180.000
75.84492 188.000
75.86487 191.000
75.88481 176.000
75.90476 174.000
75.92471 154.000
75.94466 167.000
75.96460 167.000
75.98455 170.000
76.00450 145.000
76.02444 172.000
76.04439 168.000
76.06434 162.000
76.08428 164.000
76.10423 166.000
76.12418 148.000
76.14413 156.000
76.16407 174.000
76.18402 148.000
76.20397 136.000
76.22391 145.000
76.24386 149.000
76.26381 152.000
76.28375 155.000
76.30370 140.000
76.32365 174.000
76.34359 146.000
76.36354 176.000
76.38349 153.000
76.40344 150.000
76.42338 152.000
76.44333 171.000
76.46328 125.000
76.48322 151.000
76.50317 157.000
76.52312 139.000
76.54306 153.000
76.56301 127.000
76.58296 138.000
76.60291 132.000
76.62285 149.000
76.64280 146.000
76.66275 166.000
76.68269 150.000
76.70264 133.000
76.72259 142.000
76.74253 154.000
76.76248 142.000
76.78243 130.000
76.80238 137.000
76.82232 145.000
76.84227 154.000
76.86222 156.000
76.88216 143.000
76.90211 155.000
76.92206 154.000
76.94200 153.000
76.96195 120.000
76.98190 151.000
77.00184 152.000
77.02179 139.000
77.04174 136.000
77.06169 146.000
77.08163 147.000
77.10158 162.000
77.12153 158.000
77.14147 157.000
77.16142 142.000
77.18137 149.000
77.20131 160.000
77.22126 139.000
77.24121 158.000
77.26116 172.000
77.28110 138.000
77.30105 136.000
77.32100 147.000
77.34094 157.000
77.36089 166.000
77.38084 163.000
77.40078 160.000
77.42073 144.000
77.44068 161.000
77.46062 152.000
77.48057 144.000
77.50052 157.000
77.52047 135.000
77.54041 149.000
77.56036 130.000
77.58031 152.000
77.60025 150.000
77.62020 162.000
77.64015 152.000
77.66009 166.000
77.68004 171.000
77.69999 157.000
77.71994 166.000
77.73988 145.000
77.75983 195.000
77.77978 160.000
77.79972 180.000
77.81967 173.000
77.83962 151.000
77.85956 128.000
77.87951 151.000
77.89946 169.000
77.91940 197.000
77.93935 153.000
77.95930 166.000
77.97925 160.000
77.99919 158.000
78.01914 183.000
78.03909 145.000
78.05903 178.000
78.07898 146.000
78.09893 160.000
78.11887 174.000
78.13882 177.000
78.15877 180.000
78.17872 158.000
78.19866 163.000
78.21861 186.000
78.23856 180.000
78.25850 188.000
78.27845 182.000
78.29840 198.000
78.31834 181.000
78.33829 173.000
78.35824 203.000
78.37819 242.000
78.39813 206.000
78.41808 215.000
78.43803 195.000
78.45797 185.000
78.47792 203.000
78.49787 180.000
78.51781 191.000
78.53776 198.000
78.55771 181.000
78.57765 199.000
78.59760 202.000
78.61755 194.000
78.63750 190.000
78.65744 206.000
78.67739 199.000
78.69734 195.000
78.71728 178.000
78.73723 194.000
78.75718 203.000
78.77712 167.000
78.79707 215.000
78.81702 193.000
78.83697 186.000
78.85691 178.000
78.87686 197.000
78.89681 192.000
78.91675 232.000
78.93670 193.000
78.95665 201.000
78.97659 203.000
78.99654 210.000
79.01649 219.000
79.03643 229.000
79.05638 191.000
79.07633 232.000
79.09628 249.000
79.11622 251.000
79.13617 287.000
79.15612 287.000
79.17606 349.000
79.19601 397.000
79.21596 440.000
79.23590 493.000
79.25585 452.000
79.27580 501.000
79.29575 498.000
79.31569 509.000
79.33564 477.000
79.35559 477.000
79.37553 442.000
79.39548 452.000
79.41543 419.000
79.43537 410.000
79.45532 389.000
79.47527 356.000
79.49521 386.000
79.51516 337.000
79.53511 355.000
79.55506 371.000
79.57500 331.000
79.59495 293.000
79.61490 280.000
79.63484 268.000
79.65479 279.000
79.67474 246.000
79.69468 236.000
79.71463 206.000
79.73458 201.000
79.75453 204.000
79.77447 173.000
79.79442 160.000
79.81437 168.000
79.83431 170.000
79.85426 176.000
79.87421 159.000
79.89415 154.000
79.91410 165.000
79.93405 168.000
79.95399 169.000
79.97394 142.000
79.99389 152.000
80.01384 136.000
80.03378 156.000
80.05373 139.000
80.07368 145.000
80.09362 149.000
80.11357 130.000
80.13352 143.000
80.15346 139.000
80.17341 155.000
80.19336 156.000
80.21331 140.000
80.23325 179.000
80.25320 130.000
80.27315 154.000
80.29309 126.000
80.31304 163.000
80.33299 138.000
80.35293 146.000
80.37288 132.000
80.39283 146.000
80.41278 141.000
80.43272 150.000
80.45267 144.000
80.47262 159.000
80.49256 169.000
80.51251 158.000
80.53246 155.000
80.55240 145.000
80.57235 170.000
80.59230 154.000
80.61224 157.000
80.63219 142.000
80.65214 150.000
80.67209 136.000
80.69203 143.000
80.71198 161.000
80.73193 154.000
80.75187 152.000
80.77182 156.000
80.79177 130.000
80.81171 152.000
80.83166 169.000
80.85161 148.000
80.87156 135.000
80.89150 161.000
80.91145 157.000
80.93140 149.000
80.95134 134.000
80.97129 151.000
80.99124 145.000
81.01118 148.000
81.03113 149.000
81.05108 132.000
81.07102 157.000
81.09097 146.000
81.11092 159.000
81.13087 134.000
81.15081 163.000
81.17076 158.000
81.19071 134.000
81.21065 138.000
81.23060 144.000
81.25055 147.000
81.27049 130.000
81.29044 147.000
81.31039 153.000
81.33034 138.000
81.35028 138.000
81.37023 121.000
81.39018 130.000
81.41012 126.000
81.43007 122.000
81.45002 137.000
81.46996 140.000
81.48991 125.000
81.50986 136.000
81.52980 151.000
81.54975 140.000
81.56970 133.000
81.58965 137.000
81.60959 137.000
81.62954 147.000
81.64949 132.000
81.66943 148.000
81.68938 148.000
81.70933 137.000
81.72927 125.000
81.74922 148.000
81.76917 129.000
81.78912 146.000
81.80906 152.000
81.82901 122.000
81.84896 130.000
81.86890 160.000
81.88885 144.000
81.90880 124.000
81.92874 152.000
81.94869 119.000
81.96864 145.000
81.98859 143.000
82.00853 122.000
82.02848 137.000
82.04843 135.000
82.06837 139.000
82.08832 149.000
82.10827 148.000
82.12821 140.000
82.14816 151.000
82.16811 150.000
82.18805 137.000
82.20800 136.000
82.22795 144.000
82.24790 138.000
82.26784 143.000
82.28779 164.000
82.30774 139.000
82.32768 124.000
82.34763 142.000
82.36758 116.000
82.38752 128.000
82.40747 134.000
82.42742 143.000
82.44737 157.000
82.46731 145.000
82.48726 161.000
82.50721 141.000
82.52715 123.000
82.54710 117.000
82.56705 151.000
82.58699 134.000
82.60694 139.000
82.62689 152.000
82.64683 151.000
82.66678 140.000
82.68673 147.000
82.70668 134.000
82.72662 154.000
82.74657 140.000
82.76652 129.000
82.78646 129.000
82.80641 134.000
82.82636 161.000
82.84630 154.000
82.86625 155.000
82.88620 148.000
82.90615 134.000
82.92609 128.000
82.94604 118.000
82.96599 120.000
82.98593 144.000
83.00588 165.000
83.02583 129.000
83.04577 126.000
83.06572 147.000
83.08567 150.000
83.10561 151.000
83.12556 140.000
83.14551 152.000
83.16546 157.000
83.18540 133.000
83.20535 134.000
83.22530 138.000
83.24524 134.000
83.26519 171.000
83.28514 162.000
83.30508 144.000
83.32503 140.000
83.34498 147.000
83.36493 131.000
83.38487 134.000
83.40482 137.000
83.42477 161.000
83.44471 151.000
83.46466 161.000
83.48461 155.000
83.50455 147.000
83.52450 126.000
83.54445 129.000
83.56440 140.000
83.58434 140.000
83.60429 120.000
83.62424 137.000
83.64418 135.000
83.66413 132.000
83.68408 134.000
83.70402 132.000
83.72397 153.000
83.74392 136.000
83.76386 148.000
83.78381 144.000
83.80376 142.000
83.82371 135.000
83.84365 157.000
83.86360 141.000
83.88355 150.000
83.90349 127.000
83.92344 144.000
83.94339 147.000
83.96333 154.000
83.98328 127.000
84.00323 139.000
84.02318 157.000
84.04312 147.000
84.06307 152.000
84.08302 124.000
84.10296 155.000
84.12291 144.000
84.14286 164.000
84.16280 150.000
84.18275 154.000
84.20270 170.000
84.22264 157.000
84.24259 159.000
84.26254 158.000
84.28249 128.000
84.30243 160.000
84.32238 151.000
84.34233 169.000
84.36227 152.000
84.38222 182.000
84.40217 164.000
84.42211 168.000
84.44206 140.000
84.46201 163.000
84.48196 177.000
84.50190 166.000
84.52185 180.000
84.54180 157.000
84.56174 192.000
84.58169 161.000
84.60164 178.000
84.62158 172.000
84.64153 154.000
84.66148 173.000
84.68142 167.000
84.70137 168.000
84.72132 139.000
84.74127 153.000
84.76121 142.000
84.78116 170.000
84.80111 166.000
84.82105 162.000
84.84100 185.000
84.86095 148.000
84.88089 142.000
84.90084 151.000
84.92079 147.000
84.94074 156.000
84.96068 154.000
84.98063 136.000
85.00058 141.000
85.02052 159.000
85.04047 148.000
85.06042 168.000
85.08036 147.000
85.10031 153.000
85.12026 165.000
85.14021 147.000
85.16015 152.000
85.18010 134.000
85.20005 127.000
85.21999 145.000
85.23994 142.000
85.25989 154.000
85.27983 147.000
85.29978 134.000
85.31973 139.000
85.33967 130.000
85.35962 137.000
85.37957 137.000
85.39952 145.000
85.41946 135.000
85.43941 157.000
85.45936 139.000
85.47930 133.000
85.49925 154.000
85.51920 132.000
85.53914 120.000
85.55909 141.000
85.57904 143.000
85.59899 160.000
85.61893 142.000
85.63888 142.000
85.65883 128.000
85.67877 120.000
85.69872 138.000
85.71867 148.000
85.73861 122.000
85.75856 129.000
85.77851 146.000
85.79845 152.000
85.81840 134.000
85.83835 131.000
85.85830 131.000
85.87824 155.000
85.89819 140.000
85.91814 125.000
85.93808 158.000
85.95803 130.000
85.97798 154.000
85.99792 134.000
86.01787 136.000
86.03782 118.000
86.05777 149.000
86.07771 133.000
86.09766 141.000
86.11761 153.000
86.13755 155.000
86.15750 146.000
86.17745 179.000
86.19739 154.000
86.21734 141.000
86.23729 130.000
86.25723 149.000
86.27718 135.000
86.29713 156.000
86.31708 131.000
86.33702 143.000
86.35697 142.000
86.37692 166.000
86.39686 137.000
86.41681 142.000
86.43676 133.000
86.45670 137.000
86.47665 134.000
86.49660 139.000
86.51655 125.000
86.53649 134.000
86.55644 158.000
86.57639 123.000
86.59633 151.000
86.61628 144.000
86.63623 146.000
86.65617 149.000
86.67612 143.000
86.69607 140.000
86.71602 174.000
86.73596 160.000
86.75591 167.000
86.77586 142.000
86.79580 145.000
86.81575 154.000
86.83570 144.000
86.85564 140.000
86.87559 138.000
86.89554 153.000
86.91548 145.000
86.93543 147.000
86.95538 154.000
86.97533 171.000
86.99527 153.000
87.01522 165.000
87.03517 154.000
87.05511 187.000
87.07506 157.000
87.09501 169.000
87.11495 155.000
87.13490 170.000
87.15485 170.000
87.17480 153.000
87.19474 155.000
87.21469 154.000
87.23464 147.000
87.25458 136.000
87.27453 170.000
87.29448 157.000
87.31442 150.000
87.33437 166.000
87.35432 178.000
87.37426 137.000
87.39421 165.000
87.41416 183.000
87.43411 169.000
87.45405 180.000
87.47400 142.000
87.49395 180.000
87.51389 138.000
87.53384 152.000
87.55379 166.000
87.57373 144.000
87.59368 168.000
87.61363 168.000
87.63358 154.000
87.65352 160.000
87.67347 166.000
87.69342 138.000
87.71336 139.000
87.73331 160.000
87.75326 138.000
87.77320 161.000
87.79315 140.000
87.81310 158.000
87.83304 151.000
87.85299 136.000
87.87294 144.000
87.89289 119.000
87.91283 151.000
87.93278 146.000
87.95273 147.000
87.97267 159.000
87.99262 141.000
88.01257 141.000
88.03251 134.000
88.05246 127.000
88.07241 113.000
88.09236 154.000
88.11230 142.000
88.13225 140.000
88.15220 139.000
88.17214 154.000
88.19209 153.000
88.21204 142.000
88.23198 141.000
88.25193 138.000
88.27188 142.000
88.29183 138.000
88.31177 132.000
88.33172 139.000
88.35167 122.000
88.37161 139.000
88.39156 148.000
88.41151 135.000
88.43145 146.000
88.45140 145.000
88.47135 137.000
88.49129 136.000
88.51124 154.000
88.53119 141.000
88.55114 158.000
88.57108 147.000
88.59103 133.000
88.61098 141.000
88.63092 125.000
88.65087 136.000
88.67082 134.000
88.69076 130.000
88.71071 131.000
88.73066 144.000
88.75061 164.000
88.77055 149.000
88.79050 170.000
88.81045 139.000
88.83039 142.000
88.85034 167.000
88.87029 159.000
88.89023 132.000
88.91018 138.000
88.93013 144.000
88.95007 140.000
88.97002 132.000
88.98997 137.000
89.00992 139.000
89.02986 148.000
89.04981 145.000
89.06976 148.000
89.08970 137.000
89.10965 138.000
89.12960 135.000
89.14954 149.000
89.16949 158.000
89.18944 148.000
89.20939 152.000
89.22933 119.000
89.24928 141.000
89.26923 146.000
89.28917 144.000
89.30912 146.000
89.32907 143.000
89.34901 163.000
89.36896 148.000
89.38891 120.000
89.40885 144.000
89.42880 140.000
89.44875 129.000
89.46870 148.000
89.48864 139.000
89.50859 148.000
89.52854 180.000
89.54848 137.000
89.56843 127.000
89.58838 150.000
89.60832 133.000
89.62827 122.000
89.64822 161.000
89.66817 130.000
89.68811 164.000
89.70806 140.000
89.72801 133.000
89.74795 144.000
89.76790 147.000
89.78785 147.000
89.80779 153.000
89.82774 157.000
89.84769 159.000
89.86764 129.000
89.88758 148.000
89.90753 143.000
89.92748 149.000
89.94742 146.000
89.96737 150.000
89.98732 159.000
90.00726 156.000
