10.00000 75.000
10.01995 93.000
10.03989 91.000
10.05984 78.000
10.07979 79.000
10.09973 81.000
10.11968 79.000
10.13963 79.000
10.15958 106.000
10.17952 69.000
10.19947 108.000
10.21942 97.000
10.23936 78.000
10.25931 68.000
10.27926 75.000
10.29920 83.000
10.31915 82.000
10.33910 76.000
10.35905 87.000
10.37899 89.000
10.39894 99.000
10.41889 88.000
10.43883 82.000
10.45878 86.000
10.47873 69.000
10.49867 74.000
10.51862 82.000
10.53857 71.000
10.55851 78.000
10.57846 88.000
10.59841 91.000
10.61836 89.000
10.63830 92.000
10.65825 87.000
10.67820 95.000
10.69814 98.000
10.71809 104.000
10.73804 84.000
10.75798 81.000
10.77793 81.000
10.79788 91.000
10.81783 81.000
10.83777 95.000
10.85772 71.000
10.87767 87.000
10.89761 79.000
10.91756 83.000
10.93751 80.000
10.95745 81.000
10.97740 86.000
10.99735 90.000
11.01730 108.000
11.03724 80.000
11.05719 111.000
11.07714 94.000
11.09708 94.000
11.11703 66.000
11.13698 89.000
11.15692 104.000
11.17687 91.000
11.19682 93.000
11.21676 86.000
11.23671 76.000
11.25666 102.000
11.27661 91.000
11.29655 75.000
11.31650 72.000
11.33645 83.000
11.35639 88.000
11.37634 84.000
11.39629 88.000
11.41623 61.000
11.43618 78.000
11.45613 84.000
11.47608 81.000
11.49602 94.000
11.51597 78.000
11.53592 82.000
11.55586 87.000
11.57581 91.000
11.59576 75.000
11.61570 85.000
11.63565 81.000
11.65560 96.000
11.67554 76.000
11.69549 80.000
11.71544 81.000
11.73539 76.000
11.75533 110.000
11.77528 80.000
11.79523 65.000
11.81517 74.000
11.83512 81.000
11.85507 72.000
11.87501 82.000
11.89496 89.000
11.91491 75.000
11.93486 73.000
11.95480 91.000
11.97475 69.000
11.99470 79.000
12.01464 69.000
12.03459 93.000
12.05454 79.000
12.07448 86.000
12.09443 80.000
12.11438 71.000
12.13432 94.000
12.15427 84.000
12.17422 95.000
12.19417 90.000
12.21411 92.000
12.23406 86.000
12.25401 91.000
12.27395 89.000
12.29390 83.000
12.31385 94.000
12.33379 77.000
12.35374 92.000
12.37369 95.000
12.39364 89.000
12.41358 93.000
12.43353 94.000
12.45348 78.000
12.47342 85.000
12.49337 77.000
12.51332 75.000
12.53326 70.000
12.55321 84.000
12.57316 90.000
12.59311 85.000
12.61305 101.000
12.63300 96.000
12.65295 68.000
12.67289 78.000
12.69284 87.000
12.71279 96.000
12.73273 94.000
12.75268 92.000
12.77263 85.000
12.79257 89.000
12.81252 80.000
12.83247 88.000
12.85242 83.000
12.87236 79.000
12.89231 86.000
12.91226 86.000
12.93220 78.000
12.95215 75.000
12.97210 84.000
12.99204 79.000
13.01199 81.000
13.03194 79.000
13.05189 76.000
13.07183 86.000
13.09178 77.000
13.11173 92.000
13.13167 83.000
13.15162 77.000
13.17157 99.000
13.19151 71.000
13.21146 87.000
13.23141 99.000
13.25135 74.000
13.27130 102.000
13.29125 63.000
13.31120 80.000
13.33114 87.000
13.35109 77.000
13.37104 88.000
13.39098 72.000
13.41093 94.000
13.43088 92.000
13.45082 82.000
13.47077 80.000
13.49072 70.000
13.51067 73.000
13.53061 77.000
13.55056 98.000
13.57051 77.000
13.59045 96.000
13.61040 106.000
13.63035 92.000
13.65029 83.000
13.67024 74.000
13.69019 90.000
13.71013 73.000
13.73008 93.000
13.75003 80.000
13.76998 77.000
13.78992 81.000
13.80987 83.000
13.82982 77.000
13.84976 75.000
13.86971 87.000
13.88966 88.000
13.90960 77.000
13.92955 89.000
13.94950 84.000
13.96945 96.000
13.98939 103.000
14.00934 77.000
14.02929 63.000
14.04923 80.000
14.06918 79.000
14.08913 87.000
14.10907 82.000
14.12902 77.000
14.14897 81.000
14.16892 74.000
14.18886 67.000
14.20881 84.000
14.22876 85.000
14.24870 76.000
14.26865 66.000
14.28860 97.000
14.30854 98.000
14.32849 86.000
14.34844 85.000
14.36838 89.000
14.38833 82.000
14.40828 84.000
14.42823 83.000
14.44817 88.000
14.46812 95.000
14.48807 96.000
14.50801 91.000
14.52796 72.000
14.54791 87.000
14.56785 81.000
14.58780 89.000
14.60775 94.000
14.62770 87.000
14.64764 81.000
14.66759 100.000
14.68754 99.000
14.70748 80.000
14.72743 85.000
14.74738 64.000
14.76732 94.000
14.78727 95.000
14.80722 113.000
14.82716 79.000
14.84711 89.000
14.86706 91.000
14.88701 104.000
14.90695 87.000
14.92690 84.000
14.94685 91.000
14.96679 94.000
14.98674 95.000
15.00669 99.000
15.02663 81.000
15.04658 99.000
15.06653 93.000
15.08648 101.000
15.10642 111.000
15.12637 89.000
15.14632 96.000
15.16626 108.000
15.18621 105.000
15.20616 112.000
15.22610 114.000
15.24605 96.000
15.26600 93.000
15.28594 119.000
15.30589 103.000
15.32584 115.000
15.34579 129.000
15.36573 105.000
15.38568 128.000
15.40563 94.000
15.42557 104.000
15.44552 134.000
15.46547 143.000
15.48541 129.000
15.50536 122.000
15.52531 157.000
15.54526 125.000
15.56520 156.000
15.58515 152.000
15.60510 127.000
15.62504 169.000
15.64499 167.000
15.66494 195.000
15.68488 202.000
15.70483 267.000
15.72478 274.000
15.74472 400.000
15.76467 507.000
15.78462 821.000
15.80457 1090.000
15.82451 1675.000
15.84446 2187.000
15.86441 2842.000
15.88435 3464.000
15.90430 3495.000
15.92425 2893.000
15.94419 2275.000
15.96414 1403.000
15.98409 972.000
16.00404 723.000
16.02398 677.000
16.04393 663.000
16.06388 842.000
16.08382 1109.000
16.10377 1553.000
16.12372 1926.000
16.14366 2371.000
16.16361 2715.000
16.18356 3046.000
16.20351 3243.000
16.22345 3283.000
16.24340 3153.000
16.26335 2866.000
16.28329 2661.000
16.30324 2316.000
16.32319 2047.000
16.34313 1704.000
16.36308 1456.000
16.38303 1141.000
16.40297 859.000
16.42292 678.000
16.44287 516.000
16.46282 389.000
16.48276 280.000
16.50271 216.000
16.52266 190.000
16.54260 173.000
16.56255 144.000
16.58250 134.000
16.60244 125.000
16.62239 130.000
16.64234 121.000
16.66229 132.000
16.68223 126.000
16.70218 128.000
16.72213 111.000
16.74207 134.000
16.76202 110.000
16.78197 108.000
16.80191 120.000
16.82186 116.000
16.84181 106.000
16.86175 130.000
16.88170 127.000
16.90165 106.000
16.92160 110.000
16.94154 87.000
16.96149 102.000
16.98144 110.000
17.00138 94.000
17.02133 88.000
17.04128 120.000
17.06122 84.000
17.08117 97.000
17.10112 98.000
17.12107 93.000
17.14101 114.000
17.16096 97.000
17.18091 89.000
17.20085 80.000
17.22080 91.000
17.24075 89.000
17.26069 82.000
17.28064 93.000
17.30059 82.000
17.32053 80.000
17.34048 73.000
17.36043 110.000
17.38038 68.000
17.40032 97.000
17.42027 102.000
17.44022 108.000
17.46016 81.000
17.48011 71.000
17.50006 117.000
17.52000 97.000
17.53995 102.000
17.55990 99.000
17.57985 105.000
17.59979 97.000
17.61974 93.000
17.63969 82.000
17.65963 95.000
17.67958 83.000
17.69953 69.000
17.71947 121.000
17.73942 89.000
17.75937 93.000
17.77932 91.000
17.79926 95.000
17.81921 98.000
17.83916 86.000
17.85910 89.000
17.87905 81.000
17.89900 80.000
17.91894 90.000
17.93889 96.000
17.95884 86.000
17.97878 103.000
17.99873 101.000
18.01868 103.000
18.03863 84.000
18.05857 88.000
18.07852 69.000
18.09847 89.000
18.11841 99.000
18.13836 76.000
18.15831 83.000
18.17825 87.000
18.19820 87.000
18.21815 74.000
18.23810 91.000
18.25804 83.000
18.27799 97.000
18.29794 74.000
18.31788 100.000
18.33783 97.000
18.35778 90.000
18.37772 100.000
18.39767 99.000
18.41762 102.000
18.43756 93.000
18.45751 98.000
18.47746 93.000
18.49741 77.000
18.51735 94.000
18.53730 81.000
18.55725 75.000
18.57719 92.000
18.59714 91.000
18.61709 87.000
18.63703 95.000
18.65698 98.000
18.67693 87.000
18.69688 80.000
18.71682 69.000
18.73677 75.000
18.75672 93.000
18.77666 78.000
18.79661 88.000
18.81656 64.000
18.83650 85.000
18.85645 73.000
18.87640 75.000
18.89634 84.000
18.91629 72.000
18.93624 86.000
18.95619 89.000
18.97613 93.000
18.99608 103.000
19.01603 83.000
19.03597 88.000
19.05592 83.000
19.07587 83.000
19.09581 78.000
19.11576 92.000
19.13571 79.000
19.15566 71.000
19.17560 93.000
19.19555 84.000
19.21550 80.000
19.23544 71.000
19.25539 76.000
19.27534 80.000
19.29528 80.000
19.31523 86.000
19.33518 65.000
19.35513 87.000
19.37507 84.000
19.39502 70.000
19.41497 85.000
19.43491 65.000
19.45486 79.000
19.47481 90.000
19.49475 79.000
19.51470 83.000
19.53465 80.000
19.55459 67.000
19.57454 104.000
19.59449 73.000
19.61444 74.000
19.63438 75.000
19.65433 94.000
19.67428 80.000
19.69422 73.000
19.71417 69.000
19.73412 67.000
19.75406 84.000
19.77401 69.000
19.79396 78.000
19.81391 89.000
19.83385 77.000
19.85380 91.000
19.87375 81.000
19.89369 82.000
19.91364 71.000
19.93359 61.000
19.95353 72.000
19.97348 75.000
19.99343 66.000
20.01337 91.000
20.03332 76.000
20.05327 86.000
20.07322 86.000
20.09316 90.000
20.11311 88.000
20.13306 77.000
20.15300 78.000
20.17295 90.000
20.19290 93.000
20.21284 71.000
20.23279 81.000
20.25274 87.000
20.27269 71.000
20.29263 80.000
20.31258 91.000
20.33253 90.000
20.35247 84.000
20.37242 93.000
20.39237 83.000
20.41231 88.000
20.43226 78.000
20.45221 85.000
20.47215 91.000
20.49210 82.000
20.51205 81.000
20.53200 91.000
20.55194 88.000
20.57189 100.000
20.59184 88.000
20.61178 78.000
20.63173 93.000
20.65168 85.000
20.67162 80.000
20.69157 87.000
20.71152 72.000
20.73147 65.000
20.75141 88.000
20.77136 99.000
20.79131 91.000
20.81125 98.000
20.83120 126.000
20.85115 113.000
20.87109 127.000
20.89104 125.000
20.91099 131.000
20.93094 142.000
20.95088 156.000
20.97083 147.000
20.99078 121.000
21.01072 133.000
21.03067 115.000
21.05062 121.000
21.07056 97.000
21.09051 84.000
21.11046 109.000
21.13040 113.000
21.15035 84.000
21.17030 104.000
21.19025 74.000
21.21019 82.000
21.23014 92.000
21.25009 95.000
21.27003 89.000
21.28998 88.000
21.30993 88.000
21.32987 85.000
21.34982 90.000
21.36977 76.000
21.38972 91.000
21.40966 72.000
21.42961 80.000
21.44956 77.000
21.46950 86.000
21.48945 77.000
21.50940 82.000
21.52934 90.000
21.54929 78.000
21.56924 99.000
21.58918 89.000
21.60913 64.000
21.62908 83.000
21.64903 82.000
21.66897 87.000
21.68892 74.000
21.70887 78.000
21.72881 85.000
21.74876 88.000
21.76871 64.000
21.78865 81.000
21.80860 73.000
21.82855 61.000
21.84850 67.000
21.86844 76.000
21.88839 93.000
21.90834 81.000
21.92828 85.000
21.94823 94.000
21.96818 79.000
21.98812 80.000
22.00807 92.000
22.02802 80.000
22.04796 75.000
22.06791 77.000
22.08786 86.000
22.10781 79.000
22.12775 88.000
22.14770 79.000
22.16765 82.000
22.18759 75.000
22.20754 73.000
22.22749 76.000
22.24743 105.000
22.26738 80.000
22.28733 81.000
22.30728 79.000
22.32722 70.000
22.34717 88.000
22.36712 92.000
22.38706 74.000
22.40701 86.000
22.42696 93.000
22.44690 86.000
22.46685 71.000
22.48680 79.000
22.50675 83.000
22.52669 91.000
22.54664 90.000
22.56659 93.000
22.58653 68.000
22.60648 96.000
22.62643 93.000
22.64637 81.000
22.66632 83.000
22.68627 90.000
22.70621 85.000
22.72616 82.000
22.74611 77.000
22.76606 73.000
22.78600 73.000
22.80595 72.000
22.82590 84.000
22.84584 72.000
22.86579 79.000
22.88574 73.000
22.90568 80.000
22.92563 90.000
22.94558 74.000
22.96553 83.000
22.98547 91.000
23.00542 82.000
23.02537 91.000
23.04531 76.000
23.06526 69.000
23.08521 73.000
23.10515 87.000
23.12510 80.000
23.14505 66.000
23.16499 70.000
23.18494 112.000
23.20489 85.000
23.22484 78.000
23.24478 88.000
23.26473 77.000
23.28468 74.000
23.30462 99.000
23.32457 85.000
23.34452 79.000
23.36446 92.000
23.38441 100.000
23.40436 74.000
23.42431 82.000
23.44425 86.000
23.46420 81.000
23.48415 94.000
23.50409 89.000
23.52404 103.000
23.54399 77.000
23.56393 79.000
23.58388 80.000
23.60383 75.000
23.62377 86.000
23.64372 90.000
23.66367 77.000
23.68362 85.000
23.70356 84.000
23.72351 79.000
23.74346 79.000
23.76340 88.000
23.78335 80.000
23.80330 70.000
23.82324 85.000
23.84319 71.000
23.86314 81.000
23.88309 71.000
23.90303 79.000
23.92298 59.000
23.94293 75.000
23.96287 75.000
23.98282 77.000
24.00277 86.000
24.02271 88.000
24.04266 88.000
24.06261 83.000
24.08256 77.000
24.10250 73.000
24.12245 71.000
24.14240 78.000
24.16234 90.000
24.18229 80.000
24.20224 86.000
24.22218 79.000
24.24213 86.000
24.26208 69.000
24.28202 87.000
24.30197 87.000
24.32192 80.000
24.34187 79.000
24.36181 82.000
24.38176 74.000
24.40171 79.000
24.42165 70.000
24.44160 83.000
24.46155 84.000
24.48149 67.000
24.50144 88.000
24.52139 81.000
24.54134 93.000
24.56128 91.000
24.58123 93.000
24.60118 88.000
24.62112 84.000
24.64107 87.000
24.66102 84.000
24.68096 73.000
24.70091 88.000
24.72086 75.000
24.74080 75.000
24.76075 83.000
24.78070 85.000
24.80065 76.000
24.82059 89.000
24.84054 85.000
24.86049 85.000
24.88043 87.000
24.90038 86.000
24.92033 94.000
24.94027 88.000
24.96022 88.000
24.98017 81.000
25.00012 81.000
25.02006 92.000
25.04001 90.000
25.05996 110.000
25.07990 93.000
25.09985 80.000
25.11980 90.000
25.13974 92.000
25.15969 104.000
25.17964 84.000
25.19958 65.000
25.21953 91.000
25.23948 109.000
25.25943 77.000
25.27937 94.000
25.29932 86.000
25.31927 76.000
25.33921 65.000
25.35916 79.000
25.37911 82.000
25.39905 75.000
25.41900 82.000
25.43895 76.000
25.45890 77.000
25.47884 86.000
25.49879 93.000
25.51874 77.000
25.53868 91.000
25.55863 86.000
25.57858 84.000
25.59852 84.000
25.61847 97.000
25.63842 83.000
25.65837 88.000
25.67831 94.000
25.69826 73.000
25.71821 80.000
25.73815 92.000
25.75810 93.000
25.77805 84.000
25.79799 78.000
25.81794 82.000
25.83789 97.000
25.85783 79.000
25.87778 72.000
25.89773 82.000
25.91768 88.000
25.93762 97.000
25.95757 94.000
25.97752 94.000
25.99746 80.000
26.01741 85.000
26.03736 85.000
26.05730 78.000
26.07725 87.000
26.09720 105.000
26.11715 104.000
26.13709 104.000
26.15704 99.000
26.17699 70.000
26.19693 90.000
26.21688 90.000
26.23683 78.000
26.25677 103.000
26.27672 95.000
26.29667 96.000
26.31661 79.000
26.33656 80.000
26.35651 90.000
26.37646 95.000
26.39640 82.000
26.41635 77.000
26.43630 84.000
26.45624 85.000
26.47619 64.000
26.49614 80.000
26.51608 84.000
26.53603 83.000
26.55598 87.000
26.57593 95.000
26.59587 74.000
26.61582 86.000
26.63577 82.000
26.65571 81.000
26.67566 71.000
26.69561 94.000
26.71555 98.000
26.73550 85.000
26.75545 87.000
26.77539 94.000
26.79534 83.000
26.81529 89.000
26.83524 86.000
26.85518 71.000
26.87513 92.000
26.89508 91.000
26.91502 94.000
26.93497 95.000
26.95492 66.000
26.97486 85.000
26.99481 87.000
27.01476 98.000
27.03471 86.000
27.05465 81.000
27.07460 90.000
27.09455 79.000
27.11449 86.000
27.13444 83.000
27.15439 100.000
27.17433 84.000
27.19428 94.000
27.21423 72.000
27.23417 86.000
27.25412 97.000
27.27407 100.000
27.29402 93.000
27.31396 79.000
27.33391 91.000
27.35386 82.000
27.37380 91.000
27.39375 77.000
27.41370 80.000
27.43364 90.000
27.45359 100.000
27.47354 87.000
27.49349 82.000
27.51343 86.000
27.53338 93.000
27.55333 94.000
27.57327 90.000
27.59322 111.000
27.61317 87.000
27.63311 90.000
27.65306 100.000
27.67301 79.000
27.69296 81.000
27.71290 94.000
27.73285 94.000
27.75280 92.000
27.77274 90.000
27.79269 86.000
27.81264 85.000
27.83258 87.000
27.85253 88.000
27.87248 89.000
27.89242 86.000
27.91237 89.000
27.93232 79.000
27.95227 95.000
27.97221 99.000
27.99216 78.000
28.01211 117.000
28.03205 78.000
28.05200 93.000
28.07195 93.000
28.09189 98.000
28.11184 88.000
28.13179 84.000
28.15174 91.000
28.17168 92.000
28.19163 83.000
28.21158 87.000
28.23152 99.000
28.25147 70.000
28.27142 81.000
28.29136 96.000
28.31131 95.000
28.33126 86.000
28.35120 87.000
28.37115 107.000
28.39110 86.000
28.41105 91.000
28.43099 89.000
28.45094 89.000
28.47089 100.000
28.49083 78.000
28.51078 92.000
28.53073 89.000
28.55067 93.000
28.57062 90.000
28.59057 84.000
28.61052 60.000
28.63046 86.000
28.65041 94.000
28.67036 78.000
28.69030 111.000
28.71025 87.000
28.73020 90.000
28.75014 91.000
28.77009 95.000
28.79004 95.000
28.80998 97.000
28.82993 76.000
28.84988 92.000
28.86983 89.000
28.88977 93.000
28.90972 88.000
28.92967 95.000
28.94961 95.000
28.96956 80.000
28.98951 99.000
29.00945 100.000
29.02940 79.000
29.04935 93.000
29.06930 103.000
29.08924 101.000
29.10919 81.000
29.12914 93.000
29.14908 83.000
29.16903 90.000
29.18898 97.000
29.20892 91.000
29.22887 82.000
29.24882 81.000
29.26877 102.000
29.28871 104.000
29.30866 108.000
29.32861 105.000
29.34855 106.000
29.36850 115.000
29.38845 105.000
29.40839 121.000
29.42834 119.000
29.44829 120.000
29.46823 134.000
29.48818 118.000
29.50813 106.000
29.52808 130.000
29.54802 104.000
29.56797 103.000
29.58792 95.000
29.60786 106.000
29.62781 100.000
29.64776 89.000
29.66770 114.000
29.68765 89.000
29.70760 95.000
29.72755 97.000
29.74749 113.000
29.76744 109.000
29.78739 87.000
29.80733 96.000
29.82728 100.000
29.84723 91.000
29.86717 87.000
29.88712 89.000
29.90707 83.000
29.92701 105.000
29.94696 93.000
29.96691 81.000
29.98686 106.000
30.00680 79.000
30.02675 113.000
30.04670 104.000
30.06664 86.000
30.08659 111.000
30.10654 121.000
30.12648 126.000
30.14643 128.000
30.16638 135.000
30.18633 105.000
30.20627 118.000
30.22622 94.000
30.24617 121.000
30.26611 131.000
30.28606 138.000
30.30601 134.000
30.32595 136.000
30.34590 98.000
30.36585 103.000
30.38579 94.000
30.40574 107.000
30.42569 92.000
30.44564 100.000
30.46558 92.000
30.48553 94.000
30.50548 85.000
30.52542 78.000
30.54537 100.000
30.56532 105.000
30.58526 92.000
30.60521 110.000
30.62516 100.000
30.64511 106.000
30.66505 80.000
30.68500 107.000
30.70495 88.000
30.72489 102.000
30.74484 80.000
30.76479 88.000
30.78473 79.000
30.80468 101.000
30.82463 102.000
30.84458 96.000
30.86452 99.000
30.88447 108.000
30.90442 100.000
30.92436 90.000
30.94431 89.000
30.96426 112.000
30.98420 83.000
31.00415 79.000
31.02410 109.000
31.04404 94.000
31.06399 99.000
31.08394 91.000
31.10389 103.000
31.12383 100.000
31.14378 94.000
31.16373 98.000
31.18367 95.000
31.20362 84.000
31.22357 91.000
31.24351 92.000
31.26346 83.000
31.28341 82.000
31.30336 97.000
31.32330 100.000
31.34325 98.000
31.36320 97.000
31.38314 93.000
31.40309 97.000
31.42304 85.000
31.44298 97.000
31.46293 93.000
31.48288 93.000
31.50282 95.000
31.52277 88.000
31.54272 89.000
31.56267 92.000
31.58261 113.000
31.60256 80.000
31.62251 103.000
31.64245 92.000
31.66240 83.000
31.68235 79.000
31.70229 102.000
31.72224 104.000
31.74219 91.000
31.76214 98.000
31.78208 113.000
31.80203 123.000
31.82198 103.000
31.84192 102.000
31.86187 119.000
31.88182 112.000
31.90176 114.000
31.92171 151.000
31.94166 199.000
31.96160 239.000
31.98155 199.000
32.00150 249.000
32.02145 269.000
32.04139 312.000
32.06134 303.000
32.08129 305.000
32.10123 321.000
32.12118 270.000
32.14113 271.000
32.16107 194.000
32.18102 204.000
32.20097 173.000
32.22092 171.000
32.24086 169.000
32.26081 132.000
32.28076 114.000
32.30070 108.000
32.32065 130.000
32.34060 104.000
32.36054 100.000
32.38049 124.000
32.40044 118.000
32.42039 120.000
32.44033 126.000
32.46028 163.000
32.48023 182.000
32.50017 203.000
32.52012 200.000
32.54007 220.000
32.56001 243.000
32.57996 276.000
32.59991 266.000
32.61985 256.000
32.63980 274.000
32.65975 316.000
32.67970 260.000
32.69964 312.000
32.71959 332.000
32.73954 327.000
32.75948 350.000
32.77943 314.000
32.79938 344.000
32.81932 295.000
32.83927 274.000
32.85922 260.000
32.87917 278.000
32.89911 287.000
32.91906 262.000
32.93901 260.000
32.95895 244.000
32.97890 266.000
32.99885 234.000
33.01879 221.000
33.03874 199.000
33.05869 215.000
33.07863 198.000
33.09858 185.000
33.11853 190.000
33.13848 152.000
33.15842 138.000
33.17837 146.000
33.19832 130.000
33.21826 133.000
33.23821 127.000
33.25816 119.000
33.27810 94.000
33.29805 96.000
33.31800 120.000
33.33795 102.000
33.35789 90.000
33.37784 99.000
33.39779 96.000
33.41773 86.000
33.43768 104.000
33.45763 90.000
33.47757 106.000
33.49752 94.000
33.51747 98.000
33.53741 98.000
33.55736 105.000
33.57731 80.000
33.59726 87.000
33.61720 95.000
33.63715 101.000
33.65710 110.000
33.67704 81.000
33.69699 99.000
33.71694 100.000
33.73688 90.000
33.75683 72.000
33.77678 107.000
33.79673 87.000
33.81667 100.000
33.83662 86.000
33.85657 95.000
33.87651 104.000
33.89646 91.000
33.91641 95.000
33.93635 97.000
33.95630 89.000
33.97625 104.000
33.99620 94.000
34.01614 93.000
34.03609 116.000
34.05604 91.000
34.07598 110.000
34.09593 103.000
34.11588 105.000
34.13582 107.000
34.15577 104.000
34.17572 83.000
34.19566 90.000
34.21561 123.000
34.23556 123.000
34.25551 106.000
34.27545 119.000
34.29540 131.000
34.31535 135.000
34.33529 139.000
34.35524 124.000
34.37519 163.000
34.39513 140.000
34.41508 158.000
34.43503 162.000
34.45498 161.000
34.47492 163.000
34.49487 166.000
34.51482 170.000
34.53476 138.000
34.55471 147.000
34.57466 156.000
34.59460 155.000
34.61455 143.000
34.63450 145.000
34.65444 140.000
34.67439 136.000
34.69434 122.000
34.71429 117.000
34.73423 135.000
34.75418 119.000
34.77413 118.000
34.79407 116.000
34.81402 114.000
34.83397 109.000
34.85391 130.000
34.87386 105.000
34.89381 120.000
34.91376 135.000
34.93370 144.000
34.95365 130.000
34.97360 131.000
34.99354 127.000
35.01349 99.000
35.03344 102.000
35.05338 98.000
35.07333 109.000
35.09328 117.000
35.11322 120.000
35.13317 114.000
35.15312 149.000
35.17307 143.000
35.19301 137.000
35.21296 130.000
35.23291 150.000
35.25285 145.000
35.27280 162.000
35.29275 178.000
35.31269 212.000
35.33264 211.000
35.35259 226.000
35.37254 246.000
35.39248 340.000
35.41243 343.000
35.43238 438.000
35.45232 497.000
35.47227 575.000
35.49222 591.000
35.51216 696.000
35.53211 764.000
35.55206 879.000
35.57201 856.000
35.59195 955.000
35.61190 918.000
35.63185 864.000
35.65179 832.000
35.67174 803.000
35.69169 640.000
35.71163 591.000
35.73158 491.000
35.75153 410.000
35.77147 357.000
35.79142 295.000
35.81137 245.000
35.83132 213.000
35.85126 184.000
35.87121 174.000
35.89116 168.000
35.91110 156.000
35.93105 143.000
35.95100 147.000
35.97094 136.000
35.99089 133.000
36.01084 129.000
36.03079 121.000
36.05073 129.000
36.07068 103.000
36.09063 141.000
36.11057 136.000
36.13052 129.000
36.15047 111.000
36.17041 113.000
36.19036 114.000
36.21031 112.000
36.23025 126.000
36.25020 126.000
36.27015 116.000
36.29010 103.000
36.31004 104.000
36.32999 103.000
36.34994 129.000
36.36988 114.000
36.38983 102.000
36.40978 114.000
36.42972 126.000
36.44967 115.000
36.46962 139.000
36.48957 146.000
36.50951 156.000
36.52946 114.000
36.54941 149.000
36.56935 146.000
36.58930 187.000
36.60925 179.000
36.62919 205.000
36.64914 239.000
36.66909 227.000
36.68903 298.000
36.70898 322.000
36.72893 358.000
36.74888 406.000
36.76882 476.000
36.78877 525.000
36.80872 542.000
36.82866 605.000
36.84861 605.000
36.86856 615.000
36.88850 623.000
36.90845 547.000
36.92840 502.000
36.94835 458.000
36.96829 448.000
36.98824 358.000
37.00819 312.000
37.02813 313.000
37.04808 258.000
37.06803 241.000
37.08797 198.000
37.10792 168.000
37.12787 162.000
37.14781 173.000
37.16776 156.000
37.18771 152.000
37.20766 148.000
37.22760 149.000
37.24755 132.000
37.26750 145.000
37.28744 152.000
37.30739 157.000
37.32734 131.000
37.34728 110.000
37.36723 125.000
37.38718 140.000
37.40713 99.000
37.42707 121.000
37.44702 118.000
37.46697 106.000
37.48691 92.000
37.50686 109.000
37.52681 106.000
37.54675 101.000
37.56670 115.000
37.58665 113.000
37.60660 96.000
37.62654 120.000
37.64649 98.000
37.66644 106.000
37.68638 100.000
37.70633 110.000
37.72628 112.000
37.74622 98.000
37.76617 114.000
37.78612 103.000
37.80606 97.000
37.82601 99.000
37.84596 96.000
37.86591 103.000
37.88585 129.000
37.90580 107.000
37.92575 121.000
37.94569 102.000
37.96564 118.000
37.98559 114.000
38.00553 122.000
38.02548 105.000
38.04543 146.000
38.06538 121.000
38.08532 118.000
38.10527 110.000
38.12522 117.000
38.14516 116.000
38.16511 111.000
38.18506 94.000
38.20500 125.000
38.22495 106.000
38.24490 90.000
38.26484 118.000
38.28479 103.000
38.30474 97.000
38.32469 116.000
38.34463 124.000
38.36458 94.000
38.38453 101.000
38.40447 102.000
38.42442 107.000
38.44437 117.000
38.46431 128.000
38.48426 123.000
38.50421 153.000
38.52416 124.000
38.54410 142.000
38.56405 138.000
38.58400 156.000
38.60394 160.000
38.62389 168.000
38.64384 169.000
38.66378 227.000
38.68373 217.000
38.70368 286.000
38.72362 300.000
38.74357 275.000
38.76352 257.000
38.78347 309.000
38.80341 284.000
38.82336 257.000
38.84331 284.000
38.86325 237.000
38.88320 229.000
38.90315 232.000
38.92309 212.000
38.94304 200.000
38.96299 211.000
38.98294 235.000
39.00288 235.000
39.02283 236.000
39.04278 264.000
39.06272 285.000
39.08267 359.000
39.10262 387.000
39.12256 396.000
39.14251 416.000
39.16246 458.000
39.18241 400.000
39.20235 427.000
39.22230 362.000
39.24225 366.000
39.26219 328.000
39.28214 312.000
39.30209 257.000
39.32203 237.000
39.34198 242.000
39.36193 184.000
39.38187 185.000
39.40182 158.000
39.42177 181.000
39.44172 149.000
39.46166 144.000
39.48161 147.000
39.50156 122.000
39.52150 115.000
39.54145 119.000
39.56140 114.000
39.58134 96.000
39.60129 114.000
39.62124 106.000
39.64119 108.000
39.66113 104.000
39.68108 113.000
39.70103 130.000
39.72097 112.000
39.74092 112.000
39.76087 113.000
39.78081 105.000
39.80076 126.000
39.82071 99.000
39.84065 127.000
39.86060 99.000
39.88055 92.000
39.90050 113.000
39.92044 116.000
39.94039 106.000
39.96034 95.000
39.98028 109.000
40.00023 103.000
40.02018 99.000
40.04012 108.000
40.06007 96.000
40.08002 102.000
40.09997 97.000
40.11991 97.000
40.13986 106.000
40.15981 95.000
40.17975 107.000
40.19970 111.000
40.21965 97.000
40.23959 104.000
40.25954 116.000
40.27949 85.000
40.29943 115.000
40.31938 86.000
40.33933 93.000
40.35928 95.000
40.37922 106.000
40.39917 102.000
40.41912 91.000
40.43906 102.000
40.45901 106.000
40.47896 95.000
40.49890 108.000
40.51885 86.000
40.53880 96.000
40.55875 118.000
40.57869 90.000
40.59864 102.000
40.61859 107.000
40.63853 104.000
40.65848 104.000
40.67843 101.000
40.69837 103.000
40.71832 98.000
40.73827 117.000
40.75822 108.000
40.77816 96.000
40.79811 91.000
40.81806 101.000
40.83800 106.000
40.85795 100.000
40.87790 89.000
40.89784 113.000
40.91779 98.000
40.93774 90.000
40.95768 110.000
40.97763 103.000
40.99758 108.000
41.01753 119.000
41.03747 113.000
41.05742 123.000
41.07737 120.000
41.09731 131.000
41.11726 128.000
41.13721 144.000
41.15715 138.000
41.17710 141.000
41.19705 145.000
41.21700 145.000
41.23694 135.000
41.25689 137.000
41.27684 151.000
41.29678 139.000
41.31673 156.000
41.33668 174.000
41.35662 172.000
41.37657 195.000
41.39652 219.000
41.41646 292.000
41.43641 351.000
41.45636 403.000
41.47631 507.000
41.49625 634.000
41.51620 760.000
41.53615 913.000
41.55609 1156.000
41.57604 1525.000
41.59599 1961.000
41.61593 2473.000
41.63588 2740.000
41.65583 2870.000
41.67578 2658.000
41.69572 2450.000
41.71567 2287.000
41.73562 2016.000
41.75556 1738.000
41.77551 1539.000
41.79546 1240.000
41.81540 976.000
41.83535 716.000
41.85530 500.000
41.87524 400.000
41.89519 354.000
41.91514 246.000
41.93509 229.000
41.95503 211.000
41.97498 157.000
41.99493 195.000
42.01487 183.000
42.03482 152.000
42.05477 142.000
42.07471 157.000
42.09466 143.000
42.11461 124.000
42.13456 142.000
42.15450 144.000
42.17445 115.000
42.19440 137.000
42.21434 98.000
42.23429 134.000
42.25424 117.000
42.27418 122.000
42.29413 123.000
42.31408 106.000
42.33403 108.000
42.35397 97.000
42.37392 108.000
42.39387 112.000
42.41381 127.000
42.43376 98.000
42.45371 94.000
42.47365 112.000
42.49360 120.000
42.51355 116.000
42.53349 104.000
42.55344 106.000
42.57339 108.000
42.59334 120.000
42.61328 109.000
42.63323 108.000
42.65318 129.000
42.67312 109.000
42.69307 125.000
42.71302 103.000
42.73296 128.000
42.75291 96.000
42.77286 123.000
42.79281 104.000
42.81275 111.000
42.83270 118.000
42.85265 119.000
42.87259 116.000
42.89254 123.000
42.91249 114.000
42.93243 102.000
42.95238 121.000
42.97233 145.000
42.99227 110.000
43.01222 110.000
43.03217 158.000
43.05212 142.000
43.07206 129.000
43.09201 124.000
43.11196 160.000
43.13190 145.000
43.15185 138.000
43.17180 164.000
43.19174 184.000
43.21169 206.000
43.23164 218.000
43.25159 225.000
43.27153 243.000
43.29148 245.000
43.31143 220.000
43.33137 235.000
43.35132 231.000
43.37127 218.000
43.39121 189.000
43.41116 195.000
43.43111 176.000
43.45105 151.000
43.47100 146.000
43.49095 165.000
43.51090 139.000
43.53084 147.000
43.55079 139.000
43.57074 124.000
43.59068 128.000
43.61063 116.000
43.63058 96.000
43.65052 88.000
43.67047 122.000
43.69042 112.000
43.71037 97.000
43.73031 97.000
43.75026 84.000
43.77021 97.000
43.79015 102.000
43.81010 98.000
43.83005 96.000
43.84999 90.000
43.86994 116.000
43.88989 112.000
43.90984 99.000
43.92978 89.000
43.94973 89.000
43.96968 92.000
43.98962 95.000
44.00957 106.000
44.02952 92.000
44.04946 69.000
44.06941 104.000
44.08936 86.000
44.10930 117.000
44.12925 113.000
44.14920 83.000
44.16915 98.000
44.18909 90.000
44.20904 81.000
44.22899 89.000
44.24893 87.000
44.26888 85.000
44.28883 99.000
44.30877 84.000
44.32872 116.000
44.34867 109.000
44.36862 89.000
44.38856 81.000
44.40851 105.000
44.42846 80.000
44.44840 99.000
44.46835 95.000
44.48830 102.000
44.50824 94.000
44.52819 88.000
44.54814 98.000
44.56808 90.000
44.58803 66.000
44.60798 113.000
44.62793 108.000
44.64787 92.000
44.66782 104.000
44.68777 109.000
44.70771 102.000
44.72766 104.000
44.74761 111.000
44.76755 108.000
44.78750 105.000
44.80745 114.000
44.82740 121.000
44.84734 125.000
44.86729 142.000
44.88724 181.000
44.90718 174.000
44.92713 172.000
44.94708 200.000
44.96702 192.000
44.98697 201.000
45.00692 185.000
45.02686 210.000
45.04681 194.000
45.06676 170.000
45.08671 150.000
45.10665 149.000
45.12660 132.000
45.14655 121.000
45.16649 110.000
45.18644 116.000
45.20639 114.000
45.22633 98.000
45.24628 103.000
45.26623 106.000
45.28618 94.000
45.30612 109.000
45.32607 94.000
45.34602 104.000
45.36596 86.000
45.38591 88.000
45.40586 98.000
45.42580 102.000
45.44575 76.000
45.46570 101.000
45.48565 86.000
45.50559 64.000
45.52554 76.000
45.54549 111.000
45.56543 75.000
45.58538 85.000
45.60533 76.000
45.62527 100.000
45.64522 81.000
45.66517 84.000
45.68511 98.000
45.70506 74.000
45.72501 84.000
45.74496 87.000
45.76490 91.000
45.78485 90.000
45.80480 81.000
45.82474 88.000
45.84469 79.000
45.86464 97.000
45.88458 81.000
45.90453 91.000
45.92448 75.000
45.94443 86.000
45.96437 82.000
45.98432 102.000
46.00427 75.000
46.02421 83.000
46.04416 78.000
46.06411 92.000
46.08405 88.000
46.10400 100.000
46.12395 88.000
46.14389 81.000
46.16384 106.000
46.18379 91.000
46.20374 95.000
46.22368 90.000
46.24363 88.000
46.26358 92.000
46.28352 109.000
46.30347 100.000
46.32342 93.000
46.34336 93.000
46.36331 76.000
46.38326 92.000
46.40321 101.000
46.42315 96.000
46.44310 98.000
46.46305 97.000
46.48299 101.000
46.50294 87.000
46.52289 88.000
46.54283 90.000
46.56278 89.000
46.58273 100.000
46.60267 85.000
46.62262 97.000
46.64257 99.000
46.66252 93.000
46.68246 93.000
46.70241 87.000
46.72236 86.000
46.74230 84.000
46.76225 96.000
46.78220 104.000
46.80214 84.000
46.82209 79.000
46.84204 87.000
46.86199 88.000
46.88193 99.000
46.90188 80.000
46.92183 99.000
46.94177 78.000
46.96172 90.000
46.98167 76.000
47.00161 88.000
47.02156 78.000
47.04151 69.000
47.06146 85.000
47.08140 86.000
47.10135 94.000
47.12130 93.000
47.14124 90.000
47.16119 89.000
47.18114 87.000
47.20108 91.000
47.22103 96.000
47.24098 109.000
47.26092 82.000
47.28087 88.000
47.30082 88.000
47.32077 78.000
47.34071 98.000
47.36066 86.000
47.38061 86.000
47.40055 73.000
47.42050 89.000
47.44045 87.000
47.46039 86.000
47.48034 87.000
47.50029 90.000
47.52024 91.000
47.54018 92.000
47.56013 81.000
47.58008 69.000
47.60002 89.000
47.61997 98.000
47.63992 78.000
47.65986 94.000
47.67981 101.000
47.69976 79.000
47.71970 85.000
47.73965 112.000
47.75960 106.000
47.77955 114.000
47.79949 90.000
47.81944 96.000
47.83939 96.000
47.85933 90.000
47.87928 104.000
47.89923 104.000
47.91917 77.000
47.93912 98.000
47.95907 86.000
47.97902 116.000
47.99896 107.000
48.01891 102.000
48.03886 92.000
48.05880 80.000
48.07875 95.000
48.09870 102.000
48.11864 95.000
48.13859 91.000
48.15854 114.000
48.17848 116.000
48.19843 112.000
48.21838 121.000
48.23833 119.000
48.25827 100.000
48.27822 112.000
48.29817 100.000
48.31811 135.000
48.33806 117.000
48.35801 125.000
48.37795 136.000
48.39790 164.000
48.41785 125.000
48.43780 166.000
48.45774 151.000
48.47769 193.000
48.49764 215.000
48.51758 249.000
48.53753 290.000
48.55748 324.000
48.57742 314.000
48.59737 358.000
48.61732 342.000
48.63726 350.000
48.65721 323.000
48.67716 328.000
48.69711 345.000
48.71705 281.000
48.73700 312.000
48.75695 320.000
48.77689 252.000
48.79684 225.000
48.81679 233.000
48.83673 222.000
48.85668 179.000
48.87663 198.000
48.89658 155.000
48.91652 149.000
48.93647 143.000
48.95642 142.000
48.97636 144.000
48.99631 137.000
49.01626 133.000
49.03620 117.000
49.05615 137.000
49.07610 105.000
49.09605 100.000
49.11599 94.000
49.13594 120.000
49.15589 97.000
49.17583 105.000
49.19578 90.000
49.21573 104.000
49.23567 100.000
49.25562 116.000
49.27557 86.000
49.29551 81.000
49.31546 96.000
49.33541 121.000
49.35536 95.000
49.37530 82.000
49.39525 90.000
49.41520 96.000
49.43514 89.000
49.45509 102.000
49.47504 101.000
49.49498 79.000
49.51493 98.000
49.53488 95.000
49.55483 88.000
49.57477 90.000
49.59472 110.000
49.61467 96.000
49.63461 99.000
49.65456 80.000
49.67451 110.000
49.69445 89.000
49.71440 113.000
49.73435 89.000
49.75429 96.000
49.77424 74.000
49.79419 83.000
49.81414 100.000
49.83408 101.000
49.85403 92.000
49.87398 99.000
49.89392 113.000
49.91387 101.000
49.93382 89.000
49.95376 107.000
49.97371 82.000
49.99366 88.000
50.01361 72.000
50.03355 69.000
50.05350 114.000
50.07345 88.000
50.09339 108.000
50.11334 100.000
50.13329 95.000
50.15323 113.000
50.17318 99.000
50.19313 89.000
50.21307 97.000
50.23302 77.000
50.25297 83.000
50.27292 85.000
50.29286 82.000
50.31281 82.000
50.33276 88.000
50.35270 78.000
50.37265 87.000
50.39260 70.000
50.41254 91.000
50.43249 95.000
50.45244 84.000
50.47239 86.000
50.49233 87.000
50.51228 87.000
50.53223 85.000
50.55217 92.000
50.57212 101.000
50.59207 103.000
50.61201 90.000
50.63196 80.000
50.65191 95.000
50.67186 80.000
50.69180 77.000
50.71175 83.000
50.73170 83.000
50.75164 83.000
50.77159 92.000
50.79154 82.000
50.81148 76.000
50.83143 104.000
50.85138 81.000
50.87132 87.000
50.89127 94.000
50.91122 85.000
50.93117 84.000
50.95111 99.000
50.97106 94.000
50.99101 94.000
51.01095 85.000
51.03090 96.000
51.05085 106.000
51.07079 108.000
51.09074 85.000
51.11069 82.000
51.13064 87.000
51.15058 84.000
51.17053 81.000
51.19048 93.000
51.21042 78.000
51.23037 84.000
51.25032 87.000
51.27026 93.000
51.29021 84.000
51.31016 98.000
51.33010 87.000
51.35005 93.000
51.37000 83.000
51.38995 94.000
51.40989 93.000
51.42984 91.000
51.44979 89.000
51.46973 88.000
51.48968 95.000
51.50963 80.000
51.52957 85.000
51.54952 80.000
51.56947 93.000
51.58942 93.000
51.60936 74.000
51.62931 92.000
51.64926 86.000
51.66920 73.000
51.68915 80.000
51.70910 90.000
51.72904 95.000
51.74899 93.000
51.76894 91.000
51.78888 92.000
51.80883 88.000
51.82878 98.000
51.84873 78.000
51.86867 88.000
51.88862 80.000
51.90857 99.000
51.92851 87.000
51.94846 94.000
51.96841 97.000
51.98835 82.000
52.00830 79.000
52.02825 96.000
52.04820 103.000
52.06814 104.000
52.08809 95.000
52.10804 86.000
52.12798 104.000
52.14793 91.000
52.16788 91.000
52.18782 84.000
52.20777 105.000
52.22772 101.000
52.24767 83.000
52.26761 83.000
52.28756 108.000
52.30751 86.000
52.32745 92.000
52.34740 99.000
52.36735 104.000
52.38729 110.000
52.40724 80.000
52.42719 82.000
52.44713 95.000
52.46708 122.000
52.48703 91.000
52.50698 112.000
52.52692 87.000
52.54687 119.000
52.56682 100.000
52.58676 122.000
52.60671 95.000
52.62666 81.000
52.64660 123.000
52.66655 113.000
52.68650 113.000
52.70645 108.000
52.72639 98.000
52.74634 113.000
52.76629 124.000
52.78623 151.000
52.80618 160.000
52.82613 158.000
52.84607 194.000
52.86602 219.000
52.88597 228.000
52.90591 267.000
52.92586 300.000
52.94581 345.000
52.96576 359.000
52.98570 374.000
53.00565 377.000
53.02560 363.000
53.04554 404.000
53.06549 368.000
53.08544 389.000
53.10538 362.000
53.12533 354.000
53.14528 331.000
53.16523 324.000
53.18517 311.000
53.20512 246.000
53.22507 254.000
53.24501 238.000
53.26496 180.000
53.28491 192.000
53.30485 147.000
53.32480 152.000
53.34475 149.000
53.36469 154.000
53.38464 137.000
53.40459 121.000
53.42454 112.000
53.44448 115.000
53.46443 110.000
53.48438 112.000
53.50432 130.000
53.52427 106.000
53.54422 118.000
53.56416 91.000
53.58411 110.000
53.60406 124.000
53.62401 109.000
53.64395 105.000
53.66390 109.000
53.68385 95.000
53.70379 99.000
53.72374 108.000
53.74369 105.000
53.76363 95.000
53.78358 120.000
53.80353 89.000
53.82348 85.000
53.84342 118.000
53.86337 121.000
53.88332 107.000
53.90326 108.000
53.92321 97.000
53.94316 96.000
53.96310 91.000
53.98305 87.000
54.00300 96.000
54.02294 105.000
54.04289 85.000
54.06284 78.000
54.08279 79.000
54.10273 105.000
54.12268 91.000
54.14263 89.000
54.16257 89.000
54.18252 87.000
54.20247 95.000
54.22241 99.000
54.24236 90.000
54.26231 97.000
54.28226 108.000
54.30220 103.000
54.32215 96.000
54.34210 96.000
54.36204 98.000
54.38199 80.000
54.40194 92.000
54.42188 75.000
54.44183 85.000
54.46178 100.000
54.48172 105.000
54.50167 96.000
54.52162 93.000
54.54157 98.000
54.56151 97.000
54.58146 93.000
54.60141 78.000
54.62135 76.000
54.64130 103.000
54.66125 88.000
54.68119 101.000
54.70114 81.000
54.72109 89.000
54.74104 83.000
54.76098 94.000
54.78093 66.000
54.80088 92.000
54.82082 90.000
54.84077 75.000
54.86072 78.000
54.88066 96.000
54.90061 95.000
54.92056 103.000
54.94050 77.000
54.96045 99.000
54.98040 97.000
55.00035 108.000
55.02029 88.000
55.04024 97.000
55.06019 87.000
55.08013 83.000
55.10008 100.000
55.12003 99.000
55.13997 87.000
55.15992 100.000
55.17987 94.000
55.19982 88.000
55.21976 96.000
55.23971 110.000
55.25966 84.000
55.27960 83.000
55.29955 80.000
55.31950 95.000
55.33944 83.000
55.35939 95.000
55.37934 83.000
55.39929 95.000
55.41923 106.000
55.43918 90.000
55.45913 97.000
55.47907 87.000
55.49902 81.000
55.51897 85.000
55.53891 117.000
55.55886 84.000
55.57881 84.000
55.59875 97.000
55.61870 83.000
55.63865 78.000
55.65860 80.000
55.67854 84.000
55.69849 83.000
55.71844 105.000
55.73838 88.000
55.75833 89.000
55.77828 89.000
55.79822 89.000
55.81817 89.000
55.83812 90.000
55.85807 97.000
55.87801 78.000
55.89796 99.000
55.91791 92.000
55.93785 105.000
55.95780 93.000
55.97775 65.000
55.99769 85.000
56.01764 97.000
56.03759 89.000
56.05753 81.000
56.07748 84.000
56.09743 84.000
56.11738 88.000
56.13732 82.000
56.15727 107.000
56.17722 97.000
56.19716 80.000
56.21711 93.000
56.23706 96.000
56.25700 105.000
56.27695 90.000
56.29690 93.000
56.31685 87.000
56.33679 82.000
56.35674 83.000
56.37669 70.000
56.39663 90.000
56.41658 93.000
56.43653 86.000
56.45647 74.000
56.47642 89.000
56.49637 98.000
56.51631 114.000
56.53626 76.000
56.55621 89.000
56.57616 78.000
56.59610 96.000
56.61605 88.000
56.63600 96.000
56.65594 110.000
56.67589 90.000
56.69584 86.000
56.71578 87.000
56.73573 85.000
56.75568 102.000
56.77563 87.000
56.79557 97.000
56.81552 88.000
56.83547 102.000
56.85541 94.000
56.87536 104.000
56.89531 117.000
56.91525 100.000
56.93520 103.000
56.95515 85.000
56.97510 112.000
56.99504 115.000
57.01499 103.000
57.03494 107.000
57.05488 120.000
57.07483 119.000
57.09478 100.000
57.11472 114.000
57.13467 117.000
57.15462 128.000
57.17456 106.000
57.19451 104.000
57.21446 116.000
57.23441 117.000
57.25435 138.000
57.27430 137.000
57.29425 156.000
57.31419 169.000
57.33414 165.000
57.35409 183.000
57.37403 166.000
57.39398 213.000
57.41393 193.000
57.43388 243.000
57.45382 242.000
57.47377 257.000
57.49372 288.000
57.51366 325.000
57.53361 329.000
57.55356 351.000
57.57350 411.000
57.59345 398.000
57.61340 434.000
57.63334 436.000
57.65329 431.000
57.67324 447.000
57.69319 441.000
57.71313 427.000
57.73308 477.000
57.75303 378.000
57.77297 381.000
57.79292 420.000
57.81287 345.000
57.83281 357.000
57.85276 342.000
57.87271 284.000
57.89266 257.000
57.91260 254.000
57.93255 239.000
57.95250 211.000
57.97244 222.000
57.99239 212.000
58.01234 193.000
58.03228 159.000
58.05223 160.000
58.07218 146.000
58.09212 136.000
58.11207 148.000
58.13202 127.000
58.15197 125.000
58.17191 122.000
58.19186 130.000
58.21181 117.000
58.23175 110.000
58.25170 116.000
58.27165 112.000
58.29159 118.000
58.31154 109.000
58.33149 123.000
58.35144 122.000
58.37138 135.000
58.39133 128.000
58.41128 124.000
58.43122 107.000
58.45117 107.000
58.47112 104.000
58.49106 109.000
58.51101 93.000
58.53096 93.000
58.55090 95.000
58.57085 104.000
58.59080 109.000
58.61075 92.000
58.63069 90.000
58.65064 97.000
58.67059 99.000
58.69053 114.000
58.71048 89.000
58.73043 101.000
58.75037 89.000
58.77032 95.000
58.79027 118.000
58.81022 100.000
58.83016 103.000
58.85011 89.000
58.87006 98.000
58.89000 95.000
58.90995 110.000
58.92990 102.000
58.94984 83.000
58.96979 93.000
58.98974 102.000
59.00969 94.000
59.02963 100.000
59.04958 75.000
59.06953 96.000
59.08947 91.000
59.10942 90.000
59.12937 94.000
59.14931 85.000
59.16926 106.000
59.18921 92.000
59.20915 86.000
59.22910 79.000
59.24905 93.000
59.26900 113.000
59.28894 104.000
59.30889 100.000
59.32884 85.000
59.34878 86.000
59.36873 107.000
59.38868 105.000
59.40862 88.000
59.42857 102.000
59.44852 106.000
59.46847 66.000
59.48841 97.000
59.50836 87.000
59.52831 82.000
59.54825 76.000
59.56820 94.000
59.58815 93.000
59.60809 107.000
59.62804 91.000
59.64799 91.000
59.66793 91.000
59.68788 90.000
59.70783 98.000
59.72778 90.000
59.74772 86.000
59.76767 86.000
59.78762 96.000
59.80756 83.000
59.82751 83.000
59.84746 102.000
59.86740 84.000
59.88735 74.000
59.90730 87.000
59.92725 85.000
59.94719 86.000
59.96714 77.000
59.98709 105.000
60.00703 90.000
60.02698 91.000
60.04693 97.000
60.06687 87.000
60.08682 102.000
60.10677 83.000
60.12671 115.000
60.14666 102.000
60.16661 82.000
60.18656 90.000
60.20650 96.000
60.22645 86.000
60.24640 81.000
60.26634 85.000
60.28629 90.000
60.30624 92.000
60.32618 85.000
60.34613 90.000
60.36608 86.000
60.38603 77.000
60.40597 79.000
60.42592 93.000
60.44587 86.000
60.46581 95.000
60.48576 103.000
60.50571 107.000
60.52565 98.000
60.54560 84.000
60.56555 102.000
60.58550 85.000
60.60544 75.000
60.62539 97.000
60.64534 95.000
60.66528 83.000
60.68523 93.000
60.70518 101.000
60.72512 97.000
60.74507 86.000
60.76502 93.000
60.78496 91.000
60.80491 89.000
60.82486 97.000
60.84481 98.000
60.86475 87.000
60.88470 73.000
60.90465 91.000
60.92459 95.000
60.94454 105.000
60.96449 99.000
60.98443 90.000
61.00438 89.000
61.02433 89.000
61.04428 122.000
61.06422 90.000
61.08417 96.000
61.10412 93.000
61.12406 89.000
61.14401 89.000
61.16396 91.000
61.18390 98.000
61.20385 105.000
61.22380 88.000
61.24374 99.000
61.26369 103.000
61.28364 91.000
61.30359 119.000
61.32353 102.000
61.34348 101.000
61.36343 106.000
61.38337 91.000
61.40332 106.000
61.42327 127.000
61.44321 109.000
61.46316 118.000
61.48311 124.000
61.50306 103.000
61.52300 141.000
61.54295 103.000
61.56290 124.000
61.58284 162.000
61.60279 156.000
61.62274 183.000
61.64268 159.000
61.66263 150.000
61.68258 160.000
61.70252 120.000
61.72247 176.000
61.74242 183.000
61.76237 162.000
61.78231 197.000
61.80226 188.000
61.82221 207.000
61.84215 184.000
61.86210 198.000
61.88205 209.000
61.90199 205.000
61.92194 200.000
61.94189 224.000
61.96184 196.000
61.98178 221.000
62.00173 198.000
62.02168 176.000
62.04162 192.000
62.06157 207.000
62.08152 183.000
62.10146 184.000
62.12141 123.000
62.14136 161.000
62.16131 165.000
62.18125 133.000
62.20120 130.000
62.22115 156.000
62.24109 130.000
62.26104 120.000
62.28099 131.000
62.30093 135.000
62.32088 126.000
62.34083 124.000
62.36077 111.000
62.38072 104.000
62.40067 133.000
62.42062 138.000
62.44056 116.000
62.46051 144.000
62.48046 141.000
62.50040 149.000
62.52035 148.000
62.54030 186.000
62.56024 160.000
62.58019 172.000
62.60014 167.000
62.62009 185.000
62.64003 201.000
62.65998 208.000
62.67993 183.000
62.69987 218.000
62.71982 215.000
62.73977 222.000
62.75971 246.000
62.77966 280.000
62.79961 255.000
62.81955 244.000
62.83950 281.000
62.85945 291.000
62.87940 336.000
62.89934 299.000
62.91929 354.000
62.93924 318.000
62.95918 336.000
62.97913 342.000
62.99908 368.000
63.01902 343.000
63.03897 345.000
63.05892 348.000
63.07887 339.000
63.09881 381.000
63.11876 351.000
63.13871 332.000
63.15865 302.000
63.17860 353.000
63.19855 295.000
63.21849 264.000
63.23844 259.000
63.25839 244.000
63.27833 237.000
63.29828 254.000
63.31823 211.000
63.33818 222.000
63.35812 169.000
63.37807 155.000
63.39802 165.000
63.41796 152.000
63.43791 129.000
63.45786 119.000
63.47780 137.000
63.49775 140.000
63.51770 106.000
63.53765 130.000
63.55759 124.000
63.57754 117.000
63.59749 112.000
63.61743 134.000
63.63738 125.000
63.65733 140.000
63.67727 150.000
63.69722 168.000
63.71717 156.000
63.73712 153.000
63.75706 174.000
63.77701 165.000
63.79696 167.000
63.81690 153.000
63.83685 179.000
63.85680 157.000
63.87674 173.000
63.89669 158.000
63.91664 147.000
63.93658 172.000
63.95653 132.000
63.97648 143.000
63.99643 158.000
64.01637 145.000
64.03632 142.000
64.05627 137.000
64.07621 126.000
64.09616 132.000
64.11611 113.000
64.13605 117.000
64.15600 124.000
64.17595 96.000
64.19590 131.000
64.21584 111.000
64.23579 117.000
64.25574 100.000
64.27568 118.000
64.29563 138.000
64.31558 123.000
64.33552 116.000
64.35547 111.000
64.37542 97.000
64.39536 104.000
64.41531 111.000
64.43526 103.000
64.45521 104.000
64.47515 120.000
64.49510 106.000
64.51505 109.000
64.53499 93.000
64.55494 113.000
64.57489 104.000
64.59483 103.000
64.61478 93.000
64.63473 106.000
64.65468 101.000
64.67462 99.000
64.69457 105.000
64.71452 99.000
64.73446 94.000
64.75441 99.000
64.77436 95.000
64.79430 91.000
64.81425 111.000
64.83420 96.000
64.85414 88.000
64.87409 77.000
64.89404 109.000
64.91399 83.000
64.93393 91.000
64.95388 98.000
64.97383 110.000
64.99377 93.000
65.01372 90.000
65.03367 115.000
65.05361 108.000
65.07356 117.000
65.09351 113.000
65.11346 133.000
65.13340 114.000
65.15335 95.000
65.17330 132.000
65.19324 140.000
65.21319 133.000
65.23314 157.000
65.25308 139.000
65.27303 154.000
65.29298 150.000
65.31293 170.000
65.33287 171.000
65.35282 149.000
65.37277 195.000
65.39271 200.000
65.41266 186.000
65.43261 226.000
65.45255 216.000
65.47250 214.000
65.49245 223.000
65.51239 249.000
65.53234 237.000
65.55229 265.000
65.57224 235.000
65.59218 260.000
65.61213 256.000
65.63208 225.000
65.65202 260.000
65.67197 248.000
65.69192 222.000
65.71186 255.000
65.73181 211.000
65.75176 198.000
65.77171 172.000
65.79165 183.000
65.81160 192.000
65.83155 213.000
65.85149 175.000
65.87144 166.000
65.89139 156.000
65.91133 127.000
65.93128 151.000
65.95123 126.000
65.97117 147.000
65.99112 150.000
66.01107 150.000
66.03102 145.000
66.05096 133.000
66.07091 131.000
66.09086 149.000
66.11080 141.000
66.13075 145.000
66.15070 142.000
66.17064 124.000
66.19059 151.000
66.21054 138.000
66.23049 160.000
66.25043 144.000
66.27038 149.000
66.29033 149.000
66.31027 140.000
66.33022 164.000
66.35017 161.000
66.37011 135.000
66.39006 150.000
66.41001 138.000
66.42995 143.000
66.44990 136.000
66.46985 122.000
66.48980 125.000
66.50974 128.000
66.52969 119.000
66.54964 134.000
66.56958 113.000
66.58953 125.000
66.60948 113.000
66.62942 113.000
66.64937 109.000
66.66932 122.000
66.68927 103.000
66.70921 106.000
66.72916 142.000
66.74911 129.000
66.76905 120.000
66.78900 122.000
66.80895 100.000
66.82889 118.000
66.84884 117.000
66.86879 118.000
66.88874 104.000
66.90868 116.000
66.92863 119.000
66.94858 116.000
66.96852 108.000
66.98847 120.000
67.00842 110.000
67.02836 92.000
67.04831 116.000
67.06826 108.000
67.08820 114.000
67.10815 118.000
67.12810 124.000
67.14805 116.000
67.16799 114.000
67.18794 100.000
67.20789 106.000
67.22783 112.000
67.24778 110.000
67.26773 97.000
67.28767 115.000
67.30762 86.000
67.32757 71.000
67.34752 106.000
67.36746 92.000
67.38741 109.000
67.40736 98.000
67.42730 107.000
67.44725 92.000
67.46720 107.000
67.48714 119.000
67.50709 107.000
67.52704 110.000
67.54698 120.000
67.56693 121.000
67.58688 119.000
67.60683 99.000
67.62677 125.000
67.64672 141.000
67.66667 124.000
67.68661 159.000
67.70656 145.000
67.72651 147.000
67.74645 159.000
67.76640 159.000
67.78635 169.000
67.80630 156.000
67.82624 170.000
67.84619 179.000
67.86614 163.000
67.88608 181.000
67.90603 160.000
67.92598 191.000
67.94592 161.000
67.96587 202.000
67.98582 184.000
68.00576 181.000
68.02571 211.000
68.04566 168.000
68.06561 157.000
68.08555 191.000
68.10550 163.000
68.12545 177.000
68.14539 182.000
68.16534 155.000
68.18529 183.000
68.20523 146.000
68.22518 179.000
68.24513 154.000
68.26508 163.000
68.28502 143.000
68.30497 152.000
68.32492 145.000
68.34486 144.000
68.36481 148.000
68.38476 153.000
68.40470 140.000
68.42465 139.000
68.44460 138.000
68.46455 122.000
68.48449 116.000
68.50444 145.000
68.52439 124.000
68.54433 123.000
68.56428 128.000
68.58423 114.000
68.60417 136.000
68.62412 116.000
68.64407 127.000
68.66401 101.000
68.68396 117.000
68.70391 124.000
68.72386 117.000
68.74380 107.000
68.76375 127.000
68.78370 109.000
68.80364 126.000
68.82359 105.000
68.84354 110.000
68.86348 110.000
68.88343 115.000
68.90338 90.000
68.92333 101.000
68.94327 102.000
68.96322 106.000
68.98317 99.000
69.00311 84.000
69.02306 105.000
69.04301 86.000
69.06295 118.000
69.08290 123.000
69.10285 90.000
69.12279 94.000
69.14274 107.000
69.16269 92.000
69.18264 96.000
69.20258 114.000
69.22253 99.000
69.24248 114.000
69.26242 107.000
69.28237 94.000
69.30232 114.000
69.32226 93.000
69.34221 105.000
69.36216 109.000
69.38211 96.000
69.40205 108.000
69.42200 108.000
69.44195 104.000
69.46189 109.000
69.48184 83.000
69.50179 81.000
69.52173 81.000
69.54168 93.000
69.56163 94.000
69.58157 84.000
69.60152 99.000
69.62147 107.000
69.64142 107.000
69.66136 95.000
69.68131 83.000
69.70126 97.000
69.72120 75.000
69.74115 90.000
69.76110 84.000
69.78104 92.000
69.80099 82.000
69.82094 108.000
69.84089 81.000
69.86083 105.000
69.88078 90.000
69.90073 85.000
69.92067 84.000
69.94062 101.000
69.96057 99.000
69.98051 83.000
70.00046 89.000
70.02041 85.000
70.04035 79.000
70.06030 81.000
70.08025 86.000
70.10020 96.000
70.12014 99.000
70.14009 82.000
70.16004 97.000
70.17998 88.000
70.19993 85.000
70.21988 81.000
70.23982 83.000
70.25977 87.000
70.27972 80.000
70.29967 78.000
70.31961 94.000
70.33956 70.000
70.35951 96.000
70.37945 90.000
70.39940 93.000
70.41935 87.000
70.43929 88.000
70.45924 106.000
70.47919 87.000
70.49914 80.000
70.51908 74.000
70.53903 85.000
70.55898 101.000
70.57892 109.000
70.59887 82.000
70.61882 85.000
70.63876 86.000
70.65871 86.000
70.67866 82.000
70.69860 84.000
70.71855 83.000
70.73850 81.000
70.75845 82.000
70.77839 87.000
70.79834 83.000
70.81829 93.000
70.83823 95.000
70.85818 84.000
70.87813 84.000
70.89807 98.000
70.91802 81.000
70.93797 92.000
70.95792 88.000
70.97786 92.000
70.99781 100.000
71.01776 75.000
71.03770 83.000
71.05765 84.000
71.07760 85.000
71.09754 83.000
71.11749 86.000
71.13744 107.000
71.15738 92.000
71.17733 74.000
71.19728 89.000
71.21723 101.000
71.23717 96.000
71.25712 66.000
71.27707 72.000
71.29701 79.000
71.31696 83.000
71.33691 107.000
71.35685 82.000
71.37680 85.000
71.39675 91.000
71.41670 75.000
71.43664 77.000
71.45659 68.000
71.47654 79.000
71.49648 106.000
71.51643 85.000
71.53638 100.000
71.55632 100.000
71.57627 85.000
71.59622 98.000
71.61616 98.000
71.63611 90.000
71.65606 88.000
71.67601 87.000
71.69595 88.000
71.71590 91.000
71.73585 90.000
71.75579 107.000
71.77574 98.000
71.79569 91.000
71.81563 104.000
71.83558 85.000
71.85553 94.000
71.87548 81.000
71.89542 71.000
71.91537 90.000
71.93532 90.000
71.95526 84.000
71.97521 98.000
71.99516 78.000
72.01510 91.000
72.03505 103.000
72.05500 87.000
72.07495 97.000
72.09489 89.000
72.11484 74.000
72.13479 98.000
72.15473 101.000
72.17468 95.000
72.19463 74.000
72.21457 70.000
72.23452 98.000
72.25447 82.000
72.27441 85.000
72.29436 96.000
72.31431 94.000
72.33426 83.000
72.35420 114.000
72.37415 101.000
72.39410 94.000
72.41404 131.000
72.43399 128.000
72.45394 127.000
72.47388 106.000
72.49383 118.000
72.51378 116.000
72.53373 122.000
72.55367 128.000
72.57362 146.000
72.59357 111.000
72.61351 145.000
72.63346 139.000
72.65341 154.000
72.67335 160.000
72.69330 160.000
72.71325 153.000
72.73319 169.000
72.75314 195.000
72.77309 208.000
72.79304 221.000
72.81298 196.000
72.83293 206.000
72.85288 200.000
72.87282 207.000
72.89277 198.000
72.91272 195.000
72.93266 202.000
72.95261 170.000
72.97256 199.000
72.99251 181.000
73.01245 186.000
73.03240 189.000
73.05235 156.000
73.07229 157.000
73.09224 172.000
73.11219 172.000
73.13213 162.000
73.15208 154.000
73.17203 149.000
73.19197 156.000
73.21192 151.000
73.23187 162.000
73.25182 161.000
73.27176 121.000
73.29171 141.000
73.31166 169.000
73.33160 153.000
73.35155 161.000
73.37150 144.000
73.39144 141.000
73.41139 156.000
73.43134 149.000
73.45129 146.000
73.47123 153.000
73.49118 132.000
73.51113 153.000
73.53107 136.000
73.55102 138.000
73.57097 140.000
73.59091 142.000
73.61086 140.000
73.63081 132.000
73.65076 126.000
73.67070 125.000
73.69065 133.000
73.71060 116.000
73.73054 133.000
73.75049 134.000
73.77044 133.000
73.79038 120.000
73.81033 137.000
73.83028 108.000
73.85022 137.000
73.87017 130.000
73.89012 142.000
73.91007 125.000
73.93001 125.000
73.94996 132.000
73.96991 97.000
73.98985 117.000
74.00980 100.000
74.02975 107.000
74.04969 115.000
74.06964 113.000
74.08959 96.000
74.10954 96.000
74.12948 110.000
74.14943 119.000
74.16938 95.000
74.18932 100.000
74.20927 100.000
74.22922 115.000
74.24916 114.000
74.26911 108.000
74.28906 108.000
74.30900 117.000
74.32895 101.000
74.34890 102.000
74.36885 104.000
74.38879 99.000
74.40874 110.000
74.42869 109.000
74.44863 110.000
74.46858 107.000
74.48853 116.000
74.50847 131.000
74.52842 100.000
74.54837 108.000
74.56832 107.000
74.58826 111.000
74.60821 119.000
74.62816 126.000
74.64810 119.000
74.66805 122.000
74.68800 113.000
74.70794 95.000
74.72789 121.000
74.74784 109.000
74.76778 97.000
74.78773 108.000
74.80768 107.000
74.82763 101.000
74.84757 117.000
74.86752 112.000
74.88747 127.000
74.90741 109.000
74.92736 110.000
74.94731 112.000
74.96725 119.000
74.98720 121.000
75.00715 98.000
75.02710 117.000
75.04704 134.000
75.06699 127.000
75.08694 111.000
75.10688 125.000
75.12683 124.000
75.14678 113.000
75.16672 113.000
75.18667 138.000
75.20662 142.000
75.22657 118.000
75.24651 134.000
75.26646 121.000
75.28641 139.000
75.30635 120.000
75.32630 130.000
75.34625 128.000
75.36619 124.000
75.38614 161.000
75.40609 142.000
75.42603 136.000
75.44598 128.000
75.46593 117.000
75.48588 126.000
75.50582 117.000
75.52577 106.000
75.54572 125.000
75.56566 97.000
75.58561 98.000
75.60556 96.000
75.62550 102.000
75.64545 90.000
75.66540 105.000
75.68535 103.000
75.70529 80.000
75.72524 91.000
75.74519 88.000
75.76513 86.000
75.78508 100.000
75.80503 88.000
75.82497 108.000
75.84492 95.000
75.86487 76.000
75.88481 97.000
75.90476 108.000
75.92471 84.000
75.94466 90.000
75.96460 97.000
75.98455 92.000
76.00450 95.000
76.02444 92.000
76.04439 106.000
76.06434 82.000
76.08428 81.000
76.10423 94.000
76.12418 87.000
76.14413 67.000
76.16407 104.000
76.18402 91.000
76.20397 92.000
76.22391 87.000
76.24386 86.000
76.26381 87.000
76.28375 99.000
76.30370 92.000
76.32365 85.000
76.34359 89.000
76.36354 105.000
76.38349 84.000
76.40344 84.000
76.42338 107.000
76.44333 67.000
76.46328 92.000
76.48322 88.000
76.50317 81.000
76.52312 89.000
76.54306 95.000
76.56301 81.000
76.58296 82.000
76.60291 86.000
76.62285 81.000
76.64280 96.000
76.66275 85.000
76.68269 92.000
76.70264 105.000
76.72259 84.000
76.74253 98.000
76.76248 83.000
76.78243 79.000
76.80238 87.000
76.82232 85.000
76.84227 88.000
76.86222 72.000
76.88216 94.000
76.90211 83.000
76.92206 97.000
76.94200 86.000
76.96195 110.000
76.98190 89.000
77.00184 97.000
77.02179 74.000
77.04174 76.000
77.06169 82.000
77.08163 95.000
77.10158 84.000
77.12153 89.000
77.14147 80.000
77.16142 81.000
77.18137 86.000
77.20131 92.000
77.22126 95.000
77.24121 87.000
77.26116 79.000
77.28110 81.000
77.30105 106.000
77.32100 96.000
77.34094 105.000
77.36089 88.000
77.38084 113.000
77.40078 85.000
77.42073 102.000
77.44068 108.000
77.46062 82.000
77.48057 112.000
77.50052 104.000
77.52047 106.000
77.54041 96.000
77.56036 119.000
77.58031 94.000
77.60025 106.000
77.62020 98.000
77.64015 102.000
77.66009 113.000
77.68004 93.000
77.69999 91.000
77.71994 111.000
77.73988 95.000
77.75983 98.000
77.77978 107.000
77.79972 110.000
77.81967 104.000
77.83962 107.000
77.85956 128.000
77.87951 110.000
77.89946 118.000
77.91940 115.000
77.93935 137.000
77.95930 127.000
77.97925 126.000
77.99919 132.000
78.01914 149.000
78.03909 139.000
78.05903 145.000
78.07898 163.000
78.09893 181.000
78.11887 159.000
78.13882 162.000
78.15877 163.000
78.17872 170.000
78.19866 186.000
78.21861 170.000
78.23856 178.000
78.25850 179.000
78.27845 179.000
78.29840 191.000
78.31834 191.000
78.33829 208.000
78.35824 185.000
78.37819 183.000
78.39813 189.000
78.41808 199.000
78.43803 185.000
78.45797 155.000
78.47792 175.000
78.49787 172.000
78.51781 174.000
78.53776 175.000
78.55771 162.000
78.57765 165.000
78.59760 143.000
78.61755 137.000
78.63750 134.000
78.65744 149.000
78.67739 139.000
78.69734 139.000
78.71728 126.000
78.73723 112.000
78.75718 124.000
78.77712 111.000
78.79707 120.000
78.81702 124.000
78.83697 118.000
78.85691 113.000
78.87686 104.000
78.89681 84.000
78.91675 86.000
78.93670 99.000
78.95665 85.000
78.97659 98.000
78.99654 100.000
79.01649 100.000
79.03643 105.000
79.05638 88.000
79.07633 88.000
79.09628 91.000
79.11622 82.000
79.13617 72.000
79.15612 90.000
79.17606 79.000
79.19601 93.000
79.21596 80.000
79.23590 98.000
79.25585 89.000
79.27580 84.000
79.29575 82.000
79.31569 95.000
79.33564 80.000
79.35559 97.000
79.37553 79.000
79.39548 83.000
79.41543 79.000
79.43537 88.000
79.45532 94.000
79.47527 81.000
79.49521 64.000
79.51516 86.000
79.53511 105.000
79.55506 90.000
79.57500 79.000
79.59495 84.000
79.61490 86.000
79.63484 88.000
79.65479 82.000
79.67474 70.000
79.69468 84.000
79.71463 86.000
79.73458 92.000
79.75453 95.000
79.77447 96.000
79.79442 69.000
79.81437 85.000
79.83431 87.000
79.85426 87.000
79.87421 74.000
79.89415 85.000
79.91410 89.000
79.93405 100.000
79.95399 90.000
79.97394 90.000
79.99389 72.000
80.01384 88.000
80.03378 103.000
80.05373 106.000
80.07368 83.000
80.09362 92.000
80.11357 110.000
80.13352 87.000
80.15346 85.000
80.17341 90.000
80.19336 96.000
80.21331 100.000
80.23325 82.000
80.25320 99.000
80.27315 83.000
80.29309 98.000
80.31304 100.000
80.33299 104.000
80.35293 106.000
80.37288 89.000
80.39283 105.000
80.41278 104.000
80.43272 116.000
80.45267 81.000
80.47262 82.000
80.49256 86.000
80.51251 93.000
80.53246 109.000
80.55240 103.000
80.57235 97.000
80.59230 107.000
80.61224 81.000
80.63219 84.000
80.65214 86.000
80.67209 88.000
80.69203 84.000
80.71198 85.000
80.73193 82.000
80.75187 106.000
80.77182 99.000
80.79177 92.000
80.81171 85.000
80.83166 86.000
80.85161 96.000
80.87156 94.000
80.89150 92.000
80.91145 100.000
80.93140 84.000
80.95134 103.000
80.97129 87.000
80.99124 95.000
81.01118 109.000
81.03113 117.000
81.05108 85.000
81.07102 88.000
81.09097 88.000
81.11092 78.000
81.13087 87.000
81.15081 78.000
81.17076 88.000
81.19071 98.000
81.21065 79.000
81.23060 82.000
81.25055 88.000
81.27049 82.000
81.29044 82.000
81.31039 89.000
81.33034 82.000
81.35028 89.000
81.37023 95.000
81.39018 94.000
81.41012 81.000
81.43007 84.000
81.45002 86.000
81.46996 69.000
81.48991 80.000
81.50986 88.000
81.52980 82.000
81.54975 84.000
81.56970 66.000
81.58965 83.000
81.60959 78.000
81.62954 87.000
81.64949 82.000
81.66943 91.000
81.68938 100.000
81.70933 67.000
81.72927 61.000
81.74922 88.000
81.76917 83.000
81.78912 75.000
81.80906 89.000
81.82901 80.000
81.84896 80.000
81.86890 86.000
81.88885 84.000
81.90880 80.000
81.92874 104.000
81.94869 64.000
81.96864 91.000
81.98859 93.000
82.00853 83.000
82.02848 79.000
82.04843 55.000
82.06837 79.000
82.08832 85.000
82.10827 80.000
82.12821 78.000
82.14816 83.000
82.16811 88.000
82.18805 82.000
82.20800 95.000
82.22795 96.000
82.24790 85.000
82.26784 96.000
82.28779 73.000
82.30774 84.000
82.32768 79.000
82.34763 75.000
82.36758 74.000
82.38752 93.000
82.40747 94.000
82.42742 96.000
82.44737 83.000
82.46731 86.000
82.48726 93.000
82.50721 86.000
82.52715 98.000
82.54710 96.000
82.56705 98.000
82.58699 114.000
82.60694 93.000
82.62689 87.000
82.64683 89.000
82.66678 88.000
82.68673 95.000
82.70668 97.000
82.72662 96.000
82.74657 76.000
82.76652 91.000
82.78646 102.000
82.80641 85.000
82.82636 70.000
82.84630 89.000
82.86625 78.000
82.88620 100.000
82.90615 82.000
82.92609 91.000
82.94604 93.000
82.96599 95.000
82.98593 77.000
83.00588 97.000
83.02583 96.000
83.04577 84.000
83.06572 89.000
83.08567 96.000
83.10561 80.000
83.12556 88.000
83.14551 88.000
83.16546 90.000
83.18540 80.000
83.20535 87.000
83.22530 81.000
83.24524 95.000
83.26519 98.000
83.28514 91.000
83.30508 94.000
83.32503 102.000
83.34498 103.000
83.36493 78.000
83.38487 105.000
83.40482 87.000
83.42477 95.000
83.44471 93.000
83.46466 99.000
83.48461 99.000
83.50455 96.000
83.52450 96.000
83.54445 85.000
83.56440 75.000
83.58434 92.000
83.60429 82.000
83.62424 87.000
83.64418 89.000
83.66413 84.000
83.68408 86.000
83.70402 79.000
83.72397 79.000
83.74392 69.000
83.76386 81.000
83.78381 96.000
83.80376 106.000
83.82371 87.000
83.84365 80.000
83.86360 82.000
83.88355 94.000
83.90349 90.000
83.92344 88.000
83.94339 82.000
83.96333 102.000
83.98328 113.000
84.00323 90.000
84.02318 111.000
84.04312 102.000
84.06307 100.000
84.08302 100.000
84.10296 101.000
84.12291 106.000
84.14286 106.000
84.16280 112.000
84.18275 110.000
84.20270 102.000
84.22264 92.000
84.24259 115.000
84.26254 100.000
84.28249 103.000
84.30243 125.000
84.32238 93.000
84.34233 110.000
84.36227 108.000
84.38222 99.000
84.40217 134.000
84.42211 108.000
84.44206 102.000
84.46201 114.000
84.48196 120.000
84.50190 111.000
84.52185 109.000
84.54180 104.000
84.56174 93.000
84.58169 101.000
84.60164 89.000
84.62158 101.000
84.64153 81.000
84.66148 91.000
84.68142 103.000
84.70137 76.000
84.72132 88.000
84.74127 102.000
84.76121 98.000
84.78116 90.000
84.80111 104.000
84.82105 85.000
84.84100 99.000
84.86095 87.000
84.88089 67.000
84.90084 74.000
84.92079 84.000
84.94074 94.000
84.96068 115.000
84.98063 106.000
85.00058 101.000
85.02052 86.000
85.04047 85.000
85.06042 84.000
85.08036 67.000
85.10031 80.000
85.12026 80.000
85.14021 76.000
85.16015 97.000
85.18010 72.000
85.20005 95.000
85.21999 80.000
85.23994 90.000
85.25989 76.000
85.27983 85.000
85.29978 99.000
85.31973 93.000
85.33967 86.000
85.35962 83.000
85.37957 83.000
85.39952 87.000
85.41946 73.000
85.43941 100.000
85.45936 82.000
85.47930 83.000
85.49925 79.000
85.51920 108.000
85.53914 89.000
85.55909 71.000
85.57904 102.000
85.59899 74.000
85.61893 86.000
85.63888 76.000
85.65883 77.000
85.67877 94.000
85.69872 71.000
85.71867 96.000
85.73861 83.000
85.75856 67.000
85.77851 83.000
85.79845 91.000
85.81840 85.000
85.83835 85.000
85.85830 77.000
85.87824 69.000
85.89819 88.000
85.91814 75.000
85.93808 100.000
85.95803 83.000
85.97798 71.000
85.99792 90.000
86.01787 89.000
86.03782 88.000
86.05777 91.000
86.07771 86.000
86.09766 77.000
86.11761 99.000
86.13755 70.000
86.15750 84.000
86.17745 87.000
86.19739 90.000
86.21734 98.000
86.23729 92.000
86.25723 95.000
86.27718 76.000
86.29713 98.000
86.31708 98.000
86.33702 90.000
86.35697 90.000
86.37692 94.000
86.39686 87.000
86.41681 81.000
86.43676 103.000
86.45670 83.000
86.47665 115.000
86.49660 90.000
86.51655 99.000
86.53649 109.000
86.55644 125.000
86.57639 91.000
86.59633 91.000
86.61628 97.000
86.63623 132.000
86.65617 140.000
86.67612 105.000
86.69607 144.000
86.71602 115.000
86.73596 117.000
86.75591 101.000
86.77586 113.000
86.79580 119.000
86.81575 98.000
86.83570 123.000
86.85564 137.000
86.87559 134.000
86.89554 139.000
86.91548 121.000
86.93543 105.000
86.95538 122.000
86.97533 128.000
86.99527 115.000
87.01522 99.000
87.03517 109.000
87.05511 100.000
87.07506 100.000
87.09501 91.000
87.11495 97.000
87.13490 94.000
87.15485 116.000
87.17480 114.000
87.19474 116.000
87.21469 97.000
87.23464 110.000
87.25458 89.000
87.27453 121.000
87.29448 121.000
87.31442 106.000
87.33437 108.000
87.35432 88.000
87.37426 97.000
87.39421 91.000
87.41416 92.000
87.43411 107.000
87.45405 97.000
87.47400 78.000
87.49395 85.000
87.51389 89.000
87.53384 94.000
87.55379 99.000
87.57373 81.000
87.59368 98.000
87.61363 110.000
87.63358 82.000
87.65352 69.000
87.67347 73.000
87.69342 90.000
87.71336 102.000
87.73331 80.000
87.75326 73.000
87.77320 98.000
87.79315 105.000
87.81310 92.000
87.83304 80.000
87.85299 84.000
87.87294 90.000
87.89289 86.000
87.91283 83.000
87.93278 94.000
87.95273 88.000
87.97267 84.000
87.99262 93.000
88.01257 69.000
88.03251 86.000
88.05246 75.000
88.07241 81.000
88.09236 102.000
88.11230 81.000
88.13225 70.000
88.15220 93.000
88.17214 93.000
88.19209 86.000
88.21204 84.000
88.23198 102.000
88.25193 90.000
88.27188 74.000
88.29183 83.000
88.31177 74.000
88.33172 87.000
88.35167 80.000
88.37161 68.000
88.39156 73.000
88.41151 85.000
88.43145 78.000
88.45140 91.000
88.47135 87.000
88.49129 87.000
88.51124 93.000
88.53119 88.000
88.55114 81.000
88.57108 96.000
88.59103 88.000
88.61098 104.000
88.63092 100.000
88.65087 83.000
88.67082 81.000
88.69076 79.000
88.71071 81.000
88.73066 82.000
88.75061 81.000
88.77055 81.000
88.79050 92.000
88.81045 86.000
88.83039 78.000
88.85034 67.000
88.87029 75.000
88.89023 83.000
88.91018 90.000
88.93013 96.000
88.95007 90.000
88.97002 91.000
88.98997 81.000
89.00992 89.000
89.02986 71.000
89.04981 96.000
89.06976 99.000
89.08970 93.000
89.10965 83.000
89.12960 76.000
89.14954 85.000
89.16949 72.000
89.18944 94.000
89.20939 73.000
89.22933 79.000
89.24928 102.000
89.26923 94.000
89.28917 78.000
89.30912 83.000
89.32907 96.000
89.34901 92.000
89.36896 77.000
89.38891 82.000
89.40885 93.000
89.42880 77.000
89.44875 83.000
89.46870 78.000
89.48864 79.000
89.50859 95.000
89.52854 89.000
89.54848 114.000
89.56843 86.000
89.58838 95.000
89.60832 93.000
89.62827 91.000
89.64822 92.000
89.66817 88.000
89.68811 92.000
89.70806 94.000
89.72801 87.000
89.74795 87.000
89.76790 89.000
89.78785 99.000
89.80779 96.000
89.82774 91.000
89.84769 85.000
89.86764 105.000
89.88758 101.000
89.90753 91.000
89.92748 91.000
89.94742 98.000
89.96737 95.000
89.98732 95.000
90.00726 93.000
