10.00000 101.000
10.01995 82.000
10.03989 90.000
10.05984 93.000
10.07979 89.000
10.09973 102.000
10.11968 81.000
10.13963 84.000
10.15958 90.000
10.17952 82.000
10.19947 96.000
10.21942 73.000
10.23936 83.000
10.25931 103.000
10.27926 109.000
10.29920 81.000
10.31915 94.000
10.33910 92.000
10.35905 93.000
10.37899 80.000
10.39894 80.000
10.41889 97.000
10.43883 96.000
10.45878 85.000
10.47873 92.000
10.49867 87.000
10.51862 88.000
10.53857 83.000
10.55851 85.000
10.57846 82.000
10.59841 88.000
10.61836 88.000
10.63830 90.000
10.65825 81.000
10.67820 82.000
10.69814 109.000
10.71809 92.000
10.73804 80.000
10.75798 67.000
10.77793 94.000
10.79788 104.000
10.81783 75.000
10.83777 103.000
10.85772 84.000
10.87767 82.000
10.89761 69.000
10.91756 89.000
10.93751 90.000
10.95745 96.000
10.97740 99.000
10.99735 101.000
11.01730 85.000
11.03724 89.000
11.05719 88.000
11.07714 94.000
11.09708 88.000
11.11703 109.000
11.13698 92.000
11.15692 87.000
11.17687 89.000
11.19682 95.000
11.21676 87.000
11.23671 94.000
11.25666 109.000
11.27661 77.000
11.29655 88.000
11.31650 94.000
11.33645 102.000
11.35639 90.000
11.37634 92.000
11.39629 76.000
11.41623 72.000
11.43618 90.000
11.45613 88.000
11.47608 70.000
11.49602 76.000
11.51597 77.000
11.53592 85.000
11.55586 95.000
11.57581 95.000
11.59576 92.000
11.61570 92.000
11.63565 102.000
11.65560 88.000
11.67554 87.000
11.69549 88.000
11.71544 93.000
11.73539 102.000
11.75533 87.000
11.77528 73.000
11.79523 91.000
11.81517 71.000
11.83512 90.000
11.85507 104.000
11.87501 97.000
11.89496 94.000
11.91491 81.000
11.93486 78.000
11.95480 92.000
11.97475 96.000
11.99470 90.000
12.01464 97.000
12.03459 81.000
12.05454 93.000
12.07448 87.000
12.09443 84.000
12.11438 98.000
12.13432 91.000
12.15427 104.000
12.17422 99.000
12.19417 75.000
12.21411 94.000
12.23406 82.000
12.25401 97.000
12.27395 89.000
12.29390 102.000
12.31385 103.000
12.33379 95.000
12.35374 89.000
12.37369 94.000
12.39364 81.000
12.41358 95.000
12.43353 104.000
12.45348 105.000
12.47342 86.000
12.49337 84.000
12.51332 82.000
12.53326 85.000
12.55321 100.000
12.57316 84.000
12.59311 99.000
12.61305 99.000
12.63300 87.000
12.65295 102.000
12.67289 98.000
12.69284 112.000
12.71279 113.000
12.73273 94.000
12.75268 105.000
12.77263 105.000
12.79257 96.000
12.81252 100.000
12.83247 118.000
12.85242 87.000
12.87236 102.000
12.89231 112.000
12.91226 83.000
12.93220 78.000
12.95215 89.000
12.97210 98.000
12.99204 100.000
13.01199 69.000
13.03194 107.000
13.05189 87.000
13.07183 99.000
13.09178 116.000
13.11173 80.000
13.13167 106.000
13.15162 84.000
13.17157 94.000
13.19151 93.000
13.21146 93.000
13.23141 105.000
13.25135 98.000
13.27130 102.000
13.29125 102.000
13.31120 96.000
13.33114 99.000
13.35109 108.000
13.37104 97.000
13.39098 103.000
13.41093 110.000
13.43088 109.000
13.45082 88.000
13.47077 94.000
13.49072 89.000
13.51067 98.000
13.53061 99.000
13.55056 104.000
13.57051 103.000
13.59045 79.000
13.61040 100.000
13.63035 82.000
13.65029 94.000
13.67024 85.000
13.69019 103.000
13.71013 91.000
13.73008 115.000
13.75003 110.000
13.76998 110.000
13.78992 118.000
13.80987 108.000
13.82982 109.000
13.84976 97.000
13.86971 109.000
13.88966 99.000
13.90960 110.000
13.92955 121.000
13.94950 93.000
13.96945 115.000
13.98939 112.000
14.00934 122.000
14.02929 100.000
14.04923 118.000
14.06918 114.000
14.08913 100.000
14.10907 88.000
14.12902 84.000
14.14897 106.000
14.16892 113.000
14.18886 106.000
14.20881 118.000
14.22876 99.000
14.24870 113.000
14.26865 123.000
14.28860 117.000
14.30854 102.000
14.32849 120.000
14.34844 109.000
14.36838 119.000
14.38833 128.000
14.40828 122.000
14.42823 115.000
14.44817 97.000
14.46812 134.000
14.48807 103.000
14.50801 113.000
14.52796 112.000
14.54791 101.000
14.56785 105.000
14.58780 110.000
14.60775 107.000
14.62770 145.000
14.64764 120.000
14.66759 115.000
14.68754 119.000
14.70748 112.000
14.72743 107.000
14.74738 107.000
14.76732 124.000
14.78727 124.000
14.80722 134.000
14.82716 140.000
14.84711 112.000
14.86706 105.000
14.88701 135.000
14.90695 152.000
14.92690 132.000
14.94685 118.000
14.96679 123.000
14.98674 134.000
15.00669 133.000
15.02663 144.000
15.04658 157.000
15.06653 161.000
15.08648 150.000
15.10642 182.000
15.12637 128.000
15.14632 182.000
15.16626 215.000
15.18621 185.000
15.20616 172.000
15.22610 190.000
15.24605 202.000
15.26600 194.000
15.28594 179.000
15.30589 219.000
15.32584 217.000
15.34579 217.000
15.36573 216.000
15.38568 225.000
15.40563 213.000
15.42557 263.000
15.44552 245.000
15.46547 274.000
15.48541 292.000
15.50536 356.000
15.52531 336.000
15.54526 383.000
15.56520 419.000
15.58515 419.000
15.60510 539.000
15.62504 661.000
15.64499 872.000
15.66494 1254.000
15.68488 1776.000
15.70483 2790.000
15.72478 4412.000
15.74472 6498.000
15.76467 8643.000
15.78462 10719.000
15.80457 12103.000
15.82451 12922.000
15.84446 13448.000
15.86441 12927.000
15.88435 11452.000
15.90430 8693.000
15.92425 6110.000
15.94419 3709.000
15.96414 2250.000
15.98409 1357.000
16.00404 839.000
16.02398 693.000
16.04393 572.000
16.06388 497.000
16.08382 478.000
16.10377 487.000
16.12372 445.000
16.14366 383.000
16.16361 399.000
16.18356 398.000
16.20351 366.000
16.22345 312.000
16.24340 277.000
16.26335 269.000
16.28329 242.000
16.30324 240.000
16.32319 195.000
16.34313 179.000
16.36308 196.000
16.38303 169.000
16.40297 152.000
16.42292 175.000
16.44287 148.000
16.46282 151.000
16.48276 156.000
16.50271 159.000
16.52266 160.000
16.54260 149.000
16.56255 145.000
16.58250 143.000
16.60244 118.000
16.62239 132.000
16.64234 137.000
16.66229 119.000
16.68223 120.000
16.70218 117.000
16.72213 126.000
16.74207 121.000
16.76202 121.000
16.78197 105.000
16.80191 108.000
16.82186 128.000
16.84181 129.000
16.86175 136.000
16.88170 162.000
16.90165 128.000
16.92160 143.000
16.94154 120.000
16.96149 137.000
16.98144 96.000
17.00138 109.000
17.02133 112.000
17.04128 104.000
17.06122 99.000
17.08117 98.000
17.10112 112.000
17.12107 100.000
17.14101 80.000
17.16096 103.000
17.18091 88.000
17.20085 97.000
17.22080 108.000
17.24075 66.000
17.26069 87.000
17.28064 100.000
17.30059 98.000
17.32053 90.000
17.34048 91.000
17.36043 80.000
17.38038 81.000
17.40032 97.000
17.42027 91.000
17.44022 93.000
17.46016 94.000
17.48011 93.000
17.50006 89.000
17.52000 89.000
17.53995 89.000
17.55990 71.000
17.57985 78.000
17.59979 92.000
17.61974 111.000
17.63969 87.000
17.65963 110.000
17.67958 87.000
17.69953 99.000
17.71947 88.000
17.73942 84.000
17.75937 105.000
17.77932 78.000
17.79926 108.000
17.81921 96.000
17.83916 101.000
17.85910 109.000
17.87905 90.000
17.89900 87.000
17.91894 96.000
17.93889 104.000
17.95884 95.000
17.97878 87.000
17.99873 86.000
18.01868 91.000
18.03863 94.000
18.05857 78.000
18.07852 91.000
18.09847 107.000
18.11841 105.000
18.13836 81.000
18.15831 106.000
18.17825 88.000
18.19820 86.000
18.21815 93.000
18.23810 86.000
18.25804 105.000
18.27799 100.000
18.29794 106.000
18.31788 121.000
18.33783 103.000
18.35778 112.000
18.37772 128.000
18.39767 118.000
18.41762 105.000
18.43756 108.000
18.45751 90.000
18.47746 93.000
18.49741 110.000
18.51735 92.000
18.53730 90.000
18.55725 89.000
18.57719 106.000
18.59714 121.000
18.61709 94.000
18.63703 96.000
18.65698 104.000
18.67693 103.000
18.69688 104.000
18.71682 88.000
18.73677 80.000
18.75672 103.000
18.77666 92.000
18.79661 101.000
18.81656 104.000
18.83650 95.000
18.85645 95.000
18.87640 95.000
18.89634 92.000
18.91629 93.000
18.93624 79.000
18.95619 95.000
18.97613 76.000
18.99608 87.000
19.01603 87.000
19.03597 96.000
19.05592 79.000
19.07587 66.000
19.09581 85.000
19.11576 80.000
19.13571 85.000
19.15566 73.000
19.17560 88.000
19.19555 99.000
19.21550 78.000
19.23544 92.000
19.25539 85.000
19.27534 81.000
19.29528 85.000
19.31523 100.000
19.33518 90.000
19.35513 90.000
19.37507 71.000
19.39502 86.000
19.41497 101.000
19.43491 77.000
19.45486 103.000
19.47481 93.000
19.49475 87.000
19.51470 91.000
19.53465 106.000
19.55459 97.000
19.57454 91.000
19.59449 93.000
19.61444 89.000
19.63438 98.000
19.65433 62.000
19.67428 87.000
19.69422 101.000
19.71417 82.000
19.73412 92.000
19.75406 86.000
19.77401 84.000
19.79396 102.000
19.81391 79.000
19.83385 86.000
19.85380 96.000
19.87375 80.000
19.89369 87.000
19.91364 84.000
19.93359 92.000
19.95353 96.000
19.97348 89.000
19.99343 93.000
20.01337 89.000
20.03332 92.000
20.05327 103.000
20.07322 92.000
20.09316 110.000
20.11311 68.000
20.13306 88.000
20.15300 76.000
20.17295 81.000
20.19290 90.000
20.21284 93.000
20.23279 87.000
20.25274 98.000
20.27269 80.000
20.29263 88.000
20.31258 85.000
20.33253 86.000
20.35247 82.000
20.37242 92.000
20.39237 109.000
20.41231 80.000
20.43226 99.000
20.45221 94.000
20.47215 104.000
20.49210 94.000
20.51205 85.000
20.53200 95.000
20.55194 91.000
20.57189 94.000
20.59184 88.000
20.61178 85.000
20.63173 90.000
20.65168 83.000
20.67162 93.000
20.69157 107.000
20.71152 89.000
20.73147 97.000
20.75141 109.000
20.77136 106.000
20.79131 103.000
20.81125 111.000
20.83120 96.000
20.85115 108.000
20.87109 99.000
20.89104 115.000
20.91099 101.000
20.93094 102.000
20.95088 118.000
20.97083 86.000
20.99078 98.000
21.01072 97.000
21.03067 92.000
21.05062 119.000
21.07056 128.000
21.09051 109.000
21.11046 132.000
21.13040 107.000
21.15035 111.000
21.17030 109.000
21.19025 106.000
21.21019 97.000
21.23014 89.000
21.25009 103.000
21.27003 93.000
21.28998 111.000
21.30993 90.000
21.32987 73.000
21.34982 86.000
21.36977 94.000
21.38972 106.000
21.40966 97.000
21.42961 81.000
21.44956 77.000
21.46950 98.000
21.48945 97.000
21.50940 83.000
21.52934 93.000
21.54929 87.000
21.56924 121.000
21.58918 77.000
21.60913 99.000
21.62908 118.000
21.64903 87.000
21.66897 97.000
21.68892 94.000
21.70887 78.000
21.72881 93.000
21.74876 85.000
21.76871 83.000
21.78865 98.000
21.80860 103.000
21.82855 87.000
21.84850 85.000
21.86844 82.000
21.88839 95.000
21.90834 98.000
21.92828 85.000
21.94823 106.000
21.96818 88.000
21.98812 77.000
22.00807 101.000
22.02802 105.000
22.04796 100.000
22.06791 79.000
22.08786 110.000
22.10781 86.000
22.12775 101.000
22.14770 97.000
22.16765 81.000
22.18759 110.000
22.20754 87.000
22.22749 87.000
22.24743 85.000
22.26738 83.000
22.28733 91.000
22.30728 79.000
22.32722 91.000
22.34717 77.000
22.36712 96.000
22.38706 102.000
22.40701 109.000
22.42696 90.000
22.44690 110.000
22.46685 88.000
22.48680 87.000
22.50675 97.000
22.52669 95.000
22.54664 96.000
22.56659 99.000
22.58653 84.000
22.60648 95.000
22.62643 91.000
22.64637 101.000
22.66632 89.000
22.68627 74.000
22.70621 104.000
22.72616 90.000
22.74611 98.000
22.76606 94.000
22.78600 74.000
22.80595 90.000
22.82590 90.000
22.84584 96.000
22.86579 113.000
22.88574 106.000
22.90568 84.000
22.92563 71.000
22.94558 89.000
22.96553 119.000
22.98547 81.000
23.00542 94.000
23.02537 91.000
23.04531 106.000
23.06526 101.000
23.08521 99.000
23.10515 95.000
23.12510 73.000
23.14505 85.000
23.16499 90.000
23.18494 96.000
23.20489 99.000
23.22484 78.000
23.24478 100.000
23.26473 86.000
23.28468 107.000
23.30462 110.000
23.32457 91.000
23.34452 81.000
23.36446 85.000
23.38441 80.000
23.40436 87.000
23.42431 89.000
23.44425 99.000
23.46420 102.000
23.48415 107.000
23.50409 101.000
23.52404 94.000
23.54399 101.000
23.56393 104.000
23.58388 81.000
23.60383 96.000
23.62377 91.000
23.64372 97.000
23.66367 97.000
23.68362 102.000
23.70356 82.000
23.72351 104.000
23.74346 99.000
23.76340 75.000
23.78335 101.000
23.80330 93.000
23.82324 107.000
23.84319 78.000
23.86314 101.000
23.88309 89.000
23.90303 85.000
23.92298 89.000
23.94293 98.000
23.96287 78.000
23.98282 91.000
24.00277 92.000
24.02271 97.000
24.04266 101.000
24.06261 83.000
24.08256 90.000
24.10250 91.000
24.12245 77.000
24.14240 102.000
24.16234 96.000
24.18229 82.000
24.20224 103.000
24.22218 88.000
24.24213 79.000
24.26208 100.000
24.28202 113.000
24.30197 91.000
24.32192 90.000
24.34187 81.000
24.36181 96.000
24.38176 91.000
24.40171 100.000
24.42165 97.000
24.44160 104.000
24.46155 86.000
24.48149 108.000
24.50144 99.000
24.52139 83.000
24.54134 109.000
24.56128 100.000
24.58123 108.000
24.60118 94.000
24.62112 80.000
24.64107 86.000
24.66102 72.000
24.68096 98.000
24.70091 82.000
24.72086 88.000
24.74080 107.000
24.76075 87.000
24.78070 86.000
24.80065 96.000
24.82059 102.000
24.84054 93.000
24.86049 96.000
24.88043 92.000
24.90038 95.000
24.92033 96.000
24.94027 98.000
24.96022 100.000
24.98017 110.000
25.00012 105.000
25.02006 115.000
25.04001 108.000
25.05996 112.000
25.07990 109.000
25.09985 107.000
25.11980 96.000
25.13974 86.000
25.15969 105.000
25.17964 107.000
25.19958 110.000
25.21953 97.000
25.23948 105.000
25.25943 87.000
25.27937 96.000
25.29932 119.000
25.31927 79.000
25.33921 101.000
25.35916 115.000
25.37911 88.000
25.39905 109.000
25.41900 113.000
25.43895 105.000
25.45890 105.000
25.47884 98.000
25.49879 109.000
25.51874 104.000
25.53868 93.000
25.55863 92.000
25.57858 94.000
25.59852 91.000
25.61847 111.000
25.63842 112.000
25.65837 105.000
25.67831 111.000
25.69826 82.000
25.71821 104.000
25.73815 86.000
25.75810 100.000
25.77805 90.000
25.79799 89.000
25.81794 95.000
25.83789 120.000
25.85783 94.000
25.87778 100.000
25.89773 112.000
25.91768 114.000
25.93762 106.000
25.95757 91.000
25.97752 99.000
25.99746 101.000
26.01741 110.000
26.03736 114.000
26.05730 97.000
26.07725 96.000
26.09720 119.000
26.11715 96.000
26.13709 108.000
26.15704 113.000
26.17699 94.000
26.19693 103.000
26.21688 114.000
26.23683 106.000
26.25677 121.000
26.27672 93.000
26.29667 96.000
26.31661 102.000
26.33656 83.000
26.35651 114.000
26.37646 97.000
26.39640 90.000
26.41635 105.000
26.43630 92.000
26.45624 105.000
26.47619 103.000
26.49614 109.000
26.51608 107.000
26.53603 87.000
26.55598 88.000
26.57593 103.000
26.59587 109.000
26.61582 102.000
26.63577 85.000
26.65571 106.000
26.67566 75.000
26.69561 101.000
26.71555 94.000
26.73550 87.000
26.75545 94.000
26.77539 120.000
26.79534 99.000
26.81529 106.000
26.83524 104.000
26.85518 101.000
26.87513 95.000
26.89508 111.000
26.91502 106.000
26.93497 91.000
26.95492 88.000
26.97486 97.000
26.99481 95.000
27.01476 95.000
27.03471 105.000
27.05465 94.000
27.07460 89.000
27.09455 101.000
27.11449 86.000
27.13444 85.000
27.15439 107.000
27.17433 108.000
27.19428 110.000
27.21423 107.000
27.23417 131.000
27.25412 117.000
27.27407 94.000
27.29402 86.000
27.31396 129.000
27.33391 93.000
27.35386 101.000
27.37380 107.000
27.39375 99.000
27.41370 110.000
27.43364 103.000
27.45359 98.000
27.47354 106.000
27.49349 125.000
27.51343 93.000
27.53338 132.000
27.55333 100.000
27.57327 105.000
27.59322 115.000
27.61317 119.000
27.63311 99.000
27.65306 108.000
27.67301 114.000
27.69296 125.000
27.71290 118.000
27.73285 106.000
27.75280 136.000
27.77274 110.000
27.79269 100.000
27.81264 109.000
27.83258 101.000
27.85253 115.000
27.87248 98.000
27.89242 107.000
27.91237 114.000
27.93232 104.000
27.95227 127.000
27.97221 101.000
27.99216 108.000
28.01211 93.000
28.03205 108.000
28.05200 95.000
28.07195 96.000
28.09189 122.000
28.11184 105.000
28.13179 103.000
28.15174 103.000
28.17168 114.000
28.19163 112.000
28.21158 95.000
28.23152 99.000
28.25147 97.000
28.27142 108.000
28.29136 118.000
28.31131 100.000
28.33126 96.000
28.35120 101.000
28.37115 109.000
28.39110 108.000
28.41105 101.000
28.43099 120.000
28.45094 106.000
28.47089 110.000
28.49083 88.000
28.51078 107.000
28.53073 81.000
28.55067 105.000
28.57062 101.000
28.59057 108.000
28.61052 94.000
28.63046 96.000
28.65041 106.000
28.67036 127.000
28.69030 103.000
28.71025 107.000
28.73020 108.000
28.75014 111.000
28.77009 109.000
28.79004 94.000
28.80998 115.000
28.82993 98.000
28.84988 106.000
28.86983 96.000
28.88977 99.000
28.90972 108.000
28.92967 122.000
28.94961 83.000
28.96956 111.000
28.98951 87.000
29.00945 118.000
29.02940 90.000
29.04935 95.000
29.06930 126.000
29.08924 96.000
29.10919 90.000
29.12914 106.000
29.14908 103.000
29.16903 102.000
29.18898 105.000
29.20892 98.000
29.22887 106.000
29.24882 95.000
29.26877 100.000
29.28871 110.000
29.30866 133.000
29.32861 116.000
29.34855 146.000
29.36850 143.000
29.38845 161.000
29.40839 187.000
29.42834 149.000
29.44829 172.000
29.46823 151.000
29.48818 145.000
29.50813 144.000
29.52808 144.000
29.54802 136.000
29.56797 139.000
29.58792 124.000
29.60786 136.000
29.62781 125.000
29.64776 132.000
29.66770 126.000
29.68765 117.000
29.70760 93.000
29.72755 111.000
29.74749 108.000
29.76744 114.000
29.78739 110.000
29.80733 97.000
29.82728 105.000
29.84723 102.000
29.86717 127.000
29.88712 119.000
29.90707 125.000
29.92701 126.000
29.94696 119.000
29.96691 115.000
29.98686 109.000
30.00680 137.000
30.02675 128.000
30.04670 140.000
30.06664 125.000
30.08659 157.000
30.10654 148.000
30.12648 170.000
30.14643 171.000
30.16638 190.000
30.18633 183.000
30.20627 160.000
30.22622 158.000
30.24617 142.000
30.26611 146.000
30.28606 131.000
30.30601 119.000
30.32595 126.000
30.34590 118.000
30.36585 109.000
30.38579 135.000
30.40574 95.000
30.42569 97.000
30.44564 121.000
30.46558 126.000
30.48553 116.000
30.50548 140.000
30.52542 110.000
30.54537 110.000
30.56532 96.000
30.58526 119.000
30.60521 107.000
30.62516 99.000
30.64511 114.000
30.66505 119.000
30.68500 107.000
30.70495 126.000
30.72489 109.000
30.74484 95.000
30.76479 110.000
30.78473 112.000
30.80468 108.000
30.82463 106.000
30.84458 112.000
30.86452 110.000
30.88447 118.000
30.90442 119.000
30.92436 107.000
30.94431 105.000
30.96426 120.000
30.98420 130.000
31.00415 128.000
31.02410 105.000
31.04404 96.000
31.06399 110.000
31.08394 104.000
31.10389 101.000
31.12383 119.000
31.14378 131.000
31.16373 89.000
31.18367 121.000
31.20362 126.000
31.22357 106.000
31.24351 120.000
31.26346 120.000
31.28341 115.000
31.30336 119.000
31.32330 109.000
31.34325 122.000
31.36320 119.000
31.38314 104.000
31.40309 127.000
31.42304 107.000
31.44298 135.000
31.46293 107.000
31.48288 129.000
31.50282 120.000
31.52277 128.000
31.54272 154.000
31.56267 138.000
31.58261 146.000
31.60256 154.000
31.62251 154.000
31.64245 155.000
31.66240 168.000
31.68235 213.000
31.70229 256.000
31.72224 329.000
31.74219 337.000
31.76214 387.000
31.78208 460.000
31.80203 529.000
31.82198 603.000
31.84192 670.000
31.86187 717.000
31.88182 755.000
31.90176 793.000
31.92171 880.000
31.94166 910.000
31.96160 852.000
31.98155 882.000
32.00150 902.000
32.02145 905.000
32.04139 768.000
32.06134 701.000
32.08129 638.000
32.10123 570.000
32.12118 469.000
32.14113 373.000
32.16107 298.000
32.18102 262.000
32.20097 218.000
32.22092 178.000
32.24086 170.000
32.26081 148.000
32.28076 158.000
32.30070 157.000
32.32065 139.000
32.34060 140.000
32.36054 143.000
32.38049 140.000
32.40044 151.000
32.42039 138.000
32.44033 124.000
32.46028 135.000
32.48023 108.000
32.50017 127.000
32.52012 150.000
32.54007 136.000
32.56001 147.000
32.57996 126.000
32.59991 122.000
32.61985 128.000
32.63980 115.000
32.65975 130.000
32.67970 121.000
32.69964 130.000
32.71959 108.000
32.73954 130.000
32.75948 130.000
32.77943 116.000
32.79938 108.000
32.81932 103.000
32.83927 109.000
32.85922 116.000
32.87917 117.000
32.89911 117.000
32.91906 114.000
32.93901 123.000
32.95895 119.000
32.97890 123.000
32.99885 117.000
33.01879 134.000
33.03874 117.000
33.05869 124.000
33.07863 114.000
33.09858 108.000
33.11853 127.000
33.13848 109.000
33.15842 110.000
33.17837 122.000
33.19832 102.000
33.21826 112.000
33.23821 124.000
33.25816 111.000
33.27810 103.000
33.29805 94.000
33.31800 106.000
33.33795 110.000
33.35789 120.000
33.37784 118.000
33.39779 96.000
33.41773 97.000
33.43768 96.000
33.45763 112.000
33.47757 105.000
33.49752 97.000
33.51747 121.000
33.53741 129.000
33.55736 119.000
33.57731 117.000
33.59726 106.000
33.61720 123.000
33.63715 133.000
33.65710 98.000
33.67704 115.000
33.69699 100.000
33.71694 122.000
33.73688 89.000
33.75683 98.000
33.77678 104.000
33.79673 110.000
33.81667 133.000
33.83662 113.000
33.85657 100.000
33.87651 117.000
33.89646 103.000
33.91641 91.000
33.93635 85.000
33.95630 119.000
33.97625 124.000
33.99620 135.000
34.01614 125.000
34.03609 108.000
34.05604 112.000
34.07598 107.000
34.09593 107.000
34.11588 117.000
34.13582 123.000
34.15577 120.000
34.17572 121.000
34.19566 132.000
34.21561 136.000
34.23556 146.000
34.25551 119.000
34.27545 143.000
34.29540 141.000
34.31535 139.000
34.33529 145.000
34.35524 141.000
34.37519 142.000
34.39513 143.000
34.41508 140.000
34.43503 134.000
34.45498 174.000
34.47492 151.000
34.49487 150.000
34.51482 190.000
34.53476 174.000
34.55471 156.000
34.57466 195.000
34.59460 184.000
34.61455 188.000
34.63450 176.000
34.65444 176.000
34.67439 190.000
34.69434 144.000
34.71429 156.000
34.73423 141.000
34.75418 144.000
34.77413 152.000
34.79407 166.000
34.81402 153.000
34.83397 159.000
34.85391 171.000
34.87386 168.000
34.89381 164.000
34.91376 148.000
34.93370 137.000
34.95365 154.000
34.97360 142.000
34.99354 137.000
35.01349 140.000
35.03344 121.000
35.05338 134.000
35.07333 124.000
35.09328 130.000
35.11322 118.000
35.13317 121.000
35.15312 140.000
35.17307 130.000
35.19301 145.000
35.21296 159.000
35.23291 151.000
35.25285 150.000
35.27280 150.000
35.29275 168.000
35.31269 151.000
35.33264 161.000
35.35259 165.000
35.37254 158.000
35.39248 184.000
35.41243 173.000
35.43238 212.000
35.45232 214.000
35.47227 229.000
35.49222 253.000
35.51216 282.000
35.53211 279.000
35.55206 318.000
35.57201 330.000
35.59195 296.000
35.61190 279.000
35.63185 285.000
35.65179 273.000
35.67174 292.000
35.69169 282.000
35.71163 293.000
35.73158 279.000
35.75153 329.000
35.77147 375.000
35.79142 458.000
35.81137 547.000
35.83132 626.000
35.85126 708.000
35.87121 809.000
35.89116 802.000
35.91110 792.000
35.93105 757.000
35.95100 772.000
35.97094 729.000
35.99089 641.000
36.01084 549.000
36.03079 488.000
36.05073 453.000
36.07068 378.000
36.09063 354.000
36.11057 300.000
36.13052 306.000
36.15047 238.000
36.17041 239.000
36.19036 222.000
36.21031 219.000
36.23025 188.000
36.25020 202.000
36.27015 202.000
36.29010 189.000
36.31004 161.000
36.32999 171.000
36.34994 174.000
36.36988 171.000
36.38983 146.000
36.40978 158.000
36.42972 151.000
36.44967 153.000
36.46962 149.000
36.48957 148.000
36.50951 134.000
36.52946 141.000
36.54941 113.000
36.56935 128.000
36.58930 159.000
36.60925 129.000
36.62919 124.000
36.64914 143.000
36.66909 150.000
36.68903 167.000
36.70898 161.000
36.72893 149.000
36.74888 180.000
36.76882 179.000
36.78877 188.000
36.80872 190.000
36.82866 207.000
36.84861 213.000
36.86856 192.000
36.88850 193.000
36.90845 176.000
36.92840 194.000
36.94835 178.000
36.96829 189.000
36.98824 167.000
37.00819 177.000
37.02813 162.000
37.04808 155.000
37.06803 179.000
37.08797 174.000
37.10792 168.000
37.12787 163.000
37.14781 200.000
37.16776 181.000
37.18771 187.000
37.20766 217.000
37.22760 209.000
37.24755 215.000
37.26750 216.000
37.28744 223.000
37.30739 228.000
37.32734 243.000
37.34728 219.000
37.36723 248.000
37.38718 247.000
37.40713 264.000
37.42707 283.000
37.44702 243.000
37.46697 238.000
37.48691 255.000
37.50686 253.000
37.52681 243.000
37.54675 210.000
37.56670 206.000
37.58665 182.000
37.60660 164.000
37.62654 186.000
37.64649 158.000
37.66644 155.000
37.68638 156.000
37.70633 162.000
37.72628 142.000
37.74622 167.000
37.76617 133.000
37.78612 150.000
37.80606 134.000
37.82601 130.000
37.84596 137.000
37.86591 140.000
37.88585 120.000
37.90580 151.000
37.92575 163.000
37.94569 158.000
37.96564 106.000
37.98559 130.000
38.00553 152.000
38.02548 147.000
38.04543 130.000
38.06538 163.000
38.08532 154.000
38.10527 133.000
38.12522 158.000
38.14516 119.000
38.16511 136.000
38.18506 140.000
38.20500 128.000
38.22495 137.000
38.24490 143.000
38.26484 114.000
38.28479 143.000
38.30474 136.000
38.32469 126.000
38.34463 129.000
38.36458 141.000
38.38453 117.000
38.40447 128.000
38.42442 134.000
38.44437 128.000
38.46431 123.000
38.48426 115.000
38.50421 115.000
38.52416 146.000
38.54410 139.000
38.56405 133.000
38.58400 134.000
38.60394 142.000
38.62389 139.000
38.64384 168.000
38.66378 195.000
38.68373 201.000
38.70368 206.000
38.72362 214.000
38.74357 199.000
38.76352 202.000
38.78347 193.000
38.80341 174.000
38.82336 181.000
38.84331 192.000
38.86325 184.000
38.88320 155.000
38.90315 164.000
38.92309 173.000
38.94304 155.000
38.96299 176.000
38.98294 146.000
39.00288 152.000
39.02283 159.000
39.04278 196.000
39.06272 198.000
39.08267 185.000
39.10262 189.000
39.12256 185.000
39.14251 205.000
39.16246 216.000
39.18241 266.000
39.20235 260.000
39.22230 304.000
39.24225 354.000
39.26219 426.000
39.28214 501.000
39.30209 628.000
39.32203 788.000
39.34198 972.000
39.36193 1216.000
39.38187 1415.000
39.40182 1455.000
39.42177 1467.000
39.44172 1452.000
39.46166 1339.000
39.48161 1323.000
39.50156 1244.000
39.52150 1116.000
39.54145 1012.000
39.56140 740.000
39.58134 693.000
39.60129 569.000
39.62124 414.000
39.64119 434.000
39.66113 348.000
39.68108 282.000
39.70103 280.000
39.72097 241.000
39.74092 202.000
39.76087 197.000
39.78081 198.000
39.80076 162.000
39.82071 167.000
39.84065 175.000
39.86060 155.000
39.88055 131.000
39.90050 149.000
39.92044 169.000
39.94039 155.000
39.96034 175.000
39.98028 164.000
40.00023 164.000
40.02018 146.000
40.04012 144.000
40.06007 119.000
40.08002 128.000
40.09997 121.000
40.11991 124.000
40.13986 145.000
40.15981 108.000
40.17975 119.000
40.19970 123.000
40.21965 118.000
40.23959 116.000
40.25954 112.000
40.27949 122.000
40.29943 125.000
40.31938 121.000
40.33933 129.000
40.35928 95.000
40.37922 107.000
40.39917 132.000
40.41912 106.000
40.43906 104.000
40.45901 101.000
40.47896 109.000
40.49890 115.000
40.51885 110.000
40.53880 115.000
40.55875 111.000
40.57869 127.000
40.59864 118.000
40.61859 114.000
40.63853 113.000
40.65848 102.000
40.67843 107.000
40.69837 97.000
40.71832 92.000
40.73827 88.000
40.75822 119.000
40.77816 125.000
40.79811 94.000
40.81806 132.000
40.83800 116.000
40.85795 114.000
40.87790 145.000
40.89784 104.000
40.91779 107.000
40.93774 109.000
40.95768 117.000
40.97763 116.000
40.99758 102.000
41.01753 101.000
41.03747 117.000
41.05742 112.000
41.07737 107.000
41.09731 130.000
41.11726 118.000
41.13721 103.000
41.15715 125.000
41.17710 94.000
41.19705 105.000
41.21700 107.000
41.23694 130.000
41.25689 114.000
41.27684 133.000
41.29678 102.000
41.31673 116.000
41.33668 135.000
41.35662 130.000
41.37657 107.000
41.39652 149.000
41.41646 99.000
41.43641 124.000
41.45636 140.000
41.47631 129.000
41.49625 126.000
41.51620 142.000
41.53615 154.000
41.55609 161.000
41.57604 153.000
41.59599 167.000
41.61593 162.000
41.63588 145.000
41.65583 170.000
41.67578 144.000
41.69572 148.000
41.71567 174.000
41.73562 184.000
41.75556 170.000
41.77551 170.000
41.79546 168.000
41.81540 150.000
41.83535 161.000
41.85530 162.000
41.87524 136.000
41.89519 141.000
41.91514 124.000
41.93509 157.000
41.95503 127.000
41.97498 119.000
41.99493 134.000
42.01487 138.000
42.03482 117.000
42.05477 120.000
42.07471 128.000
42.09466 126.000
42.11461 116.000
42.13456 127.000
42.15450 109.000
42.17445 130.000
42.19440 111.000
42.21434 116.000
42.23429 110.000
42.25424 136.000
42.27418 103.000
42.29413 127.000
42.31408 131.000
42.33403 86.000
42.35397 138.000
42.37392 109.000
42.39387 121.000
42.41381 117.000
42.43376 105.000
42.45371 129.000
42.47365 107.000
42.49360 106.000
42.51355 93.000
42.53349 117.000
42.55344 107.000
42.57339 124.000
42.59334 135.000
42.61328 114.000
42.63323 112.000
42.65318 115.000
42.67312 116.000
42.69307 105.000
42.71302 115.000
42.73296 115.000
42.75291 136.000
42.77286 120.000
42.79281 127.000
42.81275 100.000
42.83270 96.000
42.85265 117.000
42.87259 114.000
42.89254 119.000
42.91249 108.000
42.93243 107.000
42.95238 123.000
42.97233 114.000
42.99227 111.000
43.01222 140.000
43.03217 129.000
43.05212 112.000
43.07206 157.000
43.09201 146.000
43.11196 159.000
43.13190 135.000
43.15185 170.000
43.17180 156.000
43.19174 149.000
43.21169 151.000
43.23164 183.000
43.25159 164.000
43.27153 181.000
43.29148 183.000
43.31143 222.000
43.33137 228.000
43.35132 252.000
43.37127 292.000
43.39121 364.000
43.41116 419.000
43.43111 483.000
43.45105 613.000
43.47100 660.000
43.49095 722.000
43.51090 578.000
43.53084 628.000
43.55079 592.000
43.57074 585.000
43.59068 541.000
43.61063 462.000
43.63058 426.000
43.65052 391.000
43.67047 297.000
43.69042 254.000
43.71037 248.000
43.73031 231.000
43.75026 204.000
43.77021 172.000
43.79015 180.000
43.81010 137.000
43.83005 153.000
43.84999 152.000
43.86994 132.000
43.88989 144.000
43.90984 129.000
43.92978 166.000
43.94973 119.000
43.96968 119.000
43.98962 138.000
44.00957 134.000
44.02952 104.000
44.04946 124.000
44.06941 121.000
44.08936 121.000
44.10930 123.000
44.12925 124.000
44.14920 131.000
44.16915 118.000
44.18909 113.000
44.20904 125.000
44.22899 111.000
44.24893 121.000
44.26888 124.000
44.28883 108.000
44.30877 121.000
44.32872 140.000
44.34867 116.000
44.36862 139.000
44.38856 135.000
44.40851 134.000
44.42846 143.000
44.44840 134.000
44.46835 155.000
44.48830 141.000
44.50824 130.000
44.52819 129.000
44.54814 144.000
44.56808 153.000
44.58803 134.000
44.60798 132.000
44.62793 136.000
44.64787 140.000
44.66782 136.000
44.68777 156.000
44.70771 130.000
44.72766 150.000
44.74761 153.000
44.76755 134.000
44.78750 148.000
44.80745 142.000
44.82740 166.000
44.84734 158.000
44.86729 158.000
44.88724 169.000
44.90718 164.000
44.92713 189.000
44.94708 204.000
44.96702 180.000
44.98697 197.000
45.00692 216.000
45.02686 203.000
45.04681 232.000
45.06676 253.000
45.08671 235.000
45.10665 250.000
45.12660 211.000
45.14655 230.000
45.16649 240.000
45.18644 232.000
45.20639 203.000
45.22633 229.000
45.24628 208.000
45.26623 209.000
45.28618 203.000
45.30612 185.000
45.32607 161.000
45.34602 170.000
45.36596 167.000
45.38591 149.000
45.40586 153.000
45.42580 150.000
45.44575 146.000
45.46570 152.000
45.48565 136.000
45.50559 143.000
45.52554 126.000
45.54549 131.000
45.56543 132.000
45.58538 129.000
45.60533 121.000
45.62527 144.000
45.64522 143.000
45.66517 138.000
45.68511 124.000
45.70506 117.000
45.72501 110.000
45.74496 128.000
45.76490 104.000
45.78485 124.000
45.80480 127.000
45.82474 116.000
45.84469 113.000
45.86464 117.000
45.88458 126.000
45.90453 117.000
45.92448 113.000
45.94443 118.000
45.96437 99.000
45.98432 109.000
46.00427 101.000
46.02421 99.000
46.04416 109.000
46.06411 126.000
46.08405 95.000
46.10400 101.000
46.12395 109.000
46.14389 108.000
46.16384 106.000
46.18379 121.000
46.20374 96.000
46.22368 103.000
46.24363 92.000
46.26358 96.000
46.28352 103.000
46.30347 111.000
46.32342 102.000
46.34336 107.000
46.36331 121.000
46.38326 98.000
46.40321 107.000
46.42315 116.000
46.44310 107.000
46.46305 125.000
46.48299 114.000
46.50294 117.000
46.52289 122.000
46.54283 111.000
46.56278 102.000
46.58273 101.000
46.60267 111.000
46.62262 109.000
46.64257 125.000
46.66252 112.000
46.68246 116.000
46.70241 114.000
46.72236 117.000
46.74230 106.000
46.76225 111.000
46.78220 111.000
46.80214 97.000
46.82209 120.000
46.84204 119.000
46.86199 130.000
46.88193 125.000
46.90188 106.000
46.92183 98.000
46.94177 102.000
46.96172 100.000
46.98167 97.000
47.00161 108.000
47.02156 103.000
47.04151 92.000
47.06146 96.000
47.08140 128.000
47.10135 119.000
47.12130 101.000
47.14124 113.000
47.16119 105.000
47.18114 99.000
47.20108 100.000
47.22103 103.000
47.24098 98.000
47.26092 104.000
47.28087 117.000
47.30082 115.000
47.32077 126.000
47.34071 111.000
47.36066 119.000
47.38061 120.000
47.40055 106.000
47.42050 104.000
47.44045 98.000
47.46039 117.000
47.48034 93.000
47.50029 103.000
47.52024 109.000
47.54018 99.000
47.56013 115.000
47.58008 107.000
47.60002 96.000
47.61997 122.000
47.63992 129.000
47.65986 118.000
47.67981 117.000
47.69976 114.000
47.71970 120.000
47.73965 118.000
47.75960 95.000
47.77955 98.000
47.79949 114.000
47.81944 108.000
47.83939 118.000
47.85933 110.000
47.87928 117.000
47.89923 112.000
47.91917 89.000
47.93912 136.000
47.95907 112.000
47.97902 115.000
47.99896 113.000
48.01891 163.000
48.03886 152.000
48.05880 130.000
48.07875 125.000
48.09870 152.000
48.11864 145.000
48.13859 139.000
48.15854 152.000
48.17848 154.000
48.19843 170.000
48.21838 160.000
48.23833 144.000
48.25827 175.000
48.27822 174.000
48.29817 189.000
48.31811 181.000
48.33806 167.000
48.35801 184.000
48.37795 175.000
48.39790 179.000
48.41785 228.000
48.43780 222.000
48.45774 271.000
48.47769 265.000
48.49764 285.000
48.51758 330.000
48.53753 329.000
48.55748 429.000
48.57742 451.000
48.59737 599.000
48.61732 691.000
48.63726 829.000
48.65721 959.000
48.67716 1090.000
48.69711 1163.000
48.71705 1282.000
48.73700 1268.000
48.75695 1251.000
48.77689 1227.000
48.79684 1172.000
48.81679 1099.000
48.83673 1026.000
48.85668 971.000
48.87663 863.000
48.89658 732.000
48.91652 683.000
48.93647 569.000
48.95642 547.000
48.97636 460.000
48.99631 415.000
49.01626 352.000
49.03620 332.000
49.05615 283.000
49.07610 242.000
49.09605 259.000
49.11599 205.000
49.13594 193.000
49.15589 204.000
49.17583 174.000
49.19578 194.000
49.21573 148.000
49.23567 149.000
49.25562 157.000
49.27557 147.000
49.29551 171.000
49.31546 158.000
49.33541 145.000
49.35536 122.000
49.37530 121.000
49.39525 138.000
49.41520 135.000
49.43514 122.000
49.45509 111.000
49.47504 135.000
49.49498 123.000
49.51493 119.000
49.53488 125.000
49.55483 137.000
49.57477 107.000
49.59472 121.000
49.61467 114.000
49.63461 122.000
49.65456 100.000
49.67451 118.000
49.69445 112.000
49.71440 125.000
49.73435 146.000
49.75429 114.000
49.77424 130.000
49.79419 102.000
49.81414 102.000
49.83408 115.000
49.85403 113.000
49.87398 102.000
49.89392 124.000
49.91387 97.000
49.93382 116.000
49.95376 100.000
49.97371 99.000
49.99366 99.000
50.01361 106.000
50.03355 90.000
50.05350 105.000
50.07345 105.000
50.09339 88.000
50.11334 111.000
50.13329 108.000
50.15323 86.000
50.17318 103.000
50.19313 112.000
50.21307 117.000
50.23302 96.000
50.25297 102.000
50.27292 113.000
50.29286 85.000
50.31281 85.000
50.33276 107.000
50.35270 105.000
50.37265 92.000
50.39260 100.000
50.41254 78.000
50.43249 107.000
50.45244 88.000
50.47239 82.000
50.49233 88.000
50.51228 102.000
50.53223 103.000
50.55217 108.000
50.57212 91.000
50.59207 114.000
50.61201 86.000
50.63196 98.000
50.65191 106.000
50.67186 120.000
50.69180 78.000
50.71175 115.000
50.73170 103.000
50.75164 80.000
50.77159 102.000
50.79154 105.000
50.81148 90.000
50.83143 81.000
50.85138 105.000
50.87132 93.000
50.89127 104.000
50.91122 99.000
50.93117 103.000
50.95111 111.000
50.97106 73.000
50.99101 107.000
51.01095 112.000
51.03090 91.000
51.05085 93.000
51.07079 116.000
51.09074 106.000
51.11069 118.000
51.13064 91.000
51.15058 105.000
51.17053 124.000
51.19048 111.000
51.21042 108.000
51.23037 93.000
51.25032 103.000
51.27026 94.000
51.29021 99.000
51.31016 97.000
51.33010 106.000
51.35005 88.000
51.37000 99.000
51.38995 105.000
51.40989 114.000
51.42984 100.000
51.44979 103.000
51.46973 113.000
51.48968 102.000
51.50963 99.000
51.52957 107.000
51.54952 112.000
51.56947 81.000
51.58942 91.000
51.60936 97.000
51.62931 97.000
51.64926 89.000
51.66920 108.000
51.68915 104.000
51.70910 114.000
51.72904 108.000
51.74899 120.000
51.76894 78.000
51.78888 97.000
51.80883 100.000
51.82878 102.000
51.84873 95.000
51.86867 95.000
51.88862 102.000
51.90857 101.000
51.92851 102.000
51.94846 98.000
51.96841 99.000
51.98835 127.000
52.00830 122.000
52.02825 105.000
52.04820 129.000
52.06814 113.000
52.08809 115.000
52.10804 89.000
52.12798 130.000
52.14793 117.000
52.16788 118.000
52.18782 120.000
52.20777 90.000
52.22772 121.000
52.24767 108.000
52.26761 123.000
52.28756 120.000
52.30751 128.000
52.32745 118.000
52.34740 100.000
52.36735 115.000
52.38729 106.000
52.40724 126.000
52.42719 105.000
52.44713 108.000
52.46708 118.000
52.48703 118.000
52.50698 126.000
52.52692 139.000
52.54687 111.000
52.56682 134.000
52.58676 119.000
52.60671 126.000
52.62666 127.000
52.64660 126.000
52.66655 127.000
52.68650 109.000
52.70645 133.000
52.72639 121.000
52.74634 149.000
52.76629 126.000
52.78623 131.000
52.80618 135.000
52.82613 135.000
52.84607 144.000
52.86602 142.000
52.88597 124.000
52.90591 120.000
52.92586 135.000
52.94581 135.000
52.96576 109.000
52.98570 124.000
53.00565 117.000
53.02560 108.000
53.04554 131.000
53.06549 135.000
53.08544 125.000
53.10538 107.000
53.12533 120.000
53.14528 118.000
53.16523 110.000
53.18517 115.000
53.20512 139.000
53.22507 117.000
53.24501 117.000
53.26496 120.000
53.28491 131.000
53.30485 121.000
53.32480 116.000
53.34475 106.000
53.36469 116.000
53.38464 109.000
53.40459 110.000
53.42454 131.000
53.44448 123.000
53.46443 109.000
53.48438 117.000
53.50432 106.000
53.52427 107.000
53.54422 123.000
53.56416 114.000
53.58411 127.000
53.60406 114.000
53.62401 106.000
53.64395 105.000
53.66390 113.000
53.68385 115.000
53.70379 105.000
53.72374 99.000
53.74369 106.000
53.76363 103.000
53.78358 103.000
53.80353 105.000
53.82348 102.000
53.84342 130.000
53.86337 106.000
53.88332 99.000
53.90326 109.000
53.92321 95.000
53.94316 127.000
53.96310 107.000
53.98305 91.000
54.00300 86.000
54.02294 106.000
54.04289 92.000
54.06284 95.000
54.08279 98.000
54.10273 107.000
54.12268 88.000
54.14263 112.000
54.16257 94.000
54.18252 111.000
54.20247 105.000
54.22241 90.000
54.24236 89.000
54.26231 93.000
54.28226 99.000
54.30220 109.000
54.32215 85.000
54.34210 90.000
54.36204 96.000
54.38199 97.000
54.40194 77.000
54.42188 107.000
54.44183 109.000
54.46178 100.000
54.48172 108.000
54.50167 113.000
54.52162 99.000
54.54157 99.000
54.56151 117.000
54.58146 110.000
54.60141 94.000
54.62135 113.000
54.64130 112.000
54.66125 86.000
54.68119 97.000
54.70114 100.000
54.72109 96.000
54.74104 102.000
54.76098 104.000
54.78093 96.000
54.80088 80.000
54.82082 110.000
54.84077 86.000
54.86072 101.000
54.88066 84.000
54.90061 82.000
54.92056 116.000
54.94050 97.000
54.96045 97.000
54.98040 96.000
55.00035 101.000
55.02029 102.000
55.04024 97.000
55.06019 103.000
55.08013 115.000
55.10008 107.000
55.12003 91.000
55.13997 95.000
55.15992 99.000
55.17987 96.000
55.19982 78.000
55.21976 87.000
55.23971 76.000
55.25966 117.000
55.27960 81.000
55.29955 88.000
55.31950 112.000
55.33944 79.000
55.35939 100.000
55.37934 106.000
55.39929 95.000
55.41923 105.000
55.43918 95.000
55.45913 92.000
55.47907 105.000
55.49902 102.000
55.51897 97.000
55.53891 90.000
55.55886 89.000
55.57881 105.000
55.59875 83.000
55.61870 108.000
55.63865 77.000
55.65860 86.000
55.67854 94.000
55.69849 105.000
55.71844 91.000
55.73838 94.000
55.75833 105.000
55.77828 89.000
55.79822 99.000
55.81817 78.000
55.83812 89.000
55.85807 102.000
55.87801 109.000
55.89796 85.000
55.91791 106.000
55.93785 88.000
55.95780 91.000
55.97775 92.000
55.99769 100.000
56.01764 94.000
56.03759 92.000
56.05753 102.000
56.07748 86.000
56.09743 111.000
56.11738 111.000
56.13732 92.000
56.15727 96.000
56.17722 94.000
56.19716 103.000
56.21711 102.000
56.23706 107.000
56.25700 107.000
56.27695 94.000
56.29690 94.000
56.31685 104.000
56.33679 83.000
56.35674 106.000
56.37669 103.000
56.39663 93.000
56.41658 105.000
56.43653 106.000
56.45647 102.000
56.47642 108.000
56.49637 118.000
56.51631 97.000
56.53626 88.000
56.55621 85.000
56.57616 102.000
56.59610 108.000
56.61605 97.000
56.63600 84.000
56.65594 110.000
56.67589 101.000
56.69584 114.000
56.71578 129.000
56.73573 97.000
56.75568 116.000
56.77563 83.000
56.79557 104.000
56.81552 117.000
56.83547 120.000
56.85541 105.000
56.87536 105.000
56.89531 109.000
56.91525 121.000
56.93520 121.000
56.95515 132.000
56.97510 126.000
56.99504 125.000
57.01499 129.000
57.03494 132.000
57.05488 123.000
57.07483 135.000
57.09478 122.000
57.11472 136.000
57.13467 118.000
57.15462 130.000
57.17456 124.000
57.19451 145.000
57.21446 116.000
57.23441 136.000
57.25435 138.000
57.27430 136.000
57.29425 153.000
57.31419 123.000
57.33414 132.000
57.35409 123.000
57.37403 127.000
57.39398 124.000
57.41393 121.000
57.43388 119.000
57.45382 139.000
57.47377 123.000
57.49372 133.000
57.51366 115.000
57.53361 131.000
57.55356 110.000
57.57350 125.000
57.59345 94.000
57.61340 109.000
57.63334 100.000
57.65329 123.000
57.67324 107.000
57.69319 110.000
57.71313 106.000
57.73308 114.000
57.75303 101.000
57.77297 95.000
57.79292 99.000
57.81287 111.000
57.83281 112.000
57.85276 113.000
57.87271 104.000
57.89266 91.000
57.91260 102.000
57.93255 120.000
57.95250 92.000
57.97244 71.000
57.99239 87.000
58.01234 109.000
58.03228 116.000
58.05223 89.000
58.07218 113.000
58.09212 106.000
58.11207 108.000
58.13202 105.000
58.15197 118.000
58.17191 118.000
58.19186 101.000
58.21181 94.000
58.23175 104.000
58.25170 114.000
58.27165 101.000
58.29159 114.000
58.31154 129.000
58.33149 110.000
58.35144 100.000
58.37138 102.000
58.39133 108.000
58.41128 101.000
58.43122 119.000
58.45117 107.000
58.47112 99.000
58.49106 102.000
58.51101 112.000
58.53096 97.000
58.55090 125.000
58.57085 102.000
58.59080 107.000
58.61075 111.000
58.63069 115.000
58.65064 97.000
58.67059 118.000
58.69053 100.000
58.71048 85.000
58.73043 92.000
58.75037 110.000
58.77032 94.000
58.79027 93.000
58.81022 118.000
58.83016 98.000
58.85011 104.000
58.87006 123.000
58.89000 102.000
58.90995 82.000
58.92990 112.000
58.94984 105.000
58.96979 103.000
58.98974 102.000
59.00969 96.000
59.02963 99.000
59.04958 100.000
59.06953 94.000
59.08947 97.000
59.10942 103.000
59.12937 93.000
59.14931 89.000
59.16926 107.000
59.18921 97.000
59.20915 111.000
59.22910 91.000
59.24905 98.000
59.26900 88.000
59.28894 105.000
59.30889 97.000
59.32884 115.000
59.34878 102.000
59.36873 101.000
59.38868 99.000
59.40862 96.000
59.42857 109.000
59.44852 109.000
59.46847 117.000
59.48841 103.000
59.50836 84.000
59.52831 104.000
59.54825 88.000
59.56820 114.000
59.58815 89.000
59.60809 94.000
59.62804 111.000
59.64799 106.000
59.66793 112.000
59.68788 93.000
59.70783 98.000
59.72778 124.000
59.74772 85.000
59.76767 86.000
59.78762 81.000
59.80756 112.000
59.82751 102.000
59.84746 93.000
59.86740 98.000
59.88735 80.000
59.90730 77.000
59.92725 98.000
59.94719 89.000
59.96714 105.000
59.98709 108.000
60.00703 111.000
60.02698 108.000
60.04693 97.000
60.06687 99.000
60.08682 89.000
60.10677 93.000
60.12671 97.000
60.14666 109.000
60.16661 97.000
60.18656 96.000
60.20650 91.000
60.22645 114.000
60.24640 93.000
60.26634 119.000
60.28629 91.000
60.30624 98.000
60.32618 96.000
60.34613 93.000
60.36608 108.000
60.38603 78.000
60.40597 92.000
60.42592 116.000
60.44587 89.000
60.46581 125.000
60.48576 125.000
60.50571 110.000
60.52565 110.000
60.54560 105.000
60.56555 105.000
60.58550 103.000
60.60544 106.000
60.62539 99.000
60.64534 105.000
60.66528 131.000
60.68523 105.000
60.70518 125.000
60.72512 104.000
60.74507 101.000
60.76502 98.000
60.78496 107.000
60.80491 98.000
60.82486 117.000
60.84481 88.000
60.86475 102.000
60.88470 88.000
60.90465 117.000
60.92459 96.000
60.94454 114.000
60.96449 95.000
60.98443 113.000
61.00438 93.000
61.02433 116.000
61.04428 116.000
61.06422 99.000
61.08417 124.000
61.10412 101.000
61.12406 97.000
61.14401 102.000
61.16396 103.000
61.18390 117.000
61.20385 104.000
61.22380 108.000
61.24374 109.000
61.26369 126.000
61.28364 115.000
61.30359 123.000
61.32353 112.000
61.34348 123.000
61.36343 128.000
61.38337 114.000
61.40332 139.000
61.42327 128.000
61.44321 142.000
61.46316 164.000
61.48311 146.000
61.50306 151.000
61.52300 165.000
61.54295 153.000
61.56290 154.000
61.58284 200.000
61.60279 210.000
61.62274 212.000
61.64268 242.000
61.66263 242.000
61.68258 302.000
61.70252 295.000
61.72247 359.000
61.74242 330.000
61.76237 385.000
61.78231 417.000
61.80226 432.000
61.82221 495.000
61.84215 469.000
61.86210 445.000
61.88205 494.000
61.90199 522.000
61.92194 528.000
61.94189 510.000
61.96184 433.000
61.98178 469.000
62.00173 454.000
62.02168 434.000
62.04162 387.000
62.06157 401.000
62.08152 370.000
62.10146 353.000
62.12141 343.000
62.14136 323.000
62.16131 304.000
62.18125 273.000
62.20120 217.000
62.22115 223.000
62.24109 205.000
62.26104 216.000
62.28099 198.000
62.30093 184.000
62.32088 185.000
62.34083 162.000
62.36077 161.000
62.38072 163.000
62.40067 163.000
62.42062 147.000
62.44056 160.000
62.46051 153.000
62.48046 141.000
62.50040 120.000
62.52035 138.000
62.54030 134.000
62.56024 150.000
62.58019 128.000
62.60014 125.000
62.62009 146.000
62.64003 130.000
62.65998 123.000
62.67993 134.000
62.69987 139.000
62.71982 99.000
62.73977 118.000
62.75971 123.000
62.77966 121.000
62.79961 154.000
62.81955 142.000
62.83950 140.000
62.85945 132.000
62.87940 128.000
62.89934 129.000
62.91929 124.000
62.93924 122.000
62.95918 125.000
62.97913 134.000
62.99908 131.000
63.01902 112.000
63.03897 107.000
63.05892 123.000
63.07887 109.000
63.09881 126.000
63.11876 114.000
63.13871 102.000
63.15865 114.000
63.17860 112.000
63.19855 118.000
63.21849 112.000
63.23844 92.000
63.25839 102.000
63.27833 94.000
63.29828 123.000
63.31823 89.000
63.33818 124.000
63.35812 118.000
63.37807 131.000
63.39802 99.000
63.41796 123.000
63.43791 137.000
63.45786 117.000
63.47780 130.000
63.49775 113.000
63.51770 104.000
63.53765 112.000
63.55759 116.000
63.57754 120.000
63.59749 130.000
63.61743 124.000
63.63738 131.000
63.65733 119.000
63.67727 128.000
63.69722 128.000
63.71717 133.000
63.73712 130.000
63.75706 111.000
63.77701 120.000
63.79696 134.000
63.81690 105.000
63.83685 92.000
63.85680 128.000
63.87674 129.000
63.89669 129.000
63.91664 153.000
63.93658 147.000
63.95653 143.000
63.97648 160.000
63.99643 144.000
64.01637 150.000
64.03632 144.000
64.05627 172.000
64.07621 183.000
64.09616 186.000
64.11611 194.000
64.13605 224.000
64.15600 205.000
64.17595 238.000
64.19590 253.000
64.21584 266.000
64.23579 252.000
64.25574 258.000
64.27568 257.000
64.29563 288.000
64.31558 295.000
64.33552 308.000
64.35547 363.000
64.37542 353.000
64.39536 385.000
64.41531 412.000
64.43526 380.000
64.45521 385.000
64.47515 390.000
64.49510 388.000
64.51505 407.000
64.53499 389.000
64.55494 381.000
64.57489 374.000
64.59483 358.000
64.61478 329.000
64.63473 304.000
64.65468 320.000
64.67462 309.000
64.69457 292.000
64.71452 228.000
64.73446 229.000
64.75441 243.000
64.77436 215.000
64.79430 201.000
64.81425 198.000
64.83420 170.000
64.85414 173.000
64.87409 124.000
64.89404 156.000
64.91399 145.000
64.93393 142.000
64.95388 121.000
64.97383 154.000
64.99377 115.000
65.01372 121.000
65.03367 120.000
65.05361 118.000
65.07356 126.000
65.09351 126.000
65.11346 120.000
65.13340 98.000
65.15335 102.000
65.17330 99.000
65.19324 120.000
65.21319 112.000
65.23314 106.000
65.25308 113.000
65.27303 110.000
65.29298 103.000
65.31293 110.000
65.33287 121.000
65.35282 89.000
65.37277 88.000
65.39271 123.000
65.41266 112.000
65.43261 146.000
65.45255 110.000
65.47250 97.000
65.49245 107.000
65.51239 118.000
65.53234 113.000
65.55229 130.000
65.57224 115.000
65.59218 116.000
65.61213 116.000
65.63208 96.000
65.65202 111.000
65.67197 103.000
65.69192 149.000
65.71186 122.000
65.73181 138.000
65.75176 120.000
65.77171 117.000
65.79165 140.000
65.81160 143.000
65.83155 134.000
65.85149 125.000
65.87144 113.000
65.89139 139.000
65.91133 118.000
65.93128 122.000
65.95123 120.000
65.97117 120.000
65.99112 126.000
66.01107 140.000
66.03102 109.000
66.05096 124.000
66.07091 127.000
66.09086 130.000
66.11080 116.000
66.13075 120.000
66.15070 135.000
66.17064 116.000
66.19059 132.000
66.21054 138.000
66.23049 149.000
66.25043 152.000
66.27038 165.000
66.29033 162.000
66.31027 144.000
66.33022 166.000
66.35017 159.000
66.37011 161.000
66.39006 181.000
66.41001 175.000
66.42995 190.000
66.44990 193.000
66.46985 214.000
66.48980 203.000
66.50974 208.000
66.52969 225.000
66.54964 223.000
66.56958 236.000
66.58953 243.000
66.60948 219.000
66.62942 249.000
66.64937 290.000
66.66932 301.000
66.68927 327.000
66.70921 338.000
66.72916 333.000
66.74911 346.000
66.76905 346.000
66.78900 390.000
66.80895 373.000
66.82889 352.000
66.84884 418.000
66.86879 399.000
66.88874 334.000
66.90868 366.000
66.92863 389.000
66.94858 351.000
66.96852 359.000
66.98847 329.000
67.00842 309.000
67.02836 301.000
67.04831 272.000
67.06826 283.000
67.08820 244.000
67.10815 218.000
67.12810 199.000
67.14805 210.000
67.16799 189.000
67.18794 184.000
67.20789 188.000
67.22783 182.000
67.24778 170.000
67.26773 153.000
67.28767 125.000
67.30762 165.000
67.32757 133.000
67.34752 124.000
67.36746 129.000
67.38741 113.000
67.40736 124.000
67.42730 132.000
67.44725 105.000
67.46720 117.000
67.48714 128.000
67.50709 107.000
67.52704 106.000
67.54698 108.000
67.56693 121.000
67.58688 99.000
67.60683 100.000
67.62677 117.000
67.64672 116.000
67.66667 124.000
67.68661 117.000
67.70656 105.000
67.72651 114.000
67.74645 119.000
67.76640 118.000
67.78635 93.000
67.80630 93.000
67.82624 104.000
67.84619 112.000
67.86614 103.000
67.88608 123.000
67.90603 98.000
67.92598 110.000
67.94592 103.000
67.96587 101.000
67.98582 105.000
68.00576 87.000
68.02571 112.000
68.04566 88.000
68.06561 108.000
68.08555 108.000
68.10550 96.000
68.12545 108.000
68.14539 115.000
68.16534 104.000
68.18529 139.000
68.20523 103.000
68.22518 117.000
68.24513 84.000
68.26508 97.000
68.28502 116.000
68.30497 86.000
68.32492 119.000
68.34486 101.000
68.36481 95.000
68.38476 103.000
68.40470 95.000
68.42465 104.000
68.44460 100.000
68.46455 91.000
68.48449 106.000
68.50444 100.000
68.52439 107.000
68.54433 97.000
68.56428 101.000
68.58423 101.000
68.60417 108.000
68.62412 71.000
68.64407 100.000
68.66401 104.000
68.68396 98.000
68.70391 93.000
68.72386 94.000
68.74380 87.000
68.76375 100.000
68.78370 101.000
68.80364 86.000
68.82359 100.000
68.84354 87.000
68.86348 101.000
68.88343 84.000
68.90338 118.000
68.92333 113.000
68.94327 100.000
68.96322 89.000
68.98317 100.000
69.00311 100.000
69.02306 89.000
69.04301 112.000
69.06295 99.000
69.08290 108.000
69.10285 88.000
69.12279 99.000
69.14274 90.000
69.16269 93.000
69.18264 89.000
69.20258 98.000
69.22253 80.000
69.24248 92.000
69.26242 103.000
69.28237 94.000
69.30232 111.000
69.32226 106.000
69.34221 98.000
69.36216 108.000
69.38211 104.000
69.40205 101.000
69.42200 101.000
69.44195 95.000
69.46189 113.000
69.48184 110.000
69.50179 117.000
69.52173 84.000
69.54168 109.000
69.56163 97.000
69.58157 91.000
69.60152 96.000
69.62147 96.000
69.64142 116.000
69.66136 105.000
69.68131 84.000
69.70126 113.000
69.72120 91.000
69.74115 116.000
69.76110 96.000
69.78104 79.000
69.80099 125.000
69.82094 98.000
69.84089 91.000
69.86083 102.000
69.88078 93.000
69.90073 89.000
69.92067 89.000
69.94062 89.000
69.96057 92.000
69.98051 95.000
70.00046 86.000
70.02041 97.000
70.04035 101.000
70.06030 99.000
70.08025 93.000
70.10020 92.000
70.12014 104.000
70.14009 92.000
70.16004 86.000
70.17998 107.000
70.19993 90.000
70.21988 109.000
70.23982 96.000
70.25977 83.000
70.27972 101.000
70.29967 97.000
70.31961 100.000
70.33956 92.000
70.35951 79.000
70.37945 92.000
70.39940 100.000
70.41935 107.000
70.43929 96.000
70.45924 93.000
70.47919 79.000
70.49914 97.000
70.51908 85.000
70.53903 91.000
70.55898 101.000
70.57892 85.000
70.59887 83.000
70.61882 91.000
70.63876 100.000
70.65871 96.000
70.67866 111.000
70.69860 99.000
70.71855 96.000
70.73850 97.000
70.75845 88.000
70.77839 111.000
70.79834 108.000
70.81829 88.000
70.83823 85.000
70.85818 86.000
70.87813 98.000
70.89807 89.000
70.91802 86.000
70.93797 103.000
70.95792 91.000
70.97786 88.000
70.99781 103.000
71.01776 79.000
71.03770 100.000
71.05765 112.000
71.07760 111.000
71.09754 82.000
71.11749 104.000
71.13744 92.000
71.15738 67.000
71.17733 105.000
71.19728 79.000
71.21723 92.000
71.23717 87.000
71.25712 94.000
71.27707 91.000
71.29701 97.000
71.31696 94.000
71.33691 89.000
71.35685 82.000
71.37680 106.000
71.39675 85.000
71.41670 100.000
71.43664 93.000
71.45659 77.000
71.47654 100.000
71.49648 87.000
71.51643 98.000
71.53638 103.000
71.55632 109.000
71.57627 87.000
71.59622 87.000
71.61616 108.000
71.63611 100.000
71.65606 92.000
71.67601 99.000
71.69595 103.000
71.71590 101.000
71.73585 88.000
71.75579 89.000
71.77574 96.000
71.79569 102.000
71.81563 87.000
71.83558 120.000
71.85553 97.000
71.87548 81.000
71.89542 100.000
71.91537 88.000
71.93532 118.000
71.95526 93.000
71.97521 114.000
71.99516 72.000
72.01510 101.000
72.03505 101.000
72.05500 95.000
72.07495 88.000
72.09489 97.000
72.11484 88.000
72.13479 104.000
72.15473 101.000
72.17468 105.000
72.19463 109.000
72.21457 116.000
72.23452 84.000
72.25447 96.000
72.27441 118.000
72.29436 90.000
72.31431 102.000
72.33426 106.000
72.35420 98.000
72.37415 97.000
72.39410 105.000
72.41404 103.000
72.43399 103.000
72.45394 112.000
72.47388 95.000
72.49383 94.000
72.51378 103.000
72.53373 96.000
72.55367 107.000
72.57362 110.000
72.59357 98.000
72.61351 99.000
72.63346 80.000
72.65341 109.000
72.67335 119.000
72.69330 106.000
72.71325 109.000
72.73319 105.000
72.75314 109.000
72.77309 107.000
72.79304 81.000
72.81298 82.000
72.83293 109.000
72.85288 100.000
72.87282 91.000
72.89277 103.000
72.91272 103.000
72.93266 105.000
72.95261 116.000
72.97256 111.000
72.99251 110.000
73.01245 106.000
73.03240 120.000
73.05235 81.000
73.07229 102.000
73.09224 112.000
73.11219 104.000
73.13213 97.000
73.15208 115.000
73.17203 119.000
73.19197 109.000
73.21192 106.000
73.23187 110.000
73.25182 105.000
73.27176 101.000
73.29171 106.000
73.31166 120.000
73.33160 110.000
73.35155 112.000
73.37150 94.000
73.39144 122.000
73.41139 119.000
73.43134 114.000
73.45129 125.000
73.47123 130.000
73.49118 118.000
73.51113 148.000
73.53107 144.000
73.55102 157.000
73.57097 171.000
73.59091 166.000
73.61086 179.000
73.63081 175.000
73.65076 194.000
73.67070 199.000
73.69065 163.000
73.71060 196.000
73.73054 202.000
73.75049 166.000
73.77044 160.000
73.79038 183.000
73.81033 192.000
73.83028 177.000
73.85022 186.000
73.87017 177.000
73.89012 170.000
73.91007 143.000
73.93001 175.000
73.94996 155.000
73.96991 180.000
73.98985 136.000
74.00980 123.000
74.02975 131.000
74.04969 127.000
74.06964 135.000
74.08959 121.000
74.10954 137.000
74.12948 122.000
74.14943 108.000
74.16938 112.000
74.18932 126.000
74.20927 93.000
74.22922 116.000
74.24916 93.000
74.26911 114.000
74.28906 85.000
74.30900 109.000
74.32895 103.000
74.34890 99.000
74.36885 96.000
74.38879 100.000
74.40874 83.000
74.42869 89.000
74.44863 99.000
74.46858 102.000
74.48853 96.000
74.50847 99.000
74.52842 104.000
74.54837 90.000
74.56832 108.000
74.58826 108.000
74.60821 112.000
74.62816 98.000
74.64810 91.000
74.66805 84.000
74.68800 113.000
74.70794 99.000
74.72789 98.000
74.74784 98.000
74.76778 120.000
74.78773 89.000
74.80768 77.000
74.82763 99.000
74.84757 83.000
74.86752 76.000
74.88747 97.000
74.90741 107.000
74.92736 100.000
74.94731 110.000
74.96725 73.000
74.98720 104.000
75.00715 105.000
75.02710 105.000
75.04704 114.000
75.06699 89.000
75.08694 90.000
75.10688 105.000
75.12683 89.000
75.14678 117.000
75.16672 101.000
75.18667 99.000
75.20662 117.000
75.22657 98.000
75.24651 86.000
75.26646 100.000
75.28641 105.000
75.30635 79.000
75.32630 106.000
75.34625 94.000
75.36619 101.000
75.38614 100.000
75.40609 117.000
75.42603 90.000
75.44598 103.000
75.46593 106.000
75.48588 87.000
75.50582 117.000
75.52577 116.000
75.54572 105.000
75.56566 97.000
75.58561 101.000
75.60556 111.000
75.62550 103.000
75.64545 102.000
75.66540 101.000
75.68535 101.000
75.70529 87.000
75.72524 120.000
75.74519 110.000
75.76513 101.000
75.78508 111.000
75.80503 120.000
75.82497 110.000
75.84492 125.000
75.86487 124.000
75.88481 122.000
75.90476 128.000
75.92471 114.000
75.94466 112.000
75.96460 145.000
75.98455 112.000
76.00450 154.000
76.02444 130.000
76.04439 123.000
76.06434 143.000
76.08428 129.000
76.10423 114.000
76.12418 145.000
76.14413 143.000
76.16407 120.000
76.18402 119.000
76.20397 104.000
76.22391 111.000
76.24386 136.000
76.26381 116.000
76.28375 123.000
76.30370 135.000
76.32365 124.000
76.34359 109.000
76.36354 111.000
76.38349 118.000
76.40344 111.000
76.42338 83.000
76.44333 120.000
76.46328 112.000
76.48322 109.000
76.50317 108.000
76.52312 124.000
76.54306 114.000
76.56301 107.000
76.58296 98.000
76.60291 110.000
76.62285 108.000
76.64280 91.000
76.66275 101.000
76.68269 100.000
76.70264 124.000
76.72259 86.000
76.74253 107.000
76.76248 98.000
76.78243 126.000
76.80238 116.000
76.82232 105.000
76.84227 109.000
76.86222 96.000
76.88216 89.000
76.90211 103.000
76.92206 96.000
76.94200 128.000
76.96195 109.000
76.98190 94.000
77.00184 99.000
77.02179 95.000
77.04174 95.000
77.06169 91.000
77.08163 103.000
77.10158 105.000
77.12153 97.000
77.14147 107.000
77.16142 83.000
77.18137 102.000
77.20131 97.000
77.22126 111.000
77.24121 121.000
77.26116 94.000
77.28110 118.000
77.30105 104.000
77.32100 94.000
77.34094 100.000
77.36089 84.000
77.38084 106.000
77.40078 98.000
77.42073 95.000
77.44068 135.000
77.46062 105.000
77.48057 112.000
77.50052 118.000
77.52047 108.000
77.54041 122.000
77.56036 117.000
77.58031 118.000
77.60025 130.000
77.62020 114.000
77.64015 109.000
77.66009 131.000
77.68004 117.000
77.69999 136.000
77.71994 136.000
77.73988 154.000
77.75983 154.000
77.77978 158.000
77.79972 148.000
77.81967 169.000
77.83962 178.000
77.85956 173.000
77.87951 184.000
77.89946 201.000
77.91940 203.000
77.93935 205.000
77.95930 217.000
77.97925 207.000
77.99919 218.000
78.01914 232.000
78.03909 224.000
78.05903 249.000
78.07898 256.000
78.09893 255.000
78.11887 245.000
78.13882 218.000
78.15877 231.000
78.17872 272.000
78.19866 248.000
78.21861 261.000
78.23856 246.000
78.25850 230.000
78.27845 249.000
78.29840 248.000
78.31834 218.000
78.33829 214.000
78.35824 205.000
78.37819 219.000
78.39813 167.000
78.41808 177.000
78.43803 165.000
78.45797 184.000
78.47792 196.000
78.49787 165.000
78.51781 162.000
78.53776 161.000
78.55771 132.000
78.57765 164.000
78.59760 133.000
78.61755 145.000
78.63750 115.000
78.65744 149.000
78.67739 154.000
78.69734 125.000
78.71728 121.000
78.73723 107.000
78.75718 119.000
78.77712 99.000
78.79707 110.000
78.81702 139.000
78.83697 125.000
78.85691 127.000
78.87686 110.000
78.89681 101.000
78.91675 98.000
78.93670 121.000
78.95665 105.000
78.97659 106.000
78.99654 104.000
79.01649 99.000
79.03643 110.000
79.05638 103.000
79.07633 95.000
79.09628 112.000
79.11622 92.000
79.13617 83.000
79.15612 93.000
79.17606 103.000
79.19601 100.000
79.21596 95.000
79.23590 102.000
79.25585 105.000
79.27580 93.000
79.29575 76.000
79.31569 92.000
79.33564 97.000
79.35559 94.000
79.37553 101.000
79.39548 105.000
79.41543 90.000
79.43537 93.000
79.45532 92.000
79.47527 90.000
79.49521 96.000
79.51516 104.000
79.53511 100.000
79.55506 99.000
79.57500 85.000
79.59495 82.000
79.61490 92.000
79.63484 95.000
79.65479 95.000
79.67474 109.000
79.69468 100.000
79.71463 94.000
79.73458 95.000
79.75453 99.000
79.77447 92.000
79.79442 97.000
79.81437 84.000
79.83431 105.000
79.85426 87.000
79.87421 92.000
79.89415 83.000
79.91410 96.000
79.93405 88.000
79.95399 97.000
79.97394 99.000
79.99389 99.000
80.01384 110.000
80.03378 95.000
80.05373 79.000
80.07368 99.000
80.09362 93.000
80.11357 86.000
80.13352 113.000
80.15346 118.000
80.17341 97.000
80.19336 106.000
80.21331 99.000
80.23325 97.000
80.25320 109.000
80.27315 95.000
80.29309 86.000
80.31304 111.000
80.33299 99.000
80.35293 94.000
80.37288 92.000
80.39283 89.000
80.41278 110.000
80.43272 82.000
80.45267 99.000
80.47262 95.000
80.49256 97.000
80.51251 90.000
80.53246 100.000
80.55240 100.000
80.57235 103.000
80.59230 101.000
80.61224 98.000
80.63219 108.000
80.65214 102.000
80.67209 95.000
80.69203 93.000
80.71198 95.000
80.73193 92.000
80.75187 107.000
80.77182 99.000
80.79177 87.000
80.81171 91.000
80.83166 106.000
80.85161 94.000
80.87156 111.000
80.89150 114.000
80.91145 121.000
80.93140 109.000
80.95134 111.000
80.97129 119.000
80.99124 123.000
81.01118 123.000
81.03113 99.000
81.05108 122.000
81.07102 109.000
81.09097 101.000
81.11092 106.000
81.13087 127.000
81.15081 105.000
81.17076 105.000
81.19071 97.000
81.21065 104.000
81.23060 105.000
81.25055 95.000
81.27049 98.000
81.29044 103.000
81.31039 114.000
81.33034 110.000
81.35028 94.000
81.37023 116.000
81.39018 108.000
81.41012 76.000
81.43007 78.000
81.45002 93.000
81.46996 93.000
81.48991 94.000
81.50986 90.000
81.52980 120.000
81.54975 93.000
81.56970 99.000
81.58965 94.000
81.60959 101.000
81.62954 93.000
81.64949 98.000
81.66943 105.000
81.68938 103.000
81.70933 109.000
81.72927 103.000
81.74922 112.000
81.76917 104.000
81.78912 90.000
81.80906 94.000
81.82901 100.000
81.84896 85.000
81.86890 96.000
81.88885 106.000
81.90880 92.000
81.92874 100.000
81.94869 88.000
81.96864 101.000
81.98859 107.000
82.00853 88.000
82.02848 98.000
82.04843 86.000
82.06837 97.000
82.08832 88.000
82.10827 97.000
82.12821 97.000
82.14816 96.000
82.16811 94.000
82.18805 86.000
82.20800 96.000
82.22795 97.000
82.24790 100.000
82.26784 109.000
82.28779 84.000
82.30774 116.000
82.32768 86.000
82.34763 91.000
82.36758 88.000
82.38752 96.000
82.40747 105.000
82.42742 94.000
82.44737 96.000
82.46731 95.000
82.48726 77.000
82.50721 89.000
82.52715 108.000
82.54710 84.000
82.56705 106.000
82.58699 120.000
82.60694 96.000
82.62689 95.000
82.64683 96.000
82.66678 95.000
82.68673 91.000
82.70668 75.000
82.72662 86.000
82.74657 88.000
82.76652 98.000
82.78646 96.000
82.80641 87.000
82.82636 98.000
82.84630 98.000
82.86625 101.000
82.88620 101.000
82.90615 108.000
82.92609 103.000
82.94604 93.000
82.96599 96.000
82.98593 83.000
83.00588 90.000
83.02583 102.000
83.04577 105.000
83.06572 116.000
83.08567 92.000
83.10561 87.000
83.12556 83.000
83.14551 106.000
83.16546 100.000
83.18540 92.000
83.20535 107.000
83.22530 85.000
83.24524 87.000
83.26519 92.000
83.28514 95.000
83.30508 85.000
83.32503 84.000
83.34498 109.000
83.36493 90.000
83.38487 103.000
83.40482 92.000
83.42477 102.000
83.44471 86.000
83.46466 105.000
83.48461 100.000
83.50455 98.000
83.52450 101.000
83.54445 92.000
83.56440 97.000
83.58434 93.000
83.60429 89.000
83.62424 96.000
83.64418 93.000
83.66413 86.000
83.68408 104.000
83.70402 109.000
83.72397 130.000
83.74392 118.000
83.76386 87.000
83.78381 90.000
83.80376 105.000
83.82371 86.000
83.84365 98.000
83.86360 82.000
83.88355 72.000
83.90349 105.000
83.92344 94.000
83.94339 109.000
83.96333 110.000
83.98328 84.000
84.00323 110.000
84.02318 100.000
84.04312 92.000
84.06307 91.000
84.08302 111.000
84.10296 108.000
84.12291 110.000
84.14286 116.000
84.16280 105.000
84.18275 99.000
84.20270 111.000
84.22264 114.000
84.24259 115.000
84.26254 105.000
84.28249 109.000
84.30243 109.000
84.32238 123.000
84.34233 131.000
84.36227 133.000
84.38222 92.000
84.40217 110.000
84.42211 126.000
84.44206 129.000
84.46201 130.000
84.48196 128.000
84.50190 151.000
84.52185 127.000
84.54180 135.000
84.56174 177.000
84.58169 167.000
84.60164 160.000
84.62158 161.000
84.64153 205.000
84.66148 181.000
84.68142 174.000
84.70137 182.000
84.72132 184.000
84.74127 167.000
84.76121 198.000
84.78116 198.000
84.80111 142.000
84.82105 189.000
84.84100 214.000
84.86095 184.000
84.88089 175.000
84.90084 157.000
84.92079 194.000
84.94074 150.000
84.96068 157.000
84.98063 167.000
85.00058 177.000
85.02052 161.000
85.04047 138.000
85.06042 150.000
85.08036 149.000
85.10031 160.000
85.12026 152.000
85.14021 151.000
85.16015 117.000
85.18010 131.000
85.20005 125.000
85.21999 126.000
85.23994 106.000
85.25989 109.000
85.27983 124.000
85.29978 121.000
85.31973 121.000
85.33967 102.000
85.35962 119.000
85.37957 97.000
85.39952 101.000
85.41946 106.000
85.43941 119.000
85.45936 90.000
85.47930 100.000
85.49925 100.000
85.51920 110.000
85.53914 95.000
85.55909 85.000
85.57904 71.000
85.59899 96.000
85.61893 105.000
85.63888 103.000
85.65883 98.000
85.67877 100.000
85.69872 100.000
85.71867 74.000
85.73861 110.000
85.75856 89.000
85.77851 98.000
85.79845 89.000
85.81840 91.000
85.83835 91.000
85.85830 99.000
85.87824 85.000
85.89819 84.000
85.91814 87.000
85.93808 84.000
85.95803 102.000
85.97798 107.000
85.99792 92.000
86.01787 90.000
86.03782 98.000
86.05777 97.000
86.07771 95.000
86.09766 113.000
86.11761 90.000
86.13755 106.000
86.15750 112.000
86.17745 81.000
86.19739 81.000
86.21734 87.000
86.23729 92.000
86.25723 91.000
86.27718 95.000
86.29713 90.000
86.31708 90.000
86.33702 104.000
86.35697 104.000
86.37692 111.000
86.39686 130.000
86.41681 103.000
86.43676 108.000
86.45670 97.000
86.47665 101.000
86.49660 93.000
86.51655 110.000
86.53649 98.000
86.55644 99.000
86.57639 104.000
86.59633 98.000
86.61628 98.000
86.63623 105.000
86.65617 115.000
86.67612 110.000
86.69607 123.000
86.71602 112.000
86.73596 119.000
86.75591 103.000
86.77586 123.000
86.79580 120.000
86.81575 99.000
86.83570 119.000
86.85564 125.000
86.87559 124.000
86.89554 107.000
86.91548 105.000
86.93543 120.000
86.95538 124.000
86.97533 118.000
86.99527 97.000
87.01522 123.000
87.03517 111.000
87.05511 100.000
87.07506 106.000
87.09501 102.000
87.11495 130.000
87.13490 125.000
87.15485 113.000
87.17480 101.000
87.19474 124.000
87.21469 104.000
87.23464 111.000
87.25458 108.000
87.27453 97.000
87.29448 125.000
87.31442 113.000
87.33437 112.000
87.35432 130.000
87.37426 100.000
87.39421 133.000
87.41416 80.000
87.43411 103.000
87.45405 108.000
87.47400 107.000
87.49395 105.000
87.51389 101.000
87.53384 111.000
87.55379 114.000
87.57373 102.000
87.59368 90.000
87.61363 106.000
87.63358 113.000
87.65352 114.000
87.67347 99.000
87.69342 100.000
87.71336 99.000
87.73331 94.000
87.75326 97.000
87.77320 107.000
87.79315 78.000
87.81310 85.000
87.83304 95.000
87.85299 85.000
87.87294 110.000
87.89289 102.000
87.91283 87.000
87.93278 98.000
87.95273 99.000
87.97267 98.000
87.99262 92.000
88.01257 106.000
88.03251 108.000
88.05246 94.000
88.07241 94.000
88.09236 87.000
88.11230 81.000
88.13225 101.000
88.15220 105.000
88.17214 107.000
88.19209 83.000
88.21204 89.000
88.23198 79.000
88.25193 90.000
88.27188 88.000
88.29183 105.000
88.31177 93.000
88.33172 73.000
88.35167 93.000
88.37161 94.000
88.39156 84.000
88.41151 88.000
88.43145 90.000
88.45140 90.000
88.47135 79.000
88.49129 106.000
88.51124 96.000
88.53119 88.000
88.55114 84.000
88.57108 92.000
88.59103 101.000
88.61098 85.000
88.63092 96.000
88.65087 89.000
88.67082 92.000
88.69076 100.000
88.71071 92.000
88.73066 87.000
88.75061 88.000
88.77055 93.000
88.79050 99.000
88.81045 85.000
88.83039 97.000
88.85034 74.000
88.87029 96.000
88.89023 82.000
88.91018 83.000
88.93013 88.000
88.95007 79.000
88.97002 86.000
88.98997 105.000
89.00992 84.000
89.02986 99.000
89.04981 82.000
89.06976 85.000
89.08970 81.000
89.10965 87.000
89.12960 110.000
89.14954 98.000
89.16949 87.000
89.18944 97.000
89.20939 83.000
89.22933 93.000
89.24928 88.000
89.26923 80.000
89.28917 71.000
89.30912 117.000
89.32907 89.000
89.34901 90.000
89.36896 106.000
89.38891 69.000
89.40885 103.000
89.42880 87.000
89.44875 86.000
89.46870 88.000
89.48864 94.000
89.50859 98.000
89.52854 108.000
89.54848 111.000
89.56843 88.000
89.58838 100.000
89.60832 90.000
89.62827 113.000
89.64822 82.000
89.66817 101.000
89.68811 95.000
89.70806 120.000
89.72801 83.000
89.74795 92.000
89.76790 85.000
89.78785 102.000
89.80779 94.000
89.82774 86.000
89.84769 95.000
89.86764 107.000
89.88758 87.000
89.90753 115.000
89.92748 92.000
89.94742 107.000
89.96737 87.000
89.98732 102.000
90.00726 96.000
