10.00000 96.000
10.01995 73.000
10.03989 99.000
10.05984 82.000
10.07979 81.000
10.09973 89.000
10.11968 89.000
10.13963 96.000
10.15958 78.000
10.17952 90.000
10.19947 95.000
10.21942 87.000
10.23936 83.000
10.25931 85.000
10.27926 77.000
10.29920 83.000
10.31915 118.000
10.33910 83.000
10.35905 78.000
10.37899 94.000
10.39894 94.000
10.41889 81.000
10.43883 72.000
10.45878 95.000
10.47873 96.000
10.49867 100.000
10.51862 86.000
10.53857 91.000
10.55851 92.000
10.57846 87.000
10.59841 96.000
10.61836 91.000
10.63830 81.000
10.65825 91.000
10.67820 94.000
10.69814 95.000
10.71809 93.000
10.73804 88.000
10.75798 87.000
10.77793 76.000
10.79788 80.000
10.81783 79.000
10.83777 81.000
10.85772 82.000
10.87767 88.000
10.89761 86.000
10.91756 80.000
10.93751 92.000
10.95745 68.000
10.97740 85.000
10.99735 88.000
11.01730 107.000
11.03724 89.000
11.05719 85.000
11.07714 75.000
11.09708 90.000
11.11703 85.000
11.13698 86.000
11.15692 81.000
11.17687 70.000
11.19682 86.000
11.21676 59.000
11.23671 85.000
11.25666 84.000
11.27661 73.000
11.29655 57.000
11.31650 83.000
11.33645 73.000
11.35639 82.000
11.37634 82.000
11.39629 84.000
11.41623 78.000
11.43618 91.000
11.45613 93.000
11.47608 75.000
11.49602 85.000
11.51597 94.000
11.53592 84.000
11.55586 84.000
11.57581 71.000
11.59576 87.000
11.61570 76.000
11.63565 78.000
11.65560 83.000
11.67554 90.000
11.69549 84.000
11.71544 77.000
11.73539 79.000
11.75533 84.000
11.77528 97.000
11.79523 72.000
11.81517 93.000
11.83512 92.000
11.85507 80.000
11.87501 78.000
11.89496 59.000
11.91491 74.000
11.93486 78.000
11.95480 105.000
11.97475 70.000
11.99470 79.000
12.01464 95.000
12.03459 90.000
12.05454 89.000
12.07448 73.000
12.09443 88.000
12.11438 87.000
12.13432 77.000
12.15427 78.000
12.17422 91.000
12.19417 79.000
12.21411 92.000
12.23406 71.000
12.25401 96.000
12.27395 78.000
12.29390 76.000
12.31385 88.000
12.33379 102.000
12.35374 85.000
12.37369 71.000
12.39364 90.000
12.41358 91.000
12.43353 84.000
12.45348 73.000
12.47342 85.000
12.49337 88.000
12.51332 76.000
12.53326 76.000
12.55321 87.000
12.57316 76.000
12.59311 91.000
12.61305 85.000
12.63300 87.000
12.65295 75.000
12.67289 90.000
12.69284 72.000
12.71279 85.000
12.73273 72.000
12.75268 81.000
12.77263 76.000
12.79257 68.000
12.81252 76.000
12.83247 76.000
12.85242 90.000
12.87236 90.000
12.89231 78.000
12.91226 87.000
12.93220 81.000
12.95215 73.000
12.97210 76.000
12.99204 88.000
13.01199 73.000
13.03194 72.000
13.05189 74.000
13.07183 90.000
13.09178 63.000
13.11173 78.000
13.13167 79.000
13.15162 74.000
13.17157 79.000
13.19151 83.000
13.21146 84.000
13.23141 93.000
13.25135 88.000
13.27130 76.000
13.29125 88.000
13.31120 67.000
13.33114 80.000
13.35109 89.000
13.37104 73.000
13.39098 62.000
13.41093 74.000
13.43088 87.000
13.45082 94.000
13.47077 89.000
13.49072 79.000
13.51067 78.000
13.53061 78.000
13.55056 84.000
13.57051 83.000
13.59045 89.000
13.61040 76.000
13.63035 76.000
13.65029 60.000
13.67024 73.000
13.69019 101.000
13.71013 71.000
13.73008 81.000
13.75003 82.000
13.76998 102.000
13.78992 81.000
13.80987 86.000
13.82982 79.000
13.84976 66.000
13.86971 83.000
13.88966 84.000
13.90960 83.000
13.92955 88.000
13.94950 77.000
13.96945 78.000
13.98939 91.000
14.00934 72.000
14.02929 86.000
14.04923 62.000
14.06918 86.000
14.08913 73.000
14.10907 78.000
14.12902 75.000
14.14897 95.000
14.16892 79.000
14.18886 73.000
14.20881 94.000
14.22876 90.000
14.24870 71.000
14.26865 88.000
14.28860 71.000
14.30854 93.000
14.32849 81.000
14.34844 64.000
14.36838 76.000
14.38833 80.000
14.40828 82.000
14.42823 78.000
14.44817 77.000
14.46812 95.000
14.48807 71.000
14.50801 87.000
14.52796 88.000
14.54791 89.000
14.56785 75.000
14.58780 103.000
14.60775 75.000
14.62770 86.000
14.64764 110.000
14.66759 84.000
14.68754 87.000
14.70748 71.000
14.72743 93.000
14.74738 81.000
14.76732 87.000
14.78727 75.000
14.80722 95.000
14.82716 86.000
14.84711 89.000
14.86706 87.000
14.88701 98.000
14.90695 73.000
14.92690 72.000
14.94685 92.000
14.96679 89.000
14.98674 92.000
15.00669 85.000
15.02663 102.000
15.04658 87.000
15.06653 85.000
15.08648 97.000
15.10642 89.000
15.12637 97.000
15.14632 93.000
15.16626 91.000
15.18621 95.000
15.20616 84.000
15.22610 88.000
15.24605 96.000
15.26600 90.000
15.28594 91.000
15.30589 101.000
15.32584 89.000
15.34579 90.000
15.36573 92.000
15.38568 109.000
15.40563 82.000
15.42557 94.000
15.44552 112.000
15.46547 81.000
15.48541 106.000
15.50536 98.000
15.52531 109.000
15.54526 100.000
15.56520 122.000
15.58515 107.000
15.60510 103.000
15.62504 90.000
15.64499 92.000
15.66494 106.000
15.68488 98.000
15.70483 98.000
15.72478 124.000
15.74472 101.000
15.76467 100.000
15.78462 122.000
15.80457 115.000
15.82451 123.000
15.84446 144.000
15.86441 154.000
15.88435 142.000
15.90430 147.000
15.92425 126.000
15.94419 126.000
15.96414 106.000
15.98409 128.000
16.00404 146.000
16.02398 157.000
16.04393 142.000
16.06388 156.000
16.08382 175.000
16.10377 141.000
16.12372 171.000
16.14366 192.000
16.16361 241.000
16.18356 197.000
16.20351 229.000
16.22345 225.000
16.24340 253.000
16.26335 255.000
16.28329 316.000
16.30324 391.000
16.32319 442.000
16.34313 510.000
16.36308 599.000
16.38303 747.000
16.40297 948.000
16.42292 1226.000
16.44287 1515.000
16.46282 1879.000
16.48276 2028.000
16.50271 1932.000
16.52266 1599.000
16.54260 1205.000
16.56255 821.000
16.58250 505.000
16.60244 417.000
16.62239 273.000
16.64234 239.000
16.66229 233.000
16.68223 195.000
16.70218 192.000
16.72213 181.000
16.74207 167.000
16.76202 132.000
16.78197 165.000
16.80191 147.000
16.82186 161.000
16.84181 154.000
16.86175 145.000
16.88170 134.000
16.90165 132.000
16.92160 129.000
16.94154 115.000
16.96149 110.000
16.98144 106.000
17.00138 120.000
17.02133 113.000
17.04128 95.000
17.06122 89.000
17.08117 117.000
17.10112 90.000
17.12107 111.000
17.14101 115.000
17.16096 96.000
17.18091 86.000
17.20085 95.000
17.22080 101.000
17.24075 103.000
17.26069 108.000
17.28064 106.000
17.30059 120.000
17.32053 96.000
17.34048 98.000
17.36043 108.000
17.38038 116.000
17.40032 94.000
17.42027 103.000
17.44022 87.000
17.46016 83.000
17.48011 89.000
17.50006 86.000
17.52000 72.000
17.53995 97.000
17.55990 96.000
17.57985 94.000
17.59979 91.000
17.61974 74.000
17.63969 71.000
17.65963 84.000
17.67958 72.000
17.69953 85.000
17.71947 78.000
17.73942 71.000
17.75937 92.000
17.77932 77.000
17.79926 94.000
17.81921 85.000
17.83916 101.000
17.85910 93.000
17.87905 88.000
17.89900 94.000
17.91894 69.000
17.93889 73.000
17.95884 76.000
17.97878 84.000
17.99873 70.000
18.01868 74.000
18.03863 80.000
18.05857 80.000
18.07852 84.000
18.09847 87.000
18.11841 91.000
18.13836 92.000
18.15831 76.000
18.17825 81.000
18.19820 79.000
18.21815 98.000
18.23810 86.000
18.25804 92.000
18.27799 94.000
18.29794 83.000
18.31788 95.000
18.33783 102.000
18.35778 92.000
18.37772 102.000
18.39767 101.000
18.41762 97.000
18.43756 100.000
18.45751 79.000
18.47746 89.000
18.49741 96.000
18.51735 82.000
18.53730 70.000
18.55725 76.000
18.57719 77.000
18.59714 77.000
18.61709 81.000
18.63703 74.000
18.65698 69.000
18.67693 71.000
18.69688 74.000
18.71682 86.000
18.73677 81.000
18.75672 70.000
18.77666 91.000
18.79661 94.000
18.81656 76.000
18.83650 69.000
18.85645 76.000
18.87640 66.000
18.89634 68.000
18.91629 90.000
18.93624 85.000
18.95619 76.000
18.97613 73.000
18.99608 70.000
19.01603 67.000
19.03597 67.000
19.05592 81.000
19.07587 78.000
19.09581 72.000
19.11576 77.000
19.13571 84.000
19.15566 78.000
19.17560 65.000
19.19555 76.000
19.21550 88.000
19.23544 78.000
19.25539 73.000
19.27534 72.000
19.29528 89.000
19.31523 84.000
19.33518 91.000
19.35513 74.000
19.37507 70.000
19.39502 82.000
19.41497 77.000
19.43491 91.000
19.45486 73.000
19.47481 67.000
19.49475 90.000
19.51470 79.000
19.53465 73.000
19.55459 81.000
19.57454 73.000
19.59449 74.000
19.61444 81.000
19.63438 68.000
19.65433 71.000
19.67428 75.000
19.69422 59.000
19.71417 72.000
19.73412 60.000
19.75406 82.000
19.77401 84.000
19.79396 99.000
19.81391 84.000
19.83385 76.000
19.85380 98.000
19.87375 98.000
19.89369 111.000
19.91364 86.000
19.93359 117.000
19.95353 116.000
19.97348 133.000
19.99343 163.000
20.01337 154.000
20.03332 152.000
20.05327 205.000
20.07322 219.000
20.09316 185.000
20.11311 158.000
20.13306 146.000
20.15300 120.000
20.17295 121.000
20.19290 111.000
20.21284 109.000
20.23279 89.000
20.25274 99.000
20.27269 100.000
20.29263 105.000
20.31258 96.000
20.33253 92.000
20.35247 90.000
20.37242 96.000
20.39237 90.000
20.41231 115.000
20.43226 140.000
20.45221 123.000
20.47215 143.000
20.49210 205.000
20.51205 198.000
20.53200 202.000
20.55194 194.000
20.57189 200.000
20.59184 259.000
20.61178 302.000
20.63173 317.000
20.65168 330.000
20.67162 354.000
20.69157 303.000
20.71152 296.000
20.73147 291.000
20.75141 245.000
20.77136 250.000
20.79131 232.000
20.81125 209.000
20.83120 190.000
20.85115 181.000
20.87109 172.000
20.89104 145.000
20.91099 137.000
20.93094 122.000
20.95088 111.000
20.97083 107.000
20.99078 126.000
21.01072 92.000
21.03067 92.000
21.05062 85.000
21.07056 80.000
21.09051 90.000
21.11046 78.000
21.13040 97.000
21.15035 89.000
21.17030 81.000
21.19025 78.000
21.21019 89.000
21.23014 84.000
21.25009 78.000
21.27003 81.000
21.28998 70.000
21.30993 85.000
21.32987 72.000
21.34982 72.000
21.36977 78.000
21.38972 79.000
21.40966 94.000
21.42961 83.000
21.44956 75.000
21.46950 92.000
21.48945 70.000
21.50940 75.000
21.52934 75.000
21.54929 85.000
21.56924 64.000
21.58918 74.000
21.60913 67.000
21.62908 76.000
21.64903 75.000
21.66897 70.000
21.68892 78.000
21.70887 89.000
21.72881 74.000
21.74876 66.000
21.76871 63.000
21.78865 100.000
21.80860 73.000
21.82855 60.000
21.84850 71.000
21.86844 66.000
21.88839 51.000
21.90834 75.000
21.92828 72.000
21.94823 76.000
21.96818 65.000
21.98812 70.000
22.00807 82.000
22.02802 65.000
22.04796 81.000
22.06791 84.000
22.08786 57.000
22.10781 81.000
22.12775 90.000
22.14770 61.000
22.16765 71.000
22.18759 93.000
22.20754 92.000
22.22749 71.000
22.24743 75.000
22.26738 71.000
22.28733 76.000
22.30728 87.000
22.32722 62.000
22.34717 68.000
22.36712 81.000
22.38706 72.000
22.40701 78.000
22.42696 67.000
22.44690 79.000
22.46685 63.000
22.48680 75.000
22.50675 79.000
22.52669 81.000
22.54664 82.000
22.56659 74.000
22.58653 87.000
22.60648 75.000
22.62643 72.000
22.64637 72.000
22.66632 72.000
22.68627 73.000
22.70621 78.000
22.72616 78.000
22.74611 79.000
22.76606 73.000
22.78600 84.000
22.80595 72.000
22.82590 71.000
22.84584 86.000
22.86579 82.000
22.88574 74.000
22.90568 79.000
22.92563 81.000
22.94558 72.000
22.96553 73.000
22.98547 71.000
23.00542 87.000
23.02537 73.000
23.04531 80.000
23.06526 84.000
23.08521 79.000
23.10515 88.000
23.12510 86.000
23.14505 79.000
23.16499 90.000
23.18494 89.000
23.20489 97.000
23.22484 85.000
23.24478 71.000
23.26473 86.000
23.28468 77.000
23.30462 81.000
23.32457 71.000
23.34452 64.000
23.36446 79.000
23.38441 87.000
23.40436 74.000
23.42431 78.000
23.44425 96.000
23.46420 82.000
23.48415 74.000
23.50409 84.000
23.52404 85.000
23.54399 76.000
23.56393 80.000
23.58388 75.000
23.60383 73.000
23.62377 77.000
23.64372 66.000
23.66367 66.000
23.68362 85.000
23.70356 67.000
23.72351 73.000
23.74346 83.000
23.76340 74.000
23.78335 69.000
23.80330 85.000
23.82324 72.000
23.84319 63.000
23.86314 77.000
23.88309 90.000
23.90303 66.000
23.92298 78.000
23.94293 73.000
23.96287 70.000
23.98282 86.000
24.00277 80.000
24.02271 93.000
24.04266 73.000
24.06261 70.000
24.08256 77.000
24.10250 86.000
24.12245 105.000
24.14240 81.000
24.16234 71.000
24.18229 83.000
24.20224 73.000
24.22218 71.000
24.24213 66.000
24.26208 66.000
24.28202 92.000
24.30197 77.000
24.32192 78.000
24.34187 79.000
24.36181 90.000
24.38176 67.000
24.40171 70.000
24.42165 76.000
24.44160 86.000
24.46155 79.000
24.48149 82.000
24.50144 74.000
24.52139 63.000
24.54134 96.000
24.56128 72.000
24.58123 82.000
24.60118 78.000
24.62112 71.000
24.64107 81.000
24.66102 93.000
24.68096 79.000
24.70091 86.000
24.72086 83.000
24.74080 77.000
24.76075 101.000
24.78070 76.000
24.80065 82.000
24.82059 69.000
24.84054 95.000
24.86049 82.000
24.88043 93.000
24.90038 96.000
24.92033 105.000
24.94027 92.000
24.96022 78.000
24.98017 81.000
25.00012 98.000
25.02006 91.000
25.04001 93.000
25.05996 100.000
25.07990 83.000
25.09985 83.000
25.11980 80.000
25.13974 61.000
25.15969 83.000
25.17964 81.000
25.19958 68.000
25.21953 64.000
25.23948 82.000
25.25943 75.000
25.27937 80.000
25.29932 72.000
25.31927 79.000
25.33921 65.000
25.35916 70.000
25.37911 70.000
25.39905 76.000
25.41900 86.000
25.43895 76.000
25.45890 76.000
25.47884 75.000
25.49879 85.000
25.51874 77.000
25.53868 66.000
25.55863 63.000
25.57858 86.000
25.59852 90.000
25.61847 91.000
25.63842 84.000
25.65837 75.000
25.67831 80.000
25.69826 91.000
25.71821 69.000
25.73815 88.000
25.75810 105.000
25.77805 85.000
25.79799 67.000
25.81794 88.000
25.83789 88.000
25.85783 91.000
25.87778 76.000
25.89773 77.000
25.91768 91.000
25.93762 86.000
25.95757 81.000
25.97752 97.000
25.99746 99.000
26.01741 93.000
26.03736 106.000
26.05730 106.000
26.07725 114.000
26.09720 92.000
26.11715 92.000
26.13709 91.000
26.15704 97.000
26.17699 97.000
26.19693 105.000
26.21688 94.000
26.23683 74.000
26.25677 98.000
26.27672 66.000
26.29667 85.000
26.31661 85.000
26.33656 77.000
26.35651 94.000
26.37646 97.000
26.39640 83.000
26.41635 69.000
26.43630 82.000
26.45624 87.000
26.47619 86.000
26.49614 74.000
26.51608 89.000
26.53603 91.000
26.55598 92.000
26.57593 74.000
26.59587 84.000
26.61582 94.000
26.63577 81.000
26.65571 73.000
26.67566 95.000
26.69561 87.000
26.71555 87.000
26.73550 80.000
26.75545 82.000
26.77539 77.000
26.79534 83.000
26.81529 96.000
26.83524 81.000
26.85518 82.000
26.87513 87.000
26.89508 78.000
26.91502 91.000
26.93497 69.000
26.95492 87.000
26.97486 103.000
26.99481 102.000
27.01476 72.000
27.03471 73.000
27.05465 89.000
27.07460 79.000
27.09455 90.000
27.11449 94.000
27.13444 79.000
27.15439 81.000
27.17433 96.000
27.19428 87.000
27.21423 81.000
27.23417 92.000
27.25412 85.000
27.27407 90.000
27.29402 80.000
27.31396 93.000
27.33391 87.000
27.35386 87.000
27.37380 99.000
27.39375 88.000
27.41370 90.000
27.43364 80.000
27.45359 85.000
27.47354 78.000
27.49349 94.000
27.51343 95.000
27.53338 78.000
27.55333 82.000
27.57327 85.000
27.59322 111.000
27.61317 101.000
27.63311 87.000
27.65306 88.000
27.67301 87.000
27.69296 95.000
27.71290 74.000
27.73285 95.000
27.75280 86.000
27.77274 97.000
27.79269 75.000
27.81264 73.000
27.83258 75.000
27.85253 73.000
27.87248 85.000
27.89242 92.000
27.91237 88.000
27.93232 87.000
27.95227 91.000
27.97221 81.000
27.99216 76.000
28.01211 89.000
28.03205 85.000
28.05200 77.000
28.07195 91.000
28.09189 99.000
28.11184 82.000
28.13179 89.000
28.15174 108.000
28.17168 85.000
28.19163 107.000
28.21158 89.000
28.23152 94.000
28.25147 67.000
28.27142 102.000
28.29136 88.000
28.31131 92.000
28.33126 91.000
28.35120 80.000
28.37115 95.000
28.39110 99.000
28.41105 80.000
28.43099 79.000
28.45094 93.000
28.47089 62.000
28.49083 79.000
28.51078 83.000
28.53073 90.000
28.55067 89.000
28.57062 95.000
28.59057 79.000
28.61052 87.000
28.63046 97.000
28.65041 85.000
28.67036 113.000
28.69030 81.000
28.71025 89.000
28.73020 108.000
28.75014 95.000
28.77009 97.000
28.79004 81.000
28.80998 85.000
28.82993 91.000
28.84988 107.000
28.86983 72.000
28.88977 105.000
28.90972 79.000
28.92967 87.000
28.94961 92.000
28.96956 74.000
28.98951 93.000
29.00945 87.000
29.02940 114.000
29.04935 87.000
29.06930 80.000
29.08924 97.000
29.10919 90.000
29.12914 79.000
29.14908 78.000
29.16903 97.000
29.18898 94.000
29.20892 109.000
29.22887 115.000
29.24882 102.000
29.26877 121.000
29.28871 103.000
29.30866 122.000
29.32861 127.000
29.34855 150.000
29.36850 121.000
29.38845 160.000
29.40839 145.000
29.42834 161.000
29.44829 154.000
29.46823 171.000
29.48818 161.000
29.50813 184.000
29.52808 188.000
29.54802 190.000
29.56797 189.000
29.58792 159.000
29.60786 196.000
29.62781 168.000
29.64776 163.000
29.66770 107.000
29.68765 115.000
29.70760 132.000
29.72755 106.000
29.74749 98.000
29.76744 84.000
29.78739 100.000
29.80733 101.000
29.82728 121.000
29.84723 80.000
29.86717 82.000
29.88712 90.000
29.90707 109.000
29.92701 110.000
29.94696 94.000
29.96691 106.000
29.98686 108.000
30.00680 118.000
30.02675 116.000
30.04670 120.000
30.06664 140.000
30.08659 123.000
30.10654 118.000
30.12648 143.000
30.14643 135.000
30.16638 166.000
30.18633 140.000
30.20627 155.000
30.22622 157.000
30.24617 107.000
30.26611 128.000
30.28606 119.000
30.30601 127.000
30.32595 116.000
30.34590 101.000
30.36585 104.000
30.38579 98.000
30.40574 81.000
30.42569 88.000
30.44564 110.000
30.46558 106.000
30.48553 92.000
30.50548 97.000
30.52542 93.000
30.54537 86.000
30.56532 87.000
30.58526 99.000
30.60521 91.000
30.62516 91.000
30.64511 101.000
30.66505 94.000
30.68500 100.000
30.70495 98.000
30.72489 98.000
30.74484 78.000
30.76479 109.000
30.78473 99.000
30.80468 88.000
30.82463 98.000
30.84458 97.000
30.86452 104.000
30.88447 93.000
30.90442 95.000
30.92436 101.000
30.94431 101.000
30.96426 104.000
30.98420 109.000
31.00415 111.000
31.02410 91.000
31.04404 107.000
31.06399 101.000
31.08394 90.000
31.10389 84.000
31.12383 95.000
31.14378 100.000
31.16373 109.000
31.18367 97.000
31.20362 89.000
31.22357 79.000
31.24351 99.000
31.26346 88.000
31.28341 97.000
31.30336 86.000
31.32330 97.000
31.34325 90.000
31.36320 103.000
31.38314 87.000
31.40309 86.000
31.42304 93.000
31.44298 97.000
31.46293 100.000
31.48288 109.000
31.50282 112.000
31.52277 118.000
31.54272 100.000
31.56267 125.000
31.58261 124.000
31.60256 134.000
31.62251 130.000
31.64245 115.000
31.66240 122.000
31.68235 134.000
31.70229 133.000
31.72224 127.000
31.74219 135.000
31.76214 118.000
31.78208 123.000
31.80203 140.000
31.82198 118.000
31.84192 111.000
31.86187 110.000
31.88182 103.000
31.90176 129.000
31.92171 133.000
31.94166 112.000
31.96160 115.000
31.98155 139.000
32.00150 115.000
32.02145 120.000
32.04139 105.000
32.06134 91.000
32.08129 95.000
32.10123 126.000
32.12118 107.000
32.14113 100.000
32.16107 86.000
32.18102 107.000
32.20097 81.000
32.22092 103.000
32.24086 117.000
32.26081 117.000
32.28076 94.000
32.30070 106.000
32.32065 109.000
32.34060 105.000
32.36054 109.000
32.38049 101.000
32.40044 116.000
32.42039 119.000
32.44033 101.000
32.46028 113.000
32.48023 92.000
32.50017 106.000
32.52012 103.000
32.54007 131.000
32.56001 124.000
32.57996 108.000
32.59991 120.000
32.61985 105.000
32.63980 90.000
32.65975 110.000
32.67970 104.000
32.69964 120.000
32.71959 105.000
32.73954 93.000
32.75948 95.000
32.77943 88.000
32.79938 110.000
32.81932 104.000
32.83927 107.000
32.85922 97.000
32.87917 107.000
32.89911 99.000
32.91906 113.000
32.93901 101.000
32.95895 130.000
32.97890 112.000
32.99885 114.000
33.01879 103.000
33.03874 127.000
33.05869 120.000
33.07863 145.000
33.09858 111.000
33.11853 162.000
33.13848 162.000
33.15842 193.000
33.17837 200.000
33.19832 193.000
33.21826 225.000
33.23821 283.000
33.25816 306.000
33.27810 388.000
33.29805 406.000
33.31800 458.000
33.33795 481.000
33.35789 461.000
33.37784 445.000
33.39779 436.000
33.41773 391.000
33.43768 386.000
33.45763 318.000
33.47757 284.000
33.49752 240.000
33.51747 222.000
33.53741 185.000
33.55736 206.000
33.57731 153.000
33.59726 154.000
33.61720 163.000
33.63715 155.000
33.65710 136.000
33.67704 135.000
33.69699 158.000
33.71694 129.000
33.73688 145.000
33.75683 144.000
33.77678 175.000
33.79673 152.000
33.81667 166.000
33.83662 193.000
33.85657 204.000
33.87651 199.000
33.89646 204.000
33.91641 215.000
33.93635 262.000
33.95630 304.000
33.97625 318.000
33.99620 296.000
34.01614 325.000
34.03609 293.000
34.05604 330.000
34.07598 326.000
34.09593 309.000
34.11588 316.000
34.13582 290.000
34.15577 283.000
34.17572 303.000
34.19566 322.000
34.21561 310.000
34.23556 272.000
34.25551 298.000
34.27545 276.000
34.29540 265.000
34.31535 241.000
34.33529 245.000
34.35524 214.000
34.37519 223.000
34.39513 181.000
34.41508 204.000
34.43503 173.000
34.45498 182.000
34.47492 154.000
34.49487 163.000
34.51482 157.000
34.53476 143.000
34.55471 155.000
34.57466 142.000
34.59460 130.000
34.61455 155.000
34.63450 146.000
34.65444 135.000
34.67439 163.000
34.69434 156.000
34.71429 154.000
34.73423 172.000
34.75418 183.000
34.77413 197.000
34.79407 273.000
34.81402 314.000
34.83397 392.000
34.85391 426.000
34.87386 407.000
34.89381 427.000
34.91376 355.000
34.93370 385.000
34.95365 377.000
34.97360 354.000
34.99354 353.000
35.01349 280.000
35.03344 247.000
35.05338 222.000
35.07333 215.000
35.09328 203.000
35.11322 186.000
35.13317 182.000
35.15312 166.000
35.17307 191.000
35.19301 195.000
35.21296 199.000
35.23291 210.000
35.25285 192.000
35.27280 225.000
35.29275 227.000
35.31269 226.000
35.33264 240.000
35.35259 235.000
35.37254 272.000
35.39248 279.000
35.41243 311.000
35.43238 326.000
35.45232 323.000
35.47227 380.000
35.49222 335.000
35.51216 396.000
35.53211 428.000
35.55206 389.000
35.57201 366.000
35.59195 380.000
35.61190 373.000
35.63185 353.000
35.65179 296.000
35.67174 314.000
35.69169 297.000
35.71163 273.000
35.73158 266.000
35.75153 218.000
35.77147 218.000
35.79142 175.000
35.81137 200.000
35.83132 189.000
35.85126 170.000
35.87121 183.000
35.89116 167.000
35.91110 132.000
35.93105 153.000
35.95100 165.000
35.97094 167.000
35.99089 193.000
36.01084 187.000
36.03079 203.000
36.05073 170.000
36.07068 215.000
36.09063 254.000
36.11057 275.000
36.13052 347.000
36.15047 393.000
36.17041 523.000
36.19036 578.000
36.21031 641.000
36.23025 659.000
36.25020 669.000
36.27015 600.000
36.29010 612.000
36.31004 589.000
36.32999 499.000
36.34994 445.000
36.36988 376.000
36.38983 347.000
36.40978 279.000
36.42972 255.000
36.44967 257.000
36.46962 222.000
36.48957 228.000
36.50951 186.000
36.52946 206.000
36.54941 180.000
36.56935 166.000
36.58930 167.000
36.60925 157.000
36.62919 134.000
36.64914 146.000
36.66909 140.000
36.68903 151.000
36.70898 143.000
36.72893 140.000
36.74888 137.000
36.76882 102.000
36.78877 117.000
36.80872 129.000
36.82866 119.000
36.84861 137.000
36.86856 133.000
36.88850 121.000
36.90845 116.000
36.92840 122.000
36.94835 114.000
36.96829 119.000
36.98824 130.000
37.00819 131.000
37.02813 117.000
37.04808 135.000
37.06803 155.000
37.08797 148.000
37.10792 109.000
37.12787 129.000
37.14781 119.000
37.16776 122.000
37.18771 122.000
37.20766 131.000
37.22760 133.000
37.24755 119.000
37.26750 145.000
37.28744 113.000
37.30739 113.000
37.32734 107.000
37.34728 100.000
37.36723 112.000
37.38718 87.000
37.40713 85.000
37.42707 88.000
37.44702 86.000
37.46697 94.000
37.48691 95.000
37.50686 86.000
37.52681 92.000
37.54675 75.000
37.56670 99.000
37.58665 95.000
37.60660 94.000
37.62654 99.000
37.64649 83.000
37.66644 98.000
37.68638 89.000
37.70633 96.000
37.72628 91.000
37.74622 92.000
37.76617 92.000
37.78612 98.000
37.80606 83.000
37.82601 95.000
37.84596 104.000
37.86591 101.000
37.88585 97.000
37.90580 114.000
37.92575 105.000
37.94569 85.000
37.96564 107.000
37.98559 101.000
38.00553 121.000
38.02548 120.000
38.04543 111.000
38.06538 94.000
38.08532 103.000
38.10527 100.000
38.12522 105.000
38.14516 114.000
38.16511 108.000
38.18506 109.000
38.20500 95.000
38.22495 111.000
38.24490 93.000
38.26484 111.000
38.28479 118.000
38.30474 105.000
38.32469 115.000
38.34463 114.000
38.36458 100.000
38.38453 115.000
38.40447 122.000
38.42442 124.000
38.44437 123.000
38.46431 130.000
38.48426 130.000
38.50421 150.000
38.52416 147.000
38.54410 175.000
38.56405 174.000
38.58400 183.000
38.60394 235.000
38.62389 214.000
38.64384 254.000
38.66378 271.000
38.68373 255.000
38.70368 250.000
38.72362 277.000
38.74357 232.000
38.76352 268.000
38.78347 252.000
38.80341 241.000
38.82336 223.000
38.84331 212.000
38.86325 219.000
38.88320 203.000
38.90315 187.000
38.92309 179.000
38.94304 145.000
38.96299 156.000
38.98294 158.000
39.00288 141.000
39.02283 156.000
39.04278 121.000
39.06272 141.000
39.08267 129.000
39.10262 111.000
39.12256 106.000
39.14251 112.000
39.16246 124.000
39.18241 119.000
39.20235 120.000
39.22230 106.000
39.24225 118.000
39.26219 100.000
39.28214 99.000
39.30209 98.000
39.32203 105.000
39.34198 86.000
39.36193 100.000
39.38187 91.000
39.40182 85.000
39.42177 104.000
39.44172 103.000
39.46166 108.000
39.48161 90.000
39.50156 102.000
39.52150 120.000
39.54145 96.000
39.56140 83.000
39.58134 90.000
39.60129 83.000
39.62124 76.000
39.64119 81.000
39.66113 103.000
39.68108 82.000
39.70103 102.000
39.72097 103.000
39.74092 97.000
39.76087 102.000
39.78081 98.000
39.80076 102.000
39.82071 96.000
39.84065 94.000
39.86060 102.000
39.88055 88.000
39.90050 94.000
39.92044 102.000
39.94039 92.000
39.96034 104.000
39.98028 79.000
40.00023 92.000
40.02018 96.000
40.04012 100.000
40.06007 93.000
40.08002 89.000
40.09997 97.000
40.11991 93.000
40.13986 80.000
40.15981 91.000
40.17975 89.000
40.19970 84.000
40.21965 101.000
40.23959 105.000
40.25954 93.000
40.27949 102.000
40.29943 91.000
40.31938 86.000
40.33933 86.000
40.35928 88.000
40.37922 113.000
40.39917 91.000
40.41912 98.000
40.43906 103.000
40.45901 103.000
40.47896 103.000
40.49890 99.000
40.51885 93.000
40.53880 110.000
40.55875 93.000
40.57869 102.000
40.59864 97.000
40.61859 132.000
40.63853 122.000
40.65848 128.000
40.67843 98.000
40.69837 112.000
40.71832 116.000
40.73827 139.000
40.75822 145.000
40.77816 157.000
40.79811 132.000
40.81806 141.000
40.83800 147.000
40.85795 171.000
40.87790 164.000
40.89784 175.000
40.91779 194.000
40.93774 207.000
40.95768 248.000
40.97763 249.000
40.99758 305.000
41.01753 301.000
41.03747 328.000
41.05742 353.000
41.07737 458.000
41.09731 467.000
41.11726 610.000
41.13721 718.000
41.15715 881.000
41.17710 1203.000
41.19705 1602.000
41.21700 1887.000
41.23694 2186.000
41.25689 2181.000
41.27684 2173.000
41.29678 2035.000
41.31673 1982.000
41.33668 1870.000
41.35662 1684.000
41.37657 1475.000
41.39652 1248.000
41.41646 1000.000
41.43641 816.000
41.45636 659.000
41.47631 588.000
41.49625 512.000
41.51620 432.000
41.53615 371.000
41.55609 306.000
41.57604 286.000
41.59599 277.000
41.61593 232.000
41.63588 223.000
41.65583 235.000
41.67578 199.000
41.69572 181.000
41.71567 182.000
41.73562 176.000
41.75556 159.000
41.77551 154.000
41.79546 183.000
41.81540 172.000
41.83535 173.000
41.85530 140.000
41.87524 170.000
41.89519 155.000
41.91514 158.000
41.93509 147.000
41.95503 149.000
41.97498 166.000
41.99493 140.000
42.01487 155.000
42.03482 135.000
42.05477 134.000
42.07471 137.000
42.09466 132.000
42.11461 133.000
42.13456 132.000
42.15450 108.000
42.17445 123.000
42.19440 127.000
42.21434 105.000
42.23429 117.000
42.25424 100.000
42.27418 114.000
42.29413 119.000
42.31408 113.000
42.33403 116.000
42.35397 126.000
42.37392 122.000
42.39387 114.000
42.41381 102.000
42.43376 121.000
42.45371 121.000
42.47365 110.000
42.49360 102.000
42.51355 113.000
42.53349 112.000
42.55344 109.000
42.57339 120.000
42.59334 103.000
42.61328 114.000
42.63323 105.000
42.65318 117.000
42.67312 121.000
42.69307 95.000
42.71302 112.000
42.73296 114.000
42.75291 98.000
42.77286 106.000
42.79281 113.000
42.81275 110.000
42.83270 115.000
42.85265 104.000
42.87259 99.000
42.89254 125.000
42.91249 93.000
42.93243 125.000
42.95238 120.000
42.97233 142.000
42.99227 120.000
43.01222 135.000
43.03217 124.000
43.05212 115.000
43.07206 126.000
43.09201 135.000
43.11196 125.000
43.13190 128.000
43.15185 134.000
43.17180 148.000
43.19174 119.000
43.21169 123.000
43.23164 130.000
43.25159 116.000
43.27153 91.000
43.29148 131.000
43.31143 141.000
43.33137 117.000
43.35132 112.000
43.37127 105.000
43.39121 104.000
43.41116 109.000
43.43111 106.000
43.45105 102.000
43.47100 105.000
43.49095 99.000
43.51090 93.000
43.53084 92.000
43.55079 95.000
43.57074 101.000
43.59068 95.000
43.61063 99.000
43.63058 87.000
43.65052 85.000
43.67047 95.000
43.69042 79.000
43.71037 80.000
43.73031 100.000
43.75026 90.000
43.77021 92.000
43.79015 79.000
43.81010 94.000
43.83005 87.000
43.84999 96.000
43.86994 87.000
43.88989 77.000
43.90984 99.000
43.92978 70.000
43.94973 75.000
43.96968 90.000
43.98962 84.000
44.00957 85.000
44.02952 71.000
44.04946 87.000
44.06941 83.000
44.08936 80.000
44.10930 90.000
44.12925 71.000
44.14920 66.000
44.16915 89.000
44.18909 95.000
44.20904 78.000
44.22899 88.000
44.24893 80.000
44.26888 79.000
44.28883 94.000
44.30877 88.000
44.32872 82.000
44.34867 76.000
44.36862 79.000
44.38856 109.000
44.40851 92.000
44.42846 83.000
44.44840 88.000
44.46835 71.000
44.48830 83.000
44.50824 84.000
44.52819 95.000
44.54814 104.000
44.56808 89.000
44.58803 97.000
44.60798 106.000
44.62793 107.000
44.64787 112.000
44.66782 112.000
44.68777 137.000
44.70771 141.000
44.72766 139.000
44.74761 125.000
44.76755 130.000
44.78750 124.000
44.80745 104.000
44.82740 105.000
44.84734 99.000
44.86729 99.000
44.88724 96.000
44.90718 96.000
44.92713 100.000
44.94708 100.000
44.96702 87.000
44.98697 102.000
45.00692 114.000
45.02686 120.000
45.04681 108.000
45.06676 91.000
45.08671 96.000
45.10665 127.000
45.12660 110.000
45.14655 111.000
45.16649 103.000
45.18644 114.000
45.20639 114.000
45.22633 90.000
45.24628 94.000
45.26623 90.000
45.28618 107.000
45.30612 97.000
45.32607 93.000
45.34602 80.000
45.36596 80.000
45.38591 98.000
45.40586 93.000
45.42580 104.000
45.44575 79.000
45.46570 82.000
45.48565 88.000
45.50559 71.000
45.52554 60.000
45.54549 87.000
45.56543 87.000
45.58538 83.000
45.60533 82.000
45.62527 86.000
45.64522 73.000
45.66517 85.000
45.68511 93.000
45.70506 85.000
45.72501 88.000
45.74496 90.000
45.76490 74.000
45.78485 78.000
45.80480 74.000
45.82474 71.000
45.84469 67.000
45.86464 83.000
45.88458 86.000
45.90453 66.000
45.92448 72.000
45.94443 91.000
45.96437 87.000
45.98432 62.000
46.00427 75.000
46.02421 85.000
46.04416 79.000
46.06411 85.000
46.08405 77.000
46.10400 75.000
46.12395 88.000
46.14389 83.000
46.16384 68.000
46.18379 70.000
46.20374 70.000
46.22368 78.000
46.24363 83.000
46.26358 91.000
46.28352 87.000
46.30347 89.000
46.32342 82.000
46.34336 83.000
46.36331 82.000
46.38326 79.000
46.40321 75.000
46.42315 69.000
46.44310 103.000
46.46305 86.000
46.48299 82.000
46.50294 82.000
46.52289 83.000
46.54283 68.000
46.56278 77.000
46.58273 70.000
46.60267 80.000
46.62262 85.000
46.64257 86.000
46.66252 91.000
46.68246 80.000
46.70241 92.000
46.72236 71.000
46.74230 101.000
46.76225 85.000
46.78220 86.000
46.80214 89.000
46.82209 91.000
46.84204 94.000
46.86199 80.000
46.88193 103.000
46.90188 67.000
46.92183 86.000
46.94177 83.000
46.96172 71.000
46.98167 82.000
47.00161 92.000
47.02156 91.000
47.04151 71.000
47.06146 85.000
47.08140 90.000
47.10135 76.000
47.12130 74.000
47.14124 81.000
47.16119 74.000
47.18114 67.000
47.20108 89.000
47.22103 75.000
47.24098 78.000
47.26092 72.000
47.28087 72.000
47.30082 70.000
47.32077 73.000
47.34071 56.000
47.36066 65.000
47.38061 93.000
47.40055 90.000
47.42050 77.000
47.44045 83.000
47.46039 72.000
47.48034 75.000
47.50029 72.000
47.52024 64.000
47.54018 82.000
47.56013 70.000
47.58008 72.000
47.60002 70.000
47.61997 82.000
47.63992 59.000
47.65986 76.000
47.67981 77.000
47.69976 74.000
47.71970 94.000
47.73965 81.000
47.75960 85.000
47.77955 93.000
47.79949 71.000
47.81944 75.000
47.83939 88.000
47.85933 86.000
47.87928 88.000
47.89923 72.000
47.91917 78.000
47.93912 82.000
47.95907 91.000
47.97902 101.000
47.99896 82.000
48.01891 90.000
48.03886 98.000
48.05880 80.000
48.07875 79.000
48.09870 86.000
48.11864 72.000
48.13859 92.000
48.15854 82.000
48.17848 104.000
48.19843 86.000
48.21838 96.000
48.23833 84.000
48.25827 82.000
48.27822 80.000
48.29817 95.000
48.31811 92.000
48.33806 88.000
48.35801 87.000
48.37795 88.000
48.39790 99.000
48.41785 92.000
48.43780 85.000
48.45774 89.000
48.47769 83.000
48.49764 89.000
48.51758 93.000
48.53753 91.000
48.55748 91.000
48.57742 93.000
48.59737 83.000
48.61732 112.000
48.63726 112.000
48.65721 113.000
48.67716 107.000
48.69711 108.000
48.71705 122.000
48.73700 125.000
48.75695 124.000
48.77689 121.000
48.79684 113.000
48.81679 121.000
48.83673 133.000
48.85668 103.000
48.87663 95.000
48.89658 110.000
48.91652 105.000
48.93647 123.000
48.95642 113.000
48.97636 115.000
48.99631 96.000
49.01626 99.000
49.03620 102.000
49.05615 94.000
49.07610 102.000
49.09605 90.000
49.11599 82.000
49.13594 98.000
49.15589 105.000
49.17583 107.000
49.19578 98.000
49.21573 98.000
49.23567 104.000
49.25562 90.000
49.27557 124.000
49.29551 94.000
49.31546 89.000
49.33541 91.000
49.35536 87.000
49.37530 76.000
49.39525 92.000
49.41520 92.000
49.43514 71.000
49.45509 80.000
49.47504 77.000
49.49498 79.000
49.51493 99.000
49.53488 85.000
49.55483 79.000
49.57477 102.000
49.59472 91.000
49.61467 83.000
49.63461 67.000
49.65456 79.000
49.67451 80.000
49.69445 94.000
49.71440 83.000
49.73435 70.000
49.75429 66.000
49.77424 89.000
49.79419 71.000
49.81414 84.000
49.83408 63.000
49.85403 71.000
49.87398 90.000
49.89392 88.000
49.91387 83.000
49.93382 87.000
49.95376 80.000
49.97371 75.000
49.99366 57.000
50.01361 91.000
50.03355 96.000
50.05350 91.000
50.07345 85.000
50.09339 87.000
50.11334 71.000
50.13329 79.000
50.15323 70.000
50.17318 86.000
50.19313 83.000
50.21307 75.000
50.23302 92.000
50.25297 79.000
50.27292 73.000
50.29286 75.000
50.31281 68.000
50.33276 83.000
50.35270 65.000
50.37265 84.000
50.39260 68.000
50.41254 88.000
50.43249 83.000
50.45244 79.000
50.47239 78.000
50.49233 93.000
50.51228 86.000
50.53223 67.000
50.55217 74.000
50.57212 65.000
50.59207 78.000
50.61201 85.000
50.63196 89.000
50.65191 87.000
50.67186 78.000
50.69180 91.000
50.71175 97.000
50.73170 70.000
50.75164 89.000
50.77159 93.000
50.79154 98.000
50.81148 79.000
50.83143 66.000
50.85138 100.000
50.87132 71.000
50.89127 93.000
50.91122 105.000
50.93117 100.000
50.95111 108.000
50.97106 104.000
50.99101 101.000
51.01095 107.000
51.03090 107.000
51.05085 97.000
51.07079 94.000
51.09074 84.000
51.11069 96.000
51.13064 89.000
51.15058 98.000
51.17053 83.000
51.19048 88.000
51.21042 82.000
51.23037 71.000
51.25032 79.000
51.27026 90.000
51.29021 78.000
51.31016 80.000
51.33010 88.000
51.35005 84.000
51.37000 108.000
51.38995 79.000
51.40989 92.000
51.42984 93.000
51.44979 76.000
51.46973 79.000
51.48968 76.000
51.50963 78.000
51.52957 80.000
51.54952 82.000
51.56947 84.000
51.58942 70.000
51.60936 79.000
51.62931 89.000
51.64926 76.000
51.66920 73.000
51.68915 69.000
51.70910 84.000
51.72904 91.000
51.74899 74.000
51.76894 91.000
51.78888 74.000
51.80883 77.000
51.82878 67.000
51.84873 73.000
51.86867 93.000
51.88862 65.000
51.90857 90.000
51.92851 85.000
51.94846 79.000
51.96841 87.000
51.98835 87.000
52.00830 81.000
52.02825 97.000
52.04820 83.000
52.06814 76.000
52.08809 84.000
52.10804 89.000
52.12798 94.000
52.14793 101.000
52.16788 81.000
52.18782 67.000
52.20777 80.000
52.22772 93.000
52.24767 86.000
52.26761 77.000
52.28756 79.000
52.30751 66.000
52.32745 97.000
52.34740 99.000
52.36735 83.000
52.38729 75.000
52.40724 88.000
52.42719 93.000
52.44713 81.000
52.46708 97.000
52.48703 88.000
52.50698 87.000
52.52692 83.000
52.54687 89.000
52.56682 99.000
52.58676 78.000
52.60671 71.000
52.62666 75.000
52.64660 85.000
52.66655 104.000
52.68650 101.000
52.70645 105.000
52.72639 82.000
52.74634 115.000
52.76629 108.000
52.78623 103.000
52.80618 107.000
52.82613 125.000
52.84607 120.000
52.86602 108.000
52.88597 121.000
52.90591 123.000
52.92586 138.000
52.94581 160.000
52.96576 162.000
52.98570 214.000
53.00565 233.000
53.02560 242.000
53.04554 268.000
53.06549 281.000
53.08544 298.000
53.10538 274.000
53.12533 262.000
53.14528 275.000
53.16523 207.000
53.18517 233.000
53.20512 217.000
53.22507 199.000
53.24501 189.000
53.26496 182.000
53.28491 142.000
53.30485 170.000
53.32480 122.000
53.34475 120.000
53.36469 110.000
53.38464 97.000
53.40459 110.000
53.42454 111.000
53.44448 99.000
53.46443 110.000
53.48438 97.000
53.50432 109.000
53.52427 98.000
53.54422 92.000
53.56416 99.000
53.58411 88.000
53.60406 94.000
53.62401 128.000
53.64395 111.000
53.66390 92.000
53.68385 99.000
53.70379 95.000
53.72374 111.000
53.74369 117.000
53.76363 94.000
53.78358 99.000
53.80353 101.000
53.82348 98.000
53.84342 90.000
53.86337 93.000
53.88332 98.000
53.90326 113.000
53.92321 94.000
53.94316 91.000
53.96310 84.000
53.98305 87.000
54.00300 82.000
54.02294 88.000
54.04289 90.000
54.06284 98.000
54.08279 80.000
54.10273 93.000
54.12268 99.000
54.14263 81.000
54.16257 91.000
54.18252 83.000
54.20247 71.000
54.22241 89.000
54.24236 75.000
54.26231 82.000
54.28226 81.000
54.30220 76.000
54.32215 82.000
54.34210 97.000
54.36204 79.000
54.38199 79.000
54.40194 89.000
54.42188 83.000
54.44183 76.000
54.46178 89.000
54.48172 65.000
54.50167 79.000
54.52162 91.000
54.54157 91.000
54.56151 77.000
54.58146 97.000
54.60141 81.000
54.62135 70.000
54.64130 72.000
54.66125 72.000
54.68119 96.000
54.70114 72.000
54.72109 74.000
54.74104 79.000
54.76098 78.000
54.78093 97.000
54.80088 91.000
54.82082 83.000
54.84077 86.000
54.86072 88.000
54.88066 81.000
54.90061 81.000
54.92056 85.000
54.94050 87.000
54.96045 80.000
54.98040 91.000
55.00035 104.000
55.02029 113.000
55.04024 87.000
55.06019 88.000
55.08013 98.000
55.10008 97.000
55.12003 94.000
55.13997 98.000
55.15992 108.000
55.17987 84.000
55.19982 87.000
55.21976 95.000
55.23971 125.000
55.25966 91.000
55.27960 100.000
55.29955 96.000
55.31950 106.000
55.33944 98.000
55.35939 113.000
55.37934 81.000
55.39929 98.000
55.41923 93.000
55.43918 108.000
55.45913 100.000
55.47907 92.000
55.49902 100.000
55.51897 94.000
55.53891 106.000
55.55886 104.000
55.57881 90.000
55.59875 91.000
55.61870 81.000
55.63865 88.000
55.65860 85.000
55.67854 94.000
55.69849 90.000
55.71844 76.000
55.73838 84.000
55.75833 78.000
55.77828 78.000
55.79822 75.000
55.81817 78.000
55.83812 78.000
55.85807 90.000
55.87801 86.000
55.89796 88.000
55.91791 86.000
55.93785 91.000
55.95780 84.000
55.97775 73.000
55.99769 78.000
56.01764 101.000
56.03759 73.000
56.05753 73.000
56.07748 78.000
56.09743 82.000
56.11738 73.000
56.13732 85.000
56.15727 83.000
56.17722 78.000
56.19716 76.000
56.21711 81.000
56.23706 77.000
56.25700 70.000
56.27695 66.000
56.29690 88.000
56.31685 77.000
56.33679 87.000
56.35674 68.000
56.37669 80.000
56.39663 94.000
56.41658 76.000
56.43653 79.000
56.45647 75.000
56.47642 87.000
56.49637 66.000
56.51631 74.000
56.53626 93.000
56.55621 81.000
56.57616 85.000
56.59610 82.000
56.61605 90.000
56.63600 89.000
56.65594 87.000
56.67589 81.000
56.69584 91.000
56.71578 95.000
56.73573 107.000
56.75568 98.000
56.77563 86.000
56.79557 102.000
56.81552 90.000
56.83547 111.000
56.85541 92.000
56.87536 96.000
56.89531 80.000
56.91525 89.000
56.93520 102.000
56.95515 92.000
56.97510 90.000
56.99504 99.000
57.01499 112.000
57.03494 96.000
57.05488 101.000
57.07483 120.000
57.09478 110.000
57.11472 130.000
57.13467 126.000
57.15462 104.000
57.17456 135.000
57.19451 126.000
57.21446 114.000
57.23441 124.000
57.25435 126.000
57.27430 108.000
57.29425 130.000
57.31419 123.000
57.33414 120.000
57.35409 124.000
57.37403 134.000
57.39398 113.000
57.41393 121.000
57.43388 132.000
57.45382 144.000
57.47377 155.000
57.49372 109.000
57.51366 127.000
57.53361 152.000
57.55356 155.000
57.57350 142.000
57.59345 157.000
57.61340 165.000
57.63334 190.000
57.65329 203.000
57.67324 209.000
57.69319 243.000
57.71313 268.000
57.73308 282.000
57.75303 338.000
57.77297 414.000
57.79292 482.000
57.81287 531.000
57.83281 556.000
57.85276 580.000
57.87271 579.000
57.89266 526.000
57.91260 439.000
57.93255 439.000
57.95250 414.000
57.97244 377.000
57.99239 363.000
58.01234 370.000
58.03228 319.000
58.05223 306.000
58.07218 219.000
58.09212 211.000
58.11207 165.000
58.13202 187.000
58.15197 153.000
58.17191 144.000
58.19186 142.000
58.21181 127.000
58.23175 134.000
58.25170 134.000
58.27165 137.000
58.29159 112.000
58.31154 138.000
58.33149 117.000
58.35144 114.000
58.37138 130.000
58.39133 122.000
58.41128 124.000
58.43122 104.000
58.45117 96.000
58.47112 94.000
58.49106 106.000
58.51101 101.000
58.53096 105.000
58.55090 81.000
58.57085 92.000
58.59080 85.000
58.61075 79.000
58.63069 108.000
58.65064 92.000
58.67059 82.000
58.69053 89.000
58.71048 99.000
58.73043 91.000
58.75037 88.000
58.77032 97.000
58.79027 104.000
58.81022 92.000
58.83016 98.000
58.85011 104.000
58.87006 99.000
58.89000 79.000
58.90995 86.000
58.92990 88.000
58.94984 98.000
58.96979 99.000
58.98974 93.000
59.00969 81.000
59.02963 92.000
59.04958 98.000
59.06953 85.000
59.08947 78.000
59.10942 103.000
59.12937 85.000
59.14931 88.000
59.16926 79.000
59.18921 82.000
59.20915 89.000
59.22910 82.000
59.24905 86.000
59.26900 87.000
59.28894 85.000
59.30889 76.000
59.32884 81.000
59.34878 88.000
59.36873 79.000
59.38868 97.000
59.40862 86.000
59.42857 85.000
59.44852 92.000
59.46847 71.000
59.48841 80.000
59.50836 88.000
59.52831 85.000
59.54825 95.000
59.56820 91.000
59.58815 94.000
59.60809 91.000
59.62804 106.000
59.64799 80.000
59.66793 69.000
59.68788 93.000
59.70783 93.000
59.72778 91.000
59.74772 110.000
59.76767 97.000
59.78762 86.000
59.80756 93.000
59.82751 109.000
59.84746 125.000
59.86740 118.000
59.88735 102.000
59.90730 117.000
59.92725 109.000
59.94719 137.000
59.96714 108.000
59.98709 116.000
60.00703 129.000
60.02698 113.000
60.04693 122.000
60.06687 112.000
60.08682 125.000
60.10677 104.000
60.12671 108.000
60.14666 125.000
60.16661 106.000
60.18656 103.000
60.20650 117.000
60.22645 104.000
60.24640 111.000
60.26634 100.000
60.28629 117.000
60.30624 112.000
60.32618 106.000
60.34613 75.000
60.36608 93.000
60.38603 103.000
60.40597 95.000
60.42592 101.000
60.44587 90.000
60.46581 93.000
60.48576 97.000
60.50571 101.000
60.52565 79.000
60.54560 111.000
60.56555 94.000
60.58550 80.000
60.60544 95.000
60.62539 107.000
60.64534 98.000
60.66528 97.000
60.68523 93.000
60.70518 106.000
60.72512 126.000
60.74507 108.000
60.76502 90.000
60.78496 87.000
60.80491 102.000
60.82486 89.000
60.84481 91.000
60.86475 102.000
60.88470 100.000
60.90465 97.000
60.92459 97.000
60.94454 106.000
60.96449 111.000
60.98443 107.000
61.00438 93.000
61.02433 116.000
61.04428 93.000
61.06422 116.000
61.08417 126.000
61.10412 117.000
61.12406 118.000
61.14401 124.000
61.16396 127.000
61.18390 112.000
61.20385 141.000
61.22380 151.000
61.24374 138.000
61.26369 163.000
61.28364 149.000
61.30359 164.000
61.32353 167.000
61.34348 151.000
61.36343 177.000
61.38337 165.000
61.40332 181.000
61.42327 180.000
61.44321 240.000
61.46316 241.000
61.48311 254.000
61.50306 290.000
61.52300 389.000
61.54295 367.000
61.56290 430.000
61.58284 459.000
61.60279 475.000
61.62274 457.000
61.64268 435.000
61.66263 469.000
61.68258 489.000
61.70252 476.000
61.72247 439.000
61.74242 406.000
61.76237 469.000
61.78231 391.000
61.80226 395.000
61.82221 383.000
61.84215 340.000
61.86210 307.000
61.88205 304.000
61.90199 268.000
61.92194 249.000
61.94189 242.000
61.96184 207.000
61.98178 219.000
62.00173 194.000
62.02168 148.000
62.04162 159.000
62.06157 161.000
62.08152 164.000
62.10146 168.000
62.12141 173.000
62.14136 127.000
62.16131 157.000
62.18125 154.000
62.20120 149.000
62.22115 131.000
62.24109 151.000
62.26104 136.000
62.28099 133.000
62.30093 142.000
62.32088 136.000
62.34083 151.000
62.36077 144.000
62.38072 136.000
62.40067 116.000
62.42062 132.000
62.44056 146.000
62.46051 146.000
62.48046 120.000
62.50040 129.000
62.52035 136.000
62.54030 149.000
62.56024 103.000
62.58019 119.000
62.60014 118.000
62.62009 123.000
62.64003 115.000
62.65998 139.000
62.67993 105.000
62.69987 135.000
62.71982 116.000
62.73977 129.000
62.75971 120.000
62.77966 124.000
62.79961 122.000
62.81955 111.000
62.83950 141.000
62.85945 130.000
62.87940 111.000
62.89934 131.000
62.91929 109.000
62.93924 112.000
62.95918 131.000
62.97913 116.000
62.99908 97.000
63.01902 108.000
63.03897 110.000
63.05892 107.000
63.07887 107.000
63.09881 82.000
63.11876 107.000
63.13871 98.000
63.15865 102.000
63.17860 97.000
63.19855 110.000
63.21849 91.000
63.23844 81.000
63.25839 115.000
63.27833 98.000
63.29828 88.000
63.31823 71.000
63.33818 69.000
63.35812 84.000
63.37807 86.000
63.39802 103.000
63.41796 97.000
63.43791 86.000
63.45786 94.000
63.47780 70.000
63.49775 91.000
63.51770 75.000
63.53765 80.000
63.55759 93.000
63.57754 93.000
63.59749 86.000
63.61743 98.000
63.63738 88.000
63.65733 94.000
63.67727 92.000
63.69722 86.000
63.71717 90.000
63.73712 87.000
63.75706 86.000
63.77701 110.000
63.79696 106.000
63.81690 92.000
63.83685 91.000
63.85680 94.000
63.87674 87.000
63.89669 109.000
63.91664 90.000
63.93658 85.000
63.95653 90.000
63.97648 108.000
63.99643 94.000
64.01637 116.000
64.03632 89.000
64.05627 96.000
64.07621 124.000
64.09616 109.000
64.11611 120.000
64.13605 139.000
64.15600 126.000
64.17595 139.000
64.19590 142.000
64.21584 182.000
64.23579 146.000
64.25574 184.000
64.27568 167.000
64.29563 188.000
64.31558 179.000
64.33552 162.000
64.35547 162.000
64.37542 193.000
64.39536 172.000
64.41531 158.000
64.43526 163.000
64.45521 153.000
64.47515 177.000
64.49510 138.000
64.51505 136.000
64.53499 142.000
64.55494 113.000
64.57489 134.000
64.59483 137.000
64.61478 109.000
64.63473 118.000
64.65468 100.000
64.67462 103.000
64.69457 100.000
64.71452 113.000
64.73446 108.000
64.75441 112.000
64.77436 81.000
64.79430 88.000
64.81425 89.000
64.83420 95.000
64.85414 98.000
64.87409 99.000
64.89404 92.000
64.91399 94.000
64.93393 88.000
64.95388 99.000
64.97383 86.000
64.99377 100.000
65.01372 100.000
65.03367 89.000
65.05361 80.000
65.07356 97.000
65.09351 76.000
65.11346 91.000
65.13340 82.000
65.15335 91.000
65.17330 92.000
65.19324 78.000
65.21319 107.000
65.23314 97.000
65.25308 95.000
65.27303 92.000
65.29298 103.000
65.31293 111.000
65.33287 77.000
65.35282 97.000
65.37277 85.000
65.39271 98.000
65.41266 93.000
65.43261 103.000
65.45255 112.000
65.47250 89.000
65.49245 116.000
65.51239 117.000
65.53234 112.000
65.55229 93.000
65.57224 85.000
65.59218 111.000
65.61213 115.000
65.63208 118.000
65.65202 121.000
65.67197 123.000
65.69192 121.000
65.71186 104.000
65.73181 111.000
65.75176 106.000
65.77171 95.000
65.79165 110.000
65.81160 96.000
65.83155 89.000
65.85149 104.000
65.87144 106.000
65.89139 119.000
65.91133 117.000
65.93128 105.000
65.95123 116.000
65.97117 109.000
65.99112 126.000
66.01107 118.000
66.03102 99.000
66.05096 89.000
66.07091 109.000
66.09086 113.000
66.11080 108.000
66.13075 102.000
66.15070 108.000
66.17064 87.000
66.19059 134.000
66.21054 109.000
66.23049 134.000
66.25043 114.000
66.27038 112.000
66.29033 98.000
66.31027 100.000
66.33022 100.000
66.35017 109.000
66.37011 114.000
66.39006 106.000
66.41001 91.000
66.42995 101.000
66.44990 88.000
66.46985 96.000
66.48980 100.000
66.50974 106.000
66.52969 96.000
66.54964 80.000
66.56958 104.000
66.58953 82.000
66.60948 74.000
66.62942 93.000
66.64937 80.000
66.66932 88.000
66.68927 98.000
66.70921 85.000
66.72916 76.000
66.74911 92.000
66.76905 58.000
66.78900 83.000
66.80895 100.000
66.82889 86.000
66.84884 79.000
66.86879 84.000
66.88874 67.000
66.90868 103.000
66.92863 78.000
66.94858 89.000
66.96852 91.000
66.98847 87.000
67.00842 84.000
67.02836 80.000
67.04831 93.000
67.06826 77.000
67.08820 85.000
67.10815 77.000
67.12810 85.000
67.14805 87.000
67.16799 90.000
67.18794 78.000
67.20789 90.000
67.22783 78.000
67.24778 80.000
67.26773 78.000
67.28767 93.000
67.30762 67.000
67.32757 87.000
67.34752 73.000
67.36746 72.000
67.38741 82.000
67.40736 83.000
67.42730 88.000
67.44725 75.000
67.46720 77.000
67.48714 101.000
67.50709 93.000
67.52704 100.000
67.54698 98.000
67.56693 107.000
67.58688 93.000
67.60683 88.000
67.62677 79.000
67.64672 88.000
67.66667 83.000
67.68661 92.000
67.70656 72.000
67.72651 97.000
67.74645 94.000
67.76640 104.000
67.78635 87.000
67.80630 92.000
67.82624 81.000
67.84619 88.000
67.86614 104.000
67.88608 84.000
67.90603 100.000
67.92598 108.000
67.94592 78.000
67.96587 112.000
67.98582 108.000
68.00576 116.000
68.02571 106.000
68.04566 95.000
68.06561 93.000
68.08555 115.000
68.10550 106.000
68.12545 112.000
68.14539 106.000
68.16534 112.000
68.18529 104.000
68.20523 117.000
68.22518 119.000
68.24513 127.000
68.26508 120.000
68.28502 126.000
68.30497 147.000
68.32492 127.000
68.34486 152.000
68.36481 159.000
68.38476 179.000
68.40470 175.000
68.42465 201.000
68.44460 183.000
68.46455 183.000
68.48449 173.000
68.50444 174.000
68.52439 175.000
68.54433 161.000
68.56428 153.000
68.58423 168.000
68.60417 137.000
68.62412 154.000
68.64407 119.000
68.66401 133.000
68.68396 136.000
68.70391 114.000
68.72386 111.000
68.74380 106.000
68.76375 98.000
68.78370 91.000
68.80364 95.000
68.82359 82.000
68.84354 83.000
68.86348 84.000
68.88343 95.000
68.90338 86.000
68.92333 96.000
68.94327 76.000
68.96322 87.000
68.98317 80.000
69.00311 98.000
69.02306 76.000
69.04301 101.000
69.06295 70.000
69.08290 83.000
69.10285 77.000
69.12279 89.000
69.14274 85.000
69.16269 98.000
69.18264 72.000
69.20258 84.000
69.22253 74.000
69.24248 79.000
69.26242 94.000
69.28237 94.000
69.30232 76.000
69.32226 81.000
69.34221 83.000
69.36216 63.000
69.38211 82.000
69.40205 79.000
69.42200 91.000
69.44195 95.000
69.46189 89.000
69.48184 77.000
69.50179 71.000
69.52173 66.000
69.54168 66.000
69.56163 60.000
69.58157 92.000
69.60152 98.000
69.62147 89.000
69.64142 72.000
69.66136 81.000
69.68131 84.000
69.70126 110.000
69.72120 86.000
69.74115 92.000
69.76110 97.000
69.78104 85.000
69.80099 97.000
69.82094 82.000
69.84089 91.000
69.86083 112.000
69.88078 100.000
69.90073 84.000
69.92067 112.000
69.94062 122.000
69.96057 116.000
69.98051 124.000
70.00046 107.000
70.02041 119.000
70.04035 125.000
70.06030 122.000
70.08025 137.000
70.10020 108.000
70.12014 140.000
70.14009 110.000
70.16004 104.000
70.17998 115.000
70.19993 84.000
70.21988 81.000
70.23982 82.000
70.25977 106.000
70.27972 91.000
70.29967 95.000
70.31961 97.000
70.33956 90.000
70.35951 87.000
70.37945 77.000
70.39940 96.000
70.41935 87.000
70.43929 88.000
70.45924 83.000
70.47919 76.000
70.49914 69.000
70.51908 65.000
70.53903 75.000
70.55898 71.000
70.57892 82.000
70.59887 74.000
70.61882 90.000
70.63876 65.000
70.65871 76.000
70.67866 77.000
70.69860 84.000
70.71855 69.000
70.73850 80.000
70.75845 67.000
70.77839 93.000
70.79834 79.000
70.81829 73.000
70.83823 91.000
70.85818 62.000
70.87813 65.000
70.89807 84.000
70.91802 86.000
70.93797 77.000
70.95792 63.000
70.97786 67.000
70.99781 78.000
71.01776 77.000
71.03770 77.000
71.05765 102.000
71.07760 97.000
71.09754 95.000
71.11749 77.000
71.13744 75.000
71.15738 87.000
71.17733 78.000
71.19728 84.000
71.21723 104.000
71.23717 92.000
71.25712 94.000
71.27707 88.000
71.29701 93.000
71.31696 79.000
71.33691 82.000
71.35685 84.000
71.37680 75.000
71.39675 85.000
71.41670 91.000
71.43664 83.000
71.45659 92.000
71.47654 93.000
71.49648 96.000
71.51643 106.000
71.53638 88.000
71.55632 77.000
71.57627 80.000
71.59622 112.000
71.61616 91.000
71.63611 91.000
71.65606 112.000
71.67601 111.000
71.69595 107.000
71.71590 120.000
71.73585 99.000
71.75579 123.000
71.77574 133.000
71.79569 131.000
71.81563 152.000
71.83558 162.000
71.85553 170.000
71.87548 203.000
71.89542 184.000
71.91537 179.000
71.93532 176.000
71.95526 154.000
71.97521 216.000
71.99516 178.000
72.01510 187.000
72.03505 167.000
72.05500 161.000
72.07495 162.000
72.09489 163.000
72.11484 170.000
72.13479 170.000
72.15473 148.000
72.17468 142.000
72.19463 160.000
72.21457 160.000
72.23452 128.000
72.25447 130.000
72.27441 131.000
72.29436 135.000
72.31431 133.000
72.33426 115.000
72.35420 106.000
72.37415 119.000
72.39410 109.000
72.41404 125.000
72.43399 100.000
72.45394 92.000
72.47388 107.000
72.49383 110.000
72.51378 107.000
72.53373 89.000
72.55367 94.000
72.57362 111.000
72.59357 92.000
72.61351 92.000
72.63346 112.000
72.65341 98.000
72.67335 98.000
72.69330 91.000
72.71325 89.000
72.73319 98.000
72.75314 88.000
72.77309 96.000
72.79304 104.000
72.81298 111.000
72.83293 92.000
72.85288 92.000
72.87282 100.000
72.89277 90.000
72.91272 84.000
72.93266 102.000
72.95261 105.000
72.97256 98.000
72.99251 87.000
73.01245 100.000
73.03240 101.000
73.05235 110.000
73.07229 94.000
73.09224 85.000
73.11219 96.000
73.13213 75.000
73.15208 69.000
73.17203 102.000
73.19197 72.000
73.21192 102.000
73.23187 70.000
73.25182 94.000
73.27176 87.000
73.29171 86.000
73.31166 92.000
73.33160 87.000
73.35155 75.000
73.37150 92.000
73.39144 104.000
73.41139 96.000
73.43134 104.000
73.45129 95.000
73.47123 92.000
73.49118 93.000
73.51113 98.000
73.53107 111.000
73.55102 113.000
73.57097 104.000
73.59091 141.000
73.61086 116.000
73.63081 119.000
73.65076 108.000
73.67070 115.000
73.69065 123.000
73.71060 103.000
73.73054 134.000
73.75049 112.000
73.77044 135.000
73.79038 127.000
73.81033 132.000
73.83028 141.000
73.85022 99.000
73.87017 122.000
73.89012 122.000
73.91007 125.000
73.93001 121.000
73.94996 121.000
73.96991 93.000
73.98985 118.000
74.00980 107.000
74.02975 111.000
74.04969 116.000
74.06964 127.000
74.08959 125.000
74.10954 130.000
74.12948 138.000
74.14943 122.000
74.16938 133.000
74.18932 140.000
74.20927 141.000
74.22922 136.000
74.24916 114.000
74.26911 149.000
74.28906 148.000
74.30900 125.000
74.32895 139.000
74.34890 111.000
74.36885 124.000
74.38879 128.000
74.40874 120.000
74.42869 119.000
74.44863 126.000
74.46858 105.000
74.48853 112.000
74.50847 127.000
74.52842 112.000
74.54837 112.000
74.56832 99.000
74.58826 93.000
74.60821 99.000
74.62816 87.000
74.64810 105.000
74.66805 106.000
74.68800 99.000
74.70794 85.000
74.72789 94.000
74.74784 105.000
74.76778 97.000
74.78773 83.000
74.80768 95.000
74.82763 92.000
74.84757 74.000
74.86752 84.000
74.88747 101.000
74.90741 105.000
74.92736 86.000
74.94731 94.000
74.96725 119.000
74.98720 85.000
75.00715 93.000
75.02710 82.000
75.04704 85.000
75.06699 87.000
75.08694 97.000
75.10688 87.000
75.12683 90.000
75.14678 87.000
75.16672 68.000
75.18667 78.000
75.20662 83.000
75.22657 85.000
75.24651 97.000
75.26646 88.000
75.28641 86.000
75.30635 88.000
75.32630 90.000
75.34625 85.000
75.36619 94.000
75.38614 94.000
75.40609 96.000
75.42603 79.000
75.44598 93.000
75.46593 89.000
75.48588 82.000
75.50582 108.000
75.52577 62.000
75.54572 57.000
75.56566 68.000
75.58561 81.000
75.60556 79.000
75.62550 79.000
75.64545 86.000
75.66540 89.000
75.68535 73.000
75.70529 66.000
75.72524 101.000
75.74519 77.000
75.76513 67.000
75.78508 75.000
75.80503 72.000
75.82497 76.000
75.84492 75.000
75.86487 85.000
75.88481 75.000
75.90476 65.000
75.92471 69.000
75.94466 84.000
75.96460 78.000
75.98455 76.000
76.00450 86.000
76.02444 81.000
76.04439 87.000
76.06434 65.000
76.08428 77.000
76.10423 76.000
76.12418 77.000
76.14413 83.000
76.16407 67.000
76.18402 82.000
76.20397 85.000
76.22391 76.000
76.24386 84.000
76.26381 73.000
76.28375 83.000
76.30370 88.000
76.32365 86.000
76.34359 70.000
76.36354 83.000
76.38349 73.000
76.40344 74.000
76.42338 70.000
76.44333 82.000
76.46328 77.000
76.48322 74.000
76.50317 81.000
76.52312 100.000
76.54306 99.000
76.56301 90.000
76.58296 84.000
76.60291 96.000
76.62285 88.000
76.64280 94.000
76.66275 109.000
76.68269 96.000
76.70264 120.000
76.72259 125.000
76.74253 124.000
76.76248 159.000
76.78243 153.000
76.80238 147.000
76.82232 213.000
76.84227 186.000
76.86222 166.000
76.88216 192.000
76.90211 177.000
76.92206 192.000
76.94200 162.000
76.96195 195.000
76.98190 171.000
77.00184 180.000
77.02179 163.000
77.04174 167.000
77.06169 184.000
77.08163 164.000
77.10158 165.000
77.12153 187.000
77.14147 167.000
77.16142 138.000
77.18137 137.000
77.20131 116.000
77.22126 130.000
77.24121 126.000
77.26116 118.000
77.28110 114.000
77.30105 146.000
77.32100 105.000
77.34094 117.000
77.36089 110.000
77.38084 109.000
77.40078 102.000
77.42073 97.000
77.44068 107.000
77.46062 102.000
77.48057 76.000
77.50052 97.000
77.52047 107.000
77.54041 98.000
77.56036 112.000
77.58031 94.000
77.60025 93.000
77.62020 100.000
77.64015 91.000
77.66009 83.000
77.68004 87.000
77.69999 110.000
77.71994 84.000
77.73988 74.000
77.75983 89.000
77.77978 86.000
77.79972 70.000
77.81967 90.000
77.83962 96.000
77.85956 82.000
77.87951 93.000
77.89946 77.000
77.91940 72.000
77.93935 81.000
77.95930 74.000
77.97925 67.000
77.99919 72.000
78.01914 80.000
78.03909 75.000
78.05903 87.000
78.07898 97.000
78.09893 62.000
78.11887 85.000
78.13882 84.000
78.15877 62.000
78.17872 76.000
78.19866 61.000
78.21861 81.000
78.23856 61.000
78.25850 72.000
78.27845 92.000
78.29840 72.000
78.31834 96.000
78.33829 72.000
78.35824 65.000
78.37819 93.000
78.39813 80.000
78.41808 75.000
78.43803 73.000
78.45797 67.000
78.47792 83.000
78.49787 82.000
78.51781 80.000
78.53776 80.000
78.55771 63.000
78.57765 66.000
78.59760 84.000
78.61755 82.000
78.63750 70.000
78.65744 59.000
78.67739 49.000
78.69734 65.000
78.71728 72.000
78.73723 79.000
78.75718 90.000
78.77712 82.000
78.79707 87.000
78.81702 72.000
78.83697 75.000
78.85691 65.000
78.87686 88.000
78.89681 80.000
78.91675 87.000
78.93670 80.000
78.95665 78.000
78.97659 78.000
78.99654 66.000
79.01649 92.000
79.03643 86.000
79.05638 79.000
79.07633 85.000
79.09628 73.000
79.11622 95.000
79.13617 79.000
79.15612 88.000
79.17606 81.000
79.19601 79.000
79.21596 73.000
79.23590 82.000
79.25585 74.000
79.27580 101.000
79.29575 86.000
79.31569 85.000
79.33564 87.000
79.35559 84.000
79.37553 88.000
79.39548 88.000
79.41543 84.000
79.43537 83.000
79.45532 97.000
79.47527 77.000
79.49521 68.000
79.51516 64.000
79.53511 82.000
79.55506 68.000
79.57500 87.000
79.59495 65.000
79.61490 72.000
79.63484 79.000
79.65479 78.000
79.67474 76.000
79.69468 77.000
79.71463 77.000
79.73458 69.000
79.75453 76.000
79.77447 82.000
79.79442 79.000
79.81437 78.000
79.83431 68.000
79.85426 78.000
79.87421 62.000
79.89415 81.000
79.91410 74.000
79.93405 73.000
79.95399 73.000
79.97394 67.000
79.99389 82.000
80.01384 74.000
80.03378 94.000
80.05373 63.000
80.07368 60.000
80.09362 76.000
80.11357 77.000
80.13352 67.000
80.15346 74.000
80.17341 83.000
80.19336 74.000
80.21331 89.000
80.23325 69.000
80.25320 88.000
80.27315 88.000
80.29309 79.000
80.31304 76.000
80.33299 80.000
80.35293 77.000
80.37288 78.000
80.39283 71.000
80.41278 85.000
80.43272 64.000
80.45267 82.000
80.47262 89.000
80.49256 81.000
80.51251 83.000
80.53246 82.000
80.55240 84.000
80.57235 80.000
80.59230 74.000
80.61224 77.000
80.63219 68.000
80.65214 74.000
80.67209 69.000
80.69203 79.000
80.71198 68.000
80.73193 64.000
80.75187 74.000
80.77182 63.000
80.79177 59.000
80.81171 67.000
80.83166 73.000
80.85161 66.000
80.87156 61.000
80.89150 64.000
80.91145 60.000
80.93140 73.000
80.95134 55.000
80.97129 80.000
80.99124 61.000
81.01118 65.000
81.03113 81.000
81.05108 82.000
81.07102 63.000
81.09097 71.000
81.11092 62.000
81.13087 80.000
81.15081 72.000
81.17076 62.000
81.19071 76.000
81.21065 84.000
81.23060 69.000
81.25055 74.000
81.27049 79.000
81.29044 65.000
81.31039 79.000
81.33034 79.000
81.35028 84.000
81.37023 75.000
81.39018 74.000
81.41012 69.000
81.43007 81.000
81.45002 62.000
81.46996 68.000
81.48991 82.000
81.50986 69.000
81.52980 65.000
81.54975 80.000
81.56970 74.000
81.58965 82.000
81.60959 86.000
81.62954 92.000
81.64949 63.000
81.66943 77.000
81.68938 77.000
81.70933 93.000
81.72927 84.000
81.74922 73.000
81.76917 76.000
81.78912 66.000
81.80906 82.000
81.82901 65.000
81.84896 69.000
81.86890 79.000
81.88885 81.000
81.90880 62.000
81.92874 77.000
81.94869 89.000
81.96864 78.000
81.98859 61.000
82.00853 79.000
82.02848 73.000
82.04843 50.000
82.06837 81.000
82.08832 80.000
82.10827 65.000
82.12821 85.000
82.14816 82.000
82.16811 73.000
82.18805 89.000
82.20800 61.000
82.22795 79.000
82.24790 82.000
82.26784 71.000
82.28779 83.000
82.30774 90.000
82.32768 90.000
82.34763 104.000
82.36758 84.000
82.38752 82.000
82.40747 74.000
82.42742 81.000
82.44737 73.000
82.46731 80.000
82.48726 66.000
82.50721 91.000
82.52715 80.000
82.54710 78.000
82.56705 86.000
82.58699 76.000
82.60694 80.000
82.62689 80.000
82.64683 75.000
82.66678 77.000
82.68673 78.000
82.70668 81.000
82.72662 74.000
82.74657 100.000
82.76652 82.000
82.78646 83.000
82.80641 93.000
82.82636 58.000
82.84630 89.000
82.86625 78.000
82.88620 76.000
82.90615 76.000
82.92609 66.000
82.94604 105.000
82.96599 87.000
82.98593 74.000
83.00588 82.000
83.02583 92.000
83.04577 85.000
83.06572 94.000
83.08567 86.000
83.10561 76.000
83.12556 94.000
83.14551 78.000
83.16546 63.000
83.18540 75.000
83.20535 94.000
83.22530 63.000
83.24524 74.000
83.26519 81.000
83.28514 78.000
83.30508 77.000
83.32503 74.000
83.34498 92.000
83.36493 83.000
83.38487 82.000
83.40482 67.000
83.42477 88.000
83.44471 78.000
83.46466 88.000
83.48461 79.000
83.50455 73.000
83.52450 82.000
83.54445 89.000
83.56440 67.000
83.58434 73.000
83.60429 81.000
83.62424 75.000
83.64418 94.000
83.66413 86.000
83.68408 78.000
83.70402 85.000
83.72397 87.000
83.74392 81.000
83.76386 86.000
83.78381 95.000
83.80376 88.000
83.82371 80.000
83.84365 80.000
83.86360 91.000
83.88355 72.000
83.90349 101.000
83.92344 90.000
83.94339 77.000
83.96333 77.000
83.98328 97.000
84.00323 78.000
84.02318 74.000
84.04312 84.000
84.06307 70.000
84.08302 94.000
84.10296 76.000
84.12291 77.000
84.14286 89.000
84.16280 70.000
84.18275 78.000
84.20270 74.000
84.22264 98.000
84.24259 76.000
84.26254 86.000
84.28249 72.000
84.30243 70.000
84.32238 78.000
84.34233 73.000
84.36227 79.000
84.38222 79.000
84.40217 78.000
84.42211 70.000
84.44206 77.000
84.46201 82.000
84.48196 85.000
84.50190 83.000
84.52185 97.000
84.54180 69.000
84.56174 76.000
84.58169 60.000
84.60164 78.000
84.62158 86.000
84.64153 67.000
84.66148 103.000
84.68142 84.000
84.70137 68.000
84.72132 79.000
84.74127 85.000
84.76121 75.000
84.78116 74.000
84.80111 72.000
84.82105 77.000
84.84100 86.000
84.86095 90.000
84.88089 111.000
84.90084 58.000
84.92079 74.000
84.94074 78.000
84.96068 88.000
84.98063 73.000
85.00058 83.000
85.02052 73.000
85.04047 74.000
85.06042 84.000
85.08036 75.000
85.10031 80.000
85.12026 66.000
85.14021 80.000
85.16015 72.000
85.18010 87.000
85.20005 70.000
85.21999 81.000
85.23994 68.000
85.25989 78.000
85.27983 95.000
85.29978 68.000
85.31973 74.000
85.33967 72.000
85.35962 84.000
85.37957 74.000
85.39952 78.000
85.41946 83.000
85.43941 82.000
85.45936 84.000
85.47930 81.000
85.49925 86.000
85.51920 76.000
85.53914 88.000
85.55909 86.000
85.57904 103.000
85.59899 96.000
85.61893 103.000
85.63888 86.000
85.65883 96.000
85.67877 91.000
85.69872 101.000
85.71867 108.000
85.73861 93.000
85.75856 87.000
85.77851 92.000
85.79845 98.000
85.81840 100.000
85.83835 94.000
85.85830 82.000
85.87824 101.000
85.89819 107.000
85.91814 71.000
85.93808 96.000
85.95803 94.000
85.97798 76.000
85.99792 95.000
86.01787 72.000
86.03782 73.000
86.05777 75.000
86.07771 76.000
86.09766 95.000
86.11761 91.000
86.13755 92.000
86.15750 72.000
86.17745 74.000
86.19739 69.000
86.21734 72.000
86.23729 82.000
86.25723 67.000
86.27718 81.000
86.29713 81.000
86.31708 72.000
86.33702 65.000
86.35697 74.000
86.37692 80.000
86.39686 70.000
86.41681 90.000
86.43676 91.000
86.45670 80.000
86.47665 90.000
86.49660 68.000
86.51655 74.000
86.53649 72.000
86.55644 66.000
86.57639 81.000
86.59633 90.000
86.61628 85.000
86.63623 73.000
86.65617 62.000
86.67612 71.000
86.69607 66.000
86.71602 70.000
86.73596 93.000
86.75591 70.000
86.77586 82.000
86.79580 86.000
86.81575 76.000
86.83570 66.000
86.85564 77.000
86.87559 79.000
86.89554 76.000
86.91548 73.000
86.93543 62.000
86.95538 90.000
86.97533 75.000
86.99527 93.000
87.01522 75.000
87.03517 68.000
87.05511 99.000
87.07506 84.000
87.09501 87.000
87.11495 76.000
87.13490 80.000
87.15485 73.000
87.17480 83.000
87.19474 88.000
87.21469 80.000
87.23464 75.000
87.25458 70.000
87.27453 88.000
87.29448 78.000
87.31442 85.000
87.33437 84.000
87.35432 90.000
87.37426 60.000
87.39421 82.000
87.41416 73.000
87.43411 81.000
87.45405 68.000
87.47400 61.000
87.49395 71.000
87.51389 87.000
87.53384 90.000
87.55379 103.000
87.57373 83.000
87.59368 66.000
87.61363 71.000
87.63358 81.000
87.65352 66.000
87.67347 69.000
87.69342 76.000
87.71336 80.000
87.73331 76.000
87.75326 70.000
87.77320 67.000
87.79315 76.000
87.81310 81.000
87.83304 74.000
87.85299 79.000
87.87294 74.000
87.89289 65.000
87.91283 76.000
87.93278 94.000
87.95273 70.000
87.97267 81.000
87.99262 88.000
88.01257 59.000
88.03251 65.000
88.05246 73.000
88.07241 72.000
88.09236 68.000
88.11230 85.000
88.13225 69.000
88.15220 70.000
88.17214 85.000
88.19209 73.000
88.21204 86.000
88.23198 75.000
88.25193 70.000
88.27188 86.000
88.29183 92.000
88.31177 70.000
88.33172 68.000
88.35167 63.000
88.37161 54.000
88.39156 78.000
88.41151 66.000
88.43145 66.000
88.45140 68.000
88.47135 71.000
88.49129 84.000
88.51124 73.000
88.53119 75.000
88.55114 76.000
88.57108 63.000
88.59103 74.000
88.61098 74.000
88.63092 84.000
88.65087 89.000
88.67082 92.000
88.69076 67.000
88.71071 62.000
88.73066 80.000
88.75061 78.000
88.77055 92.000
88.79050 87.000
88.81045 71.000
88.83039 78.000
88.85034 83.000
88.87029 77.000
88.89023 73.000
88.91018 67.000
88.93013 84.000
88.95007 72.000
88.97002 78.000
88.98997 81.000
89.00992 76.000
89.02986 76.000
89.04981 81.000
89.06976 76.000
89.08970 81.000
89.10965 90.000
89.12960 84.000
89.14954 74.000
89.16949 88.000
89.18944 83.000
89.20939 74.000
89.22933 99.000
89.24928 94.000
89.26923 89.000
89.28917 90.000
89.30912 99.000
89.32907 85.000
89.34901 78.000
89.36896 95.000
89.38891 95.000
89.40885 100.000
89.42880 124.000
89.44875 122.000
89.46870 89.000
89.48864 127.000
89.50859 129.000
89.52854 138.000
89.54848 119.000
89.56843 129.000
89.58838 141.000
89.60832 132.000
89.62827 127.000
89.64822 154.000
89.66817 118.000
89.68811 147.000
89.70806 133.000
89.72801 139.000
89.74795 141.000
89.76790 115.000
89.78785 144.000
89.80779 127.000
89.82774 138.000
89.84769 113.000
89.86764 137.000
89.88758 123.000
89.90753 111.000
89.92748 95.000
89.94742 114.000
89.96737 105.000
89.98732 104.000
90.00726 101.000
