10.00000 132.000
10.01995 96.000
10.03989 97.000
10.05984 102.000
10.07979 89.000
10.09973 95.000
10.11968 111.000
10.13963 105.000
10.15958 98.000
10.17952 98.000
10.19947 89.000
10.21942 109.000
10.23936 78.000
10.25931 113.000
10.27926 98.000
10.29920 107.000
10.31915 110.000
10.33910 92.000
10.35905 117.000
10.37899 111.000
10.39894 96.000
10.41889 92.000
10.43883 83.000
10.45878 93.000
10.47873 110.000
10.49867 90.000
10.51862 113.000
10.53857 98.000
10.55851 115.000
10.57846 96.000
10.59841 107.000
10.61836 103.000
10.63830 104.000
10.65825 100.000
10.67820 98.000
10.69814 104.000
10.71809 94.000
10.73804 97.000
10.75798 110.000
10.77793 108.000
10.79788 84.000
10.81783 104.000
10.83777 105.000
10.85772 100.000
10.87767 109.000
10.89761 95.000
10.91756 74.000
10.93751 111.000
10.95745 88.000
10.97740 99.000
10.99735 103.000
11.01730 102.000
11.03724 101.000
11.05719 90.000
11.07714 82.000
11.09708 103.000
11.11703 115.000
11.13698 84.000
11.15692 97.000
11.17687 99.000
11.19682 103.000
11.21676 106.000
11.23671 101.000
11.25666 98.000
11.27661 103.000
11.29655 92.000
11.31650 91.000
11.33645 86.000
11.35639 92.000
11.37634 121.000
11.39629 103.000
11.41623 94.000
11.43618 101.000
11.45613 109.000
11.47608 98.000
11.49602 89.000
11.51597 116.000
11.53592 91.000
11.55586 114.000
11.57581 102.000
11.59576 91.000
11.61570 109.000
11.63565 99.000
11.65560 92.000
11.67554 105.000
11.69549 99.000
11.71544 105.000
11.73539 96.000
11.75533 97.000
11.77528 98.000
11.79523 97.000
11.81517 87.000
11.83512 89.000
11.85507 105.000
11.87501 96.000
11.89496 111.000
11.91491 99.000
11.93486 101.000
11.95480 101.000
11.97475 92.000
11.99470 100.000
12.01464 96.000
12.03459 88.000
12.05454 104.000
12.07448 100.000
12.09443 111.000
12.11438 93.000
12.13432 85.000
12.15427 98.000
12.17422 90.000
12.19417 122.000
12.21411 111.000
12.23406 97.000
12.25401 106.000
12.27395 93.000
12.29390 85.000
12.31385 94.000
12.33379 95.000
12.35374 87.000
12.37369 98.000
12.39364 79.000
12.41358 109.000
12.43353 100.000
12.45348 86.000
12.47342 100.000
12.49337 100.000
12.51332 115.000
12.53326 99.000
12.55321 113.000
12.57316 93.000
12.59311 115.000
12.61305 110.000
12.63300 97.000
12.65295 97.000
12.67289 110.000
12.69284 128.000
12.71279 90.000
12.73273 99.000
12.75268 102.000
12.77263 101.000
12.79257 96.000
12.81252 126.000
12.83247 98.000
12.85242 104.000
12.87236 83.000
12.89231 84.000
12.91226 105.000
12.93220 101.000
12.95215 117.000
12.97210 119.000
12.99204 104.000
13.01199 104.000
13.03194 93.000
13.05189 119.000
13.07183 101.000
13.09178 107.000
13.11173 120.000
13.13167 78.000
13.15162 104.000
13.17157 114.000
13.19151 113.000
13.21146 104.000
13.23141 94.000
13.25135 104.000
13.27130 100.000
13.29125 109.000
13.31120 114.000
13.33114 126.000
13.35109 114.000
13.37104 107.000
13.39098 129.000
13.41093 128.000
13.43088 100.000
13.45082 108.000
13.47077 110.000
13.49072 109.000
13.51067 113.000
13.53061 115.000
13.55056 126.000
13.57051 110.000
13.59045 116.000
13.61040 113.000
13.63035 117.000
13.65029 118.000
13.67024 124.000
13.69019 109.000
13.71013 113.000
13.73008 118.000
13.75003 110.000
13.76998 128.000
13.78992 125.000
13.80987 118.000
13.82982 126.000
13.84976 132.000
13.86971 120.000
13.88966 130.000
13.90960 105.000
13.92955 108.000
13.94950 110.000
13.96945 128.000
13.98939 120.000
14.00934 143.000
14.02929 134.000
14.04923 106.000
14.06918 155.000
14.08913 159.000
14.10907 153.000
14.12902 149.000
14.14897 141.000
14.16892 133.000
14.18886 132.000
14.20881 148.000
14.22876 150.000
14.24870 155.000
14.26865 139.000
14.28860 139.000
14.30854 136.000
14.32849 151.000
14.34844 159.000
14.36838 144.000
14.38833 149.000
14.40828 149.000
14.42823 151.000
14.44817 147.000
14.46812 138.000
14.48807 144.000
14.50801 149.000
14.52796 144.000
14.54791 160.000
14.56785 157.000
14.58780 148.000
14.60775 140.000
14.62770 160.000
14.64764 144.000
14.66759 162.000
14.68754 172.000
14.70748 152.000
14.72743 147.000
14.74738 189.000
14.76732 181.000
14.78727 175.000
14.80722 158.000
14.82716 177.000
14.84711 174.000
14.86706 163.000
14.88701 158.000
14.90695 190.000
14.92690 165.000
14.94685 207.000
14.96679 184.000
14.98674 226.000
15.00669 202.000
15.02663 220.000
15.04658 190.000
15.06653 200.000
15.08648 191.000
15.10642 233.000
15.12637 215.000
15.14632 220.000
15.16626 210.000
15.18621 224.000
15.20616 233.000
15.22610 253.000
15.24605 241.000
15.26600 236.000
15.28594 265.000
15.30589 263.000
15.32584 267.000
15.34579 313.000
15.36573 289.000
15.38568 329.000
15.40563 344.000
15.42557 384.000
15.44552 408.000
15.46547 450.000
15.48541 509.000
15.50536 584.000
15.52531 742.000
15.54526 990.000
15.56520 1344.000
15.58515 1971.000
15.60510 3122.000
15.62504 5024.000
15.64499 8896.000
15.66494 15084.000
15.68488 18369.000
15.70483 14386.000
15.72478 10397.000
15.74472 5397.000
15.76467 2395.000
15.78462 1374.000
15.80457 893.000
15.82451 658.000
15.84446 500.000
15.86441 441.000
15.88435 332.000
15.90430 326.000
15.92425 328.000
15.94419 261.000
15.96414 251.000
15.98409 211.000
16.00404 215.000
16.02398 209.000
16.04393 212.000
16.06388 207.000
16.08382 204.000
16.10377 186.000
16.12372 195.000
16.14366 177.000
16.16361 166.000
16.18356 165.000
16.20351 167.000
16.22345 153.000
16.24340 148.000
16.26335 160.000
16.28329 146.000
16.30324 150.000
16.32319 141.000
16.34313 160.000
16.36308 140.000
16.38303 148.000
16.40297 136.000
16.42292 170.000
16.44287 129.000
16.46282 133.000
16.48276 132.000
16.50271 127.000
16.52266 132.000
16.54260 130.000
16.56255 115.000
16.58250 130.000
16.60244 127.000
16.62239 131.000
16.64234 112.000
16.66229 117.000
16.68223 142.000
16.70218 105.000
16.72213 117.000
16.74207 101.000
16.76202 110.000
16.78197 114.000
16.80191 103.000
16.82186 109.000
16.84181 108.000
16.86175 126.000
16.88170 94.000
16.90165 104.000
16.92160 111.000
16.94154 96.000
16.96149 120.000
16.98144 103.000
17.00138 91.000
17.02133 92.000
17.04128 109.000
17.06122 114.000
17.08117 103.000
17.10112 93.000
17.12107 102.000
17.14101 114.000
17.16096 100.000
17.18091 105.000
17.20085 105.000
17.22080 84.000
17.24075 94.000
17.26069 96.000
17.28064 96.000
17.30059 123.000
17.32053 87.000
17.34048 106.000
17.36043 105.000
17.38038 90.000
17.40032 110.000
17.42027 93.000
17.44022 106.000
17.46016 108.000
17.48011 93.000
17.50006 99.000
17.52000 107.000
17.53995 91.000
17.55990 89.000
17.57985 94.000
17.59979 100.000
17.61974 91.000
17.63969 110.000
17.65963 100.000
17.67958 85.000
17.69953 98.000
17.71947 110.000
17.73942 94.000
17.75937 87.000
17.77932 95.000
17.79926 100.000
17.81921 105.000
17.83916 91.000
17.85910 118.000
17.87905 99.000
17.89900 90.000
17.91894 104.000
17.93889 105.000
17.95884 106.000
17.97878 97.000
17.99873 99.000
18.01868 98.000
18.03863 100.000
18.05857 89.000
18.07852 100.000
18.09847 117.000
18.11841 124.000
18.13836 112.000
18.15831 95.000
18.17825 131.000
18.19820 146.000
18.21815 168.000
18.23810 211.000
18.25804 265.000
18.27799 332.000
18.29794 347.000
18.31788 355.000
18.33783 389.000
18.35778 303.000
18.37772 258.000
18.39767 239.000
18.41762 193.000
18.43756 132.000
18.45751 129.000
18.47746 114.000
18.49741 98.000
18.51735 103.000
18.53730 102.000
18.55725 88.000
18.57719 105.000
18.59714 108.000
18.61709 95.000
18.63703 93.000
18.65698 91.000
18.67693 98.000
18.69688 99.000
18.71682 97.000
18.73677 89.000
18.75672 94.000
18.77666 88.000
18.79661 99.000
18.81656 102.000
18.83650 97.000
18.85645 99.000
18.87640 102.000
18.89634 114.000
18.91629 98.000
18.93624 82.000
18.95619 98.000
18.97613 96.000
18.99608 74.000
19.01603 86.000
19.03597 101.000
19.05592 96.000
19.07587 113.000
19.09581 94.000
19.11576 105.000
19.13571 107.000
19.15566 99.000
19.17560 89.000
19.19555 89.000
19.21550 99.000
19.23544 105.000
19.25539 90.000
19.27534 98.000
19.29528 82.000
19.31523 96.000
19.33518 87.000
19.35513 103.000
19.37507 100.000
19.39502 78.000
19.41497 102.000
19.43491 98.000
19.45486 80.000
19.47481 100.000
19.49475 91.000
19.51470 106.000
19.53465 81.000
19.55459 88.000
19.57454 104.000
19.59449 91.000
19.61444 96.000
19.63438 103.000
19.65433 83.000
19.67428 97.000
19.69422 88.000
19.71417 90.000
19.73412 86.000
19.75406 75.000
19.77401 112.000
19.79396 98.000
19.81391 88.000
19.83385 104.000
19.85380 78.000
19.87375 82.000
19.89369 89.000
19.91364 86.000
19.93359 96.000
19.95353 77.000
19.97348 88.000
19.99343 108.000
20.01337 100.000
20.03332 96.000
20.05327 91.000
20.07322 104.000
20.09316 105.000
20.11311 103.000
20.13306 95.000
20.15300 90.000
20.17295 120.000
20.19290 90.000
20.21284 95.000
20.23279 105.000
20.25274 103.000
20.27269 83.000
20.29263 102.000
20.31258 95.000
20.33253 92.000
20.35247 107.000
20.37242 81.000
20.39237 91.000
20.41231 93.000
20.43226 90.000
20.45221 89.000
20.47215 92.000
20.49210 109.000
20.51205 112.000
20.53200 89.000
20.55194 98.000
20.57189 96.000
20.59184 108.000
20.61178 89.000
20.63173 97.000
20.65168 82.000
20.67162 119.000
20.69157 96.000
20.71152 79.000
20.73147 90.000
20.75141 98.000
20.77136 85.000
20.79131 95.000
20.81125 76.000
20.83120 108.000
20.85115 85.000
20.87109 76.000
20.89104 94.000
20.91099 85.000
20.93094 96.000
20.95088 99.000
20.97083 97.000
20.99078 82.000
21.01072 84.000
21.03067 80.000
21.05062 95.000
21.07056 93.000
21.09051 89.000
21.11046 86.000
21.13040 96.000
21.15035 96.000
21.17030 117.000
21.19025 89.000
21.21019 74.000
21.23014 98.000
21.25009 87.000
21.27003 109.000
21.28998 99.000
21.30993 108.000
21.32987 103.000
21.34982 106.000
21.36977 87.000
21.38972 111.000
21.40966 105.000
21.42961 107.000
21.44956 101.000
21.46950 89.000
21.48945 81.000
21.50940 75.000
21.52934 95.000
21.54929 112.000
21.56924 83.000
21.58918 88.000
21.60913 91.000
21.62908 81.000
21.64903 95.000
21.66897 99.000
21.68892 93.000
21.70887 107.000
21.72881 104.000
21.74876 75.000
21.76871 97.000
21.78865 99.000
21.80860 102.000
21.82855 90.000
21.84850 111.000
21.86844 99.000
21.88839 89.000
21.90834 83.000
21.92828 97.000
21.94823 97.000
21.96818 95.000
21.98812 102.000
22.00807 106.000
22.02802 99.000
22.04796 94.000
22.06791 99.000
22.08786 97.000
22.10781 108.000
22.12775 91.000
22.14770 101.000
22.16765 111.000
22.18759 107.000
22.20754 102.000
22.22749 86.000
22.24743 102.000
22.26738 98.000
22.28733 94.000
22.30728 90.000
22.32722 100.000
22.34717 104.000
22.36712 96.000
22.38706 104.000
22.40701 108.000
22.42696 96.000
22.44690 104.000
22.46685 94.000
22.48680 104.000
22.50675 129.000
22.52669 109.000
22.54664 96.000
22.56659 95.000
22.58653 100.000
22.60648 89.000
22.62643 103.000
22.64637 105.000
22.66632 101.000
22.68627 96.000
22.70621 101.000
22.72616 101.000
22.74611 91.000
22.76606 95.000
22.78600 103.000
22.80595 91.000
22.82590 91.000
22.84584 82.000
22.86579 98.000
22.88574 95.000
22.90568 120.000
22.92563 78.000
22.94558 92.000
22.96553 92.000
22.98547 80.000
23.00542 94.000
23.02537 109.000
23.04531 110.000
23.06526 81.000
23.08521 90.000
23.10515 91.000
23.12510 104.000
23.14505 103.000
23.16499 92.000
23.18494 88.000
23.20489 97.000
23.22484 95.000
23.24478 119.000
23.26473 98.000
23.28468 89.000
23.30462 96.000
23.32457 110.000
23.34452 95.000
23.36446 89.000
23.38441 92.000
23.40436 104.000
23.42431 97.000
23.44425 82.000
23.46420 95.000
23.48415 106.000
23.50409 88.000
23.52404 98.000
23.54399 107.000
23.56393 96.000
23.58388 86.000
23.60383 112.000
23.62377 110.000
23.64372 88.000
23.66367 89.000
23.68362 95.000
23.70356 99.000
23.72351 80.000
23.74346 114.000
23.76340 88.000
23.78335 109.000
23.80330 98.000
23.82324 99.000
23.84319 103.000
23.86314 85.000
23.88309 88.000
23.90303 80.000
23.92298 110.000
23.94293 116.000
23.96287 103.000
23.98282 105.000
24.00277 85.000
24.02271 96.000
24.04266 92.000
24.06261 103.000
24.08256 100.000
24.10250 91.000
24.12245 110.000
24.14240 86.000
24.16234 92.000
24.18229 98.000
24.20224 105.000
24.22218 71.000
24.24213 83.000
24.26208 113.000
24.28202 87.000
24.30197 99.000
24.32192 109.000
24.34187 115.000
24.36181 100.000
24.38176 114.000
24.40171 102.000
24.42165 106.000
24.44160 92.000
24.46155 106.000
24.48149 99.000
24.50144 91.000
24.52139 83.000
24.54134 98.000
24.56128 97.000
24.58123 108.000
24.60118 106.000
24.62112 97.000
24.64107 98.000
24.66102 94.000
24.68096 105.000
24.70091 105.000
24.72086 92.000
24.74080 92.000
24.76075 95.000
24.78070 99.000
24.80065 113.000
24.82059 94.000
24.84054 94.000
24.86049 99.000
24.88043 97.000
24.90038 92.000
24.92033 97.000
24.94027 105.000
24.96022 108.000
24.98017 89.000
25.00012 107.000
25.02006 133.000
25.04001 92.000
25.05996 119.000
25.07990 108.000
25.09985 99.000
25.11980 89.000
25.13974 101.000
25.15969 116.000
25.17964 93.000
25.19958 109.000
25.21953 91.000
25.23948 100.000
25.25943 106.000
25.27937 99.000
25.29932 103.000
25.31927 116.000
25.33921 111.000
25.35916 110.000
25.37911 104.000
25.39905 109.000
25.41900 108.000
25.43895 103.000
25.45890 102.000
25.47884 117.000
25.49879 97.000
25.51874 98.000
25.53868 104.000
25.55863 100.000
25.57858 104.000
25.59852 97.000
25.61847 101.000
25.63842 99.000
25.65837 91.000
25.67831 103.000
25.69826 81.000
25.71821 118.000
25.73815 125.000
25.75810 100.000
25.77805 96.000
25.79799 95.000
25.81794 111.000
25.83789 129.000
25.85783 108.000
25.87778 94.000
25.89773 109.000
25.91768 130.000
25.93762 107.000
25.95757 98.000
25.97752 88.000
25.99746 111.000
26.01741 111.000
26.03736 98.000
26.05730 110.000
26.07725 104.000
26.09720 100.000
26.11715 90.000
26.13709 98.000
26.15704 101.000
26.17699 113.000
26.19693 85.000
26.21688 112.000
26.23683 107.000
26.25677 104.000
26.27672 102.000
26.29667 105.000
26.31661 98.000
26.33656 107.000
26.35651 110.000
26.37646 108.000
26.39640 90.000
26.41635 103.000
26.43630 103.000
26.45624 87.000
26.47619 106.000
26.49614 120.000
26.51608 119.000
26.53603 103.000
26.55598 80.000
26.57593 112.000
26.59587 110.000
26.61582 83.000
26.63577 110.000
26.65571 86.000
26.67566 120.000
26.69561 113.000
26.71555 109.000
26.73550 91.000
26.75545 84.000
26.77539 85.000
26.79534 113.000
26.81529 93.000
26.83524 104.000
26.85518 92.000
26.87513 101.000
26.89508 116.000
26.91502 92.000
26.93497 109.000
26.95492 120.000
26.97486 104.000
26.99481 106.000
27.01476 90.000
27.03471 97.000
27.05465 89.000
27.07460 102.000
27.09455 91.000
27.11449 90.000
27.13444 81.000
27.15439 84.000
27.17433 105.000
27.19428 113.000
27.21423 99.000
27.23417 126.000
27.25412 107.000
27.27407 105.000
27.29402 112.000
27.31396 101.000
27.33391 114.000
27.35386 77.000
27.37380 99.000
27.39375 111.000
27.41370 116.000
27.43364 87.000
27.45359 103.000
27.47354 92.000
27.49349 117.000
27.51343 117.000
27.53338 106.000
27.55333 87.000
27.57327 101.000
27.59322 78.000
27.61317 95.000
27.63311 94.000
27.65306 122.000
27.67301 100.000
27.69296 106.000
27.71290 82.000
27.73285 117.000
27.75280 105.000
27.77274 98.000
27.79269 124.000
27.81264 99.000
27.83258 123.000
27.85253 103.000
27.87248 106.000
27.89242 98.000
27.91237 99.000
27.93232 104.000
27.95227 96.000
27.97221 85.000
27.99216 110.000
28.01211 113.000
28.03205 96.000
28.05200 96.000
28.07195 103.000
28.09189 99.000
28.11184 121.000
28.13179 121.000
28.15174 99.000
28.17168 105.000
28.19163 92.000
28.21158 102.000
28.23152 89.000
28.25147 94.000
28.27142 100.000
28.29136 92.000
28.31131 84.000
28.33126 93.000
28.35120 92.000
28.37115 93.000
28.39110 110.000
28.41105 92.000
28.43099 84.000
28.45094 74.000
28.47089 114.000
28.49083 89.000
28.51078 103.000
28.53073 119.000
28.55067 106.000
28.57062 107.000
28.59057 100.000
28.61052 97.000
28.63046 105.000
28.65041 113.000
28.67036 87.000
28.69030 101.000
28.71025 92.000
28.73020 108.000
28.75014 105.000
28.77009 101.000
28.79004 83.000
28.80998 125.000
28.82993 117.000
28.84988 90.000
28.86983 116.000
28.88977 106.000
28.90972 97.000
28.92967 107.000
28.94961 106.000
28.96956 94.000
28.98951 114.000
29.00945 112.000
29.02940 95.000
29.04935 88.000
29.06930 111.000
29.08924 115.000
29.10919 114.000
29.12914 107.000
29.14908 109.000
29.16903 110.000
29.18898 99.000
29.20892 102.000
29.22887 105.000
29.24882 100.000
29.26877 100.000
29.28871 120.000
29.30866 105.000
29.32861 109.000
29.34855 99.000
29.36850 100.000
29.38845 108.000
29.40839 125.000
29.42834 92.000
29.44829 105.000
29.46823 88.000
29.48818 91.000
29.50813 109.000
29.52808 111.000
29.54802 86.000
29.56797 109.000
29.58792 107.000
29.60786 97.000
29.62781 105.000
29.64776 98.000
29.66770 115.000
29.68765 100.000
29.70760 116.000
29.72755 112.000
29.74749 104.000
29.76744 114.000
29.78739 105.000
29.80733 107.000
29.82728 111.000
29.84723 96.000
29.86717 121.000
29.88712 124.000
29.90707 131.000
29.92701 155.000
29.94696 155.000
29.96691 150.000
29.98686 170.000
30.00680 197.000
30.02675 221.000
30.04670 292.000
30.06664 341.000
30.08659 328.000
30.10654 364.000
30.12648 407.000
30.14643 422.000
30.16638 450.000
30.18633 427.000
30.20627 426.000
30.22622 321.000
30.24617 307.000
30.26611 268.000
30.28606 250.000
30.30601 226.000
30.32595 175.000
30.34590 169.000
30.36585 142.000
30.38579 152.000
30.40574 141.000
30.42569 112.000
30.44564 109.000
30.46558 133.000
30.48553 115.000
30.50548 115.000
30.52542 129.000
30.54537 109.000
30.56532 102.000
30.58526 129.000
30.60521 108.000
30.62516 116.000
30.64511 104.000
30.66505 94.000
30.68500 115.000
30.70495 114.000
30.72489 120.000
30.74484 110.000
30.76479 93.000
30.78473 96.000
30.80468 114.000
30.82463 109.000
30.84458 127.000
30.86452 115.000
30.88447 106.000
30.90442 114.000
30.92436 100.000
30.94431 118.000
30.96426 123.000
30.98420 96.000
31.00415 110.000
31.02410 108.000
31.04404 106.000
31.06399 121.000
31.08394 95.000
31.10389 113.000
31.12383 126.000
31.14378 109.000
31.16373 128.000
31.18367 116.000
31.20362 111.000
31.22357 124.000
31.24351 92.000
31.26346 106.000
31.28341 122.000
31.30336 126.000
31.32330 117.000
31.34325 112.000
31.36320 102.000
31.38314 116.000
31.40309 129.000
31.42304 147.000
31.44298 120.000
31.46293 139.000
31.48288 155.000
31.50282 171.000
31.52277 158.000
31.54272 186.000
31.56267 240.000
31.58261 234.000
31.60256 390.000
31.62251 585.000
31.64245 1024.000
31.66240 1324.000
31.68235 1137.000
31.70229 904.000
31.72224 865.000
31.74219 914.000
31.76214 699.000
31.78208 485.000
31.80203 356.000
31.82198 244.000
31.84192 231.000
31.86187 170.000
31.88182 159.000
31.90176 157.000
31.92171 127.000
31.94166 137.000
31.96160 140.000
31.98155 123.000
32.00150 118.000
32.02145 142.000
32.04139 105.000
32.06134 117.000
32.08129 125.000
32.10123 96.000
32.12118 116.000
32.14113 106.000
32.16107 107.000
32.18102 117.000
32.20097 92.000
32.22092 100.000
32.24086 91.000
32.26081 102.000
32.28076 113.000
32.30070 121.000
32.32065 104.000
32.34060 102.000
32.36054 96.000
32.38049 98.000
32.40044 124.000
32.42039 100.000
32.44033 98.000
32.46028 130.000
32.48023 104.000
32.50017 112.000
32.52012 107.000
32.54007 114.000
32.56001 141.000
32.57996 119.000
32.59991 122.000
32.61985 120.000
32.63980 85.000
32.65975 115.000
32.67970 123.000
32.69964 95.000
32.71959 115.000
32.73954 107.000
32.75948 103.000
32.77943 110.000
32.79938 108.000
32.81932 116.000
32.83927 100.000
32.85922 107.000
32.87917 117.000
32.89911 124.000
32.91906 99.000
32.93901 105.000
32.95895 114.000
32.97890 99.000
32.99885 99.000
33.01879 96.000
33.03874 112.000
33.05869 103.000
33.07863 98.000
33.09858 94.000
33.11853 105.000
33.13848 117.000
33.15842 105.000
33.17837 96.000
33.19832 99.000
33.21826 127.000
33.23821 101.000
33.25816 108.000
33.27810 101.000
33.29805 104.000
33.31800 109.000
33.33795 91.000
33.35789 133.000
33.37784 86.000
33.39779 105.000
33.41773 107.000
33.43768 107.000
33.45763 94.000
33.47757 118.000
33.49752 97.000
33.51747 116.000
33.53741 103.000
33.55736 94.000
33.57731 116.000
33.59726 98.000
33.61720 99.000
33.63715 118.000
33.65710 89.000
33.67704 89.000
33.69699 90.000
33.71694 90.000
33.73688 106.000
33.75683 111.000
33.77678 89.000
33.79673 103.000
33.81667 95.000
33.83662 115.000
33.85657 90.000
33.87651 101.000
33.89646 102.000
33.91641 111.000
33.93635 109.000
33.95630 110.000
33.97625 121.000
33.99620 111.000
34.01614 105.000
34.03609 120.000
34.05604 107.000
34.07598 105.000
34.09593 96.000
34.11588 87.000
34.13582 87.000
34.15577 88.000
34.17572 106.000
34.19566 126.000
34.21561 117.000
34.23556 120.000
34.25551 111.000
34.27545 109.000
34.29540 107.000
34.31535 102.000
34.33529 112.000
34.35524 116.000
34.37519 116.000
34.39513 116.000
34.41508 115.000
34.43503 106.000
34.45498 132.000
34.47492 111.000
34.49487 121.000
34.51482 105.000
34.53476 109.000
34.55471 104.000
34.57466 107.000
34.59460 102.000
34.61455 118.000
34.63450 116.000
34.65444 102.000
34.67439 109.000
34.69434 92.000
34.71429 147.000
34.73423 103.000
34.75418 101.000
34.77413 117.000
34.79407 112.000
34.81402 108.000
34.83397 119.000
34.85391 121.000
34.87386 107.000
34.89381 108.000
34.91376 138.000
34.93370 108.000
34.95365 126.000
34.97360 129.000
34.99354 153.000
35.01349 133.000
35.03344 130.000
35.05338 121.000
35.07333 136.000
35.09328 143.000
35.11322 132.000
35.13317 152.000
35.15312 146.000
35.17307 161.000
35.19301 187.000
35.21296 198.000
35.23291 209.000
35.25285 256.000
35.27280 253.000
35.29275 301.000
35.31269 331.000
35.33264 376.000
35.35259 481.000
35.37254 515.000
35.39248 630.000
35.41243 711.000
35.43238 842.000
35.45232 942.000
35.47227 1032.000
35.49222 1109.000
35.51216 1110.000
35.53211 1090.000
35.55206 1104.000
35.57201 1076.000
35.59195 1019.000
35.61190 886.000
35.63185 812.000
35.65179 696.000
35.67174 589.000
35.69169 504.000
35.71163 452.000
35.73158 397.000
35.75153 375.000
35.77147 336.000
35.79142 422.000
35.81137 438.000
35.83132 604.000
35.85126 842.000
35.87121 1238.000
35.89116 1307.000
35.91110 1026.000
35.93105 846.000
35.95100 802.000
35.97094 895.000
35.99089 688.000
36.01084 535.000
36.03079 362.000
36.05073 270.000
36.07068 211.000
36.09063 198.000
36.11057 176.000
36.13052 151.000
36.15047 159.000
36.17041 129.000
36.19036 123.000
36.21031 149.000
36.23025 134.000
36.25020 114.000
36.27015 136.000
36.29010 127.000
36.31004 141.000
36.32999 125.000
36.34994 142.000
36.36988 129.000
36.38983 138.000
36.40978 137.000
36.42972 120.000
36.44967 137.000
36.46962 119.000
36.48957 139.000
36.50951 116.000
36.52946 123.000
36.54941 117.000
36.56935 116.000
36.58930 128.000
36.60925 117.000
36.62919 130.000
36.64914 127.000
36.66909 129.000
36.68903 124.000
36.70898 139.000
36.72893 165.000
36.74888 225.000
36.76882 244.000
36.78877 235.000
36.80872 220.000
36.82866 181.000
36.84861 174.000
36.86856 204.000
36.88850 190.000
36.90845 147.000
36.92840 162.000
36.94835 141.000
36.96829 161.000
36.98824 148.000
37.00819 147.000
37.02813 167.000
37.04808 183.000
37.06803 173.000
37.08797 185.000
37.10792 186.000
37.12787 202.000
37.14781 189.000
37.16776 219.000
37.18771 202.000
37.20766 177.000
37.22760 215.000
37.24755 181.000
37.26750 154.000
37.28744 160.000
37.30739 173.000
37.32734 132.000
37.34728 111.000
37.36723 153.000
37.38718 140.000
37.40713 131.000
37.42707 115.000
37.44702 145.000
37.46697 126.000
37.48691 125.000
37.50686 96.000
37.52681 144.000
37.54675 134.000
37.56670 113.000
37.58665 135.000
37.60660 123.000
37.62654 133.000
37.64649 114.000
37.66644 107.000
37.68638 132.000
37.70633 110.000
37.72628 120.000
37.74622 117.000
37.76617 115.000
37.78612 121.000
37.80606 126.000
37.82601 130.000
37.84596 124.000
37.86591 120.000
37.88585 115.000
37.90580 110.000
37.92575 97.000
37.94569 119.000
37.96564 125.000
37.98559 123.000
38.00553 123.000
38.02548 105.000
38.04543 137.000
38.06538 126.000
38.08532 127.000
38.10527 100.000
38.12522 99.000
38.14516 134.000
38.16511 119.000
38.18506 115.000
38.20500 108.000
38.22495 104.000
38.24490 117.000
38.26484 130.000
38.28479 113.000
38.30474 119.000
38.32469 119.000
38.34463 125.000
38.36458 124.000
38.38453 120.000
38.40447 104.000
38.42442 120.000
38.44437 118.000
38.46431 128.000
38.48426 121.000
38.50421 136.000
38.52416 131.000
38.54410 139.000
38.56405 148.000
38.58400 162.000
38.60394 188.000
38.62389 220.000
38.64384 213.000
38.66378 242.000
38.68373 212.000
38.70368 195.000
38.72362 206.000
38.74357 205.000
38.76352 209.000
38.78347 216.000
38.80341 185.000
38.82336 186.000
38.84331 170.000
38.86325 171.000
38.88320 157.000
38.90315 163.000
38.92309 171.000
38.94304 155.000
38.96299 178.000
38.98294 188.000
39.00288 170.000
39.02283 183.000
39.04278 188.000
39.06272 188.000
39.08267 233.000
39.10262 211.000
39.12256 218.000
39.14251 235.000
39.16246 239.000
39.18241 252.000
39.20235 292.000
39.22230 328.000
39.24225 387.000
39.26219 411.000
39.28214 531.000
39.30209 670.000
39.32203 1025.000
39.34198 1404.000
39.36193 1913.000
39.38187 2044.000
39.40182 1769.000
39.42177 1488.000
39.44172 1298.000
39.46166 1378.000
39.48161 1255.000
39.50156 1131.000
39.52150 834.000
39.54145 596.000
39.56140 448.000
39.58134 343.000
39.60129 286.000
39.62124 257.000
39.64119 222.000
39.66113 211.000
39.68108 184.000
39.70103 181.000
39.72097 183.000
39.74092 142.000
39.76087 147.000
39.78081 173.000
39.80076 136.000
39.82071 143.000
39.84065 164.000
39.86060 133.000
39.88055 144.000
39.90050 149.000
39.92044 121.000
39.94039 130.000
39.96034 122.000
39.98028 141.000
40.00023 112.000
40.02018 122.000
40.04012 121.000
40.06007 124.000
40.08002 144.000
40.09997 143.000
40.11991 124.000
40.13986 112.000
40.15981 130.000
40.17975 132.000
40.19970 114.000
40.21965 102.000
40.23959 131.000
40.25954 111.000
40.27949 107.000
40.29943 128.000
40.31938 111.000
40.33933 104.000
40.35928 117.000
40.37922 125.000
40.39917 89.000
40.41912 95.000
40.43906 104.000
40.45901 110.000
40.47896 118.000
40.49890 96.000
40.51885 125.000
40.53880 119.000
40.55875 99.000
40.57869 112.000
40.59864 116.000
40.61859 134.000
40.63853 116.000
40.65848 115.000
40.67843 103.000
40.69837 102.000
40.71832 107.000
40.73827 106.000
40.75822 118.000
40.77816 103.000
40.79811 99.000
40.81806 109.000
40.83800 102.000
40.85795 123.000
40.87790 117.000
40.89784 119.000
40.91779 105.000
40.93774 113.000
40.95768 98.000
40.97763 99.000
40.99758 98.000
41.01753 87.000
41.03747 124.000
41.05742 107.000
41.07737 106.000
41.09731 110.000
41.11726 115.000
41.13721 106.000
41.15715 93.000
41.17710 120.000
41.19705 106.000
41.21700 110.000
41.23694 110.000
41.25689 106.000
41.27684 108.000
41.29678 110.000
41.31673 114.000
41.33668 98.000
41.35662 119.000
41.37657 113.000
41.39652 112.000
41.41646 111.000
41.43641 131.000
41.45636 96.000
41.47631 121.000
41.49625 124.000
41.51620 125.000
41.53615 114.000
41.55609 105.000
41.57604 127.000
41.59599 105.000
41.61593 125.000
41.63588 107.000
41.65583 125.000
41.67578 103.000
41.69572 115.000
41.71567 95.000
41.73562 110.000
41.75556 119.000
41.77551 124.000
41.79546 107.000
41.81540 92.000
41.83535 104.000
41.85530 106.000
41.87524 109.000
41.89519 98.000
41.91514 105.000
41.93509 84.000
41.95503 111.000
41.97498 99.000
41.99493 115.000
42.01487 104.000
42.03482 122.000
42.05477 98.000
42.07471 114.000
42.09466 110.000
42.11461 98.000
42.13456 125.000
42.15450 112.000
42.17445 97.000
42.19440 114.000
42.21434 101.000
42.23429 118.000
42.25424 114.000
42.27418 101.000
42.29413 104.000
42.31408 104.000
42.33403 106.000
42.35397 105.000
42.37392 106.000
42.39387 99.000
42.41381 110.000
42.43376 114.000
42.45371 115.000
42.47365 80.000
42.49360 106.000
42.51355 90.000
42.53349 114.000
42.55344 118.000
42.57339 106.000
42.59334 107.000
42.61328 129.000
42.63323 113.000
42.65318 104.000
42.67312 113.000
42.69307 140.000
42.71302 126.000
42.73296 143.000
42.75291 125.000
42.77286 134.000
42.79281 109.000
42.81275 141.000
42.83270 124.000
42.85265 128.000
42.87259 155.000
42.89254 140.000
42.91249 159.000
42.93243 183.000
42.95238 177.000
42.97233 180.000
42.99227 209.000
43.01222 199.000
43.03217 237.000
43.05212 228.000
43.07206 256.000
43.09201 264.000
43.11196 291.000
43.13190 324.000
43.15185 306.000
43.17180 297.000
43.19174 324.000
43.21169 290.000
43.23164 328.000
43.25159 354.000
43.27153 320.000
43.29148 374.000
43.31143 375.000
43.33137 448.000
43.35132 527.000
43.37127 637.000
43.39121 726.000
43.41116 780.000
43.43111 732.000
43.45105 654.000
43.47100 597.000
43.49095 551.000
43.51090 589.000
43.53084 550.000
43.55079 459.000
43.57074 393.000
43.59068 311.000
43.61063 231.000
43.63058 213.000
43.65052 215.000
43.67047 182.000
43.69042 168.000
43.71037 161.000
43.73031 126.000
43.75026 129.000
43.77021 143.000
43.79015 139.000
43.81010 128.000
43.83005 100.000
43.84999 135.000
43.86994 138.000
43.88989 127.000
43.90984 118.000
43.92978 109.000
43.94973 121.000
43.96968 121.000
43.98962 137.000
44.00957 118.000
44.02952 112.000
44.04946 126.000
44.06941 109.000
44.08936 117.000
44.10930 129.000
44.12925 115.000
44.14920 104.000
44.16915 125.000
44.18909 100.000
44.20904 103.000
44.22899 104.000
44.24893 96.000
44.26888 112.000
44.28883 100.000
44.30877 97.000
44.32872 144.000
44.34867 115.000
44.36862 111.000
44.38856 103.000
44.40851 112.000
44.42846 114.000
44.44840 108.000
44.46835 123.000
44.48830 116.000
44.50824 104.000
44.52819 119.000
44.54814 108.000
44.56808 117.000
44.58803 102.000
44.60798 119.000
44.62793 103.000
44.64787 103.000
44.66782 113.000
44.68777 98.000
44.70771 93.000
44.72766 97.000
44.74761 117.000
44.76755 114.000
44.78750 89.000
44.80745 106.000
44.82740 118.000
44.84734 115.000
44.86729 93.000
44.88724 97.000
44.90718 108.000
44.92713 113.000
44.94708 114.000
44.96702 108.000
44.98697 103.000
45.00692 117.000
45.02686 107.000
45.04681 126.000
45.06676 105.000
45.08671 109.000
45.10665 99.000
45.12660 111.000
45.14655 105.000
45.16649 119.000
45.18644 103.000
45.20639 96.000
45.22633 116.000
45.24628 92.000
45.26623 106.000
45.28618 97.000
45.30612 113.000
45.32607 100.000
45.34602 100.000
45.36596 110.000
45.38591 114.000
45.40586 104.000
45.42580 105.000
45.44575 107.000
45.46570 109.000
45.48565 118.000
45.50559 98.000
45.52554 93.000
45.54549 124.000
45.56543 90.000
45.58538 94.000
45.60533 91.000
45.62527 99.000
45.64522 126.000
45.66517 106.000
45.68511 103.000
45.70506 102.000
45.72501 99.000
45.74496 100.000
45.76490 97.000
45.78485 99.000
45.80480 101.000
45.82474 121.000
45.84469 111.000
45.86464 94.000
45.88458 105.000
45.90453 112.000
45.92448 104.000
45.94443 86.000
45.96437 97.000
45.98432 95.000
46.00427 102.000
46.02421 88.000
46.04416 117.000
46.06411 97.000
46.08405 107.000
46.10400 89.000
46.12395 114.000
46.14389 127.000
46.16384 111.000
46.18379 108.000
46.20374 103.000
46.22368 117.000
46.24363 101.000
46.26358 112.000
46.28352 101.000
46.30347 106.000
46.32342 109.000
46.34336 103.000
46.36331 92.000
46.38326 111.000
46.40321 123.000
46.42315 115.000
46.44310 106.000
46.46305 131.000
46.48299 120.000
46.50294 121.000
46.52289 130.000
46.54283 126.000
46.56278 132.000
46.58273 103.000
46.60267 121.000
46.62262 89.000
46.64257 112.000
46.66252 116.000
46.68246 106.000
46.70241 113.000
46.72236 106.000
46.74230 106.000
46.76225 114.000
46.78220 110.000
46.80214 111.000
46.82209 91.000
46.84204 103.000
46.86199 103.000
46.88193 121.000
46.90188 108.000
46.92183 99.000
46.94177 103.000
46.96172 117.000
46.98167 120.000
47.00161 117.000
47.02156 104.000
47.04151 115.000
47.06146 93.000
47.08140 131.000
47.10135 121.000
47.12130 107.000
47.14124 97.000
47.16119 106.000
47.18114 103.000
47.20108 132.000
47.22103 114.000
47.24098 116.000
47.26092 108.000
47.28087 102.000
47.30082 105.000
47.32077 105.000
47.34071 119.000
47.36066 120.000
47.38061 95.000
47.40055 124.000
47.42050 98.000
47.44045 134.000
47.46039 102.000
47.48034 90.000
47.50029 124.000
47.52024 111.000
47.54018 120.000
47.56013 126.000
47.58008 121.000
47.60002 95.000
47.61997 111.000
47.63992 117.000
47.65986 119.000
47.67981 113.000
47.69976 120.000
47.71970 97.000
47.73965 113.000
47.75960 110.000
47.77955 125.000
47.79949 145.000
47.81944 120.000
47.83939 118.000
47.85933 125.000
47.87928 114.000
47.89923 130.000
47.91917 131.000
47.93912 139.000
47.95907 136.000
47.97902 130.000
47.99896 140.000
48.01891 136.000
48.03886 132.000
48.05880 122.000
48.07875 147.000
48.09870 148.000
48.11864 150.000
48.13859 157.000
48.15854 131.000
48.17848 160.000
48.19843 157.000
48.21838 166.000
48.23833 153.000
48.25827 208.000
48.27822 183.000
48.29817 211.000
48.31811 211.000
48.33806 269.000
48.35801 221.000
48.37795 226.000
48.39790 286.000
48.41785 311.000
48.43780 362.000
48.45774 433.000
48.47769 388.000
48.49764 534.000
48.51758 679.000
48.53753 787.000
48.55748 1160.000
48.57742 1530.000
48.59737 1665.000
48.61732 1651.000
48.63726 1366.000
48.65721 1246.000
48.67716 1101.000
48.69711 1168.000
48.71705 1279.000
48.73700 1105.000
48.75695 990.000
48.77689 782.000
48.79684 627.000
48.81679 539.000
48.83673 426.000
48.85668 404.000
48.87663 316.000
48.89658 288.000
48.91652 270.000
48.93647 225.000
48.95642 214.000
48.97636 191.000
48.99631 175.000
49.01626 181.000
49.03620 152.000
49.05615 168.000
49.07610 170.000
49.09605 146.000
49.11599 157.000
49.13594 143.000
49.15589 144.000
49.17583 150.000
49.19578 154.000
49.21573 143.000
49.23567 131.000
49.25562 124.000
49.27557 142.000
49.29551 126.000
49.31546 134.000
49.33541 101.000
49.35536 146.000
49.37530 126.000
49.39525 140.000
49.41520 106.000
49.43514 95.000
49.45509 124.000
49.47504 118.000
49.49498 124.000
49.51493 124.000
49.53488 124.000
49.55483 110.000
49.57477 111.000
49.59472 112.000
49.61467 109.000
49.63461 116.000
49.65456 113.000
49.67451 119.000
49.69445 103.000
49.71440 117.000
49.73435 110.000
49.75429 126.000
49.77424 111.000
49.79419 136.000
49.81414 105.000
49.83408 116.000
49.85403 104.000
49.87398 104.000
49.89392 95.000
49.91387 107.000
49.93382 109.000
49.95376 111.000
49.97371 111.000
49.99366 99.000
50.01361 132.000
50.03355 124.000
50.05350 114.000
50.07345 104.000
50.09339 104.000
50.11334 94.000
50.13329 101.000
50.15323 116.000
50.17318 107.000
50.19313 122.000
50.21307 95.000
50.23302 131.000
50.25297 99.000
50.27292 91.000
50.29286 103.000
50.31281 93.000
50.33276 99.000
50.35270 103.000
50.37265 93.000
50.39260 107.000
50.41254 106.000
50.43249 102.000
50.45244 96.000
50.47239 95.000
50.49233 113.000
50.51228 105.000
50.53223 106.000
50.55217 108.000
50.57212 108.000
50.59207 119.000
50.61201 83.000
50.63196 105.000
50.65191 97.000
50.67186 98.000
50.69180 104.000
50.71175 93.000
50.73170 106.000
50.75164 111.000
50.77159 101.000
50.79154 109.000
50.81148 98.000
50.83143 103.000
50.85138 107.000
50.87132 95.000
50.89127 103.000
50.91122 95.000
50.93117 111.000
50.95111 98.000
50.97106 106.000
50.99101 102.000
51.01095 100.000
51.03090 102.000
51.05085 102.000
51.07079 113.000
51.09074 92.000
51.11069 116.000
51.13064 93.000
51.15058 89.000
51.17053 100.000
51.19048 111.000
51.21042 105.000
51.23037 101.000
51.25032 102.000
51.27026 111.000
51.29021 111.000
51.31016 126.000
51.33010 100.000
51.35005 104.000
51.37000 84.000
51.38995 103.000
51.40989 111.000
51.42984 89.000
51.44979 105.000
51.46973 88.000
51.48968 103.000
51.50963 108.000
51.52957 105.000
51.54952 105.000
51.56947 92.000
51.58942 110.000
51.60936 98.000
51.62931 110.000
51.64926 97.000
51.66920 108.000
51.68915 108.000
51.70910 74.000
51.72904 121.000
51.74899 103.000
51.76894 89.000
51.78888 88.000
51.80883 104.000
51.82878 116.000
51.84873 93.000
51.86867 86.000
51.88862 110.000
51.90857 100.000
51.92851 80.000
51.94846 102.000
51.96841 91.000
51.98835 101.000
52.00830 105.000
52.02825 102.000
52.04820 101.000
52.06814 106.000
52.08809 107.000
52.10804 99.000
52.12798 98.000
52.14793 103.000
52.16788 122.000
52.18782 95.000
52.20777 95.000
52.22772 83.000
52.24767 86.000
52.26761 98.000
52.28756 107.000
52.30751 104.000
52.32745 104.000
52.34740 86.000
52.36735 93.000
52.38729 105.000
52.40724 102.000
52.42719 81.000
52.44713 99.000
52.46708 99.000
52.48703 110.000
52.50698 100.000
52.52692 94.000
52.54687 111.000
52.56682 88.000
52.58676 81.000
52.60671 96.000
52.62666 93.000
52.64660 117.000
52.66655 102.000
52.68650 106.000
52.70645 100.000
52.72639 103.000
52.74634 103.000
52.76629 98.000
52.78623 102.000
52.80618 101.000
52.82613 111.000
52.84607 88.000
52.86602 92.000
52.88597 107.000
52.90591 98.000
52.92586 100.000
52.94581 102.000
52.96576 101.000
52.98570 100.000
53.00565 106.000
53.02560 101.000
53.04554 104.000
53.06549 97.000
53.08544 95.000
53.10538 104.000
53.12533 91.000
53.14528 103.000
53.16523 102.000
53.18517 101.000
53.20512 103.000
53.22507 107.000
53.24501 105.000
53.26496 111.000
53.28491 102.000
53.30485 127.000
53.32480 128.000
53.34475 126.000
53.36469 146.000
53.38464 113.000
53.40459 127.000
53.42454 135.000
53.44448 138.000
53.46443 172.000
53.48438 141.000
53.50432 153.000
53.52427 163.000
53.54422 150.000
53.56416 154.000
53.58411 169.000
53.60406 137.000
53.62401 171.000
53.64395 159.000
53.66390 156.000
53.68385 138.000
53.70379 154.000
53.72374 148.000
53.74369 132.000
53.76363 117.000
53.78358 126.000
53.80353 134.000
53.82348 145.000
53.84342 115.000
53.86337 119.000
53.88332 106.000
53.90326 111.000
53.92321 97.000
53.94316 114.000
53.96310 105.000
53.98305 96.000
54.00300 107.000
54.02294 109.000
54.04289 97.000
54.06284 101.000
54.08279 91.000
54.10273 94.000
54.12268 100.000
54.14263 88.000
54.16257 106.000
54.18252 101.000
54.20247 97.000
54.22241 103.000
54.24236 97.000
54.26231 79.000
54.28226 94.000
54.30220 118.000
54.32215 114.000
54.34210 91.000
54.36204 98.000
54.38199 112.000
54.40194 89.000
54.42188 92.000
54.44183 92.000
54.46178 108.000
54.48172 109.000
54.50167 98.000
54.52162 102.000
54.54157 89.000
54.56151 87.000
54.58146 109.000
54.60141 96.000
54.62135 98.000
54.64130 86.000
54.66125 88.000
54.68119 95.000
54.70114 102.000
54.72109 103.000
54.74104 115.000
54.76098 102.000
54.78093 110.000
54.80088 102.000
54.82082 111.000
54.84077 100.000
54.86072 97.000
54.88066 93.000
54.90061 90.000
54.92056 93.000
54.94050 98.000
54.96045 105.000
54.98040 86.000
55.00035 94.000
55.02029 105.000
55.04024 96.000
55.06019 87.000
55.08013 106.000
55.10008 115.000
55.12003 107.000
55.13997 94.000
55.15992 101.000
55.17987 106.000
55.19982 101.000
55.21976 95.000
55.23971 106.000
55.25966 99.000
55.27960 93.000
55.29955 84.000
55.31950 95.000
55.33944 106.000
55.35939 77.000
55.37934 80.000
55.39929 104.000
55.41923 91.000
55.43918 99.000
55.45913 94.000
55.47907 95.000
55.49902 124.000
55.51897 100.000
55.53891 93.000
55.55886 91.000
55.57881 101.000
55.59875 100.000
55.61870 105.000
55.63865 112.000
55.65860 97.000
55.67854 116.000
55.69849 114.000
55.71844 99.000
55.73838 109.000
55.75833 80.000
55.77828 107.000
55.79822 108.000
55.81817 114.000
55.83812 86.000
55.85807 86.000
55.87801 104.000
55.89796 103.000
55.91791 107.000
55.93785 120.000
55.95780 95.000
55.97775 87.000
55.99769 102.000
56.01764 94.000
56.03759 86.000
56.05753 92.000
56.07748 111.000
56.09743 88.000
56.11738 113.000
56.13732 111.000
56.15727 108.000
56.17722 107.000
56.19716 110.000
56.21711 96.000
56.23706 112.000
56.25700 113.000
56.27695 106.000
56.29690 101.000
56.31685 99.000
56.33679 84.000
56.35674 110.000
56.37669 117.000
56.39663 117.000
56.41658 99.000
56.43653 124.000
56.45647 74.000
56.47642 110.000
56.49637 98.000
56.51631 113.000
56.53626 103.000
56.55621 103.000
56.57616 132.000
56.59610 104.000
56.61605 124.000
56.63600 120.000
56.65594 133.000
56.67589 109.000
56.69584 139.000
56.71578 137.000
56.73573 133.000
56.75568 137.000
56.77563 134.000
56.79557 156.000
56.81552 187.000
56.83547 195.000
56.85541 184.000
56.87536 203.000
56.89531 195.000
56.91525 220.000
56.93520 210.000
56.95515 228.000
56.97510 220.000
56.99504 216.000
57.01499 266.000
57.03494 248.000
57.05488 280.000
57.07483 277.000
57.09478 259.000
57.11472 300.000
57.13467 279.000
57.15462 286.000
57.17456 264.000
57.19451 274.000
57.21446 259.000
57.23441 214.000
57.25435 251.000
57.27430 232.000
57.29425 212.000
57.31419 216.000
57.33414 199.000
57.35409 181.000
57.37403 200.000
57.39398 173.000
57.41393 143.000
57.43388 170.000
57.45382 136.000
57.47377 142.000
57.49372 142.000
57.51366 145.000
57.53361 125.000
57.55356 144.000
57.57350 103.000
57.59345 102.000
57.61340 120.000
57.63334 124.000
57.65329 108.000
57.67324 96.000
57.69319 101.000
57.71313 118.000
57.73308 120.000
57.75303 102.000
57.77297 104.000
57.79292 103.000
57.81287 121.000
57.83281 108.000
57.85276 125.000
57.87271 87.000
57.89266 112.000
57.91260 109.000
57.93255 125.000
57.95250 102.000
57.97244 106.000
57.99239 108.000
58.01234 110.000
58.03228 117.000
58.05223 88.000
58.07218 131.000
58.09212 84.000
58.11207 116.000
58.13202 110.000
58.15197 98.000
58.17191 114.000
58.19186 108.000
58.21181 95.000
58.23175 120.000
58.25170 118.000
58.27165 130.000
58.29159 100.000
58.31154 99.000
58.33149 95.000
58.35144 110.000
58.37138 123.000
58.39133 110.000
58.41128 128.000
58.43122 108.000
58.45117 111.000
58.47112 128.000
58.49106 94.000
58.51101 113.000
58.53096 101.000
58.55090 110.000
58.57085 118.000
58.59080 108.000
58.61075 116.000
58.63069 123.000
58.65064 117.000
58.67059 104.000
58.69053 105.000
58.71048 109.000
58.73043 92.000
58.75037 103.000
58.77032 104.000
58.79027 111.000
58.81022 108.000
58.83016 105.000
58.85011 82.000
58.87006 111.000
58.89000 107.000
58.90995 106.000
58.92990 90.000
58.94984 109.000
58.96979 105.000
58.98974 110.000
59.00969 114.000
59.02963 101.000
59.04958 94.000
59.06953 113.000
59.08947 104.000
59.10942 115.000
59.12937 85.000
59.14931 102.000
59.16926 121.000
59.18921 96.000
59.20915 80.000
59.22910 96.000
59.24905 113.000
59.26900 115.000
59.28894 92.000
59.30889 85.000
59.32884 97.000
59.34878 95.000
59.36873 94.000
59.38868 109.000
59.40862 114.000
59.42857 97.000
59.44852 101.000
59.46847 94.000
59.48841 106.000
59.50836 97.000
59.52831 114.000
59.54825 90.000
59.56820 104.000
59.58815 107.000
59.60809 96.000
59.62804 109.000
59.64799 98.000
59.66793 97.000
59.68788 98.000
59.70783 124.000
59.72778 125.000
59.74772 89.000
59.76767 108.000
59.78762 91.000
59.80756 105.000
59.82751 90.000
59.84746 102.000
59.86740 119.000
59.88735 101.000
59.90730 98.000
59.92725 98.000
59.94719 111.000
59.96714 112.000
59.98709 114.000
60.00703 109.000
60.02698 115.000
60.04693 89.000
60.06687 109.000
60.08682 89.000
60.10677 90.000
60.12671 103.000
60.14666 115.000
60.16661 119.000
60.18656 109.000
60.20650 90.000
60.22645 101.000
60.24640 110.000
60.26634 103.000
60.28629 104.000
60.30624 107.000
60.32618 95.000
60.34613 117.000
60.36608 112.000
60.38603 104.000
60.40597 106.000
60.42592 106.000
60.44587 106.000
60.46581 91.000
60.48576 100.000
60.50571 104.000
60.52565 104.000
60.54560 93.000
60.56555 99.000
60.58550 112.000
60.60544 108.000
60.62539 96.000
60.64534 112.000
60.66528 88.000
60.68523 133.000
60.70518 109.000
60.72512 117.000
60.74507 111.000
60.76502 108.000
60.78496 110.000
60.80491 99.000
60.82486 117.000
60.84481 107.000
60.86475 113.000
60.88470 127.000
60.90465 99.000
60.92459 129.000
60.94454 109.000
60.96449 114.000
60.98443 125.000
61.00438 125.000
61.02433 119.000
61.04428 99.000
61.06422 112.000
61.08417 125.000
61.10412 136.000
61.12406 140.000
61.14401 124.000
61.16396 135.000
61.18390 128.000
61.20385 136.000
61.22380 130.000
61.24374 132.000
61.26369 146.000
61.28364 132.000
61.30359 153.000
61.32353 152.000
61.34348 154.000
61.36343 197.000
61.38337 157.000
61.40332 191.000
61.42327 201.000
61.44321 226.000
61.46316 230.000
61.48311 274.000
61.50306 272.000
61.52300 351.000
61.54295 404.000
61.56290 479.000
61.58284 517.000
61.60279 679.000
61.62274 740.000
61.64268 709.000
61.66263 669.000
61.68258 609.000
61.70252 519.000
61.72247 462.000
61.74242 488.000
61.76237 510.000
61.78231 515.000
61.80226 530.000
61.82221 477.000
61.84215 426.000
61.86210 333.000
61.88205 315.000
61.90199 259.000
61.92194 269.000
61.94189 205.000
61.96184 191.000
61.98178 191.000
62.00173 183.000
62.02168 170.000
62.04162 158.000
62.06157 160.000
62.08152 178.000
62.10146 164.000
62.12141 158.000
62.14136 157.000
62.16131 166.000
62.18125 163.000
62.20120 145.000
62.22115 153.000
62.24109 148.000
62.26104 126.000
62.28099 175.000
62.30093 193.000
62.32088 171.000
62.34083 159.000
62.36077 189.000
62.38072 208.000
62.40067 205.000
62.42062 206.000
62.44056 218.000
62.46051 213.000
62.48046 241.000
62.50040 248.000
62.52035 236.000
62.54030 254.000
62.56024 291.000
62.58019 259.000
62.60014 311.000
62.62009 297.000
62.64003 284.000
62.65998 291.000
62.67993 315.000
62.69987 347.000
62.71982 306.000
62.73977 314.000
62.75971 294.000
62.77966 305.000
62.79961 294.000
62.81955 308.000
62.83950 280.000
62.85945 261.000
62.87940 255.000
62.89934 249.000
62.91929 259.000
62.93924 234.000
62.95918 220.000
62.97913 237.000
62.99908 226.000
63.01902 188.000
63.03897 182.000
63.05892 199.000
63.07887 171.000
63.09881 173.000
63.11876 152.000
63.13871 138.000
63.15865 163.000
63.17860 126.000
63.19855 126.000
63.21849 149.000
63.23844 121.000
63.25839 131.000
63.27833 121.000
63.29828 117.000
63.31823 131.000
63.33818 133.000
63.35812 105.000
63.37807 124.000
63.39802 119.000
63.41796 119.000
63.43791 120.000
63.45786 118.000
63.47780 131.000
63.49775 112.000
63.51770 108.000
63.53765 110.000
63.55759 122.000
63.57754 114.000
63.59749 115.000
63.61743 113.000
63.63738 116.000
63.65733 114.000
63.67727 101.000
63.69722 119.000
63.71717 103.000
63.73712 100.000
63.75706 84.000
63.77701 104.000
63.79696 106.000
63.81690 120.000
63.83685 104.000
63.85680 115.000
63.87674 117.000
63.89669 111.000
63.91664 110.000
63.93658 104.000
63.95653 107.000
63.97648 112.000
63.99643 117.000
64.01637 89.000
64.03632 131.000
64.05627 115.000
64.07621 101.000
64.09616 105.000
64.11611 125.000
64.13605 102.000
64.15600 133.000
64.17595 130.000
64.19590 148.000
64.21584 146.000
64.23579 136.000
64.25574 130.000
64.27568 169.000
64.29563 135.000
64.31558 168.000
64.33552 179.000
64.35547 189.000
64.37542 201.000
64.39536 252.000
64.41531 285.000
64.43526 380.000
64.45521 496.000
64.47515 593.000
64.49510 593.000
64.51505 573.000
64.53499 507.000
64.55494 470.000
64.57489 418.000
64.59483 360.000
64.61478 320.000
64.63473 385.000
64.65468 407.000
64.67462 402.000
64.69457 417.000
64.71452 328.000
64.73446 275.000
64.75441 231.000
64.77436 222.000
64.79430 170.000
64.81425 188.000
64.83420 160.000
64.85414 164.000
64.87409 150.000
64.89404 130.000
64.91399 136.000
64.93393 127.000
64.95388 143.000
64.97383 133.000
64.99377 125.000
65.01372 106.000
65.03367 103.000
65.05361 107.000
65.07356 128.000
65.09351 101.000
65.11346 133.000
65.13340 121.000
65.15335 119.000
65.17330 128.000
65.19324 101.000
65.21319 124.000
65.23314 108.000
65.25308 112.000
65.27303 109.000
65.29298 112.000
65.31293 130.000
65.33287 116.000
65.35282 104.000
65.37277 116.000
65.39271 120.000
65.41266 108.000
65.43261 111.000
65.45255 114.000
65.47250 107.000
65.49245 111.000
65.51239 114.000
65.53234 128.000
65.55229 121.000
65.57224 123.000
65.59218 125.000
65.61213 120.000
65.63208 119.000
65.65202 133.000
65.67197 143.000
65.69192 118.000
65.71186 110.000
65.73181 137.000
65.75176 128.000
65.77171 96.000
65.79165 120.000
65.81160 122.000
65.83155 116.000
65.85149 139.000
65.87144 137.000
65.89139 112.000
65.91133 140.000
65.93128 153.000
65.95123 131.000
65.97117 141.000
65.99112 140.000
66.01107 141.000
66.03102 147.000
66.05096 146.000
66.07091 151.000
66.09086 173.000
66.11080 202.000
66.13075 208.000
66.15070 234.000
66.17064 206.000
66.19059 200.000
66.21054 183.000
66.23049 165.000
66.25043 170.000
66.27038 178.000
66.29033 180.000
66.31027 179.000
66.33022 219.000
66.35017 180.000
66.37011 189.000
66.39006 187.000
66.41001 165.000
66.42995 159.000
66.44990 136.000
66.46985 140.000
66.48980 132.000
66.50974 122.000
66.52969 130.000
66.54964 150.000
66.56958 150.000
66.58953 141.000
66.60948 131.000
66.62942 117.000
66.64937 169.000
66.66932 165.000
66.68927 177.000
66.70921 216.000
66.72916 199.000
66.74911 269.000
66.76905 319.000
66.78900 391.000
66.80895 402.000
66.82889 423.000
66.84884 489.000
66.86879 413.000
66.88874 392.000
66.90868 328.000
66.92863 306.000
66.94858 273.000
66.96852 303.000
66.98847 308.000
67.00842 296.000
67.02836 338.000
67.04831 279.000
67.06826 255.000
67.08820 228.000
67.10815 221.000
67.12810 172.000
67.14805 161.000
67.16799 137.000
67.18794 135.000
67.20789 138.000
67.22783 148.000
67.24778 137.000
67.26773 133.000
67.28767 132.000
67.30762 112.000
67.32757 125.000
67.34752 103.000
67.36746 118.000
67.38741 99.000
67.40736 125.000
67.42730 111.000
67.44725 112.000
67.46720 134.000
67.48714 119.000
67.50709 100.000
67.52704 99.000
67.54698 92.000
67.56693 101.000
67.58688 115.000
67.60683 116.000
67.62677 123.000
67.64672 107.000
67.66667 113.000
67.68661 98.000
67.70656 116.000
67.72651 92.000
67.74645 106.000
67.76640 114.000
67.78635 103.000
67.80630 113.000
67.82624 98.000
67.84619 114.000
67.86614 107.000
67.88608 107.000
67.90603 112.000
67.92598 117.000
67.94592 119.000
67.96587 115.000
67.98582 102.000
68.00576 94.000
68.02571 121.000
68.04566 119.000
68.06561 106.000
68.08555 118.000
68.10550 101.000
68.12545 99.000
68.14539 130.000
68.16534 95.000
68.18529 103.000
68.20523 109.000
68.22518 112.000
68.24513 107.000
68.26508 106.000
68.28502 100.000
68.30497 95.000
68.32492 101.000
68.34486 103.000
68.36481 92.000
68.38476 105.000
68.40470 97.000
68.42465 98.000
68.44460 101.000
68.46455 111.000
68.48449 92.000
68.50444 129.000
68.52439 117.000
68.54433 111.000
68.56428 112.000
68.58423 104.000
68.60417 84.000
68.62412 128.000
68.64407 116.000
68.66401 101.000
68.68396 100.000
68.70391 91.000
68.72386 105.000
68.74380 96.000
68.76375 83.000
68.78370 103.000
68.80364 101.000
68.82359 102.000
68.84354 95.000
68.86348 95.000
68.88343 112.000
68.90338 93.000
68.92333 95.000
68.94327 94.000
68.96322 90.000
68.98317 109.000
69.00311 109.000
69.02306 117.000
69.04301 91.000
69.06295 104.000
69.08290 91.000
69.10285 121.000
69.12279 98.000
69.14274 113.000
69.16269 93.000
69.18264 113.000
69.20258 104.000
69.22253 110.000
69.24248 101.000
69.26242 119.000
69.28237 94.000
69.30232 116.000
69.32226 88.000
69.34221 93.000
69.36216 123.000
69.38211 95.000
69.40205 115.000
69.42200 108.000
69.44195 94.000
69.46189 97.000
69.48184 130.000
69.50179 103.000
69.52173 102.000
69.54168 104.000
69.56163 109.000
69.58157 122.000
69.60152 103.000
69.62147 91.000
69.64142 104.000
69.66136 101.000
69.68131 95.000
69.70126 97.000
69.72120 110.000
69.74115 70.000
69.76110 95.000
69.78104 90.000
69.80099 89.000
69.82094 104.000
69.84089 92.000
69.86083 113.000
69.88078 98.000
69.90073 89.000
69.92067 81.000
69.94062 105.000
69.96057 97.000
69.98051 101.000
70.00046 112.000
70.02041 105.000
70.04035 93.000
70.06030 99.000
70.08025 101.000
70.10020 93.000
70.12014 116.000
70.14009 107.000
70.16004 79.000
70.17998 114.000
70.19993 83.000
70.21988 82.000
70.23982 106.000
70.25977 92.000
70.27972 90.000
70.29967 101.000
70.31961 84.000
70.33956 111.000
70.35951 111.000
70.37945 86.000
70.39940 95.000
70.41935 85.000
70.43929 110.000
70.45924 100.000
70.47919 103.000
70.49914 90.000
70.51908 78.000
70.53903 89.000
70.55898 96.000
70.57892 95.000
70.59887 97.000
70.61882 95.000
70.63876 95.000
70.65871 110.000
70.67866 85.000
70.69860 100.000
70.71855 103.000
70.73850 113.000
70.75845 108.000
70.77839 107.000
70.79834 116.000
70.81829 124.000
70.83823 104.000
70.85818 91.000
70.87813 101.000
70.89807 123.000
70.91802 96.000
70.93797 104.000
70.95792 84.000
70.97786 111.000
70.99781 100.000
71.01776 95.000
71.03770 110.000
71.05765 98.000
71.07760 122.000
71.09754 107.000
71.11749 105.000
71.13744 100.000
71.15738 91.000
71.17733 107.000
71.19728 98.000
71.21723 110.000
71.23717 106.000
71.25712 109.000
71.27707 101.000
71.29701 107.000
71.31696 90.000
71.33691 104.000
71.35685 118.000
71.37680 100.000
71.39675 87.000
71.41670 104.000
71.43664 118.000
71.45659 113.000
71.47654 111.000
71.49648 101.000
71.51643 106.000
71.53638 121.000
71.55632 90.000
71.57627 111.000
71.59622 108.000
71.61616 88.000
71.63611 115.000
71.65606 95.000
71.67601 85.000
71.69595 113.000
71.71590 80.000
71.73585 99.000
71.75579 94.000
71.77574 121.000
71.79569 88.000
71.81563 115.000
71.83558 104.000
71.85553 87.000
71.87548 81.000
71.89542 85.000
71.91537 111.000
71.93532 93.000
71.95526 119.000
71.97521 110.000
71.99516 102.000
72.01510 101.000
72.03505 114.000
72.05500 102.000
72.07495 86.000
72.09489 82.000
72.11484 87.000
72.13479 96.000
72.15473 101.000
72.17468 106.000
72.19463 96.000
72.21457 93.000
72.23452 91.000
72.25447 98.000
72.27441 113.000
72.29436 101.000
72.31431 100.000
72.33426 121.000
72.35420 111.000
72.37415 103.000
72.39410 104.000
72.41404 114.000
72.43399 112.000
72.45394 106.000
72.47388 113.000
72.49383 98.000
72.51378 103.000
72.53373 100.000
72.55367 93.000
72.57362 87.000
72.59357 105.000
72.61351 95.000
72.63346 108.000
72.65341 83.000
72.67335 116.000
72.69330 104.000
72.71325 96.000
72.73319 102.000
72.75314 115.000
72.77309 85.000
72.79304 100.000
72.81298 87.000
72.83293 91.000
72.85288 112.000
72.87282 87.000
72.89277 83.000
72.91272 121.000
72.93266 109.000
72.95261 83.000
72.97256 92.000
72.99251 105.000
73.01245 116.000
73.03240 108.000
73.05235 101.000
73.07229 99.000
73.09224 99.000
73.11219 93.000
73.13213 113.000
73.15208 90.000
73.17203 97.000
73.19197 115.000
73.21192 101.000
73.23187 105.000
73.25182 123.000
73.27176 118.000
73.29171 110.000
73.31166 112.000
73.33160 115.000
73.35155 107.000
73.37150 119.000
73.39144 108.000
73.41139 100.000
73.43134 94.000
73.45129 132.000
73.47123 146.000
73.49118 142.000
73.51113 141.000
73.53107 129.000
73.55102 159.000
73.57097 178.000
73.59091 203.000
73.61086 205.000
73.63081 215.000
73.65076 233.000
73.67070 242.000
73.69065 209.000
73.71060 201.000
73.73054 211.000
73.75049 178.000
73.77044 147.000
73.79038 191.000
73.81033 181.000
73.83028 190.000
73.85022 195.000
73.87017 203.000
73.89012 213.000
73.91007 180.000
73.93001 182.000
73.94996 169.000
73.96991 141.000
73.98985 132.000
74.00980 152.000
74.02975 150.000
74.04969 137.000
74.06964 142.000
74.08959 134.000
74.10954 130.000
74.12948 133.000
74.14943 120.000
74.16938 141.000
74.18932 131.000
74.20927 152.000
74.22922 150.000
74.24916 128.000
74.26911 140.000
74.28906 138.000
74.30900 130.000
74.32895 123.000
74.34890 121.000
74.36885 136.000
74.38879 118.000
74.40874 129.000
74.42869 123.000
74.44863 118.000
74.46858 111.000
74.48853 117.000
74.50847 122.000
74.52842 131.000
74.54837 118.000
74.56832 117.000
74.58826 121.000
74.60821 115.000
74.62816 118.000
74.64810 100.000
74.66805 108.000
74.68800 118.000
74.70794 132.000
74.72789 111.000
74.74784 115.000
74.76778 120.000
74.78773 111.000
74.80768 108.000
74.82763 109.000
74.84757 111.000
74.86752 111.000
74.88747 119.000
74.90741 111.000
74.92736 105.000
74.94731 125.000
74.96725 119.000
74.98720 112.000
75.00715 124.000
75.02710 118.000
75.04704 124.000
75.06699 125.000
75.08694 132.000
75.10688 130.000
75.12683 140.000
75.14678 120.000
75.16672 120.000
75.18667 141.000
75.20662 118.000
75.22657 147.000
75.24651 107.000
75.26646 119.000
75.28641 130.000
75.30635 124.000
75.32630 146.000
75.34625 114.000
75.36619 109.000
75.38614 108.000
75.40609 127.000
75.42603 125.000
75.44598 117.000
75.46593 112.000
75.48588 93.000
75.50582 105.000
75.52577 122.000
75.54572 102.000
75.56566 120.000
75.58561 119.000
75.60556 102.000
75.62550 94.000
75.64545 96.000
75.66540 113.000
75.68535 106.000
75.70529 100.000
75.72524 107.000
75.74519 88.000
75.76513 106.000
75.78508 95.000
75.80503 98.000
75.82497 118.000
75.84492 97.000
75.86487 117.000
75.88481 95.000
75.90476 116.000
75.92471 111.000
75.94466 134.000
75.96460 119.000
75.98455 134.000
76.00450 129.000
76.02444 155.000
76.04439 146.000
76.06434 153.000
76.08428 174.000
76.10423 175.000
76.12418 143.000
76.14413 132.000
76.16407 139.000
76.18402 127.000
76.20397 143.000
76.22391 134.000
76.24386 135.000
76.26381 122.000
76.28375 117.000
76.30370 136.000
76.32365 146.000
76.34359 117.000
76.36354 130.000
76.38349 106.000
76.40344 112.000
76.42338 127.000
76.44333 114.000
76.46328 103.000
76.48322 104.000
76.50317 98.000
76.52312 90.000
76.54306 99.000
76.56301 113.000
76.58296 113.000
76.60291 127.000
76.62285 109.000
76.64280 118.000
76.66275 104.000
76.68269 86.000
76.70264 96.000
76.72259 92.000
76.74253 94.000
76.76248 101.000
76.78243 112.000
76.80238 106.000
76.82232 102.000
76.84227 104.000
76.86222 102.000
76.88216 98.000
76.90211 120.000
76.92206 113.000
76.94200 102.000
76.96195 118.000
76.98190 102.000
77.00184 104.000
77.02179 105.000
77.04174 116.000
77.06169 105.000
77.08163 101.000
77.10158 114.000
77.12153 102.000
77.14147 121.000
77.16142 100.000
77.18137 98.000
77.20131 104.000
77.22126 94.000
77.24121 106.000
77.26116 104.000
77.28110 126.000
77.30105 113.000
77.32100 120.000
77.34094 112.000
77.36089 145.000
77.38084 117.000
77.40078 149.000
77.42073 137.000
77.44068 128.000
77.46062 140.000
77.48057 181.000
77.50052 161.000
77.52047 186.000
77.54041 186.000
77.56036 213.000
77.58031 267.000
77.60025 228.000
77.62020 260.000
77.64015 261.000
77.66009 266.000
77.68004 214.000
77.69999 180.000
77.71994 224.000
77.73988 213.000
77.75983 199.000
77.77978 208.000
77.79972 207.000
77.81967 224.000
77.83962 202.000
77.85956 220.000
77.87951 171.000
77.89946 181.000
77.91940 140.000
77.93935 168.000
77.95930 124.000
77.97925 170.000
77.99919 176.000
78.01914 159.000
78.03909 132.000
78.05903 160.000
78.07898 152.000
78.09893 128.000
78.11887 128.000
78.13882 179.000
78.15877 153.000
78.17872 182.000
78.19866 197.000
78.21861 210.000
78.23856 200.000
78.25850 236.000
78.27845 213.000
78.29840 192.000
78.31834 199.000
78.33829 194.000
78.35824 164.000
78.37819 179.000
78.39813 185.000
78.41808 177.000
78.43803 168.000
78.45797 175.000
78.47792 192.000
78.49787 197.000
78.51781 216.000
78.53776 149.000
78.55771 133.000
78.57765 136.000
78.59760 148.000
78.61755 132.000
78.63750 118.000
78.65744 109.000
78.67739 120.000
78.69734 130.000
78.71728 100.000
78.73723 123.000
78.75718 110.000
78.77712 105.000
78.79707 85.000
78.81702 106.000
78.83697 122.000
78.85691 125.000
78.87686 128.000
78.89681 122.000
78.91675 107.000
78.93670 114.000
78.95665 102.000
78.97659 93.000
78.99654 108.000
79.01649 111.000
79.03643 95.000
79.05638 103.000
79.07633 102.000
79.09628 112.000
79.11622 115.000
79.13617 125.000
79.15612 112.000
79.17606 95.000
79.19601 102.000
79.21596 104.000
79.23590 93.000
79.25585 96.000
79.27580 129.000
79.29575 95.000
79.31569 103.000
79.33564 97.000
79.35559 106.000
79.37553 106.000
79.39548 124.000
79.41543 95.000
79.43537 106.000
79.45532 112.000
79.47527 108.000
79.49521 108.000
79.51516 122.000
79.53511 92.000
79.55506 113.000
79.57500 105.000
79.59495 104.000
79.61490 95.000
79.63484 87.000
79.65479 99.000
79.67474 102.000
79.69468 103.000
79.71463 96.000
79.73458 106.000
79.75453 89.000
79.77447 94.000
79.79442 101.000
79.81437 93.000
79.83431 82.000
79.85426 99.000
79.87421 112.000
79.89415 106.000
79.91410 100.000
79.93405 109.000
79.95399 96.000
79.97394 94.000
79.99389 92.000
80.01384 110.000
80.03378 104.000
80.05373 93.000
80.07368 102.000
80.09362 100.000
80.11357 106.000
80.13352 100.000
80.15346 90.000
80.17341 99.000
80.19336 89.000
80.21331 111.000
80.23325 98.000
80.25320 91.000
80.27315 90.000
80.29309 92.000
80.31304 101.000
80.33299 98.000
80.35293 82.000
80.37288 104.000
80.39283 82.000
80.41278 118.000
80.43272 107.000
80.45267 92.000
80.47262 101.000
80.49256 97.000
80.51251 111.000
80.53246 109.000
80.55240 99.000
80.57235 92.000
80.59230 119.000
80.61224 85.000
80.63219 113.000
80.65214 101.000
80.67209 104.000
80.69203 102.000
80.71198 116.000
80.73193 92.000
80.75187 109.000
80.77182 88.000
80.79177 108.000
80.81171 112.000
80.83166 98.000
80.85161 114.000
80.87156 107.000
80.89150 114.000
80.91145 108.000
80.93140 118.000
80.95134 117.000
80.97129 113.000
80.99124 107.000
81.01118 112.000
81.03113 117.000
81.05108 113.000
81.07102 117.000
81.09097 103.000
81.11092 114.000
81.13087 95.000
81.15081 116.000
81.17076 118.000
81.19071 117.000
81.21065 108.000
81.23060 107.000
81.25055 105.000
81.27049 107.000
81.29044 106.000
81.31039 90.000
81.33034 86.000
81.35028 105.000
81.37023 100.000
81.39018 100.000
81.41012 90.000
81.43007 88.000
81.45002 81.000
81.46996 117.000
81.48991 101.000
81.50986 105.000
81.52980 87.000
81.54975 101.000
81.56970 90.000
81.58965 99.000
81.60959 96.000
81.62954 90.000
81.64949 105.000
81.66943 96.000
81.68938 83.000
81.70933 79.000
81.72927 88.000
81.74922 98.000
81.76917 119.000
81.78912 109.000
81.80906 94.000
81.82901 123.000
81.84896 93.000
81.86890 99.000
81.88885 124.000
81.90880 111.000
81.92874 91.000
81.94869 96.000
81.96864 92.000
81.98859 96.000
82.00853 97.000
82.02848 114.000
82.04843 105.000
82.06837 94.000
82.08832 98.000
82.10827 104.000
82.12821 120.000
82.14816 108.000
82.16811 93.000
82.18805 111.000
82.20800 112.000
82.22795 103.000
82.24790 115.000
82.26784 118.000
82.28779 91.000
82.30774 107.000
82.32768 102.000
82.34763 97.000
82.36758 92.000
82.38752 103.000
82.40747 100.000
82.42742 104.000
82.44737 103.000
82.46731 86.000
82.48726 94.000
82.50721 98.000
82.52715 97.000
82.54710 73.000
82.56705 101.000
82.58699 115.000
82.60694 97.000
82.62689 111.000
82.64683 97.000
82.66678 103.000
82.68673 106.000
82.70668 87.000
82.72662 109.000
82.74657 89.000
82.76652 82.000
82.78646 86.000
82.80641 112.000
82.82636 114.000
82.84630 120.000
82.86625 93.000
82.88620 95.000
82.90615 85.000
82.92609 95.000
82.94604 104.000
82.96599 107.000
82.98593 84.000
83.00588 96.000
83.02583 91.000
83.04577 78.000
83.06572 118.000
83.08567 95.000
83.10561 92.000
83.12556 95.000
83.14551 80.000
83.16546 104.000
83.18540 103.000
83.20535 111.000
83.22530 79.000
83.24524 85.000
83.26519 105.000
83.28514 111.000
83.30508 105.000
83.32503 100.000
83.34498 91.000
83.36493 119.000
83.38487 118.000
83.40482 117.000
83.42477 99.000
83.44471 101.000
83.46466 72.000
83.48461 101.000
83.50455 83.000
83.52450 94.000
83.54445 118.000
83.56440 87.000
83.58434 104.000
83.60429 108.000
83.62424 115.000
83.64418 112.000
83.66413 103.000
83.68408 103.000
83.70402 101.000
83.72397 105.000
83.74392 104.000
83.76386 99.000
83.78381 104.000
83.80376 105.000
83.82371 104.000
83.84365 103.000
83.86360 90.000
83.88355 123.000
83.90349 108.000
83.92344 113.000
83.94339 84.000
83.96333 92.000
83.98328 86.000
84.00323 116.000
84.02318 114.000
84.04312 114.000
84.06307 88.000
84.08302 91.000
84.10296 111.000
84.12291 81.000
84.14286 84.000
84.16280 91.000
84.18275 90.000
84.20270 90.000
84.22264 100.000
84.24259 99.000
84.26254 100.000
84.28249 99.000
84.30243 107.000
84.32238 117.000
84.34233 123.000
84.36227 101.000
84.38222 105.000
84.40217 100.000
84.42211 123.000
84.44206 122.000
84.46201 147.000
84.48196 118.000
84.50190 147.000
84.52185 146.000
84.54180 152.000
84.56174 136.000
84.58169 145.000
84.60164 126.000
84.62158 173.000
84.64153 218.000
84.66148 228.000
84.68142 212.000
84.70137 236.000
84.72132 211.000
84.74127 231.000
84.76121 254.000
84.78116 231.000
84.80111 212.000
84.82105 175.000
84.84100 192.000
84.86095 188.000
84.88089 160.000
84.90084 184.000
84.92079 176.000
84.94074 201.000
84.96068 196.000
84.98063 198.000
85.00058 160.000
85.02052 159.000
85.04047 172.000
85.06042 146.000
85.08036 147.000
85.10031 159.000
85.12026 145.000
85.14021 123.000
85.16015 130.000
85.18010 101.000
85.20005 122.000
85.21999 95.000
85.23994 102.000
85.25989 98.000
85.27983 98.000
85.29978 117.000
85.31973 80.000
85.33967 93.000
85.35962 109.000
85.37957 101.000
85.39952 110.000
85.41946 108.000
85.43941 84.000
85.45936 97.000
85.47930 83.000
85.49925 99.000
85.51920 109.000
85.53914 105.000
85.55909 108.000
85.57904 101.000
85.59899 75.000
85.61893 86.000
85.63888 83.000
85.65883 85.000
85.67877 114.000
85.69872 98.000
85.71867 105.000
85.73861 93.000
85.75856 107.000
85.77851 87.000
85.79845 113.000
85.81840 115.000
85.83835 99.000
85.85830 97.000
85.87824 96.000
85.89819 94.000
85.91814 110.000
85.93808 110.000
85.95803 134.000
85.97798 121.000
85.99792 135.000
86.01787 118.000
86.03782 119.000
86.05777 126.000
86.07771 107.000
86.09766 114.000
86.11761 121.000
86.13755 105.000
86.15750 113.000
86.17745 106.000
86.19739 126.000
86.21734 141.000
86.23729 90.000
86.25723 138.000
86.27718 119.000
86.29713 116.000
86.31708 109.000
86.33702 103.000
86.35697 132.000
86.37692 101.000
86.39686 105.000
86.41681 125.000
86.43676 102.000
86.45670 106.000
86.47665 116.000
86.49660 108.000
86.51655 109.000
86.53649 119.000
86.55644 115.000
86.57639 101.000
86.59633 109.000
86.61628 107.000
86.63623 118.000
86.65617 111.000
86.67612 101.000
86.69607 138.000
86.71602 124.000
86.73596 121.000
86.75591 115.000
86.77586 154.000
86.79580 126.000
86.81575 111.000
86.83570 110.000
86.85564 118.000
86.87559 123.000
86.89554 115.000
86.91548 136.000
86.93543 121.000
86.95538 108.000
86.97533 118.000
86.99527 105.000
87.01522 94.000
87.03517 125.000
87.05511 124.000
87.07506 111.000
87.09501 106.000
87.11495 124.000
87.13490 132.000
87.15485 111.000
87.17480 118.000
87.19474 115.000
87.21469 120.000
87.23464 104.000
87.25458 108.000
87.27453 120.000
87.29448 105.000
87.31442 119.000
87.33437 89.000
87.35432 99.000
87.37426 100.000
87.39421 124.000
87.41416 113.000
87.43411 94.000
87.45405 92.000
87.47400 101.000
87.49395 117.000
87.51389 88.000
87.53384 112.000
87.55379 117.000
87.57373 105.000
87.59368 113.000
87.61363 121.000
87.63358 113.000
87.65352 88.000
87.67347 78.000
87.69342 106.000
87.71336 99.000
87.73331 80.000
87.75326 90.000
87.77320 92.000
87.79315 119.000
87.81310 76.000
87.83304 105.000
87.85299 102.000
87.87294 81.000
87.89289 90.000
87.91283 71.000
87.93278 96.000
87.95273 88.000
87.97267 98.000
87.99262 85.000
88.01257 86.000
88.03251 97.000
88.05246 104.000
88.07241 101.000
88.09236 95.000
88.11230 81.000
88.13225 113.000
88.15220 88.000
88.17214 93.000
88.19209 79.000
88.21204 89.000
88.23198 97.000
88.25193 89.000
88.27188 97.000
88.29183 95.000
88.31177 91.000
88.33172 107.000
88.35167 112.000
88.37161 106.000
88.39156 101.000
88.41151 89.000
88.43145 99.000
88.45140 102.000
88.47135 122.000
88.49129 83.000
88.51124 88.000
88.53119 69.000
88.55114 101.000
88.57108 101.000
88.59103 115.000
88.61098 104.000
88.63092 97.000
88.65087 101.000
88.67082 92.000
88.69076 100.000
88.71071 97.000
88.73066 87.000
88.75061 94.000
88.77055 83.000
88.79050 102.000
88.81045 95.000
88.83039 90.000
88.85034 103.000
88.87029 101.000
88.89023 104.000
88.91018 101.000
88.93013 104.000
88.95007 112.000
88.97002 101.000
88.98997 110.000
89.00992 93.000
89.02986 98.000
89.04981 108.000
89.06976 94.000
89.08970 100.000
89.10965 102.000
89.12960 99.000
89.14954 75.000
89.16949 78.000
89.18944 96.000
89.20939 83.000
89.22933 107.000
89.24928 114.000
89.26923 105.000
89.28917 99.000
89.30912 99.000
89.32907 105.000
89.34901 102.000
89.36896 110.000
89.38891 120.000
89.40885 101.000
89.42880 119.000
89.44875 103.000
89.46870 107.000
89.48864 132.000
89.50859 115.000
89.52854 135.000
89.54848 114.000
89.56843 103.000
89.58838 133.000
89.60832 131.000
89.62827 109.000
89.64822 129.000
89.66817 117.000
89.68811 134.000
89.70806 128.000
89.72801 124.000
89.74795 144.000
89.76790 116.000
89.78785 130.000
89.80779 137.000
89.82774 123.000
89.84769 137.000
89.86764 141.000
89.88758 134.000
89.90753 147.000
89.92748 138.000
89.94742 133.000
89.96737 135.000
89.98732 126.000
90.00726 117.000
