10.00000 210.000
10.01995 208.000
10.03989 222.000
10.05984 193.000
10.07979 229.000
10.09973 203.000
10.11968 211.000
10.13963 197.000
10.15958 219.000
10.17952 221.000
10.19947 258.000
10.21942 198.000
10.23936 205.000
10.25931 231.000
10.27926 222.000
10.29920 240.000
10.31915 229.000
10.33910 222.000
10.35905 243.000
10.37899 213.000
10.39894 196.000
10.41889 215.000
10.43883 229.000
10.45878 246.000
10.47873 216.000
10.49867 228.000
10.51862 215.000
10.53857 218.000
10.55851 214.000
10.57846 224.000
10.59841 226.000
10.61836 213.000
10.63830 194.000
10.65825 225.000
10.67820 208.000
10.69814 212.000
10.71809 205.000
10.73804 232.000
10.75798 200.000
10.77793 192.000
10.79788 196.000
10.81783 198.000
10.83777 209.000
10.85772 224.000
10.87767 200.000
10.89761 228.000
10.91756 236.000
10.93751 216.000
10.95745 228.000
10.97740 230.000
10.99735 238.000
11.01730 232.000
11.03724 253.000
11.05719 250.000
11.07714 224.000
11.09708 229.000
11.11703 240.000
11.13698 225.000
11.15692 236.000
11.17687 232.000
11.19682 217.000
11.21676 264.000
11.23671 221.000
11.25666 233.000
11.27661 236.000
11.29655 207.000
11.31650 185.000
11.33645 219.000
11.35639 249.000
11.37634 222.000
11.39629 230.000
11.41623 211.000
11.43618 251.000
11.45613 214.000
11.47608 207.000
11.49602 223.000
11.51597 249.000
11.53592 234.000
11.55586 215.000
11.57581 224.000
11.59576 248.000
11.61570 247.000
11.63565 252.000
11.65560 252.000
11.67554 233.000
11.69549 238.000
11.71544 241.000
11.73539 247.000
11.75533 244.000
11.77528 244.000
11.79523 219.000
11.81517 227.000
11.83512 242.000
11.85507 240.000
11.87501 243.000
11.89496 255.000
11.91491 224.000
11.93486 230.000
11.95480 206.000
11.97475 246.000
11.99470 232.000
12.01464 223.000
12.03459 241.000
12.05454 215.000
12.07448 251.000
12.09443 238.000
12.11438 253.000
12.13432 236.000
12.15427 256.000
12.17422 230.000
12.19417 241.000
12.21411 265.000
12.23406 215.000
12.25401 271.000
12.27395 250.000
12.29390 219.000
12.31385 236.000
12.33379 246.000
12.35374 235.000
12.37369 238.000
12.39364 230.000
12.41358 201.000
12.43353 258.000
12.45348 259.000
12.47342 237.000
12.49337 270.000
12.51332 269.000
12.53326 246.000
12.55321 250.000
12.57316 279.000
12.59311 237.000
12.61305 247.000
12.63300 231.000
12.65295 241.000
12.67289 219.000
12.69284 245.000
12.71279 246.000
12.73273 285.000
12.75268 263.000
12.77263 254.000
12.79257 246.000
12.81252 220.000
12.83247 272.000
12.85242 235.000
12.87236 259.000
12.89231 240.000
12.91226 257.000
12.93220 275.000
12.95215 231.000
12.97210 275.000
12.99204 255.000
13.01199 259.000
13.03194 253.000
13.05189 256.000
13.07183 259.000
13.09178 249.000
13.11173 272.000
13.13167 267.000
13.15162 254.000
13.17157 279.000
13.19151 234.000
13.21146 274.000
13.23141 254.000
13.25135 270.000
13.27130 246.000
13.29125 231.000
13.31120 261.000
13.33114 252.000
13.35109 248.000
13.37104 247.000
13.39098 256.000
13.41093 249.000
13.43088 255.000
13.45082 249.000
13.47077 263.000
13.49072 272.000
13.51067 263.000
13.53061 236.000
13.55056 246.000
13.57051 264.000
13.59045 252.000
13.61040 223.000
13.63035 249.000
13.65029 263.000
13.67024 249.000
13.69019 265.000
13.71013 255.000
13.73008 275.000
13.75003 257.000
13.76998 222.000
13.78992 242.000
13.80987 266.000
13.82982 267.000
13.84976 286.000
13.86971 283.000
13.88966 260.000
13.90960 263.000
13.92955 295.000
13.94950 264.000
13.96945 251.000
13.98939 255.000
14.00934 287.000
14.02929 276.000
14.04923 268.000
14.06918 244.000
14.08913 268.000
14.10907 246.000
14.12902 275.000
14.14897 294.000
14.16892 223.000
14.18886 257.000
14.20881 242.000
14.22876 293.000
14.24870 254.000
14.26865 285.000
14.28860 295.000
14.30854 276.000
14.32849 238.000
14.34844 286.000
14.36838 270.000
14.38833 261.000
14.40828 287.000
14.42823 279.000
14.44817 264.000
14.46812 237.000
14.48807 274.000
14.50801 278.000
14.52796 255.000
14.54791 305.000
14.56785 263.000
14.58780 245.000
14.60775 273.000
14.62770 268.000
14.64764 279.000
14.66759 254.000
14.68754 276.000
14.70748 273.000
14.72743 295.000
14.74738 311.000
14.76732 294.000
14.78727 281.000
14.80722 260.000
14.82716 328.000
14.84711 265.000
14.86706 299.000
14.88701 301.000
14.90695 293.000
14.92690 318.000
14.94685 284.000
14.96679 308.000
14.98674 297.000
15.00669 296.000
15.02663 277.000
15.04658 298.000
15.06653 320.000
15.08648 322.000
15.10642 331.000
15.12637 346.000
15.14632 303.000
15.16626 337.000
15.18621 309.000
15.20616 389.000
15.22610 364.000
15.24605 331.000
15.26600 348.000
15.28594 410.000
15.30589 436.000
15.32584 382.000
15.34579 426.000
15.36573 487.000
15.38568 527.000
15.40563 593.000
15.42557 664.000
15.44552 771.000
15.46547 948.000
15.48541 1091.000
15.50536 1260.000
15.52531 1418.000
15.54526 1791.000
15.56520 1997.000
15.58515 2255.000
15.60510 2538.000
15.62504 2737.000
15.64499 2976.000
15.66494 3227.000
15.68488 3458.000
15.70483 3586.000
15.72478 3456.000
15.74472 3232.000
15.76467 2750.000
15.78462 2199.000
15.80457 1644.000
15.82451 1193.000
15.84446 905.000
15.86441 719.000
15.88435 575.000
15.90430 472.000
15.92425 465.000
15.94419 444.000
15.96414 421.000
15.98409 417.000
16.00404 401.000
16.02398 377.000
16.04393 382.000
16.06388 348.000
16.08382 353.000
16.10377 358.000
16.12372 332.000
16.14366 356.000
16.16361 326.000
16.18356 318.000
16.20351 303.000
16.22345 340.000
16.24340 349.000
16.26335 314.000
16.28329 323.000
16.30324 352.000
16.32319 331.000
16.34313 295.000
16.36308 329.000
16.38303 319.000
16.40297 320.000
16.42292 313.000
16.44287 279.000
16.46282 309.000
16.48276 305.000
16.50271 287.000
16.52266 303.000
16.54260 308.000
16.56255 303.000
16.58250 276.000
16.60244 311.000
16.62239 299.000
16.64234 292.000
16.66229 275.000
16.68223 289.000
16.70218 278.000
16.72213 301.000
16.74207 301.000
16.76202 264.000
16.78197 301.000
16.80191 288.000
16.82186 296.000
16.84181 312.000
16.86175 295.000
16.88170 283.000
16.90165 293.000
16.92160 240.000
16.94154 265.000
16.96149 290.000
16.98144 280.000
17.00138 298.000
17.02133 275.000
17.04128 301.000
17.06122 275.000
17.08117 263.000
17.10112 291.000
17.12107 268.000
17.14101 303.000
17.16096 276.000
17.18091 298.000
17.20085 275.000
17.22080 269.000
17.24075 259.000
17.26069 289.000
17.28064 329.000
17.30059 275.000
17.32053 262.000
17.34048 269.000
17.36043 298.000
17.38038 263.000
17.40032 249.000
17.42027 242.000
17.44022 300.000
17.46016 269.000
17.48011 294.000
17.50006 277.000
17.52000 260.000
17.53995 280.000
17.55990 278.000
17.57985 289.000
17.59979 286.000
17.61974 289.000
17.63969 287.000
17.65963 281.000
17.67958 274.000
17.69953 290.000
17.71947 262.000
17.73942 283.000
17.75937 282.000
17.77932 289.000
17.79926 270.000
17.81921 297.000
17.83916 299.000
17.85910 313.000
17.87905 268.000
17.89900 288.000
17.91894 272.000
17.93889 287.000
17.95884 289.000
17.97878 303.000
17.99873 302.000
18.01868 264.000
18.03863 291.000
18.05857 281.000
18.07852 304.000
18.09847 306.000
18.11841 324.000
18.13836 312.000
18.15831 311.000
18.17825 359.000
18.19820 338.000
18.21815 348.000
18.23810 379.000
18.25804 360.000
18.27799 398.000
18.29794 390.000
18.31788 345.000
18.33783 346.000
18.35778 348.000
18.37772 361.000
18.39767 335.000
18.41762 317.000
18.43756 335.000
18.45751 303.000
18.47746 250.000
18.49741 283.000
18.51735 285.000
18.53730 285.000
18.55725 266.000
18.57719 272.000
18.59714 314.000
18.61709 282.000
18.63703 285.000
18.65698 277.000
18.67693 271.000
18.69688 276.000
18.71682 281.000
18.73677 251.000
18.75672 296.000
18.77666 269.000
18.79661 278.000
18.81656 271.000
18.83650 281.000
18.85645 296.000
18.87640 279.000
18.89634 282.000
18.91629 270.000
18.93624 265.000
18.95619 260.000
18.97613 301.000
18.99608 267.000
19.01603 295.000
19.03597 297.000
19.05592 281.000
19.07587 282.000
19.09581 303.000
19.11576 306.000
19.13571 265.000
19.15566 265.000
19.17560 294.000
19.19555 269.000
19.21550 250.000
19.23544 273.000
19.25539 279.000
19.27534 268.000
19.29528 258.000
19.31523 258.000
19.33518 270.000
19.35513 261.000
19.37507 277.000
19.39502 275.000
19.41497 254.000
19.43491 272.000
19.45486 285.000
19.47481 260.000
19.49475 265.000
19.51470 273.000
19.53465 260.000
19.55459 293.000
19.57454 286.000
19.59449 262.000
19.61444 292.000
19.63438 266.000
19.65433 294.000
19.67428 271.000
19.69422 282.000
19.71417 266.000
19.73412 281.000
19.75406 288.000
19.77401 263.000
19.79396 290.000
19.81391 289.000
19.83385 280.000
19.85380 266.000
19.87375 262.000
19.89369 273.000
19.91364 250.000
19.93359 248.000
19.95353 279.000
19.97348 270.000
19.99343 288.000
20.01337 306.000
20.03332 301.000
20.05327 265.000
20.07322 264.000
20.09316 271.000
20.11311 271.000
20.13306 266.000
20.15300 289.000
20.17295 282.000
20.19290 276.000
20.21284 264.000
20.23279 305.000
20.25274 296.000
20.27269 296.000
20.29263 279.000
20.31258 260.000
20.33253 322.000
20.35247 262.000
20.37242 294.000
20.39237 291.000
20.41231 280.000
20.43226 275.000
20.45221 276.000
20.47215 283.000
20.49210 290.000
20.51205 292.000
20.53200 286.000
20.55194 272.000
20.57189 289.000
20.59184 267.000
20.61178 314.000
20.63173 299.000
20.65168 256.000
20.67162 293.000
20.69157 267.000
20.71152 316.000
20.73147 267.000
20.75141 290.000
20.77136 308.000
20.79131 341.000
20.81125 293.000
20.83120 340.000
20.85115 335.000
20.87109 315.000
20.89104 313.000
20.91099 318.000
20.93094 347.000
20.95088 328.000
20.97083 325.000
20.99078 321.000
21.01072 322.000
21.03067 326.000
21.05062 283.000
21.07056 298.000
21.09051 297.000
21.11046 310.000
21.13040 296.000
21.15035 290.000
21.17030 295.000
21.19025 266.000
21.21019 298.000
21.23014 286.000
21.25009 284.000
21.27003 273.000
21.28998 266.000
21.30993 291.000
21.32987 257.000
21.34982 288.000
21.36977 303.000
21.38972 265.000
21.40966 296.000
21.42961 277.000
21.44956 304.000
21.46950 296.000
21.48945 322.000
21.50940 289.000
21.52934 281.000
21.54929 296.000
21.56924 307.000
21.58918 300.000
21.60913 249.000
21.62908 310.000
21.64903 285.000
21.66897 292.000
21.68892 281.000
21.70887 310.000
21.72881 294.000
21.74876 305.000
21.76871 282.000
21.78865 268.000
21.80860 274.000
21.82855 274.000
21.84850 275.000
21.86844 288.000
21.88839 288.000
21.90834 286.000
21.92828 268.000
21.94823 303.000
21.96818 275.000
21.98812 256.000
22.00807 296.000
22.02802 288.000
22.04796 291.000
22.06791 297.000
22.08786 280.000
22.10781 249.000
22.12775 292.000
22.14770 241.000
22.16765 275.000
22.18759 273.000
22.20754 267.000
22.22749 274.000
22.24743 300.000
22.26738 253.000
22.28733 287.000
22.30728 308.000
22.32722 276.000
22.34717 265.000
22.36712 271.000
22.38706 267.000
22.40701 273.000
22.42696 289.000
22.44690 260.000
22.46685 303.000
22.48680 283.000
22.50675 290.000
22.52669 269.000
22.54664 279.000
22.56659 296.000
22.58653 280.000
22.60648 279.000
22.62643 300.000
22.64637 260.000
22.66632 259.000
22.68627 247.000
22.70621 300.000
22.72616 300.000
22.74611 288.000
22.76606 265.000
22.78600 276.000
22.80595 266.000
22.82590 297.000
22.84584 264.000
22.86579 284.000
22.88574 284.000
22.90568 282.000
22.92563 260.000
22.94558 269.000
22.96553 294.000
22.98547 294.000
23.00542 320.000
23.02537 287.000
23.04531 275.000
23.06526 292.000
23.08521 281.000
23.10515 278.000
23.12510 304.000
23.14505 288.000
23.16499 294.000
23.18494 271.000
23.20489 285.000
23.22484 284.000
23.24478 293.000
23.26473 313.000
23.28468 283.000
23.30462 312.000
23.32457 285.000
23.34452 284.000
23.36446 288.000
23.38441 279.000
23.40436 282.000
23.42431 299.000
23.44425 292.000
23.46420 286.000
23.48415 275.000
23.50409 288.000
23.52404 232.000
23.54399 277.000
23.56393 271.000
23.58388 284.000
23.60383 278.000
23.62377 286.000
23.64372 265.000
23.66367 275.000
23.68362 282.000
23.70356 270.000
23.72351 302.000
23.74346 269.000
23.76340 279.000
23.78335 296.000
23.80330 279.000
23.82324 288.000
23.84319 282.000
23.86314 280.000
23.88309 257.000
23.90303 252.000
23.92298 285.000
23.94293 270.000
23.96287 274.000
23.98282 274.000
24.00277 310.000
24.02271 264.000
24.04266 262.000
24.06261 311.000
24.08256 301.000
24.10250 294.000
24.12245 269.000
24.14240 316.000
24.16234 274.000
24.18229 280.000
24.20224 300.000
24.22218 287.000
24.24213 266.000
24.26208 281.000
24.28202 279.000
24.30197 294.000
24.32192 311.000
24.34187 299.000
24.36181 333.000
24.38176 286.000
24.40171 287.000
24.42165 301.000
24.44160 288.000
24.46155 295.000
24.48149 284.000
24.50144 317.000
24.52139 288.000
24.54134 309.000
24.56128 287.000
24.58123 237.000
24.60118 264.000
24.62112 291.000
24.64107 291.000
24.66102 321.000
24.68096 316.000
24.70091 286.000
24.72086 302.000
24.74080 282.000
24.76075 267.000
24.78070 330.000
24.80065 267.000
24.82059 274.000
24.84054 264.000
24.86049 288.000
24.88043 289.000
24.90038 273.000
24.92033 287.000
24.94027 306.000
24.96022 298.000
24.98017 274.000
25.00012 263.000
25.02006 289.000
25.04001 313.000
25.05996 284.000
25.07990 284.000
25.09985 289.000
25.11980 312.000
25.13974 278.000
25.15969 306.000
25.17964 290.000
25.19958 284.000
25.21953 280.000
25.23948 299.000
25.25943 310.000
25.27937 263.000
25.29932 258.000
25.31927 295.000
25.33921 275.000
25.35916 274.000
25.37911 280.000
25.39905 295.000
25.41900 311.000
25.43895 282.000
25.45890 266.000
25.47884 298.000
25.49879 288.000
25.51874 299.000
25.53868 300.000
25.55863 280.000
25.57858 272.000
25.59852 260.000
25.61847 282.000
25.63842 293.000
25.65837 283.000
25.67831 296.000
25.69826 286.000
25.71821 302.000
25.73815 292.000
25.75810 272.000
25.77805 317.000
25.79799 262.000
25.81794 291.000
25.83789 309.000
25.85783 281.000
25.87778 259.000
25.89773 304.000
25.91768 301.000
25.93762 305.000
25.95757 271.000
25.97752 311.000
25.99746 301.000
26.01741 273.000
26.03736 271.000
26.05730 281.000
26.07725 306.000
26.09720 266.000
26.11715 298.000
26.13709 290.000
26.15704 286.000
26.17699 332.000
26.19693 291.000
26.21688 310.000
26.23683 275.000
26.25677 288.000
26.27672 300.000
26.29667 265.000
26.31661 321.000
26.33656 286.000
26.35651 277.000
26.37646 308.000
26.39640 293.000
26.41635 300.000
26.43630 278.000
26.45624 298.000
26.47619 274.000
26.49614 291.000
26.51608 307.000
26.53603 313.000
26.55598 281.000
26.57593 293.000
26.59587 291.000
26.61582 302.000
26.63577 279.000
26.65571 324.000
26.67566 319.000
26.69561 261.000
26.71555 275.000
26.73550 292.000
26.75545 268.000
26.77539 269.000
26.79534 290.000
26.81529 271.000
26.83524 315.000
26.85518 286.000
26.87513 283.000
26.89508 286.000
26.91502 314.000
26.93497 326.000
26.95492 318.000
26.97486 286.000
26.99481 314.000
27.01476 314.000
27.03471 307.000
27.05465 294.000
27.07460 306.000
27.09455 291.000
27.11449 279.000
27.13444 301.000
27.15439 314.000
27.17433 282.000
27.19428 296.000
27.21423 294.000
27.23417 284.000
27.25412 289.000
27.27407 276.000
27.29402 298.000
27.31396 299.000
27.33391 299.000
27.35386 313.000
27.37380 286.000
27.39375 282.000
27.41370 291.000
27.43364 268.000
27.45359 286.000
27.47354 296.000
27.49349 295.000
27.51343 298.000
27.53338 296.000
27.55333 342.000
27.57327 285.000
27.59322 256.000
27.61317 303.000
27.63311 295.000
27.65306 301.000
27.67301 328.000
27.69296 301.000
27.71290 280.000
27.73285 270.000
27.75280 286.000
27.77274 282.000
27.79269 312.000
27.81264 333.000
27.83258 300.000
27.85253 295.000
27.87248 317.000
27.89242 307.000
27.91237 275.000
27.93232 273.000
27.95227 304.000
27.97221 288.000
27.99216 284.000
28.01211 282.000
28.03205 309.000
28.05200 333.000
28.07195 307.000
28.09189 287.000
28.11184 299.000
28.13179 321.000
28.15174 275.000
28.17168 294.000
28.19163 296.000
28.21158 291.000
28.23152 308.000
28.25147 293.000
28.27142 278.000
28.29136 267.000
28.31131 320.000
28.33126 302.000
28.35120 294.000
28.37115 302.000
28.39110 294.000
28.41105 268.000
28.43099 335.000
28.45094 285.000
28.47089 287.000
28.49083 262.000
28.51078 268.000
28.53073 321.000
28.55067 318.000
28.57062 271.000
28.59057 315.000
28.61052 307.000
28.63046 307.000
28.65041 289.000
28.67036 271.000
28.69030 283.000
28.71025 282.000
28.73020 269.000
28.75014 300.000
28.77009 298.000
28.79004 272.000
28.80998 302.000
28.82993 300.000
28.84988 293.000
28.86983 279.000
28.88977 259.000
28.90972 288.000
28.92967 291.000
28.94961 291.000
28.96956 311.000
28.98951 310.000
29.00945 284.000
29.02940 296.000
29.04935 307.000
29.06930 297.000
29.08924 332.000
29.10919 265.000
29.12914 279.000
29.14908 288.000
29.16903 319.000
29.18898 314.000
29.20892 288.000
29.22887 256.000
29.24882 307.000
29.26877 293.000
29.28871 321.000
29.30866 289.000
29.32861 309.000
29.34855 295.000
29.36850 307.000
29.38845 304.000
29.40839 294.000
29.42834 284.000
29.44829 287.000
29.46823 281.000
29.48818 276.000
29.50813 294.000
29.52808 276.000
29.54802 274.000
29.56797 278.000
29.58792 318.000
29.60786 287.000
29.62781 278.000
29.64776 307.000
29.66770 270.000
29.68765 287.000
29.70760 289.000
29.72755 317.000
29.74749 316.000
29.76744 278.000
29.78739 315.000
29.80733 300.000
29.82728 299.000
29.84723 298.000
29.86717 254.000
29.88712 319.000
29.90707 353.000
29.92701 327.000
29.94696 347.000
29.96691 346.000
29.98686 363.000
30.00680 369.000
30.02675 395.000
30.04670 443.000
30.06664 483.000
30.08659 476.000
30.10654 464.000
30.12648 548.000
30.14643 549.000
30.16638 587.000
30.18633 557.000
30.20627 513.000
30.22622 548.000
30.24617 522.000
30.26611 499.000
30.28606 506.000
30.30601 440.000
30.32595 379.000
30.34590 383.000
30.36585 381.000
30.38579 349.000
30.40574 376.000
30.42569 351.000
30.44564 332.000
30.46558 311.000
30.48553 327.000
30.50548 311.000
30.52542 282.000
30.54537 297.000
30.56532 324.000
30.58526 282.000
30.60521 308.000
30.62516 316.000
30.64511 306.000
30.66505 302.000
30.68500 281.000
30.70495 292.000
30.72489 297.000
30.74484 326.000
30.76479 311.000
30.78473 348.000
30.80468 280.000
30.82463 303.000
30.84458 313.000
30.86452 309.000
30.88447 308.000
30.90442 334.000
30.92436 321.000
30.94431 314.000
30.96426 312.000
30.98420 297.000
31.00415 258.000
31.02410 299.000
31.04404 310.000
31.06399 302.000
31.08394 358.000
31.10389 307.000
31.12383 314.000
31.14378 320.000
31.16373 319.000
31.18367 335.000
31.20362 306.000
31.22357 281.000
31.24351 343.000
31.26346 336.000
31.28341 345.000
31.30336 301.000
31.32330 314.000
31.34325 304.000
31.36320 303.000
31.38314 361.000
31.40309 324.000
31.42304 313.000
31.44298 292.000
31.46293 321.000
31.48288 316.000
31.50282 331.000
31.52277 322.000
31.54272 345.000
31.56267 320.000
31.58261 291.000
31.60256 350.000
31.62251 337.000
31.64245 386.000
31.66240 348.000
31.68235 359.000
31.70229 470.000
31.72224 475.000
31.74219 496.000
31.76214 517.000
31.78208 593.000
31.80203 600.000
31.82198 634.000
31.84192 650.000
31.86187 694.000
31.88182 658.000
31.90176 641.000
31.92171 632.000
31.94166 611.000
31.96160 573.000
31.98155 488.000
32.00150 464.000
32.02145 445.000
32.04139 391.000
32.06134 387.000
32.08129 312.000
32.10123 316.000
32.12118 345.000
32.14113 337.000
32.16107 354.000
32.18102 348.000
32.20097 315.000
32.22092 348.000
32.24086 393.000
32.26081 364.000
32.28076 390.000
32.30070 357.000
32.32065 376.000
32.34060 435.000
32.36054 394.000
32.38049 444.000
32.40044 376.000
32.42039 402.000
32.44033 378.000
32.46028 383.000
32.48023 339.000
32.50017 350.000
32.52012 334.000
32.54007 319.000
32.56001 311.000
32.57996 311.000
32.59991 282.000
32.61985 285.000
32.63980 294.000
32.65975 344.000
32.67970 332.000
32.69964 303.000
32.71959 289.000
32.73954 295.000
32.75948 298.000
32.77943 287.000
32.79938 276.000
32.81932 307.000
32.83927 312.000
32.85922 302.000
32.87917 298.000
32.89911 282.000
32.91906 313.000
32.93901 302.000
32.95895 280.000
32.97890 298.000
32.99885 293.000
33.01879 268.000
33.03874 305.000
33.05869 292.000
33.07863 296.000
33.09858 336.000
33.11853 289.000
33.13848 285.000
33.15842 276.000
33.17837 327.000
33.19832 296.000
33.21826 301.000
33.23821 305.000
33.25816 328.000
33.27810 310.000
33.29805 296.000
33.31800 323.000
33.33795 278.000
33.35789 328.000
33.37784 266.000
33.39779 289.000
33.41773 303.000
33.43768 301.000
33.45763 318.000
33.47757 306.000
33.49752 310.000
33.51747 289.000
33.53741 331.000
33.55736 304.000
33.57731 318.000
33.59726 327.000
33.61720 302.000
33.63715 288.000
33.65710 302.000
33.67704 264.000
33.69699 321.000
33.71694 294.000
33.73688 316.000
33.75683 297.000
33.77678 303.000
33.79673 330.000
33.81667 276.000
33.83662 310.000
33.85657 339.000
33.87651 333.000
33.89646 325.000
33.91641 324.000
33.93635 301.000
33.95630 272.000
33.97625 303.000
33.99620 275.000
34.01614 289.000
34.03609 286.000
34.05604 306.000
34.07598 302.000
34.09593 305.000
34.11588 292.000
34.13582 296.000
34.15577 314.000
34.17572 306.000
34.19566 344.000
34.21561 297.000
34.23556 317.000
34.25551 315.000
34.27545 313.000
34.29540 356.000
34.31535 356.000
34.33529 364.000
34.35524 339.000
34.37519 327.000
34.39513 313.000
34.41508 323.000
34.43503 343.000
34.45498 364.000
34.47492 309.000
34.49487 343.000
34.51482 376.000
34.53476 315.000
34.55471 349.000
34.57466 383.000
34.59460 330.000
34.61455 338.000
34.63450 355.000
34.65444 355.000
34.67439 349.000
34.69434 381.000
34.71429 368.000
34.73423 353.000
34.75418 358.000
34.77413 366.000
34.79407 356.000
34.81402 355.000
34.83397 341.000
34.85391 312.000
34.87386 328.000
34.89381 384.000
34.91376 357.000
34.93370 366.000
34.95365 360.000
34.97360 379.000
34.99354 353.000
35.01349 379.000
35.03344 431.000
35.05338 435.000
35.07333 469.000
35.09328 506.000
35.11322 523.000
35.13317 566.000
35.15312 670.000
35.17307 721.000
35.19301 772.000
35.21296 889.000
35.23291 973.000
35.25285 1141.000
35.27280 1144.000
35.29275 1210.000
35.31269 1443.000
35.33264 1441.000
35.35259 1520.000
35.37254 1587.000
35.39248 1672.000
35.41243 1724.000
35.43238 1884.000
35.45232 1913.000
35.47227 1907.000
35.49222 1948.000
35.51216 1970.000
35.53211 1893.000
35.55206 1945.000
35.57201 1891.000
35.59195 1847.000
35.61190 1823.000
35.63185 1649.000
35.65179 1518.000
35.67174 1379.000
35.69169 1357.000
35.71163 1172.000
35.73158 983.000
35.75153 926.000
35.77147 798.000
35.79142 738.000
35.81137 661.000
35.83132 614.000
35.85126 532.000
35.87121 531.000
35.89116 430.000
35.91110 395.000
35.93105 362.000
35.95100 390.000
35.97094 389.000
35.99089 383.000
36.01084 367.000
36.03079 348.000
36.05073 378.000
36.07068 332.000
36.09063 415.000
36.11057 358.000
36.13052 354.000
36.15047 351.000
36.17041 378.000
36.19036 348.000
36.21031 339.000
36.23025 378.000
36.25020 344.000
36.27015 409.000
36.29010 342.000
36.31004 343.000
36.32999 320.000
36.34994 353.000
36.36988 330.000
36.38983 313.000
36.40978 378.000
36.42972 371.000
36.44967 387.000
36.46962 354.000
36.48957 389.000
36.50951 334.000
36.52946 384.000
36.54941 358.000
36.56935 372.000
36.58930 386.000
36.60925 390.000
36.62919 440.000
36.64914 385.000
36.66909 400.000
36.68903 402.000
36.70898 395.000
36.72893 427.000
36.74888 474.000
36.76882 520.000
36.78877 565.000
36.80872 576.000
36.82866 741.000
36.84861 760.000
36.86856 849.000
36.88850 976.000
36.90845 1034.000
36.92840 1175.000
36.94835 1226.000
36.96829 1237.000
36.98824 1262.000
37.00819 1155.000
37.02813 1101.000
37.04808 1083.000
37.06803 966.000
37.08797 887.000
37.10792 810.000
37.12787 738.000
37.14781 654.000
37.16776 594.000
37.18771 544.000
37.20766 488.000
37.22760 480.000
37.24755 453.000
37.26750 408.000
37.28744 428.000
37.30739 424.000
37.32734 382.000
37.34728 389.000
37.36723 373.000
37.38718 393.000
37.40713 344.000
37.42707 367.000
37.44702 379.000
37.46697 363.000
37.48691 359.000
37.50686 337.000
37.52681 324.000
37.54675 334.000
37.56670 343.000
37.58665 349.000
37.60660 337.000
37.62654 316.000
37.64649 326.000
37.66644 325.000
37.68638 365.000
37.70633 343.000
37.72628 328.000
37.74622 367.000
37.76617 365.000
37.78612 302.000
37.80606 353.000
37.82601 295.000
37.84596 352.000
37.86591 329.000
37.88585 349.000
37.90580 337.000
37.92575 350.000
37.94569 361.000
37.96564 371.000
37.98559 338.000
38.00553 377.000
38.02548 380.000
38.04543 382.000
38.06538 329.000
38.08532 386.000
38.10527 415.000
38.12522 390.000
38.14516 441.000
38.16511 413.000
38.18506 431.000
38.20500 467.000
38.22495 490.000
38.24490 454.000
38.26484 501.000
38.28479 536.000
38.30474 604.000
38.32469 636.000
38.34463 654.000
38.36458 745.000
38.38453 861.000
38.40447 818.000
38.42442 917.000
38.44437 1022.000
38.46431 1052.000
38.48426 1193.000
38.50421 1229.000
38.52416 1170.000
38.54410 1251.000
38.56405 1251.000
38.58400 1260.000
38.60394 1230.000
38.62389 1138.000
38.64384 1133.000
38.66378 1001.000
38.68373 973.000
38.70368 958.000
38.72362 923.000
38.74357 876.000
38.76352 774.000
38.78347 822.000
38.80341 782.000
38.82336 745.000
38.84331 704.000
38.86325 703.000
38.88320 740.000
38.90315 763.000
38.92309 704.000
38.94304 713.000
38.96299 743.000
38.98294 712.000
39.00288 748.000
39.02283 827.000
39.04278 835.000
39.06272 940.000
39.08267 989.000
39.10262 1050.000
39.12256 1118.000
39.14251 1197.000
39.16246 1208.000
39.18241 1184.000
39.20235 1264.000
39.22230 1210.000
39.24225 1153.000
39.26219 1098.000
39.28214 1013.000
39.30209 1021.000
39.32203 894.000
39.34198 800.000
39.36193 714.000
39.38187 679.000
39.40182 607.000
39.42177 549.000
39.44172 515.000
39.46166 439.000
39.48161 426.000
39.50156 383.000
39.52150 395.000
39.54145 400.000
39.56140 378.000
39.58134 370.000
39.60129 369.000
39.62124 328.000
39.64119 376.000
39.66113 353.000
39.68108 313.000
39.70103 314.000
39.72097 349.000
39.74092 344.000
39.76087 329.000
39.78081 351.000
39.80076 339.000
39.82071 325.000
39.84065 309.000
39.86060 309.000
39.88055 303.000
39.90050 329.000
39.92044 298.000
39.94039 323.000
39.96034 287.000
39.98028 281.000
40.00023 295.000
40.02018 310.000
40.04012 323.000
40.06007 290.000
40.08002 313.000
40.09997 282.000
40.11991 298.000
40.13986 291.000
40.15981 297.000
40.17975 298.000
40.19970 298.000
40.21965 307.000
40.23959 296.000
40.25954 312.000
40.27949 295.000
40.29943 325.000
40.31938 315.000
40.33933 304.000
40.35928 324.000
40.37922 298.000
40.39917 284.000
40.41912 267.000
40.43906 288.000
40.45901 292.000
40.47896 294.000
40.49890 285.000
40.51885 292.000
40.53880 323.000
40.55875 289.000
40.57869 304.000
40.59864 280.000
40.61859 279.000
40.63853 290.000
40.65848 292.000
40.67843 293.000
40.69837 284.000
40.71832 280.000
40.73827 289.000
40.75822 315.000
40.77816 295.000
40.79811 286.000
40.81806 317.000
40.83800 302.000
40.85795 302.000
40.87790 292.000
40.89784 304.000
40.91779 276.000
40.93774 299.000
40.95768 315.000
40.97763 297.000
40.99758 313.000
41.01753 283.000
41.03747 294.000
41.05742 279.000
41.07737 276.000
41.09731 278.000
41.11726 301.000
41.13721 269.000
41.15715 315.000
41.17710 283.000
41.19705 315.000
41.21700 294.000
41.23694 278.000
41.25689 308.000
41.27684 292.000
41.29678 309.000
41.31673 287.000
41.33668 299.000
41.35662 310.000
41.37657 304.000
41.39652 276.000
41.41646 268.000
41.43641 299.000
41.45636 320.000
41.47631 314.000
41.49625 301.000
41.51620 307.000
41.53615 294.000
41.55609 303.000
41.57604 284.000
41.59599 288.000
41.61593 296.000
41.63588 313.000
41.65583 284.000
41.67578 297.000
41.69572 280.000
41.71567 275.000
41.73562 297.000
41.75556 288.000
41.77551 311.000
41.79546 307.000
41.81540 295.000
41.83535 276.000
41.85530 273.000
41.87524 262.000
41.89519 315.000
41.91514 301.000
41.93509 279.000
41.95503 296.000
41.97498 315.000
41.99493 290.000
42.01487 308.000
42.03482 301.000
42.05477 329.000
42.07471 277.000
42.09466 291.000
42.11461 292.000
42.13456 283.000
42.15450 316.000
42.17445 268.000
42.19440 322.000
42.21434 342.000
42.23429 311.000
42.25424 299.000
42.27418 335.000
42.29413 294.000
42.31408 322.000
42.33403 302.000
42.35397 327.000
42.37392 307.000
42.39387 317.000
42.41381 310.000
42.43376 350.000
42.45371 371.000
42.47365 345.000
42.49360 337.000
42.51355 348.000
42.53349 361.000
42.55344 346.000
42.57339 346.000
42.59334 376.000
42.61328 385.000
42.63323 399.000
42.65318 423.000
42.67312 436.000
42.69307 449.000
42.71302 538.000
42.73296 527.000
42.75291 643.000
42.77286 644.000
42.79281 668.000
42.81275 798.000
42.83270 847.000
42.85265 935.000
42.87259 1030.000
42.89254 1149.000
42.91249 1294.000
42.93243 1352.000
42.95238 1353.000
42.97233 1462.000
42.99227 1460.000
43.01222 1473.000
43.03217 1420.000
43.05212 1363.000
43.07206 1406.000
43.09201 1314.000
43.11196 1241.000
43.13190 1205.000
43.15185 1205.000
43.17180 1145.000
43.19174 1086.000
43.21169 1014.000
43.23164 1007.000
43.25159 1040.000
43.27153 934.000
43.29148 943.000
43.31143 933.000
43.33137 871.000
43.35132 877.000
43.37127 819.000
43.39121 820.000
43.41116 735.000
43.43111 688.000
43.45105 649.000
43.47100 582.000
43.49095 487.000
43.51090 499.000
43.53084 512.000
43.55079 459.000
43.57074 418.000
43.59068 389.000
43.61063 356.000
43.63058 349.000
43.65052 356.000
43.67047 349.000
43.69042 350.000
43.71037 349.000
43.73031 294.000
43.75026 363.000
43.77021 310.000
43.79015 317.000
43.81010 327.000
43.83005 317.000
43.84999 317.000
43.86994 303.000
43.88989 320.000
43.90984 296.000
43.92978 291.000
43.94973 318.000
43.96968 282.000
43.98962 267.000
44.00957 292.000
44.02952 303.000
44.04946 307.000
44.06941 258.000
44.08936 321.000
44.10930 295.000
44.12925 277.000
44.14920 277.000
44.16915 277.000
44.18909 301.000
44.20904 351.000
44.22899 312.000
44.24893 316.000
44.26888 314.000
44.28883 277.000
44.30877 303.000
44.32872 272.000
44.34867 274.000
44.36862 295.000
44.38856 303.000
44.40851 319.000
44.42846 300.000
44.44840 275.000
44.46835 299.000
44.48830 299.000
44.50824 237.000
44.52819 297.000
44.54814 332.000
44.56808 326.000
44.58803 277.000
44.60798 322.000
44.62793 291.000
44.64787 290.000
44.66782 305.000
44.68777 301.000
44.70771 302.000
44.72766 293.000
44.74761 289.000
44.76755 309.000
44.78750 295.000
44.80745 304.000
44.82740 290.000
44.84734 286.000
44.86729 274.000
44.88724 315.000
44.90718 275.000
44.92713 311.000
44.94708 320.000
44.96702 299.000
44.98697 314.000
45.00692 286.000
45.02686 318.000
45.04681 318.000
45.06676 291.000
45.08671 310.000
45.10665 329.000
45.12660 296.000
45.14655 283.000
45.16649 299.000
45.18644 346.000
45.20639 309.000
45.22633 307.000
45.24628 260.000
45.26623 293.000
45.28618 302.000
45.30612 300.000
45.32607 300.000
45.34602 296.000
45.36596 290.000
45.38591 293.000
45.40586 308.000
45.42580 281.000
45.44575 295.000
45.46570 286.000
45.48565 300.000
45.50559 292.000
45.52554 293.000
45.54549 290.000
45.56543 298.000
45.58538 281.000
45.60533 285.000
45.62527 299.000
45.64522 291.000
45.66517 288.000
45.68511 300.000
45.70506 321.000
45.72501 290.000
45.74496 295.000
45.76490 294.000
45.78485 282.000
45.80480 287.000
45.82474 287.000
45.84469 325.000
45.86464 309.000
45.88458 331.000
45.90453 316.000
45.92448 255.000
45.94443 327.000
45.96437 333.000
45.98432 305.000
46.00427 311.000
46.02421 307.000
46.04416 279.000
46.06411 279.000
46.08405 271.000
46.10400 334.000
46.12395 306.000
46.14389 334.000
46.16384 314.000
46.18379 319.000
46.20374 297.000
46.22368 324.000
46.24363 302.000
46.26358 296.000
46.28352 294.000
46.30347 297.000
46.32342 304.000
46.34336 314.000
46.36331 323.000
46.38326 293.000
46.40321 285.000
46.42315 273.000
46.44310 285.000
46.46305 275.000
46.48299 290.000
46.50294 278.000
46.52289 309.000
46.54283 302.000
46.56278 311.000
46.58273 288.000
46.60267 268.000
46.62262 294.000
46.64257 300.000
46.66252 287.000
46.68246 291.000
46.70241 274.000
46.72236 299.000
46.74230 311.000
46.76225 301.000
46.78220 295.000
46.80214 272.000
46.82209 306.000
46.84204 293.000
46.86199 284.000
46.88193 300.000
46.90188 270.000
46.92183 287.000
46.94177 285.000
46.96172 302.000
46.98167 312.000
47.00161 299.000
47.02156 296.000
47.04151 278.000
47.06146 273.000
47.08140 301.000
47.10135 330.000
47.12130 302.000
47.14124 296.000
47.16119 301.000
47.18114 276.000
47.20108 299.000
47.22103 291.000
47.24098 294.000
47.26092 272.000
47.28087 308.000
47.30082 310.000
47.32077 289.000
47.34071 292.000
47.36066 251.000
47.38061 280.000
47.40055 307.000
47.42050 286.000
47.44045 284.000
47.46039 303.000
47.48034 294.000
47.50029 284.000
47.52024 309.000
47.54018 316.000
47.56013 335.000
47.58008 274.000
47.60002 324.000
47.61997 275.000
47.63992 303.000
47.65986 321.000
47.67981 297.000
47.69976 323.000
47.71970 284.000
47.73965 309.000
47.75960 280.000
47.77955 302.000
47.79949 329.000
47.81944 302.000
47.83939 284.000
47.85933 319.000
47.87928 268.000
47.89923 317.000
47.91917 306.000
47.93912 323.000
47.95907 328.000
47.97902 320.000
47.99896 305.000
48.01891 309.000
48.03886 349.000
48.05880 333.000
48.07875 325.000
48.09870 340.000
48.11864 307.000
48.13859 329.000
48.15854 396.000
48.17848 353.000
48.19843 364.000
48.21838 383.000
48.23833 338.000
48.25827 391.000
48.27822 389.000
48.29817 406.000
48.31811 444.000
48.33806 467.000
48.35801 481.000
48.37795 518.000
48.39790 559.000
48.41785 585.000
48.43780 641.000
48.45774 705.000
48.47769 804.000
48.49764 900.000
48.51758 937.000
48.53753 1035.000
48.55748 1139.000
48.57742 1232.000
48.59737 1268.000
48.61732 1234.000
48.63726 1285.000
48.65721 1266.000
48.67716 1282.000
48.69711 1240.000
48.71705 1185.000
48.73700 1156.000
48.75695 1048.000
48.77689 951.000
48.79684 885.000
48.81679 822.000
48.83673 702.000
48.85668 673.000
48.87663 610.000
48.89658 563.000
48.91652 500.000
48.93647 498.000
48.95642 504.000
48.97636 472.000
48.99631 422.000
49.01626 423.000
49.03620 379.000
49.05615 371.000
49.07610 383.000
49.09605 317.000
49.11599 346.000
49.13594 381.000
49.15589 373.000
49.17583 390.000
49.19578 326.000
49.21573 338.000
49.23567 342.000
49.25562 355.000
49.27557 323.000
49.29551 312.000
49.31546 351.000
49.33541 336.000
49.35536 331.000
49.37530 328.000
49.39525 310.000
49.41520 316.000
49.43514 336.000
49.45509 301.000
49.47504 292.000
49.49498 285.000
49.51493 327.000
49.53488 343.000
49.55483 317.000
49.57477 266.000
49.59472 298.000
49.61467 306.000
49.63461 314.000
49.65456 322.000
49.67451 293.000
49.69445 319.000
49.71440 310.000
49.73435 283.000
49.75429 315.000
49.77424 307.000
49.79419 310.000
49.81414 306.000
49.83408 276.000
49.85403 277.000
49.87398 314.000
49.89392 295.000
49.91387 296.000
49.93382 312.000
49.95376 305.000
49.97371 282.000
49.99366 318.000
50.01361 271.000
50.03355 315.000
50.05350 300.000
50.07345 302.000
50.09339 287.000
50.11334 318.000
50.13329 299.000
50.15323 285.000
50.17318 272.000
50.19313 289.000
50.21307 298.000
50.23302 300.000
50.25297 287.000
50.27292 295.000
50.29286 283.000
50.31281 297.000
50.33276 263.000
50.35270 270.000
50.37265 272.000
50.39260 294.000
50.41254 290.000
50.43249 260.000
50.45244 305.000
50.47239 264.000
50.49233 290.000
50.51228 309.000
50.53223 286.000
50.55217 264.000
50.57212 290.000
50.59207 280.000
50.61201 292.000
50.63196 284.000
50.65191 300.000
50.67186 274.000
50.69180 310.000
50.71175 300.000
50.73170 311.000
50.75164 294.000
50.77159 298.000
50.79154 278.000
50.81148 281.000
50.83143 314.000
50.85138 288.000
50.87132 302.000
50.89127 282.000
50.91122 280.000
50.93117 286.000
50.95111 274.000
50.97106 282.000
50.99101 301.000
51.01095 281.000
51.03090 285.000
51.05085 288.000
51.07079 326.000
51.09074 295.000
51.11069 275.000
51.13064 281.000
51.15058 322.000
51.17053 276.000
51.19048 285.000
51.21042 291.000
51.23037 290.000
51.25032 320.000
51.27026 295.000
51.29021 290.000
51.31016 331.000
51.33010 285.000
51.35005 270.000
51.37000 256.000
51.38995 255.000
51.40989 297.000
51.42984 275.000
51.44979 324.000
51.46973 280.000
51.48968 317.000
51.50963 277.000
51.52957 309.000
51.54952 308.000
51.56947 281.000
51.58942 292.000
51.60936 281.000
51.62931 277.000
51.64926 258.000
51.66920 262.000
51.68915 259.000
51.70910 278.000
51.72904 266.000
51.74899 292.000
51.76894 268.000
51.78888 286.000
51.80883 297.000
51.82878 286.000
51.84873 255.000
51.86867 309.000
51.88862 295.000
51.90857 262.000
51.92851 286.000
51.94846 255.000
51.96841 285.000
51.98835 304.000
52.00830 288.000
52.02825 244.000
52.04820 278.000
52.06814 279.000
52.08809 280.000
52.10804 292.000
52.12798 279.000
52.14793 292.000
52.16788 273.000
52.18782 290.000
52.20777 283.000
52.22772 273.000
52.24767 265.000
52.26761 311.000
52.28756 320.000
52.30751 256.000
52.32745 287.000
52.34740 290.000
52.36735 298.000
52.38729 292.000
52.40724 296.000
52.42719 265.000
52.44713 266.000
52.46708 312.000
52.48703 297.000
52.50698 298.000
52.52692 302.000
52.54687 284.000
52.56682 329.000
52.58676 272.000
52.60671 278.000
52.62666 297.000
52.64660 311.000
52.66655 296.000
52.68650 268.000
52.70645 334.000
52.72639 300.000
52.74634 303.000
52.76629 332.000
52.78623 298.000
52.80618 301.000
52.82613 292.000
52.84607 297.000
52.86602 329.000
52.88597 327.000
52.90591 303.000
52.92586 285.000
52.94581 316.000
52.96576 319.000
52.98570 319.000
53.00565 327.000
53.02560 307.000
53.04554 333.000
53.06549 373.000
53.08544 299.000
53.10538 333.000
53.12533 317.000
53.14528 355.000
53.16523 364.000
53.18517 342.000
53.20512 381.000
53.22507 352.000
53.24501 321.000
53.26496 323.000
53.28491 330.000
53.30485 337.000
53.32480 342.000
53.34475 339.000
53.36469 359.000
53.38464 351.000
53.40459 354.000
53.42454 341.000
53.44448 368.000
53.46443 338.000
53.48438 349.000
53.50432 367.000
53.52427 347.000
53.54422 347.000
53.56416 335.000
53.58411 342.000
53.60406 320.000
53.62401 377.000
53.64395 322.000
53.66390 339.000
53.68385 367.000
53.70379 376.000
53.72374 361.000
53.74369 361.000
53.76363 359.000
53.78358 371.000
53.80353 361.000
53.82348 367.000
53.84342 366.000
53.86337 312.000
53.88332 341.000
53.90326 353.000
53.92321 301.000
53.94316 305.000
53.96310 277.000
53.98305 284.000
54.00300 311.000
54.02294 274.000
54.04289 282.000
54.06284 275.000
54.08279 296.000
54.10273 294.000
54.12268 282.000
54.14263 289.000
54.16257 305.000
54.18252 309.000
54.20247 304.000
54.22241 290.000
54.24236 312.000
54.26231 283.000
54.28226 297.000
54.30220 302.000
54.32215 277.000
54.34210 292.000
54.36204 303.000
54.38199 287.000
54.40194 296.000
54.42188 287.000
54.44183 274.000
54.46178 313.000
54.48172 342.000
54.50167 302.000
54.52162 314.000
54.54157 301.000
54.56151 275.000
54.58146 278.000
54.60141 295.000
54.62135 284.000
54.64130 299.000
54.66125 307.000
54.68119 308.000
54.70114 271.000
54.72109 273.000
54.74104 277.000
54.76098 283.000
54.78093 298.000
54.80088 310.000
54.82082 292.000
54.84077 274.000
54.86072 313.000
54.88066 261.000
54.90061 275.000
54.92056 288.000
54.94050 294.000
54.96045 277.000
54.98040 289.000
55.00035 285.000
55.02029 288.000
55.04024 303.000
55.06019 288.000
55.08013 296.000
55.10008 292.000
55.12003 289.000
55.13997 285.000
55.15992 280.000
55.17987 283.000
55.19982 300.000
55.21976 298.000
55.23971 300.000
55.25966 306.000
55.27960 285.000
55.29955 294.000
55.31950 317.000
55.33944 290.000
55.35939 318.000
55.37934 308.000
55.39929 273.000
55.41923 292.000
55.43918 297.000
55.45913 282.000
55.47907 281.000
55.49902 269.000
55.51897 282.000
55.53891 267.000
55.55886 292.000
55.57881 281.000
55.59875 262.000
55.61870 280.000
55.63865 308.000
55.65860 277.000
55.67854 299.000
55.69849 266.000
55.71844 267.000
55.73838 280.000
55.75833 315.000
55.77828 304.000
55.79822 277.000
55.81817 301.000
55.83812 295.000
55.85807 279.000
55.87801 275.000
55.89796 301.000
55.91791 293.000
55.93785 305.000
55.95780 305.000
55.97775 285.000
55.99769 321.000
56.01764 290.000
56.03759 249.000
56.05753 299.000
56.07748 296.000
56.09743 265.000
56.11738 273.000
56.13732 317.000
56.15727 290.000
56.17722 298.000
56.19716 289.000
56.21711 273.000
56.23706 258.000
56.25700 329.000
56.27695 279.000
56.29690 329.000
56.31685 322.000
56.33679 310.000
56.35674 286.000
56.37669 315.000
56.39663 302.000
56.41658 288.000
56.43653 294.000
56.45647 291.000
56.47642 278.000
56.49637 292.000
56.51631 302.000
56.53626 284.000
56.55621 321.000
56.57616 319.000
56.59610 314.000
56.61605 295.000
56.63600 307.000
56.65594 289.000
56.67589 316.000
56.69584 284.000
56.71578 297.000
56.73573 292.000
56.75568 289.000
56.77563 288.000
56.79557 305.000
56.81552 293.000
56.83547 289.000
56.85541 305.000
56.87536 305.000
56.89531 327.000
56.91525 311.000
56.93520 334.000
56.95515 313.000
56.97510 303.000
56.99504 322.000
57.01499 309.000
57.03494 314.000
57.05488 363.000
57.07483 310.000
57.09478 373.000
57.11472 409.000
57.13467 377.000
57.15462 403.000
57.17456 411.000
57.19451 456.000
57.21446 427.000
57.23441 432.000
57.25435 489.000
57.27430 479.000
57.29425 477.000
57.31419 517.000
57.33414 453.000
57.35409 462.000
57.37403 485.000
57.39398 478.000
57.41393 463.000
57.43388 414.000
57.45382 447.000
57.47377 415.000
57.49372 386.000
57.51366 405.000
57.53361 394.000
57.55356 378.000
57.57350 389.000
57.59345 351.000
57.61340 353.000
57.63334 351.000
57.65329 328.000
57.67324 325.000
57.69319 380.000
57.71313 312.000
57.73308 320.000
57.75303 315.000
57.77297 355.000
57.79292 301.000
57.81287 309.000
57.83281 347.000
57.85276 307.000
57.87271 322.000
57.89266 358.000
57.91260 345.000
57.93255 353.000
57.95250 352.000
57.97244 396.000
57.99239 356.000
58.01234 353.000
58.03228 410.000
58.05223 423.000
58.07218 418.000
58.09212 378.000
58.11207 390.000
58.13202 410.000
58.15197 356.000
58.17191 370.000
58.19186 397.000
58.21181 393.000
58.23175 412.000
58.25170 400.000
58.27165 402.000
58.29159 387.000
58.31154 357.000
58.33149 310.000
58.35144 342.000
58.37138 346.000
58.39133 344.000
58.41128 302.000
58.43122 295.000
58.45117 328.000
58.47112 295.000
58.49106 319.000
58.51101 308.000
58.53096 329.000
58.55090 303.000
58.57085 330.000
58.59080 314.000
58.61075 297.000
58.63069 296.000
58.65064 293.000
58.67059 293.000
58.69053 288.000
58.71048 288.000
58.73043 302.000
58.75037 289.000
58.77032 294.000
58.79027 273.000
58.81022 292.000
58.83016 287.000
58.85011 296.000
58.87006 289.000
58.89000 325.000
58.90995 263.000
58.92990 291.000
58.94984 297.000
58.96979 283.000
58.98974 273.000
59.00969 244.000
59.02963 285.000
59.04958 291.000
59.06953 275.000
59.08947 275.000
59.10942 275.000
59.12937 293.000
59.14931 306.000
59.16926 279.000
59.18921 296.000
59.20915 284.000
59.22910 284.000
59.24905 292.000
59.26900 275.000
59.28894 283.000
59.30889 319.000
59.32884 297.000
59.34878 280.000
59.36873 307.000
59.38868 296.000
59.40862 264.000
59.42857 298.000
59.44852 260.000
59.46847 282.000
59.48841 304.000
59.50836 290.000
59.52831 288.000
59.54825 302.000
59.56820 286.000
59.58815 308.000
59.60809 288.000
59.62804 317.000
59.64799 270.000
59.66793 252.000
59.68788 314.000
59.70783 317.000
59.72778 293.000
59.74772 294.000
59.76767 293.000
59.78762 317.000
59.80756 292.000
59.82751 265.000
59.84746 314.000
59.86740 261.000
59.88735 307.000
59.90730 307.000
59.92725 318.000
59.94719 321.000
59.96714 279.000
59.98709 272.000
60.00703 262.000
60.02698 290.000
60.04693 272.000
60.06687 303.000
60.08682 295.000
60.10677 287.000
60.12671 282.000
60.14666 313.000
60.16661 317.000
60.18656 314.000
60.20650 272.000
60.22645 274.000
60.24640 277.000
60.26634 297.000
60.28629 290.000
60.30624 295.000
60.32618 274.000
60.34613 279.000
60.36608 293.000
60.38603 282.000
60.40597 286.000
60.42592 297.000
60.44587 260.000
60.46581 278.000
60.48576 288.000
60.50571 284.000
60.52565 276.000
60.54560 283.000
60.56555 296.000
60.58550 280.000
60.60544 283.000
60.62539 296.000
60.64534 285.000
60.66528 302.000
60.68523 312.000
60.70518 318.000
60.72512 326.000
60.74507 319.000
60.76502 310.000
60.78496 328.000
60.80491 304.000
60.82486 308.000
60.84481 293.000
60.86475 326.000
60.88470 335.000
60.90465 269.000
60.92459 330.000
60.94454 288.000
60.96449 320.000
60.98443 329.000
61.00438 319.000
61.02433 295.000
61.04428 321.000
61.06422 329.000
61.08417 344.000
61.10412 321.000
61.12406 291.000
61.14401 360.000
61.16396 360.000
61.18390 295.000
61.20385 343.000
61.22380 354.000
61.24374 365.000
61.26369 355.000
61.28364 415.000
61.30359 397.000
61.32353 419.000
61.34348 431.000
61.36343 442.000
61.38337 469.000
61.40332 486.000
61.42327 464.000
61.44321 500.000
61.46316 467.000
61.48311 453.000
61.50306 490.000
61.52300 473.000
61.54295 439.000
61.56290 484.000
61.58284 459.000
61.60279 467.000
61.62274 468.000
61.64268 434.000
61.66263 486.000
61.68258 468.000
61.70252 498.000
61.72247 485.000
61.74242 489.000
61.76237 574.000
61.78231 591.000
61.80226 594.000
61.82221 571.000
61.84215 620.000
61.86210 650.000
61.88205 628.000
61.90199 634.000
61.92194 609.000
61.94189 626.000
61.96184 599.000
61.98178 556.000
62.00173 561.000
62.02168 568.000
62.04162 562.000
62.06157 486.000
62.08152 515.000
62.10146 497.000
62.12141 493.000
62.14136 474.000
62.16131 478.000
62.18125 475.000
62.20120 453.000
62.22115 497.000
62.24109 478.000
62.26104 510.000
62.28099 496.000
62.30093 531.000
62.32088 544.000
62.34083 582.000
62.36077 617.000
62.38072 688.000
62.40067 689.000
62.42062 672.000
62.44056 718.000
62.46051 743.000
62.48046 803.000
62.50040 794.000
62.52035 787.000
62.54030 813.000
62.56024 775.000
62.58019 709.000
62.60014 766.000
62.62009 743.000
62.64003 754.000
62.65998 700.000
62.67993 681.000
62.69987 691.000
62.71982 639.000
62.73977 628.000
62.75971 612.000
62.77966 656.000
62.79961 587.000
62.81955 635.000
62.83950 586.000
62.85945 608.000
62.87940 586.000
62.89934 606.000
62.91929 533.000
62.93924 607.000
62.95918 567.000
62.97913 613.000
62.99908 562.000
63.01902 566.000
63.03897 518.000
63.05892 499.000
63.07887 528.000
63.09881 505.000
63.11876 481.000
63.13871 441.000
63.15865 456.000
63.17860 423.000
63.19855 432.000
63.21849 404.000
63.23844 417.000
63.25839 374.000
63.27833 360.000
63.29828 362.000
63.31823 357.000
63.33818 338.000
63.35812 372.000
63.37807 318.000
63.39802 319.000
63.41796 336.000
63.43791 349.000
63.45786 354.000
63.47780 311.000
63.49775 287.000
63.51770 346.000
63.53765 304.000
63.55759 327.000
63.57754 345.000
63.59749 338.000
63.61743 317.000
63.63738 312.000
63.65733 334.000
63.67727 350.000
63.69722 340.000
63.71717 321.000
63.73712 330.000
63.75706 361.000
63.77701 355.000
63.79696 349.000
63.81690 345.000
63.83685 364.000
63.85680 371.000
63.87674 401.000
63.89669 384.000
63.91664 463.000
63.93658 481.000
63.95653 419.000
63.97648 461.000
63.99643 439.000
64.01637 436.000
64.03632 441.000
64.05627 479.000
64.07621 460.000
64.09616 513.000
64.11611 494.000
64.13605 514.000
64.15600 496.000
64.17595 504.000
64.19590 489.000
64.21584 521.000
64.23579 493.000
64.25574 435.000
64.27568 477.000
64.29563 472.000
64.31558 476.000
64.33552 437.000
64.35547 463.000
64.37542 414.000
64.39536 428.000
64.41531 417.000
64.43526 400.000
64.45521 369.000
64.47515 388.000
64.49510 373.000
64.51505 368.000
64.53499 342.000
64.55494 342.000
64.57489 317.000
64.59483 327.000
64.61478 351.000
64.63473 343.000
64.65468 327.000
64.67462 306.000
64.69457 302.000
64.71452 348.000
64.73446 316.000
64.75441 324.000
64.77436 259.000
64.79430 334.000
64.81425 315.000
64.83420 318.000
64.85414 298.000
64.87409 311.000
64.89404 319.000
64.91399 337.000
64.93393 313.000
64.95388 317.000
64.97383 321.000
64.99377 291.000
65.01372 337.000
65.03367 306.000
65.05361 297.000
65.07356 290.000
65.09351 329.000
65.11346 294.000
65.13340 302.000
65.15335 316.000
65.17330 305.000
65.19324 318.000
65.21319 315.000
65.23314 314.000
65.25308 288.000
65.27303 287.000
65.29298 365.000
65.31293 296.000
65.33287 336.000
65.35282 312.000
65.37277 347.000
65.39271 365.000
65.41266 351.000
65.43261 353.000
65.45255 333.000
65.47250 414.000
65.49245 338.000
65.51239 362.000
65.53234 399.000
65.55229 355.000
65.57224 365.000
65.59218 412.000
65.61213 365.000
65.63208 352.000
65.65202 372.000
65.67197 397.000
65.69192 377.000
65.71186 352.000
65.73181 393.000
65.75176 355.000
65.77171 392.000
65.79165 389.000
65.81160 427.000
65.83155 381.000
65.85149 382.000
65.87144 336.000
65.89139 396.000
65.91133 387.000
65.93128 353.000
65.95123 377.000
65.97117 389.000
65.99112 396.000
66.01107 412.000
66.03102 396.000
66.05096 396.000
66.07091 421.000
66.09086 468.000
66.11080 464.000
66.13075 429.000
66.15070 470.000
66.17064 466.000
66.19059 465.000
66.21054 536.000
66.23049 444.000
66.25043 510.000
66.27038 490.000
66.29033 500.000
66.31027 534.000
66.33022 528.000
66.35017 514.000
66.37011 515.000
66.39006 497.000
66.41001 493.000
66.42995 482.000
66.44990 489.000
66.46985 437.000
66.48980 471.000
66.50974 438.000
66.52969 475.000
66.54964 472.000
66.56958 469.000
66.58953 468.000
66.60948 454.000
66.62942 445.000
66.64937 480.000
66.66932 433.000
66.68927 481.000
66.70921 452.000
66.72916 406.000
66.74911 453.000
66.76905 448.000
66.78900 415.000
66.80895 427.000
66.82889 406.000
66.84884 416.000
66.86879 390.000
66.88874 419.000
66.90868 372.000
66.92863 395.000
66.94858 390.000
66.96852 365.000
66.98847 366.000
67.00842 374.000
67.02836 305.000
67.04831 338.000
67.06826 326.000
67.08820 343.000
67.10815 352.000
67.12810 310.000
67.14805 292.000
67.16799 323.000
67.18794 319.000
67.20789 345.000
67.22783 318.000
67.24778 299.000
67.26773 290.000
67.28767 365.000
67.30762 318.000
67.32757 326.000
67.34752 320.000
67.36746 318.000
67.38741 325.000
67.40736 321.000
67.42730 330.000
67.44725 354.000
67.46720 329.000
67.48714 329.000
67.50709 299.000
67.52704 352.000
67.54698 355.000
67.56693 349.000
67.58688 371.000
67.60683 346.000
67.62677 347.000
67.64672 377.000
67.66667 360.000
67.68661 367.000
67.70656 386.000
67.72651 379.000
67.74645 382.000
67.76640 376.000
67.78635 413.000
67.80630 366.000
67.82624 399.000
67.84619 392.000
67.86614 428.000
67.88608 374.000
67.90603 419.000
67.92598 442.000
67.94592 437.000
67.96587 402.000
67.98582 398.000
68.00576 392.000
68.02571 427.000
68.04566 416.000
68.06561 404.000
68.08555 397.000
68.10550 377.000
68.12545 353.000
68.14539 348.000
68.16534 359.000
68.18529 362.000
68.20523 405.000
68.22518 348.000
68.24513 312.000
68.26508 383.000
68.28502 327.000
68.30497 323.000
68.32492 317.000
68.34486 307.000
68.36481 319.000
68.38476 306.000
68.40470 274.000
68.42465 306.000
68.44460 311.000
68.46455 331.000
68.48449 304.000
68.50444 321.000
68.52439 285.000
68.54433 297.000
68.56428 264.000
68.58423 300.000
68.60417 282.000
68.62412 281.000
68.64407 285.000
68.66401 313.000
68.68396 299.000
68.70391 271.000
68.72386 274.000
68.74380 316.000
68.76375 331.000
68.78370 301.000
68.80364 309.000
68.82359 276.000
68.84354 254.000
68.86348 274.000
68.88343 315.000
68.90338 287.000
68.92333 296.000
68.94327 275.000
68.96322 291.000
68.98317 291.000
69.00311 308.000
69.02306 294.000
69.04301 299.000
69.06295 328.000
69.08290 279.000
69.10285 287.000
69.12279 288.000
69.14274 300.000
69.16269 264.000
69.18264 270.000
69.20258 308.000
69.22253 301.000
69.24248 318.000
69.26242 273.000
69.28237 276.000
69.30232 293.000
69.32226 283.000
69.34221 276.000
69.36216 281.000
69.38211 266.000
69.40205 273.000
69.42200 278.000
69.44195 304.000
69.46189 289.000
69.48184 292.000
69.50179 256.000
69.52173 259.000
69.54168 307.000
69.56163 287.000
69.58157 290.000
69.60152 272.000
69.62147 288.000
69.64142 258.000
69.66136 267.000
69.68131 290.000
69.70126 264.000
69.72120 279.000
69.74115 319.000
69.76110 304.000
69.78104 325.000
69.80099 289.000
69.82094 286.000
69.84089 245.000
69.86083 277.000
69.88078 286.000
69.90073 326.000
69.92067 284.000
69.94062 337.000
69.96057 301.000
69.98051 281.000
70.00046 316.000
70.02041 283.000
70.04035 290.000
70.06030 288.000
70.08025 265.000
70.10020 284.000
70.12014 312.000
70.14009 288.000
70.16004 303.000
70.17998 293.000
70.19993 297.000
70.21988 265.000
70.23982 271.000
70.25977 294.000
70.27972 314.000
70.29967 287.000
70.31961 288.000
70.33956 296.000
70.35951 283.000
70.37945 288.000
70.39940 294.000
70.41935 267.000
70.43929 284.000
70.45924 289.000
70.47919 283.000
70.49914 305.000
70.51908 299.000
70.53903 277.000
70.55898 282.000
70.57892 283.000
70.59887 253.000
70.61882 311.000
70.63876 272.000
70.65871 289.000
70.67866 252.000
70.69860 282.000
70.71855 276.000
70.73850 254.000
70.75845 265.000
70.77839 300.000
70.79834 295.000
70.81829 270.000
70.83823 289.000
70.85818 244.000
70.87813 300.000
70.89807 285.000
70.91802 257.000
70.93797 276.000
70.95792 264.000
70.97786 293.000
70.99781 279.000
71.01776 291.000
71.03770 289.000
71.05765 297.000
71.07760 313.000
71.09754 281.000
71.11749 283.000
71.13744 323.000
71.15738 315.000
71.17733 268.000
71.19728 285.000
71.21723 270.000
71.23717 319.000
71.25712 314.000
71.27707 305.000
71.29701 325.000
71.31696 301.000
71.33691 293.000
71.35685 282.000
71.37680 310.000
71.39675 292.000
71.41670 312.000
71.43664 306.000
71.45659 286.000
71.47654 286.000
71.49648 301.000
71.51643 299.000
71.53638 315.000
71.55632 273.000
71.57627 308.000
71.59622 301.000
71.61616 302.000
71.63611 311.000
71.65606 281.000
71.67601 274.000
71.69595 286.000
71.71590 292.000
71.73585 291.000
71.75579 265.000
71.77574 289.000
71.79569 257.000
71.81563 277.000
71.83558 299.000
71.85553 314.000
71.87548 285.000
71.89542 288.000
71.91537 303.000
71.93532 284.000
71.95526 278.000
71.97521 291.000
71.99516 309.000
72.01510 325.000
72.03505 292.000
72.05500 290.000
72.07495 291.000
72.09489 315.000
72.11484 302.000
72.13479 310.000
72.15473 311.000
72.17468 337.000
72.19463 337.000
72.21457 360.000
72.23452 374.000
72.25447 345.000
72.27441 355.000
72.29436 330.000
72.31431 321.000
72.33426 340.000
72.35420 329.000
72.37415 303.000
72.39410 351.000
72.41404 311.000
72.43399 322.000
72.45394 333.000
72.47388 342.000
72.49383 312.000
72.51378 305.000
72.53373 272.000
72.55367 318.000
72.57362 293.000
72.59357 317.000
72.61351 278.000
72.63346 317.000
72.65341 278.000
72.67335 326.000
72.69330 281.000
72.71325 272.000
72.73319 297.000
72.75314 296.000
72.77309 292.000
72.79304 280.000
72.81298 255.000
72.83293 285.000
72.85288 292.000
72.87282 286.000
72.89277 288.000
72.91272 286.000
72.93266 289.000
72.95261 288.000
72.97256 290.000
72.99251 291.000
73.01245 300.000
73.03240 262.000
73.05235 323.000
73.07229 294.000
73.09224 329.000
73.11219 289.000
73.13213 281.000
73.15208 319.000
73.17203 282.000
73.19197 317.000
73.21192 315.000
73.23187 321.000
73.25182 322.000
73.27176 348.000
73.29171 337.000
73.31166 345.000
73.33160 334.000
73.35155 334.000
73.37150 370.000
73.39144 328.000
73.41139 345.000
73.43134 350.000
73.45129 362.000
73.47123 332.000
73.49118 352.000
73.51113 343.000
73.53107 321.000
73.55102 364.000
73.57097 334.000
73.59091 330.000
73.61086 343.000
73.63081 372.000
73.65076 350.000
73.67070 323.000
73.69065 353.000
73.71060 316.000
73.73054 325.000
73.75049 349.000
73.77044 300.000
73.79038 341.000
73.81033 303.000
73.83028 313.000
73.85022 338.000
73.87017 283.000
73.89012 341.000
73.91007 292.000
73.93001 282.000
73.94996 308.000
73.96991 285.000
73.98985 296.000
74.00980 287.000
74.02975 311.000
74.04969 284.000
74.06964 301.000
74.08959 295.000
74.10954 312.000
74.12948 301.000
74.14943 266.000
74.16938 316.000
74.18932 328.000
74.20927 309.000
74.22922 284.000
74.24916 319.000
74.26911 312.000
74.28906 311.000
74.30900 312.000
74.32895 371.000
74.34890 313.000
74.36885 346.000
74.38879 333.000
74.40874 356.000
74.42869 354.000
74.44863 377.000
74.46858 369.000
74.48853 372.000
74.50847 342.000
74.52842 338.000
74.54837 364.000
74.56832 382.000
74.58826 378.000
74.60821 352.000
74.62816 340.000
74.64810 382.000
74.66805 385.000
74.68800 386.000
74.70794 403.000
74.72789 379.000
74.74784 415.000
74.76778 433.000
74.78773 396.000
74.80768 480.000
74.82763 458.000
74.84757 463.000
74.86752 479.000
74.88747 477.000
74.90741 477.000
74.92736 521.000
74.94731 495.000
74.96725 549.000
74.98720 498.000
75.00715 513.000
75.02710 512.000
75.04704 490.000
75.06699 510.000
75.08694 525.000
75.10688 466.000
75.12683 482.000
75.14678 433.000
75.16672 441.000
75.18667 454.000
75.20662 431.000
75.22657 427.000
75.24651 426.000
75.26646 400.000
75.28641 433.000
75.30635 374.000
75.32630 446.000
75.34625 418.000
75.36619 389.000
75.38614 364.000
75.40609 342.000
75.42603 366.000
75.44598 366.000
75.46593 387.000
75.48588 378.000
75.50582 356.000
75.52577 374.000
75.54572 374.000
75.56566 336.000
75.58561 351.000
75.60556 346.000
75.62550 362.000
75.64545 360.000
75.66540 307.000
75.68535 339.000
75.70529 309.000
75.72524 351.000
75.74519 313.000
75.76513 291.000
75.78508 353.000
75.80503 309.000
75.82497 350.000
75.84492 312.000
75.86487 303.000
75.88481 318.000
75.90476 296.000
75.92471 316.000
75.94466 330.000
75.96460 305.000
75.98455 308.000
76.00450 296.000
76.02444 298.000
76.04439 331.000
76.06434 325.000
76.08428 289.000
76.10423 306.000
76.12418 285.000
76.14413 284.000
76.16407 275.000
76.18402 297.000
76.20397 314.000
76.22391 304.000
76.24386 268.000
76.26381 281.000
76.28375 279.000
76.30370 280.000
76.32365 286.000
76.34359 320.000
76.36354 288.000
76.38349 274.000
76.40344 288.000
76.42338 303.000
76.44333 264.000
76.46328 298.000
76.48322 301.000
76.50317 292.000
76.52312 257.000
76.54306 287.000
76.56301 317.000
76.58296 294.000
76.60291 304.000
76.62285 295.000
76.64280 285.000
76.66275 284.000
76.68269 294.000
76.70264 281.000
76.72259 292.000
76.74253 279.000
76.76248 277.000
76.78243 263.000
76.80238 308.000
76.82232 305.000
76.84227 289.000
76.86222 275.000
76.88216 288.000
76.90211 285.000
76.92206 266.000
76.94200 283.000
76.96195 280.000
76.98190 263.000
77.00184 278.000
77.02179 286.000
77.04174 253.000
77.06169 314.000
77.08163 283.000
77.10158 292.000
77.12153 299.000
77.14147 255.000
77.16142 253.000
77.18137 282.000
77.20131 265.000
77.22126 301.000
77.24121 298.000
77.26116 285.000
77.28110 320.000
77.30105 266.000
77.32100 273.000
77.34094 328.000
77.36089 311.000
77.38084 295.000
77.40078 305.000
77.42073 292.000
77.44068 265.000
77.46062 279.000
77.48057 294.000
77.50052 284.000
77.52047 302.000
77.54041 309.000
77.56036 362.000
77.58031 304.000
77.60025 323.000
77.62020 346.000
77.64015 337.000
77.66009 320.000
77.68004 323.000
77.69999 347.000
77.71994 361.000
77.73988 346.000
77.75983 318.000
77.77978 370.000
77.79972 330.000
77.81967 365.000
77.83962 386.000
77.85956 356.000
77.87951 373.000
77.89946 348.000
77.91940 354.000
77.93935 382.000
77.95930 374.000
77.97925 358.000
77.99919 361.000
78.01914 397.000
78.03909 395.000
78.05903 388.000
78.07898 402.000
78.09893 352.000
78.11887 369.000
78.13882 393.000
78.15877 422.000
78.17872 417.000
78.19866 405.000
78.21861 377.000
78.23856 392.000
78.25850 344.000
78.27845 410.000
78.29840 401.000
78.31834 354.000
78.33829 341.000
78.35824 349.000
78.37819 359.000
78.39813 335.000
78.41808 355.000
78.43803 291.000
78.45797 318.000
78.47792 351.000
78.49787 361.000
78.51781 329.000
78.53776 333.000
78.55771 328.000
78.57765 356.000
78.59760 331.000
78.61755 302.000
78.63750 346.000
78.65744 299.000
78.67739 308.000
78.69734 300.000
78.71728 329.000
78.73723 323.000
78.75718 365.000
78.77712 370.000
78.79707 369.000
78.81702 362.000
78.83697 334.000
78.85691 406.000
78.87686 369.000
78.89681 380.000
78.91675 388.000
78.93670 383.000
78.95665 395.000
78.97659 413.000
78.99654 374.000
79.01649 366.000
79.03643 402.000
79.05638 426.000
79.07633 344.000
79.09628 351.000
79.11622 364.000
79.13617 432.000
79.15612 350.000
79.17606 364.000
79.19601 369.000
79.21596 376.000
79.23590 365.000
79.25585 330.000
79.27580 364.000
79.29575 302.000
79.31569 324.000
79.33564 316.000
79.35559 317.000
79.37553 333.000
79.39548 326.000
79.41543 315.000
79.43537 321.000
79.45532 319.000
79.47527 301.000
79.49521 309.000
79.51516 301.000
79.53511 298.000
79.55506 314.000
79.57500 316.000
79.59495 289.000
79.61490 294.000
79.63484 286.000
79.65479 294.000
79.67474 306.000
79.69468 278.000
79.71463 319.000
79.73458 313.000
79.75453 307.000
79.77447 297.000
79.79442 288.000
79.81437 269.000
79.83431 281.000
79.85426 302.000
79.87421 282.000
79.89415 266.000
79.91410 284.000
79.93405 323.000
79.95399 292.000
79.97394 293.000
79.99389 322.000
80.01384 339.000
80.03378 318.000
80.05373 290.000
80.07368 291.000
80.09362 285.000
80.11357 277.000
80.13352 318.000
80.15346 294.000
80.17341 330.000
80.19336 287.000
80.21331 347.000
80.23325 314.000
80.25320 326.000
80.27315 276.000
80.29309 297.000
80.31304 304.000
80.33299 312.000
80.35293 296.000
80.37288 300.000
80.39283 288.000
80.41278 245.000
80.43272 285.000
80.45267 317.000
80.47262 300.000
80.49256 282.000
80.51251 324.000
80.53246 300.000
80.55240 282.000
80.57235 316.000
80.59230 292.000
80.61224 301.000
80.63219 270.000
80.65214 286.000
80.67209 309.000
80.69203 279.000
80.71198 293.000
80.73193 292.000
80.75187 298.000
80.77182 316.000
80.79177 288.000
80.81171 296.000
80.83166 280.000
80.85161 310.000
80.87156 280.000
80.89150 311.000
80.91145 339.000
80.93140 340.000
80.95134 313.000
80.97129 291.000
80.99124 281.000
81.01118 261.000
81.03113 274.000
81.05108 283.000
81.07102 282.000
81.09097 281.000
81.11092 261.000
81.13087 303.000
81.15081 297.000
81.17076 256.000
81.19071 234.000
81.21065 277.000
81.23060 299.000
81.25055 282.000
81.27049 291.000
81.29044 286.000
81.31039 306.000
81.33034 291.000
81.35028 281.000
81.37023 311.000
81.39018 290.000
81.41012 302.000
81.43007 299.000
81.45002 300.000
81.46996 274.000
81.48991 278.000
81.50986 290.000
81.52980 304.000
81.54975 297.000
81.56970 287.000
81.58965 297.000
81.60959 292.000
81.62954 320.000
81.64949 277.000
81.66943 318.000
81.68938 267.000
81.70933 306.000
81.72927 271.000
81.74922 269.000
81.76917 264.000
81.78912 286.000
81.80906 267.000
81.82901 316.000
81.84896 291.000
81.86890 307.000
81.88885 270.000
81.90880 302.000
81.92874 259.000
81.94869 300.000
81.96864 285.000
81.98859 287.000
82.00853 287.000
82.02848 304.000
82.04843 306.000
82.06837 290.000
82.08832 304.000
82.10827 276.000
82.12821 292.000
82.14816 307.000
82.16811 308.000
82.18805 310.000
82.20800 290.000
82.22795 276.000
82.24790 306.000
82.26784 272.000
82.28779 319.000
82.30774 331.000
82.32768 318.000
82.34763 340.000
82.36758 312.000
82.38752 281.000
82.40747 319.000
82.42742 334.000
82.44737 308.000
82.46731 306.000
82.48726 289.000
82.50721 309.000
82.52715 305.000
82.54710 290.000
82.56705 333.000
82.58699 312.000
82.60694 318.000
82.62689 327.000
82.64683 335.000
82.66678 352.000
82.68673 351.000
82.70668 320.000
82.72662 296.000
82.74657 347.000
82.76652 324.000
82.78646 310.000
82.80641 317.000
82.82636 340.000
82.84630 317.000
82.86625 340.000
82.88620 311.000
82.90615 295.000
82.92609 345.000
82.94604 280.000
82.96599 324.000
82.98593 321.000
83.00588 288.000
83.02583 312.000
83.04577 325.000
83.06572 309.000
83.08567 298.000
83.10561 289.000
83.12556 292.000
83.14551 308.000
83.16546 320.000
83.18540 285.000
83.20535 312.000
83.22530 315.000
83.24524 324.000
83.26519 302.000
83.28514 311.000
83.30508 311.000
83.32503 303.000
83.34498 314.000
83.36493 294.000
83.38487 285.000
83.40482 303.000
83.42477 317.000
83.44471 315.000
83.46466 296.000
83.48461 315.000
83.50455 306.000
83.52450 316.000
83.54445 337.000
83.56440 315.000
83.58434 320.000
83.60429 310.000
83.62424 308.000
83.64418 306.000
83.66413 341.000
83.68408 257.000
83.70402 292.000
83.72397 290.000
83.74392 308.000
83.76386 335.000
83.78381 274.000
83.80376 296.000
83.82371 341.000
83.84365 300.000
83.86360 308.000
83.88355 293.000
83.90349 303.000
83.92344 321.000
83.94339 292.000
83.96333 312.000
83.98328 266.000
84.00323 286.000
84.02318 310.000
84.04312 300.000
84.06307 320.000
84.08302 293.000
84.10296 318.000
84.12291 319.000
84.14286 362.000
84.16280 302.000
84.18275 315.000
84.20270 282.000
84.22264 308.000
84.24259 338.000
84.26254 296.000
84.28249 335.000
84.30243 329.000
84.32238 329.000
84.34233 310.000
84.36227 328.000
84.38222 344.000
84.40217 330.000
84.42211 321.000
84.44206 345.000
84.46201 350.000
84.48196 401.000
84.50190 346.000
84.52185 329.000
84.54180 334.000
84.56174 328.000
84.58169 354.000
84.60164 376.000
84.62158 368.000
84.64153 336.000
84.66148 334.000
84.68142 320.000
84.70137 333.000
84.72132 351.000
84.74127 349.000
84.76121 330.000
84.78116 332.000
84.80111 338.000
84.82105 331.000
84.84100 362.000
84.86095 345.000
84.88089 306.000
84.90084 323.000
84.92079 315.000
84.94074 343.000
84.96068 292.000
84.98063 282.000
85.00058 305.000
85.02052 282.000
85.04047 297.000
85.06042 294.000
85.08036 311.000
85.10031 309.000
85.12026 329.000
85.14021 288.000
85.16015 266.000
85.18010 303.000
85.20005 280.000
85.21999 310.000
85.23994 280.000
85.25989 288.000
85.27983 318.000
85.29978 280.000
85.31973 327.000
85.33967 283.000
85.35962 310.000
85.37957 263.000
85.39952 273.000
85.41946 265.000
85.43941 312.000
85.45936 288.000
85.47930 293.000
85.49925 295.000
85.51920 335.000
85.53914 302.000
85.55909 304.000
85.57904 307.000
85.59899 266.000
85.61893 291.000
85.63888 289.000
85.65883 258.000
85.67877 277.000
85.69872 315.000
85.71867 272.000
85.73861 275.000
85.75856 282.000
85.77851 295.000
85.79845 289.000
85.81840 283.000
85.83835 279.000
85.85830 271.000
85.87824 275.000
85.89819 303.000
85.91814 302.000
85.93808 277.000
85.95803 286.000
85.97798 279.000
85.99792 269.000
86.01787 262.000
86.03782 250.000
86.05777 297.000
86.07771 286.000
86.09766 279.000
86.11761 301.000
86.13755 275.000
86.15750 250.000
86.17745 272.000
86.19739 266.000
86.21734 278.000
86.23729 287.000
86.25723 284.000
86.27718 286.000
86.29713 284.000
86.31708 267.000
86.33702 314.000
86.35697 289.000
86.37692 306.000
86.39686 290.000
86.41681 313.000
86.43676 280.000
86.45670 297.000
86.47665 275.000
86.49660 303.000
86.51655 291.000
86.53649 314.000
86.55644 275.000
86.57639 310.000
86.59633 293.000
86.61628 285.000
86.63623 300.000
86.65617 254.000
86.67612 280.000
86.69607 294.000
86.71602 294.000
86.73596 272.000
86.75591 281.000
86.77586 298.000
86.79580 286.000
86.81575 335.000
86.83570 295.000
86.85564 264.000
86.87559 291.000
86.89554 309.000
86.91548 304.000
86.93543 335.000
86.95538 309.000
86.97533 288.000
86.99527 316.000
87.01522 298.000
87.03517 301.000
87.05511 315.000
87.07506 277.000
87.09501 286.000
87.11495 283.000
87.13490 308.000
87.15485 332.000
87.17480 306.000
87.19474 310.000
87.21469 291.000
87.23464 310.000
87.25458 286.000
87.27453 329.000
87.29448 291.000
87.31442 282.000
87.33437 314.000
87.35432 339.000
87.37426 288.000
87.39421 318.000
87.41416 296.000
87.43411 337.000
87.45405 306.000
87.47400 322.000
87.49395 312.000
87.51389 339.000
87.53384 283.000
87.55379 322.000
87.57373 309.000
87.59368 298.000
87.61363 322.000
87.63358 291.000
87.65352 296.000
87.67347 280.000
87.69342 327.000
87.71336 291.000
87.73331 300.000
87.75326 286.000
87.77320 283.000
87.79315 298.000
87.81310 288.000
87.83304 271.000
87.85299 297.000
87.87294 302.000
87.89289 291.000
87.91283 279.000
87.93278 275.000
87.95273 288.000
87.97267 326.000
87.99262 316.000
88.01257 311.000
88.03251 250.000
88.05246 300.000
88.07241 279.000
88.09236 295.000
88.11230 268.000
88.13225 307.000
88.15220 307.000
88.17214 259.000
88.19209 297.000
88.21204 272.000
88.23198 280.000
88.25193 280.000
88.27188 287.000
88.29183 270.000
88.31177 279.000
88.33172 297.000
88.35167 282.000
88.37161 291.000
88.39156 312.000
88.41151 259.000
88.43145 266.000
88.45140 294.000
88.47135 276.000
88.49129 316.000
88.51124 273.000
88.53119 299.000
88.55114 284.000
88.57108 286.000
88.59103 288.000
88.61098 298.000
88.63092 272.000
88.65087 300.000
88.67082 238.000
88.69076 254.000
88.71071 274.000
88.73066 296.000
88.75061 253.000
88.77055 292.000
88.79050 296.000
88.81045 296.000
88.83039 242.000
88.85034 277.000
88.87029 266.000
88.89023 275.000
88.91018 311.000
88.93013 310.000
88.95007 287.000
88.97002 303.000
88.98997 286.000
89.00992 296.000
89.02986 300.000
89.04981 305.000
89.06976 285.000
89.08970 295.000
89.10965 314.000
89.12960 243.000
89.14954 305.000
89.16949 302.000
89.18944 284.000
89.20939 309.000
89.22933 314.000
89.24928 296.000
89.26923 311.000
89.28917 323.000
89.30912 310.000
89.32907 306.000
89.34901 281.000
89.36896 281.000
89.38891 304.000
89.40885 319.000
89.42880 301.000
89.44875 314.000
89.46870 303.000
89.48864 332.000
89.50859 277.000
89.52854 302.000
89.54848 343.000
89.56843 330.000
89.58838 283.000
89.60832 318.000
89.62827 327.000
89.64822 283.000
89.66817 311.000
89.68811 319.000
89.70806 306.000
89.72801 306.000
89.74795 298.000
89.76790 297.000
89.78785 340.000
89.80779 337.000
89.82774 323.000
89.84769 288.000
89.86764 302.000
89.88758 318.000
89.90753 289.000
89.92748 270.000
89.94742 298.000
89.96737 279.000
89.98732 300.000
90.00726 309.000
