10.00000 219.000
10.01995 226.000
10.03989 218.000
10.05984 232.000
10.07979 227.000
10.09973 189.000
10.11968 218.000
10.13963 227.000
10.15958 244.000
10.17952 221.000
10.19947 227.000
10.21942 225.000
10.23936 224.000
10.25931 215.000
10.27926 208.000
10.29920 219.000
10.31915 211.000
10.33910 205.000
10.35905 217.000
10.37899 219.000
10.39894 216.000
10.41889 242.000
10.43883 232.000
10.45878 198.000
10.47873 246.000
10.49867 243.000
10.51862 222.000
10.53857 217.000
10.55851 207.000
10.57846 205.000
10.59841 230.000
10.61836 211.000
10.63830 212.000
10.65825 209.000
10.67820 203.000
10.69814 224.000
10.71809 239.000
10.73804 242.000
10.75798 228.000
10.77793 217.000
10.79788 217.000
10.81783 236.000
10.83777 230.000
10.85772 223.000
10.87767 219.000
10.89761 203.000
10.91756 207.000
10.93751 242.000
10.95745 205.000
10.97740 211.000
10.99735 217.000
11.01730 224.000
11.03724 233.000
11.05719 217.000
11.07714 231.000
11.09708 229.000
11.11703 236.000
11.13698 200.000
11.15692 227.000
11.17687 230.000
11.19682 249.000
11.21676 228.000
11.23671 231.000
11.25666 228.000
11.27661 220.000
11.29655 225.000
11.31650 229.000
11.33645 228.000
11.35639 229.000
11.37634 246.000
11.39629 217.000
11.41623 220.000
11.43618 207.000
11.45613 226.000
11.47608 225.000
11.49602 203.000
11.51597 237.000
11.53592 216.000
11.55586 240.000
11.57581 233.000
11.59576 230.000
11.61570 201.000
11.63565 241.000
11.65560 209.000
11.67554 200.000
11.69549 211.000
11.71544 238.000
11.73539 232.000
11.75533 201.000
11.77528 221.000
11.79523 213.000
11.81517 202.000
11.83512 225.000
11.85507 211.000
11.87501 248.000
11.89496 229.000
11.91491 231.000
11.93486 258.000
11.95480 208.000
11.97475 255.000
11.99470 217.000
12.01464 231.000
12.03459 202.000
12.05454 226.000
12.07448 219.000
12.09443 228.000
12.11438 235.000
12.13432 232.000
12.15427 230.000
12.17422 238.000
12.19417 216.000
12.21411 221.000
12.23406 218.000
12.25401 242.000
12.27395 238.000
12.29390 238.000
12.31385 229.000
12.33379 220.000
12.35374 227.000
12.37369 231.000
12.39364 198.000
12.41358 210.000
12.43353 264.000
12.45348 232.000
12.47342 227.000
12.49337 216.000
12.51332 206.000
12.53326 205.000
12.55321 215.000
12.57316 201.000
12.59311 228.000
12.61305 212.000
12.63300 219.000
12.65295 267.000
12.67289 217.000
12.69284 240.000
12.71279 246.000
12.73273 262.000
12.75268 210.000
12.77263 234.000
12.79257 264.000
12.81252 218.000
12.83247 243.000
12.85242 217.000
12.87236 211.000
12.89231 269.000
12.91226 236.000
12.93220 227.000
12.95215 231.000
12.97210 228.000
12.99204 218.000
13.01199 211.000
13.03194 234.000
13.05189 216.000
13.07183 241.000
13.09178 251.000
13.11173 216.000
13.13167 236.000
13.15162 252.000
13.17157 235.000
13.19151 208.000
13.21146 229.000
13.23141 256.000
13.25135 219.000
13.27130 234.000
13.29125 223.000
13.31120 254.000
13.33114 235.000
13.35109 233.000
13.37104 231.000
13.39098 221.000
13.41093 228.000
13.43088 230.000
13.45082 243.000
13.47077 235.000
13.49072 212.000
13.51067 218.000
13.53061 242.000
13.55056 221.000
13.57051 239.000
13.59045 224.000
13.61040 253.000
13.63035 256.000
13.65029 244.000
13.67024 243.000
13.69019 255.000
13.71013 257.000
13.73008 262.000
13.75003 256.000
13.76998 256.000
13.78992 268.000
13.80987 243.000
13.82982 240.000
13.84976 256.000
13.86971 246.000
13.88966 243.000
13.90960 227.000
13.92955 285.000
13.94950 271.000
13.96945 263.000
13.98939 255.000
14.00934 246.000
14.02929 248.000
14.04923 254.000
14.06918 272.000
14.08913 242.000
14.10907 253.000
14.12902 265.000
14.14897 250.000
14.16892 252.000
14.18886 255.000
14.20881 253.000
14.22876 277.000
14.24870 262.000
14.26865 263.000
14.28860 256.000
14.30854 277.000
14.32849 260.000
14.34844 246.000
14.36838 276.000
14.38833 236.000
14.40828 219.000
14.42823 250.000
14.44817 240.000
14.46812 255.000
14.48807 226.000
14.50801 253.000
14.52796 245.000
14.54791 237.000
14.56785 259.000
14.58780 240.000
14.60775 283.000
14.62770 273.000
14.64764 256.000
14.66759 253.000
14.68754 266.000
14.70748 277.000
14.72743 258.000
14.74738 276.000
14.76732 245.000
14.78727 257.000
14.80722 235.000
14.82716 259.000
14.84711 233.000
14.86706 251.000
14.88701 249.000
14.90695 255.000
14.92690 255.000
14.94685 276.000
14.96679 231.000
14.98674 237.000
15.00669 260.000
15.02663 254.000
15.04658 239.000
15.06653 263.000
15.08648 254.000
15.10642 237.000
15.12637 241.000
15.14632 220.000
15.16626 230.000
15.18621 250.000
15.20616 240.000
15.22610 251.000
15.24605 253.000
15.26600 253.000
15.28594 237.000
15.30589 252.000
15.32584 253.000
15.34579 234.000
15.36573 244.000
15.38568 245.000
15.40563 264.000
15.42557 261.000
15.44552 272.000
15.46547 251.000
15.48541 260.000
15.50536 252.000
15.52531 242.000
15.54526 260.000
15.56520 260.000
15.58515 243.000
15.60510 284.000
15.62504 297.000
15.64499 257.000
15.66494 266.000
15.68488 288.000
15.70483 288.000
15.72478 271.000
15.74472 290.000
15.76467 361.000
15.78462 368.000
15.80457 360.000
15.82451 453.000
15.84446 503.000
15.86441 530.000
15.88435 625.000
15.90430 599.000
15.92425 575.000
15.94419 501.000
15.96414 454.000
15.98409 418.000
16.00404 378.000
16.02398 377.000
16.04393 341.000
16.06388 358.000
16.08382 358.000
16.10377 396.000
16.12372 389.000
16.14366 400.000
16.16361 492.000
16.18356 423.000
16.20351 474.000
16.22345 454.000
16.24340 491.000
16.26335 581.000
16.28329 559.000
16.30324 599.000
16.32319 659.000
16.34313 716.000
16.36308 738.000
16.38303 809.000
16.40297 784.000
16.42292 781.000
16.44287 819.000
16.46282 731.000
16.48276 680.000
16.50271 586.000
16.52266 564.000
16.54260 471.000
16.56255 435.000
16.58250 386.000
16.60244 398.000
16.62239 354.000
16.64234 324.000
16.66229 369.000
16.68223 308.000
16.70218 368.000
16.72213 323.000
16.74207 306.000
16.76202 325.000
16.78197 280.000
16.80191 338.000
16.82186 336.000
16.84181 280.000
16.86175 316.000
16.88170 301.000
16.90165 303.000
16.92160 304.000
16.94154 279.000
16.96149 306.000
16.98144 309.000
17.00138 326.000
17.02133 305.000
17.04128 306.000
17.06122 281.000
17.08117 307.000
17.10112 278.000
17.12107 290.000
17.14101 284.000
17.16096 313.000
17.18091 278.000
17.20085 316.000
17.22080 279.000
17.24075 331.000
17.26069 299.000
17.28064 295.000
17.30059 316.000
17.32053 321.000
17.34048 299.000
17.36043 313.000
17.38038 298.000
17.40032 321.000
17.42027 284.000
17.44022 275.000
17.46016 291.000
17.48011 299.000
17.50006 269.000
17.52000 306.000
17.53995 272.000
17.55990 268.000
17.57985 294.000
17.59979 332.000
17.61974 311.000
17.63969 286.000
17.65963 281.000
17.67958 297.000
17.69953 290.000
17.71947 282.000
17.73942 280.000
17.75937 306.000
17.77932 280.000
17.79926 281.000
17.81921 270.000
17.83916 290.000
17.85910 277.000
17.87905 295.000
17.89900 251.000
17.91894 265.000
17.93889 292.000
17.95884 299.000
17.97878 271.000
17.99873 266.000
18.01868 276.000
18.03863 284.000
18.05857 297.000
18.07852 255.000
18.09847 289.000
18.11841 250.000
18.13836 253.000
18.15831 290.000
18.17825 256.000
18.19820 232.000
18.21815 241.000
18.23810 260.000
18.25804 277.000
18.27799 274.000
18.29794 268.000
18.31788 294.000
18.33783 268.000
18.35778 321.000
18.37772 338.000
18.39767 377.000
18.41762 433.000
18.43756 481.000
18.45751 444.000
18.47746 410.000
18.49741 376.000
18.51735 323.000
18.53730 288.000
18.55725 261.000
18.57719 293.000
18.59714 230.000
18.61709 229.000
18.63703 261.000
18.65698 261.000
18.67693 251.000
18.69688 250.000
18.71682 268.000
18.73677 275.000
18.75672 261.000
18.77666 235.000
18.79661 250.000
18.81656 238.000
18.83650 267.000
18.85645 257.000
18.87640 250.000
18.89634 248.000
18.91629 266.000
18.93624 259.000
18.95619 278.000
18.97613 248.000
18.99608 241.000
19.01603 222.000
19.03597 256.000
19.05592 211.000
19.07587 231.000
19.09581 268.000
19.11576 248.000
19.13571 229.000
19.15566 272.000
19.17560 235.000
19.19555 252.000
19.21550 239.000
19.23544 279.000
19.25539 253.000
19.27534 292.000
19.29528 251.000
19.31523 230.000
19.33518 224.000
19.35513 257.000
19.37507 257.000
19.39502 266.000
19.41497 242.000
19.43491 253.000
19.45486 245.000
19.47481 236.000
19.49475 243.000
19.51470 240.000
19.53465 229.000
19.55459 246.000
19.57454 233.000
19.59449 246.000
19.61444 231.000
19.63438 235.000
19.65433 227.000
19.67428 257.000
19.69422 241.000
19.71417 260.000
19.73412 253.000
19.75406 229.000
19.77401 236.000
19.79396 256.000
19.81391 236.000
19.83385 254.000
19.85380 260.000
19.87375 249.000
19.89369 221.000
19.91364 248.000
19.93359 220.000
19.95353 249.000
19.97348 220.000
19.99343 259.000
20.01337 254.000
20.03332 247.000
20.05327 233.000
20.07322 249.000
20.09316 265.000
20.11311 257.000
20.13306 258.000
20.15300 224.000
20.17295 222.000
20.19290 228.000
20.21284 227.000
20.23279 259.000
20.25274 214.000
20.27269 264.000
20.29263 255.000
20.31258 243.000
20.33253 262.000
20.35247 250.000
20.37242 239.000
20.39237 264.000
20.41231 244.000
20.43226 237.000
20.45221 226.000
20.47215 249.000
20.49210 237.000
20.51205 265.000
20.53200 268.000
20.55194 230.000
20.57189 238.000
20.59184 241.000
20.61178 225.000
20.63173 239.000
20.65168 238.000
20.67162 253.000
20.69157 300.000
20.71152 293.000
20.73147 236.000
20.75141 264.000
20.77136 246.000
20.79131 263.000
20.81125 303.000
20.83120 268.000
20.85115 300.000
20.87109 315.000
20.89104 324.000
20.91099 345.000
20.93094 345.000
20.95088 352.000
20.97083 310.000
20.99078 306.000
21.01072 335.000
21.03067 324.000
21.05062 305.000
21.07056 334.000
21.09051 295.000
21.11046 311.000
21.13040 291.000
21.15035 286.000
21.17030 294.000
21.19025 245.000
21.21019 233.000
21.23014 274.000
21.25009 277.000
21.27003 259.000
21.28998 266.000
21.30993 268.000
21.32987 274.000
21.34982 244.000
21.36977 257.000
21.38972 266.000
21.40966 260.000
21.42961 266.000
21.44956 259.000
21.46950 247.000
21.48945 244.000
21.50940 261.000
21.52934 236.000
21.54929 253.000
21.56924 256.000
21.58918 262.000
21.60913 270.000
21.62908 283.000
21.64903 253.000
21.66897 261.000
21.68892 256.000
21.70887 254.000
21.72881 248.000
21.74876 246.000
21.76871 233.000
21.78865 276.000
21.80860 246.000
21.82855 236.000
21.84850 251.000
21.86844 243.000
21.88839 242.000
21.90834 237.000
21.92828 273.000
21.94823 244.000
21.96818 257.000
21.98812 251.000
22.00807 230.000
22.02802 244.000
22.04796 243.000
22.06791 228.000
22.08786 226.000
22.10781 236.000
22.12775 244.000
22.14770 272.000
22.16765 232.000
22.18759 237.000
22.20754 234.000
22.22749 244.000
22.24743 265.000
22.26738 234.000
22.28733 239.000
22.30728 251.000
22.32722 257.000
22.34717 241.000
22.36712 264.000
22.38706 256.000
22.40701 236.000
22.42696 258.000
22.44690 231.000
22.46685 262.000
22.48680 256.000
22.50675 266.000
22.52669 233.000
22.54664 250.000
22.56659 249.000
22.58653 246.000
22.60648 256.000
22.62643 248.000
22.64637 226.000
22.66632 249.000
22.68627 242.000
22.70621 260.000
22.72616 238.000
22.74611 243.000
22.76606 190.000
22.78600 233.000
22.80595 232.000
22.82590 259.000
22.84584 230.000
22.86579 271.000
22.88574 240.000
22.90568 215.000
22.92563 265.000
22.94558 234.000
22.96553 225.000
22.98547 243.000
23.00542 245.000
23.02537 243.000
23.04531 249.000
23.06526 246.000
23.08521 239.000
23.10515 229.000
23.12510 266.000
23.14505 256.000
23.16499 224.000
23.18494 214.000
23.20489 222.000
23.22484 237.000
23.24478 244.000
23.26473 245.000
23.28468 229.000
23.30462 220.000
23.32457 241.000
23.34452 240.000
23.36446 263.000
23.38441 239.000
23.40436 268.000
23.42431 236.000
23.44425 203.000
23.46420 224.000
23.48415 234.000
23.50409 252.000
23.52404 236.000
23.54399 218.000
23.56393 230.000
23.58388 219.000
23.60383 240.000
23.62377 236.000
23.64372 247.000
23.66367 260.000
23.68362 240.000
23.70356 224.000
23.72351 246.000
23.74346 285.000
23.76340 249.000
23.78335 262.000
23.80330 233.000
23.82324 217.000
23.84319 228.000
23.86314 253.000
23.88309 236.000
23.90303 259.000
23.92298 219.000
23.94293 229.000
23.96287 226.000
23.98282 217.000
24.00277 250.000
24.02271 246.000
24.04266 233.000
24.06261 247.000
24.08256 254.000
24.10250 228.000
24.12245 239.000
24.14240 227.000
24.16234 240.000
24.18229 229.000
24.20224 262.000
24.22218 230.000
24.24213 239.000
24.26208 259.000
24.28202 241.000
24.30197 248.000
24.32192 242.000
24.34187 272.000
24.36181 228.000
24.38176 233.000
24.40171 230.000
24.42165 243.000
24.44160 234.000
24.46155 255.000
24.48149 236.000
24.50144 265.000
24.52139 215.000
24.54134 249.000
24.56128 252.000
24.58123 252.000
24.60118 237.000
24.62112 225.000
24.64107 230.000
24.66102 255.000
24.68096 227.000
24.70091 232.000
24.72086 222.000
24.74080 210.000
24.76075 216.000
24.78070 200.000
24.80065 240.000
24.82059 253.000
24.84054 257.000
24.86049 225.000
24.88043 247.000
24.90038 228.000
24.92033 229.000
24.94027 259.000
24.96022 233.000
24.98017 229.000
25.00012 236.000
25.02006 246.000
25.04001 222.000
25.05996 237.000
25.07990 241.000
25.09985 219.000
25.11980 261.000
25.13974 230.000
25.15969 253.000
25.17964 272.000
25.19958 238.000
25.21953 252.000
25.23948 256.000
25.25943 231.000
25.27937 263.000
25.29932 254.000
25.31927 220.000
25.33921 233.000
25.35916 270.000
25.37911 214.000
25.39905 247.000
25.41900 231.000
25.43895 241.000
25.45890 258.000
25.47884 271.000
25.49879 251.000
25.51874 247.000
25.53868 252.000
25.55863 264.000
25.57858 225.000
25.59852 248.000
25.61847 221.000
25.63842 225.000
25.65837 246.000
25.67831 225.000
25.69826 219.000
25.71821 261.000
25.73815 237.000
25.75810 203.000
25.77805 274.000
25.79799 231.000
25.81794 258.000
25.83789 240.000
25.85783 247.000
25.87778 241.000
25.89773 255.000
25.91768 212.000
25.93762 242.000
25.95757 232.000
25.97752 260.000
25.99746 259.000
26.01741 247.000
26.03736 251.000
26.05730 264.000
26.07725 250.000
26.09720 235.000
26.11715 238.000
26.13709 266.000
26.15704 265.000
26.17699 242.000
26.19693 250.000
26.21688 240.000
26.23683 236.000
26.25677 255.000
26.27672 234.000
26.29667 236.000
26.31661 258.000
26.33656 234.000
26.35651 250.000
26.37646 256.000
26.39640 231.000
26.41635 255.000
26.43630 245.000
26.45624 233.000
26.47619 271.000
26.49614 237.000
26.51608 250.000
26.53603 232.000
26.55598 236.000
26.57593 237.000
26.59587 250.000
26.61582 248.000
26.63577 238.000
26.65571 218.000
26.67566 243.000
26.69561 261.000
26.71555 240.000
26.73550 236.000
26.75545 238.000
26.77539 244.000
26.79534 223.000
26.81529 240.000
26.83524 264.000
26.85518 228.000
26.87513 232.000
26.89508 247.000
26.91502 230.000
26.93497 245.000
26.95492 255.000
26.97486 236.000
26.99481 242.000
27.01476 249.000
27.03471 236.000
27.05465 239.000
27.07460 254.000
27.09455 231.000
27.11449 251.000
27.13444 241.000
27.15439 228.000
27.17433 261.000
27.19428 258.000
27.21423 266.000
27.23417 245.000
27.25412 264.000
27.27407 248.000
27.29402 255.000
27.31396 230.000
27.33391 240.000
27.35386 255.000
27.37380 221.000
27.39375 263.000
27.41370 263.000
27.43364 224.000
27.45359 226.000
27.47354 266.000
27.49349 256.000
27.51343 241.000
27.53338 250.000
27.55333 253.000
27.57327 269.000
27.59322 252.000
27.61317 249.000
27.63311 261.000
27.65306 270.000
27.67301 243.000
27.69296 243.000
27.71290 229.000
27.73285 260.000
27.75280 253.000
27.77274 255.000
27.79269 232.000
27.81264 232.000
27.83258 270.000
27.85253 267.000
27.87248 242.000
27.89242 223.000
27.91237 250.000
27.93232 252.000
27.95227 248.000
27.97221 250.000
27.99216 239.000
28.01211 285.000
28.03205 236.000
28.05200 252.000
28.07195 244.000
28.09189 254.000
28.11184 268.000
28.13179 235.000
28.15174 271.000
28.17168 228.000
28.19163 269.000
28.21158 251.000
28.23152 249.000
28.25147 212.000
28.27142 237.000
28.29136 246.000
28.31131 257.000
28.33126 280.000
28.35120 256.000
28.37115 253.000
28.39110 258.000
28.41105 249.000
28.43099 235.000
28.45094 259.000
28.47089 291.000
28.49083 284.000
28.51078 245.000
28.53073 252.000
28.55067 249.000
28.57062 256.000
28.59057 263.000
28.61052 251.000
28.63046 234.000
28.65041 279.000
28.67036 217.000
28.69030 257.000
28.71025 233.000
28.73020 253.000
28.75014 257.000
28.77009 268.000
28.79004 246.000
28.80998 277.000
28.82993 247.000
28.84988 247.000
28.86983 218.000
28.88977 228.000
28.90972 237.000
28.92967 230.000
28.94961 247.000
28.96956 224.000
28.98951 237.000
29.00945 244.000
29.02940 238.000
29.04935 272.000
29.06930 245.000
29.08924 228.000
29.10919 259.000
29.12914 259.000
29.14908 219.000
29.16903 250.000
29.18898 271.000
29.20892 271.000
29.22887 269.000
29.24882 254.000
29.26877 211.000
29.28871 224.000
29.30866 241.000
29.32861 283.000
29.34855 254.000
29.36850 244.000
29.38845 239.000
29.40839 276.000
29.42834 285.000
29.44829 259.000
29.46823 241.000
29.48818 218.000
29.50813 264.000
29.52808 264.000
29.54802 265.000
29.56797 237.000
29.58792 272.000
29.60786 260.000
29.62781 259.000
29.64776 258.000
29.66770 273.000
29.68765 249.000
29.70760 237.000
29.72755 257.000
29.74749 260.000
29.76744 248.000
29.78739 253.000
29.80733 252.000
29.82728 274.000
29.84723 257.000
29.86717 266.000
29.88712 258.000
29.90707 257.000
29.92701 285.000
29.94696 216.000
29.96691 266.000
29.98686 285.000
30.00680 277.000
30.02675 291.000
30.04670 296.000
30.06664 263.000
30.08659 318.000
30.10654 293.000
30.12648 327.000
30.14643 330.000
30.16638 336.000
30.18633 334.000
30.20627 404.000
30.22622 433.000
30.24617 493.000
30.26611 577.000
30.28606 650.000
30.30601 752.000
30.32595 665.000
30.34590 626.000
30.36585 619.000
30.38579 535.000
30.40574 477.000
30.42569 395.000
30.44564 336.000
30.46558 346.000
30.48553 328.000
30.50548 291.000
30.52542 288.000
30.54537 280.000
30.56532 269.000
30.58526 299.000
30.60521 316.000
30.62516 290.000
30.64511 283.000
30.66505 239.000
30.68500 245.000
30.70495 274.000
30.72489 270.000
30.74484 288.000
30.76479 239.000
30.78473 271.000
30.80468 285.000
30.82463 260.000
30.84458 288.000
30.86452 271.000
30.88447 275.000
30.90442 261.000
30.92436 254.000
30.94431 277.000
30.96426 262.000
30.98420 247.000
31.00415 254.000
31.02410 289.000
31.04404 263.000
31.06399 262.000
31.08394 249.000
31.10389 277.000
31.12383 286.000
31.14378 267.000
31.16373 265.000
31.18367 280.000
31.20362 268.000
31.22357 259.000
31.24351 284.000
31.26346 237.000
31.28341 268.000
31.30336 253.000
31.32330 268.000
31.34325 278.000
31.36320 257.000
31.38314 276.000
31.40309 282.000
31.42304 273.000
31.44298 244.000
31.46293 254.000
31.48288 257.000
31.50282 274.000
31.52277 248.000
31.54272 290.000
31.56267 241.000
31.58261 248.000
31.60256 237.000
31.62251 291.000
31.64245 271.000
31.66240 246.000
31.68235 307.000
31.70229 232.000
31.72224 242.000
31.74219 247.000
31.76214 285.000
31.78208 267.000
31.80203 252.000
31.82198 257.000
31.84192 274.000
31.86187 264.000
31.88182 270.000
31.90176 248.000
31.92171 280.000
31.94166 301.000
31.96160 289.000
31.98155 280.000
32.00150 297.000
32.02145 261.000
32.04139 307.000
32.06134 258.000
32.08129 316.000
32.10123 339.000
32.12118 299.000
32.14113 299.000
32.16107 286.000
32.18102 267.000
32.20097 275.000
32.22092 272.000
32.24086 283.000
32.26081 304.000
32.28076 253.000
32.30070 267.000
32.32065 274.000
32.34060 285.000
32.36054 315.000
32.38049 311.000
32.40044 272.000
32.42039 357.000
32.44033 335.000
32.46028 343.000
32.48023 330.000
32.50017 348.000
32.52012 332.000
32.54007 329.000
32.56001 339.000
32.57996 335.000
32.59991 296.000
32.61985 355.000
32.63980 310.000
32.65975 324.000
32.67970 278.000
32.69964 284.000
32.71959 306.000
32.73954 288.000
32.75948 324.000
32.77943 317.000
32.79938 305.000
32.81932 280.000
32.83927 280.000
32.85922 249.000
32.87917 274.000
32.89911 308.000
32.91906 295.000
32.93901 268.000
32.95895 320.000
32.97890 306.000
32.99885 284.000
33.01879 292.000
33.03874 312.000
33.05869 311.000
33.07863 338.000
33.09858 310.000
33.11853 334.000
33.13848 343.000
33.15842 301.000
33.17837 313.000
33.19832 300.000
33.21826 346.000
33.23821 321.000
33.25816 300.000
33.27810 328.000
33.29805 264.000
33.31800 308.000
33.33795 267.000
33.35789 292.000
33.37784 312.000
33.39779 281.000
33.41773 293.000
33.43768 277.000
33.45763 262.000
33.47757 277.000
33.49752 270.000
33.51747 287.000
33.53741 277.000
33.55736 274.000
33.57731 272.000
33.59726 297.000
33.61720 262.000
33.63715 302.000
33.65710 274.000
33.67704 260.000
33.69699 269.000
33.71694 267.000
33.73688 295.000
33.75683 278.000
33.77678 271.000
33.79673 282.000
33.81667 280.000
33.83662 291.000
33.85657 267.000
33.87651 280.000
33.89646 235.000
33.91641 301.000
33.93635 292.000
33.95630 287.000
33.97625 275.000
33.99620 272.000
34.01614 300.000
34.03609 297.000
34.05604 308.000
34.07598 264.000
34.09593 287.000
34.11588 283.000
34.13582 295.000
34.15577 284.000
34.17572 295.000
34.19566 315.000
34.21561 285.000
34.23556 322.000
34.25551 300.000
34.27545 338.000
34.29540 325.000
34.31535 325.000
34.33529 338.000
34.35524 306.000
34.37519 340.000
34.39513 343.000
34.41508 329.000
34.43503 349.000
34.45498 382.000
34.47492 358.000
34.49487 345.000
34.51482 334.000
34.53476 360.000
34.55471 370.000
34.57466 367.000
34.59460 366.000
34.61455 370.000
34.63450 349.000
34.65444 376.000
34.67439 368.000
34.69434 335.000
34.71429 339.000
34.73423 326.000
34.75418 353.000
34.77413 346.000
34.79407 364.000
34.81402 360.000
34.83397 315.000
34.85391 365.000
34.87386 341.000
34.89381 350.000
34.91376 301.000
34.93370 337.000
34.95365 306.000
34.97360 314.000
34.99354 385.000
35.01349 325.000
35.03344 340.000
35.05338 352.000
35.07333 401.000
35.09328 393.000
35.11322 415.000
35.13317 401.000
35.15312 440.000
35.17307 466.000
35.19301 439.000
35.21296 477.000
35.23291 539.000
35.25285 585.000
35.27280 590.000
35.29275 577.000
35.31269 614.000
35.33264 730.000
35.35259 735.000
35.37254 715.000
35.39248 797.000
35.41243 887.000
35.43238 948.000
35.45232 1044.000
35.47227 1083.000
35.49222 1149.000
35.51216 1151.000
35.53211 1283.000
35.55206 1407.000
35.57201 1384.000
35.59195 1502.000
35.61190 1594.000
35.63185 1798.000
35.65179 2030.000
35.67174 2200.000
35.69169 2306.000
35.71163 2090.000
35.73158 1814.000
35.75153 1743.000
35.77147 1525.000
35.79142 1437.000
35.81137 1117.000
35.83132 918.000
35.85126 815.000
35.87121 696.000
35.89116 571.000
35.91110 558.000
35.93105 503.000
35.95100 470.000
35.97094 452.000
35.99089 460.000
36.01084 449.000
36.03079 436.000
36.05073 401.000
36.07068 406.000
36.09063 368.000
36.11057 360.000
36.13052 369.000
36.15047 359.000
36.17041 364.000
36.19036 374.000
36.21031 346.000
36.23025 305.000
36.25020 337.000
36.27015 418.000
36.29010 348.000
36.31004 317.000
36.32999 379.000
36.34994 374.000
36.36988 376.000
36.38983 390.000
36.40978 350.000
36.42972 404.000
36.44967 397.000
36.46962 400.000
36.48957 396.000
36.50951 424.000
36.52946 422.000
36.54941 478.000
36.56935 454.000
36.58930 443.000
36.60925 437.000
36.62919 426.000
36.64914 486.000
36.66909 444.000
36.68903 436.000
36.70898 431.000
36.72893 432.000
36.74888 470.000
36.76882 470.000
36.78877 488.000
36.80872 454.000
36.82866 494.000
36.84861 518.000
36.86856 507.000
36.88850 564.000
36.90845 620.000
36.92840 602.000
36.94835 610.000
36.96829 686.000
36.98824 794.000
37.00819 739.000
37.02813 871.000
37.04808 900.000
37.06803 963.000
37.08797 953.000
37.10792 940.000
37.12787 957.000
37.14781 913.000
37.16776 865.000
37.18771 723.000
37.20766 715.000
37.22760 675.000
37.24755 651.000
37.26750 571.000
37.28744 545.000
37.30739 485.000
37.32734 506.000
37.34728 483.000
37.36723 455.000
37.38718 428.000
37.40713 448.000
37.42707 412.000
37.44702 362.000
37.46697 363.000
37.48691 385.000
37.50686 357.000
37.52681 337.000
37.54675 340.000
37.56670 324.000
37.58665 301.000
37.60660 314.000
37.62654 302.000
37.64649 341.000
37.66644 323.000
37.68638 330.000
37.70633 313.000
37.72628 305.000
37.74622 338.000
37.76617 307.000
37.78612 305.000
37.80606 307.000
37.82601 311.000
37.84596 299.000
37.86591 295.000
37.88585 323.000
37.90580 319.000
37.92575 346.000
37.94569 331.000
37.96564 333.000
37.98559 316.000
38.00553 330.000
38.02548 331.000
38.04543 338.000
38.06538 355.000
38.08532 306.000
38.10527 328.000
38.12522 342.000
38.14516 367.000
38.16511 318.000
38.18506 358.000
38.20500 385.000
38.22495 369.000
38.24490 342.000
38.26484 373.000
38.28479 350.000
38.30474 361.000
38.32469 399.000
38.34463 397.000
38.36458 427.000
38.38453 364.000
38.40447 412.000
38.42442 405.000
38.44437 442.000
38.46431 433.000
38.48426 442.000
38.50421 464.000
38.52416 502.000
38.54410 566.000
38.56405 538.000
38.58400 592.000
38.60394 648.000
38.62389 713.000
38.64384 701.000
38.66378 771.000
38.68373 814.000
38.70368 858.000
38.72362 890.000
38.74357 842.000
38.76352 870.000
38.78347 833.000
38.80341 856.000
38.82336 787.000
38.84331 764.000
38.86325 710.000
38.88320 718.000
38.90315 653.000
38.92309 661.000
38.94304 596.000
38.96299 631.000
38.98294 529.000
39.00288 575.000
39.02283 561.000
39.04278 529.000
39.06272 527.000
39.08267 477.000
39.10262 525.000
39.12256 497.000
39.14251 440.000
39.16246 453.000
39.18241 426.000
39.20235 400.000
39.22230 432.000
39.24225 440.000
39.26219 407.000
39.28214 393.000
39.30209 409.000
39.32203 372.000
39.34198 385.000
39.36193 396.000
39.38187 380.000
39.40182 359.000
39.42177 371.000
39.44172 330.000
39.46166 357.000
39.48161 321.000
39.50156 356.000
39.52150 322.000
39.54145 314.000
39.56140 317.000
39.58134 317.000
39.60129 293.000
39.62124 285.000
39.64119 274.000
39.66113 286.000
39.68108 303.000
39.70103 266.000
39.72097 294.000
39.74092 254.000
39.76087 296.000
39.78081 320.000
39.80076 299.000
39.82071 270.000
39.84065 267.000
39.86060 268.000
39.88055 315.000
39.90050 243.000
39.92044 281.000
39.94039 262.000
39.96034 274.000
39.98028 290.000
40.00023 288.000
40.02018 288.000
40.04012 263.000
40.06007 252.000
40.08002 277.000
40.09997 261.000
40.11991 273.000
40.13986 255.000
40.15981 246.000
40.17975 271.000
40.19970 255.000
40.21965 281.000
40.23959 253.000
40.25954 253.000
40.27949 270.000
40.29943 289.000
40.31938 257.000
40.33933 271.000
40.35928 284.000
40.37922 265.000
40.39917 290.000
40.41912 229.000
40.43906 261.000
40.45901 253.000
40.47896 257.000
40.49890 287.000
40.51885 244.000
40.53880 268.000
40.55875 281.000
40.57869 269.000
40.59864 251.000
40.61859 238.000
40.63853 260.000
40.65848 282.000
40.67843 285.000
40.69837 270.000
40.71832 269.000
40.73827 267.000
40.75822 241.000
40.77816 263.000
40.79811 261.000
40.81806 276.000
40.83800 265.000
40.85795 279.000
40.87790 295.000
40.89784 262.000
40.91779 276.000
40.93774 291.000
40.95768 273.000
40.97763 268.000
40.99758 313.000
41.01753 278.000
41.03747 262.000
41.05742 305.000
41.07737 273.000
41.09731 278.000
41.11726 287.000
41.13721 297.000
41.15715 270.000
41.17710 317.000
41.19705 316.000
41.21700 342.000
41.23694 290.000
41.25689 315.000
41.27684 359.000
41.29678 353.000
41.31673 407.000
41.33668 439.000
41.35662 459.000
41.37657 507.000
41.39652 564.000
41.41646 609.000
41.43641 690.000
41.45636 697.000
41.47631 751.000
41.49625 773.000
41.51620 810.000
41.53615 811.000
41.55609 802.000
41.57604 739.000
41.59599 783.000
41.61593 747.000
41.63588 687.000
41.65583 670.000
41.67578 659.000
41.69572 666.000
41.71567 584.000
41.73562 601.000
41.75556 488.000
41.77551 514.000
41.79546 455.000
41.81540 484.000
41.83535 442.000
41.85530 423.000
41.87524 366.000
41.89519 371.000
41.91514 366.000
41.93509 402.000
41.95503 333.000
41.97498 379.000
41.99493 341.000
42.01487 357.000
42.03482 364.000
42.05477 363.000
42.07471 340.000
42.09466 340.000
42.11461 360.000
42.13456 367.000
42.15450 323.000
42.17445 303.000
42.19440 310.000
42.21434 301.000
42.23429 346.000
42.25424 328.000
42.27418 345.000
42.29413 344.000
42.31408 321.000
42.33403 321.000
42.35397 315.000
42.37392 335.000
42.39387 357.000
42.41381 329.000
42.43376 354.000
42.45371 357.000
42.47365 322.000
42.49360 357.000
42.51355 370.000
42.53349 376.000
42.55344 355.000
42.57339 405.000
42.59334 370.000
42.61328 373.000
42.63323 386.000
42.65318 405.000
42.67312 405.000
42.69307 429.000
42.71302 388.000
42.73296 455.000
42.75291 420.000
42.77286 471.000
42.79281 487.000
42.81275 507.000
42.83270 568.000
42.85265 557.000
42.87259 579.000
42.89254 654.000
42.91249 662.000
42.93243 684.000
42.95238 818.000
42.97233 808.000
42.99227 866.000
43.01222 944.000
43.03217 955.000
43.05212 1012.000
43.07206 960.000
43.09201 1078.000
43.11196 1124.000
43.13190 1077.000
43.15185 992.000
43.17180 992.000
43.19174 982.000
43.21169 1016.000
43.23164 852.000
43.25159 817.000
43.27153 867.000
43.29148 787.000
43.31143 768.000
43.33137 845.000
43.35132 788.000
43.37127 776.000
43.39121 768.000
43.41116 673.000
43.43111 637.000
43.45105 607.000
43.47100 575.000
43.49095 577.000
43.51090 460.000
43.53084 449.000
43.55079 418.000
43.57074 394.000
43.59068 393.000
43.61063 358.000
43.63058 359.000
43.65052 328.000
43.67047 320.000
43.69042 351.000
43.71037 306.000
43.73031 333.000
43.75026 274.000
43.77021 294.000
43.79015 309.000
43.81010 280.000
43.83005 271.000
43.84999 295.000
43.86994 293.000
43.88989 324.000
43.90984 277.000
43.92978 283.000
43.94973 276.000
43.96968 293.000
43.98962 279.000
44.00957 268.000
44.02952 297.000
44.04946 284.000
44.06941 293.000
44.08936 273.000
44.10930 262.000
44.12925 275.000
44.14920 249.000
44.16915 290.000
44.18909 278.000
44.20904 267.000
44.22899 287.000
44.24893 275.000
44.26888 261.000
44.28883 268.000
44.30877 286.000
44.32872 260.000
44.34867 263.000
44.36862 288.000
44.38856 268.000
44.40851 250.000
44.42846 280.000
44.44840 265.000
44.46835 290.000
44.48830 274.000
44.50824 251.000
44.52819 263.000
44.54814 285.000
44.56808 254.000
44.58803 270.000
44.60798 251.000
44.62793 272.000
44.64787 280.000
44.66782 261.000
44.68777 291.000
44.70771 274.000
44.72766 285.000
44.74761 285.000
44.76755 301.000
44.78750 266.000
44.80745 283.000
44.82740 281.000
44.84734 249.000
44.86729 296.000
44.88724 283.000
44.90718 286.000
44.92713 301.000
44.94708 264.000
44.96702 264.000
44.98697 300.000
45.00692 296.000
45.02686 261.000
45.04681 294.000
45.06676 288.000
45.08671 238.000
45.10665 244.000
45.12660 291.000
45.14655 260.000
45.16649 277.000
45.18644 277.000
45.20639 258.000
45.22633 266.000
45.24628 257.000
45.26623 237.000
45.28618 254.000
45.30612 251.000
45.32607 275.000
45.34602 277.000
45.36596 256.000
45.38591 247.000
45.40586 268.000
45.42580 240.000
45.44575 281.000
45.46570 234.000
45.48565 250.000
45.50559 264.000
45.52554 242.000
45.54549 254.000
45.56543 243.000
45.58538 259.000
45.60533 245.000
45.62527 288.000
45.64522 265.000
45.66517 246.000
45.68511 276.000
45.70506 271.000
45.72501 241.000
45.74496 254.000
45.76490 233.000
45.78485 279.000
45.80480 255.000
45.82474 262.000
45.84469 243.000
45.86464 223.000
45.88458 264.000
45.90453 250.000
45.92448 254.000
45.94443 270.000
45.96437 252.000
45.98432 263.000
46.00427 253.000
46.02421 292.000
46.04416 260.000
46.06411 259.000
46.08405 263.000
46.10400 270.000
46.12395 257.000
46.14389 281.000
46.16384 264.000
46.18379 278.000
46.20374 274.000
46.22368 246.000
46.24363 254.000
46.26358 260.000
46.28352 304.000
46.30347 287.000
46.32342 274.000
46.34336 272.000
46.36331 255.000
46.38326 264.000
46.40321 283.000
46.42315 259.000
46.44310 240.000
46.46305 299.000
46.48299 247.000
46.50294 252.000
46.52289 235.000
46.54283 264.000
46.56278 264.000
46.58273 245.000
46.60267 240.000
46.62262 251.000
46.64257 286.000
46.66252 248.000
46.68246 246.000
46.70241 240.000
46.72236 230.000
46.74230 269.000
46.76225 235.000
46.78220 252.000
46.80214 261.000
46.82209 271.000
46.84204 268.000
46.86199 273.000
46.88193 220.000
46.90188 261.000
46.92183 264.000
46.94177 223.000
46.96172 281.000
46.98167 250.000
47.00161 278.000
47.02156 253.000
47.04151 268.000
47.06146 237.000
47.08140 242.000
47.10135 271.000
47.12130 246.000
47.14124 254.000
47.16119 261.000
47.18114 231.000
47.20108 264.000
47.22103 245.000
47.24098 262.000
47.26092 263.000
47.28087 268.000
47.30082 280.000
47.32077 251.000
47.34071 246.000
47.36066 252.000
47.38061 249.000
47.40055 267.000
47.42050 239.000
47.44045 272.000
47.46039 249.000
47.48034 272.000
47.50029 287.000
47.52024 267.000
47.54018 250.000
47.56013 260.000
47.58008 265.000
47.60002 256.000
47.61997 285.000
47.63992 280.000
47.65986 253.000
47.67981 223.000
47.69976 264.000
47.71970 256.000
47.73965 261.000
47.75960 276.000
47.77955 218.000
47.79949 257.000
47.81944 247.000
47.83939 237.000
47.85933 240.000
47.87928 264.000
47.89923 226.000
47.91917 254.000
47.93912 270.000
47.95907 243.000
47.97902 247.000
47.99896 245.000
48.01891 248.000
48.03886 244.000
48.05880 268.000
48.07875 255.000
48.09870 269.000
48.11864 262.000
48.13859 274.000
48.15854 273.000
48.17848 261.000
48.19843 289.000
48.21838 256.000
48.23833 255.000
48.25827 271.000
48.27822 272.000
48.29817 282.000
48.31811 293.000
48.33806 260.000
48.35801 276.000
48.37795 285.000
48.39790 271.000
48.41785 295.000
48.43780 301.000
48.45774 289.000
48.47769 264.000
48.49764 303.000
48.51758 268.000
48.53753 295.000
48.55748 325.000
48.57742 272.000
48.59737 325.000
48.61732 309.000
48.63726 310.000
48.65721 336.000
48.67716 370.000
48.69711 391.000
48.71705 411.000
48.73700 404.000
48.75695 384.000
48.77689 420.000
48.79684 458.000
48.81679 435.000
48.83673 432.000
48.85668 433.000
48.87663 456.000
48.89658 397.000
48.91652 407.000
48.93647 423.000
48.95642 427.000
48.97636 342.000
48.99631 402.000
49.01626 359.000
49.03620 345.000
49.05615 379.000
49.07610 327.000
49.09605 322.000
49.11599 325.000
49.13594 315.000
49.15589 316.000
49.17583 302.000
49.19578 316.000
49.21573 332.000
49.23567 293.000
49.25562 313.000
49.27557 292.000
49.29551 288.000
49.31546 278.000
49.33541 298.000
49.35536 297.000
49.37530 266.000
49.39525 266.000
49.41520 292.000
49.43514 283.000
49.45509 301.000
49.47504 284.000
49.49498 309.000
49.51493 279.000
49.53488 273.000
49.55483 282.000
49.57477 281.000
49.59472 269.000
49.61467 255.000
49.63461 283.000
49.65456 302.000
49.67451 271.000
49.69445 280.000
49.71440 286.000
49.73435 251.000
49.75429 271.000
49.77424 284.000
49.79419 251.000
49.81414 235.000
49.83408 271.000
49.85403 274.000
49.87398 257.000
49.89392 287.000
49.91387 245.000
49.93382 279.000
49.95376 263.000
49.97371 246.000
49.99366 241.000
50.01361 296.000
50.03355 247.000
50.05350 236.000
50.07345 272.000
50.09339 280.000
50.11334 235.000
50.13329 267.000
50.15323 254.000
50.17318 244.000
50.19313 290.000
50.21307 269.000
50.23302 241.000
50.25297 254.000
50.27292 251.000
50.29286 232.000
50.31281 270.000
50.33276 270.000
50.35270 233.000
50.37265 247.000
50.39260 245.000
50.41254 248.000
50.43249 296.000
50.45244 263.000
50.47239 224.000
50.49233 242.000
50.51228 248.000
50.53223 213.000
50.55217 264.000
50.57212 235.000
50.59207 276.000
50.61201 248.000
50.63196 265.000
50.65191 265.000
50.67186 253.000
50.69180 253.000
50.71175 258.000
50.73170 256.000
50.75164 289.000
50.77159 235.000
50.79154 245.000
50.81148 238.000
50.83143 258.000
50.85138 266.000
50.87132 248.000
50.89127 255.000
50.91122 250.000
50.93117 271.000
50.95111 248.000
50.97106 222.000
50.99101 275.000
51.01095 241.000
51.03090 252.000
51.05085 216.000
51.07079 265.000
51.09074 277.000
51.11069 247.000
51.13064 223.000
51.15058 250.000
51.17053 258.000
51.19048 250.000
51.21042 257.000
51.23037 278.000
51.25032 227.000
51.27026 260.000
51.29021 276.000
51.31016 252.000
51.33010 286.000
51.35005 248.000
51.37000 249.000
51.38995 278.000
51.40989 266.000
51.42984 240.000
51.44979 242.000
51.46973 263.000
51.48968 260.000
51.50963 279.000
51.52957 281.000
51.54952 258.000
51.56947 251.000
51.58942 267.000
51.60936 291.000
51.62931 265.000
51.64926 275.000
51.66920 259.000
51.68915 263.000
51.70910 255.000
51.72904 235.000
51.74899 261.000
51.76894 257.000
51.78888 238.000
51.80883 252.000
51.82878 239.000
51.84873 235.000
51.86867 248.000
51.88862 246.000
51.90857 276.000
51.92851 240.000
51.94846 270.000
51.96841 261.000
51.98835 249.000
52.00830 252.000
52.02825 232.000
52.04820 260.000
52.06814 249.000
52.08809 267.000
52.10804 236.000
52.12798 294.000
52.14793 222.000
52.16788 246.000
52.18782 273.000
52.20777 235.000
52.22772 242.000
52.24767 263.000
52.26761 250.000
52.28756 242.000
52.30751 264.000
52.32745 263.000
52.34740 253.000
52.36735 246.000
52.38729 253.000
52.40724 218.000
52.42719 263.000
52.44713 288.000
52.46708 276.000
52.48703 273.000
52.50698 240.000
52.52692 274.000
52.54687 253.000
52.56682 248.000
52.58676 243.000
52.60671 251.000
52.62666 266.000
52.64660 263.000
52.66655 265.000
52.68650 225.000
52.70645 247.000
52.72639 247.000
52.74634 277.000
52.76629 249.000
52.78623 263.000
52.80618 252.000
52.82613 278.000
52.84607 273.000
52.86602 264.000
52.88597 293.000
52.90591 296.000
52.92586 262.000
52.94581 264.000
52.96576 286.000
52.98570 320.000
53.00565 296.000
53.02560 354.000
53.04554 307.000
53.06549 313.000
53.08544 343.000
53.10538 345.000
53.12533 347.000
53.14528 323.000
53.16523 322.000
53.18517 349.000
53.20512 305.000
53.22507 366.000
53.24501 343.000
53.26496 333.000
53.28491 306.000
53.30485 304.000
53.32480 302.000
53.34475 322.000
53.36469 303.000
53.38464 292.000
53.40459 290.000
53.42454 268.000
53.44448 310.000
53.46443 316.000
53.48438 281.000
53.50432 303.000
53.52427 292.000
53.54422 294.000
53.56416 286.000
53.58411 293.000
53.60406 285.000
53.62401 325.000
53.64395 275.000
53.66390 302.000
53.68385 318.000
53.70379 321.000
53.72374 362.000
53.74369 354.000
53.76363 399.000
53.78358 408.000
53.80353 404.000
53.82348 373.000
53.84342 350.000
53.86337 369.000
53.88332 332.000
53.90326 344.000
53.92321 348.000
53.94316 372.000
53.96310 344.000
53.98305 325.000
54.00300 310.000
54.02294 304.000
54.04289 295.000
54.06284 298.000
54.08279 253.000
54.10273 300.000
54.12268 295.000
54.14263 258.000
54.16257 249.000
54.18252 277.000
54.20247 270.000
54.22241 261.000
54.24236 242.000
54.26231 247.000
54.28226 247.000
54.30220 276.000
54.32215 266.000
54.34210 279.000
54.36204 255.000
54.38199 284.000
54.40194 264.000
54.42188 242.000
54.44183 247.000
54.46178 255.000
54.48172 261.000
54.50167 266.000
54.52162 272.000
54.54157 260.000
54.56151 288.000
54.58146 259.000
54.60141 265.000
54.62135 300.000
54.64130 252.000
54.66125 242.000
54.68119 247.000
54.70114 244.000
54.72109 246.000
54.74104 226.000
54.76098 246.000
54.78093 266.000
54.80088 254.000
54.82082 258.000
54.84077 268.000
54.86072 243.000
54.88066 305.000
54.90061 250.000
54.92056 256.000
54.94050 230.000
54.96045 212.000
54.98040 298.000
55.00035 311.000
55.02029 256.000
55.04024 239.000
55.06019 241.000
55.08013 250.000
55.10008 246.000
55.12003 241.000
55.13997 243.000
55.15992 267.000
55.17987 260.000
55.19982 287.000
55.21976 235.000
55.23971 238.000
55.25966 262.000
55.27960 242.000
55.29955 258.000
55.31950 260.000
55.33944 251.000
55.35939 277.000
55.37934 232.000
55.39929 255.000
55.41923 278.000
55.43918 250.000
55.45913 261.000
55.47907 249.000
55.49902 255.000
55.51897 246.000
55.53891 256.000
55.55886 268.000
55.57881 251.000
55.59875 265.000
55.61870 235.000
55.63865 237.000
55.65860 284.000
55.67854 243.000
55.69849 229.000
55.71844 270.000
55.73838 240.000
55.75833 254.000
55.77828 237.000
55.79822 285.000
55.81817 248.000
55.83812 253.000
55.85807 275.000
55.87801 274.000
55.89796 258.000
55.91791 256.000
55.93785 240.000
55.95780 247.000
55.97775 247.000
55.99769 268.000
56.01764 236.000
56.03759 236.000
56.05753 274.000
56.07748 241.000
56.09743 260.000
56.11738 272.000
56.13732 254.000
56.15727 269.000
56.17722 237.000
56.19716 267.000
56.21711 276.000
56.23706 233.000
56.25700 243.000
56.27695 271.000
56.29690 253.000
56.31685 286.000
56.33679 262.000
56.35674 271.000
56.37669 260.000
56.39663 234.000
56.41658 289.000
56.43653 284.000
56.45647 250.000
56.47642 260.000
56.49637 257.000
56.51631 280.000
56.53626 255.000
56.55621 263.000
56.57616 300.000
56.59610 277.000
56.61605 263.000
56.63600 260.000
56.65594 273.000
56.67589 261.000
56.69584 283.000
56.71578 265.000
56.73573 270.000
56.75568 285.000
56.77563 282.000
56.79557 289.000
56.81552 271.000
56.83547 251.000
56.85541 321.000
56.87536 262.000
56.89531 279.000
56.91525 264.000
56.93520 264.000
56.95515 308.000
56.97510 319.000
56.99504 281.000
57.01499 272.000
57.03494 295.000
57.05488 310.000
57.07483 303.000
57.09478 275.000
57.11472 299.000
57.13467 305.000
57.15462 329.000
57.17456 334.000
57.19451 312.000
57.21446 321.000
57.23441 407.000
57.25435 389.000
57.27430 432.000
57.29425 479.000
57.31419 524.000
57.33414 575.000
57.35409 550.000
57.37403 545.000
57.39398 508.000
57.41393 494.000
57.43388 483.000
57.45382 524.000
57.47377 477.000
57.49372 493.000
57.51366 508.000
57.53361 473.000
57.55356 388.000
57.57350 440.000
57.59345 389.000
57.61340 375.000
57.63334 350.000
57.65329 373.000
57.67324 347.000
57.69319 365.000
57.71313 359.000
57.73308 397.000
57.75303 394.000
57.77297 356.000
57.79292 375.000
57.81287 397.000
57.83281 377.000
57.85276 383.000
57.87271 396.000
57.89266 374.000
57.91260 361.000
57.93255 390.000
57.95250 379.000
57.97244 364.000
57.99239 366.000
58.01234 363.000
58.03228 345.000
58.05223 331.000
58.07218 362.000
58.09212 318.000
58.11207 366.000
58.13202 357.000
58.15197 345.000
58.17191 313.000
58.19186 373.000
58.21181 342.000
58.23175 325.000
58.25170 338.000
58.27165 313.000
58.29159 311.000
58.31154 343.000
58.33149 357.000
58.35144 314.000
58.37138 346.000
58.39133 330.000
58.41128 339.000
58.43122 297.000
58.45117 319.000
58.47112 297.000
58.49106 320.000
58.51101 312.000
58.53096 306.000
58.55090 291.000
58.57085 266.000
58.59080 312.000
58.61075 287.000
58.63069 303.000
58.65064 281.000
58.67059 265.000
58.69053 276.000
58.71048 264.000
58.73043 285.000
58.75037 246.000
58.77032 307.000
58.79027 254.000
58.81022 282.000
58.83016 255.000
58.85011 290.000
58.87006 280.000
58.89000 276.000
58.90995 275.000
58.92990 279.000
58.94984 269.000
58.96979 245.000
58.98974 261.000
59.00969 272.000
59.02963 243.000
59.04958 276.000
59.06953 307.000
59.08947 279.000
59.10942 260.000
59.12937 264.000
59.14931 240.000
59.16926 258.000
59.18921 282.000
59.20915 276.000
59.22910 271.000
59.24905 253.000
59.26900 242.000
59.28894 249.000
59.30889 271.000
59.32884 261.000
59.34878 275.000
59.36873 244.000
59.38868 263.000
59.40862 276.000
59.42857 277.000
59.44852 259.000
59.46847 255.000
59.48841 288.000
59.50836 275.000
59.52831 294.000
59.54825 257.000
59.56820 248.000
59.58815 275.000
59.60809 270.000
59.62804 264.000
59.64799 268.000
59.66793 290.000
59.68788 237.000
59.70783 234.000
59.72778 284.000
59.74772 267.000
59.76767 254.000
59.78762 287.000
59.80756 301.000
59.82751 251.000
59.84746 292.000
59.86740 241.000
59.88735 277.000
59.90730 279.000
59.92725 266.000
59.94719 264.000
59.96714 283.000
59.98709 236.000
60.00703 256.000
60.02698 255.000
60.04693 256.000
60.06687 242.000
60.08682 265.000
60.10677 286.000
60.12671 241.000
60.14666 262.000
60.16661 249.000
60.18656 263.000
60.20650 258.000
60.22645 266.000
60.24640 277.000
60.26634 261.000
60.28629 293.000
60.30624 251.000
60.32618 304.000
60.34613 286.000
60.36608 271.000
60.38603 282.000
60.40597 260.000
60.42592 292.000
60.44587 270.000
60.46581 248.000
60.48576 283.000
60.50571 278.000
60.52565 275.000
60.54560 247.000
60.56555 274.000
60.58550 280.000
60.60544 265.000
60.62539 278.000
60.64534 295.000
60.66528 263.000
60.68523 257.000
60.70518 264.000
60.72512 245.000
60.74507 279.000
60.76502 256.000
60.78496 270.000
60.80491 266.000
60.82486 290.000
60.84481 261.000
60.86475 295.000
60.88470 254.000
60.90465 284.000
60.92459 287.000
60.94454 306.000
60.96449 296.000
60.98443 284.000
61.00438 280.000
61.02433 295.000
61.04428 270.000
61.06422 288.000
61.08417 280.000
61.10412 306.000
61.12406 309.000
61.14401 288.000
61.16396 289.000
61.18390 280.000
61.20385 277.000
61.22380 296.000
61.24374 253.000
61.26369 298.000
61.28364 298.000
61.30359 318.000
61.32353 306.000
61.34348 334.000
61.36343 298.000
61.38337 323.000
61.40332 298.000
61.42327 323.000
61.44321 336.000
61.46316 348.000
61.48311 334.000
61.50306 364.000
61.52300 363.000
61.54295 380.000
61.56290 398.000
61.58284 436.000
61.60279 389.000
61.62274 425.000
61.64268 401.000
61.66263 380.000
61.68258 412.000
61.70252 373.000
61.72247 372.000
61.74242 394.000
61.76237 372.000
61.78231 372.000
61.80226 347.000
61.82221 384.000
61.84215 376.000
61.86210 365.000
61.88205 354.000
61.90199 375.000
61.92194 408.000
61.94189 363.000
61.96184 367.000
61.98178 367.000
62.00173 418.000
62.02168 375.000
62.04162 369.000
62.06157 389.000
62.08152 404.000
62.10146 436.000
62.12141 399.000
62.14136 395.000
62.16131 455.000
62.18125 420.000
62.20120 465.000
62.22115 443.000
62.24109 464.000
62.26104 480.000
62.28099 530.000
62.30093 467.000
62.32088 501.000
62.34083 526.000
62.36077 577.000
62.38072 597.000
62.40067 614.000
62.42062 580.000
62.44056 575.000
62.46051 614.000
62.48046 619.000
62.50040 644.000
62.52035 659.000
62.54030 642.000
62.56024 665.000
62.58019 641.000
62.60014 675.000
62.62009 699.000
62.64003 696.000
62.65998 643.000
62.67993 654.000
62.69987 657.000
62.71982 599.000
62.73977 579.000
62.75971 620.000
62.77966 564.000
62.79961 544.000
62.81955 537.000
62.83950 563.000
62.85945 571.000
62.87940 622.000
62.89934 666.000
62.91929 701.000
62.93924 728.000
62.95918 755.000
62.97913 800.000
62.99908 757.000
63.01902 690.000
63.03897 668.000
63.05892 617.000
63.07887 543.000
63.09881 552.000
63.11876 540.000
63.13871 554.000
63.15865 523.000
63.17860 540.000
63.19855 516.000
63.21849 469.000
63.23844 410.000
63.25839 391.000
63.27833 370.000
63.29828 384.000
63.31823 348.000
63.33818 354.000
63.35812 330.000
63.37807 325.000
63.39802 308.000
63.41796 321.000
63.43791 304.000
63.45786 281.000
63.47780 318.000
63.49775 306.000
63.51770 298.000
63.53765 277.000
63.55759 307.000
63.57754 270.000
63.59749 258.000
63.61743 284.000
63.63738 300.000
63.65733 278.000
63.67727 297.000
63.69722 270.000
63.71717 306.000
63.73712 292.000
63.75706 267.000
63.77701 280.000
63.79696 309.000
63.81690 273.000
63.83685 284.000
63.85680 304.000
63.87674 248.000
63.89669 283.000
63.91664 286.000
63.93658 301.000
63.95653 278.000
63.97648 282.000
63.99643 276.000
64.01637 291.000
64.03632 287.000
64.05627 321.000
64.07621 283.000
64.09616 256.000
64.11611 284.000
64.13605 258.000
64.15600 273.000
64.17595 280.000
64.19590 263.000
64.21584 287.000
64.23579 283.000
64.25574 303.000
64.27568 274.000
64.29563 280.000
64.31558 280.000
64.33552 258.000
64.35547 286.000
64.37542 286.000
64.39536 295.000
64.41531 281.000
64.43526 273.000
64.45521 275.000
64.47515 272.000
64.49510 267.000
64.51505 260.000
64.53499 313.000
64.55494 271.000
64.57489 249.000
64.59483 283.000
64.61478 289.000
64.63473 308.000
64.65468 286.000
64.67462 270.000
64.69457 306.000
64.71452 292.000
64.73446 302.000
64.75441 280.000
64.77436 284.000
64.79430 265.000
64.81425 281.000
64.83420 297.000
64.85414 263.000
64.87409 306.000
64.89404 274.000
64.91399 298.000
64.93393 308.000
64.95388 296.000
64.97383 276.000
64.99377 296.000
65.01372 302.000
65.03367 274.000
65.05361 260.000
65.07356 297.000
65.09351 297.000
65.11346 256.000
65.13340 286.000
65.15335 277.000
65.17330 283.000
65.19324 267.000
65.21319 282.000
65.23314 290.000
65.25308 322.000
65.27303 270.000
65.29298 317.000
65.31293 310.000
65.33287 303.000
65.35282 321.000
65.37277 314.000
65.39271 298.000
65.41266 307.000
65.43261 306.000
65.45255 286.000
65.47250 279.000
65.49245 323.000
65.51239 310.000
65.53234 293.000
65.55229 283.000
65.57224 288.000
65.59218 305.000
65.61213 289.000
65.63208 318.000
65.65202 323.000
65.67197 284.000
65.69192 296.000
65.71186 306.000
65.73181 357.000
65.75176 316.000
65.77171 307.000
65.79165 328.000
65.81160 313.000
65.83155 326.000
65.85149 338.000
65.87144 311.000
65.89139 345.000
65.91133 325.000
65.93128 320.000
65.95123 350.000
65.97117 335.000
65.99112 323.000
66.01107 282.000
66.03102 313.000
66.05096 332.000
66.07091 329.000
66.09086 326.000
66.11080 303.000
66.13075 351.000
66.15070 316.000
66.17064 341.000
66.19059 349.000
66.21054 331.000
66.23049 321.000
66.25043 356.000
66.27038 349.000
66.29033 369.000
66.31027 369.000
66.33022 350.000
66.35017 353.000
66.37011 370.000
66.39006 346.000
66.41001 368.000
66.42995 348.000
66.44990 340.000
66.46985 351.000
66.48980 347.000
66.50974 359.000
66.52969 322.000
66.54964 345.000
66.56958 330.000
66.58953 340.000
66.60948 348.000
66.62942 285.000
66.64937 305.000
66.66932 314.000
66.68927 290.000
66.70921 341.000
66.72916 290.000
66.74911 331.000
66.76905 275.000
66.78900 308.000
66.80895 287.000
66.82889 323.000
66.84884 245.000
66.86879 313.000
66.88874 255.000
66.90868 273.000
66.92863 284.000
66.94858 268.000
66.96852 247.000
66.98847 317.000
67.00842 286.000
67.02836 283.000
67.04831 304.000
67.06826 261.000
67.08820 273.000
67.10815 297.000
67.12810 256.000
67.14805 263.000
67.16799 264.000
67.18794 302.000
67.20789 291.000
67.22783 279.000
67.24778 297.000
67.26773 263.000
67.28767 274.000
67.30762 259.000
67.32757 258.000
67.34752 297.000
67.36746 292.000
67.38741 284.000
67.40736 236.000
67.42730 285.000
67.44725 294.000
67.46720 277.000
67.48714 257.000
67.50709 292.000
67.52704 274.000
67.54698 287.000
67.56693 286.000
67.58688 290.000
67.60683 295.000
67.62677 307.000
67.64672 300.000
67.66667 290.000
67.68661 296.000
67.70656 277.000
67.72651 251.000
67.74645 292.000
67.76640 334.000
67.78635 294.000
67.80630 317.000
67.82624 311.000
67.84619 340.000
67.86614 323.000
67.88608 318.000
67.90603 325.000
67.92598 334.000
67.94592 312.000
67.96587 360.000
67.98582 339.000
68.00576 357.000
68.02571 337.000
68.04566 341.000
68.06561 345.000
68.08555 336.000
68.10550 333.000
68.12545 332.000
68.14539 340.000
68.16534 347.000
68.18529 330.000
68.20523 373.000
68.22518 359.000
68.24513 363.000
68.26508 343.000
68.28502 314.000
68.30497 359.000
68.32492 313.000
68.34486 295.000
68.36481 291.000
68.38476 336.000
68.40470 298.000
68.42465 299.000
68.44460 306.000
68.46455 301.000
68.48449 292.000
68.50444 329.000
68.52439 272.000
68.54433 298.000
68.56428 310.000
68.58423 255.000
68.60417 263.000
68.62412 263.000
68.64407 270.000
68.66401 251.000
68.68396 270.000
68.70391 304.000
68.72386 273.000
68.74380 295.000
68.76375 258.000
68.78370 262.000
68.80364 286.000
68.82359 278.000
68.84354 253.000
68.86348 244.000
68.88343 274.000
68.90338 287.000
68.92333 261.000
68.94327 272.000
68.96322 274.000
68.98317 259.000
69.00311 271.000
69.02306 278.000
69.04301 244.000
69.06295 281.000
69.08290 257.000
69.10285 251.000
69.12279 263.000
69.14274 247.000
69.16269 263.000
69.18264 251.000
69.20258 249.000
69.22253 282.000
69.24248 260.000
69.26242 266.000
69.28237 265.000
69.30232 249.000
69.32226 274.000
69.34221 246.000
69.36216 266.000
69.38211 265.000
69.40205 265.000
69.42200 276.000
69.44195 271.000
69.46189 278.000
69.48184 234.000
69.50179 275.000
69.52173 279.000
69.54168 265.000
69.56163 316.000
69.58157 246.000
69.60152 240.000
69.62147 245.000
69.64142 311.000
69.66136 267.000
69.68131 249.000
69.70126 259.000
69.72120 255.000
69.74115 245.000
69.76110 251.000
69.78104 279.000
69.80099 278.000
69.82094 229.000
69.84089 274.000
69.86083 270.000
69.88078 268.000
69.90073 274.000
69.92067 276.000
69.94062 256.000
69.96057 261.000
69.98051 240.000
70.00046 250.000
70.02041 256.000
70.04035 250.000
70.06030 271.000
70.08025 259.000
70.10020 236.000
70.12014 242.000
70.14009 294.000
70.16004 256.000
70.17998 263.000
70.19993 227.000
70.21988 234.000
70.23982 277.000
70.25977 266.000
70.27972 250.000
70.29967 269.000
70.31961 256.000
70.33956 290.000
70.35951 249.000
70.37945 267.000
70.39940 243.000
70.41935 269.000
70.43929 251.000
70.45924 232.000
70.47919 265.000
70.49914 243.000
70.51908 257.000
70.53903 245.000
70.55898 271.000
70.57892 251.000
70.59887 289.000
70.61882 257.000
70.63876 248.000
70.65871 264.000
70.67866 232.000
70.69860 305.000
70.71855 248.000
70.73850 258.000
70.75845 264.000
70.77839 221.000
70.79834 248.000
70.81829 255.000
70.83823 281.000
70.85818 251.000
70.87813 239.000
70.89807 240.000
70.91802 268.000
70.93797 262.000
70.95792 237.000
70.97786 260.000
70.99781 245.000
71.01776 227.000
71.03770 250.000
71.05765 237.000
71.07760 257.000
71.09754 259.000
71.11749 263.000
71.13744 272.000
71.15738 248.000
71.17733 278.000
71.19728 260.000
71.21723 230.000
71.23717 251.000
71.25712 260.000
71.27707 251.000
71.29701 252.000
71.31696 250.000
71.33691 255.000
71.35685 273.000
71.37680 286.000
71.39675 283.000
71.41670 264.000
71.43664 245.000
71.45659 253.000
71.47654 287.000
71.49648 281.000
71.51643 274.000
71.53638 253.000
71.55632 251.000
71.57627 292.000
71.59622 301.000
71.61616 269.000
71.63611 286.000
71.65606 272.000
71.67601 258.000
71.69595 271.000
71.71590 262.000
71.73585 286.000
71.75579 279.000
71.77574 300.000
71.79569 273.000
71.81563 274.000
71.83558 241.000
71.85553 228.000
71.87548 265.000
71.89542 247.000
71.91537 262.000
71.93532 270.000
71.95526 275.000
71.97521 271.000
71.99516 295.000
72.01510 234.000
72.03505 230.000
72.05500 256.000
72.07495 285.000
72.09489 255.000
72.11484 281.000
72.13479 245.000
72.15473 279.000
72.17468 264.000
72.19463 270.000
72.21457 298.000
72.23452 262.000
72.25447 299.000
72.27441 287.000
72.29436 268.000
72.31431 282.000
72.33426 281.000
72.35420 282.000
72.37415 301.000
72.39410 312.000
72.41404 293.000
72.43399 294.000
72.45394 274.000
72.47388 288.000
72.49383 295.000
72.51378 311.000
72.53373 314.000
72.55367 310.000
72.57362 284.000
72.59357 300.000
72.61351 274.000
72.63346 318.000
72.65341 306.000
72.67335 329.000
72.69330 294.000
72.71325 302.000
72.73319 297.000
72.75314 287.000
72.77309 267.000
72.79304 313.000
72.81298 266.000
72.83293 278.000
72.85288 287.000
72.87282 282.000
72.89277 264.000
72.91272 279.000
72.93266 258.000
72.95261 298.000
72.97256 258.000
72.99251 289.000
73.01245 301.000
73.03240 268.000
73.05235 278.000
73.07229 270.000
73.09224 305.000
73.11219 271.000
73.13213 285.000
73.15208 267.000
73.17203 274.000
73.19197 241.000
73.21192 259.000
73.23187 269.000
73.25182 263.000
73.27176 272.000
73.29171 286.000
73.31166 250.000
73.33160 273.000
73.35155 270.000
73.37150 260.000
73.39144 277.000
73.41139 266.000
73.43134 284.000
73.45129 267.000
73.47123 293.000
73.49118 272.000
73.51113 298.000
73.53107 275.000
73.55102 279.000
73.57097 265.000
73.59091 282.000
73.61086 284.000
73.63081 272.000
73.65076 284.000
73.67070 254.000
73.69065 243.000
73.71060 257.000
73.73054 287.000
73.75049 289.000
73.77044 282.000
73.79038 276.000
73.81033 311.000
73.83028 268.000
73.85022 264.000
73.87017 269.000
73.89012 296.000
73.91007 282.000
73.93001 267.000
73.94996 303.000
73.96991 283.000
73.98985 283.000
74.00980 307.000
74.02975 279.000
74.04969 270.000
74.06964 274.000
74.08959 303.000
74.10954 326.000
74.12948 259.000
74.14943 272.000
74.16938 258.000
74.18932 307.000
74.20927 296.000
74.22922 283.000
74.24916 300.000
74.26911 309.000
74.28906 295.000
74.30900 285.000
74.32895 355.000
74.34890 310.000
74.36885 293.000
74.38879 340.000
74.40874 308.000
74.42869 323.000
74.44863 314.000
74.46858 333.000
74.48853 382.000
74.50847 389.000
74.52842 364.000
74.54837 375.000
74.56832 352.000
74.58826 350.000
74.60821 370.000
74.62816 355.000
74.64810 371.000
74.66805 369.000
74.68800 331.000
74.70794 347.000
74.72789 382.000
74.74784 356.000
74.76778 386.000
74.78773 368.000
74.80768 410.000
74.82763 368.000
74.84757 386.000
74.86752 388.000
74.88747 400.000
74.90741 402.000
74.92736 418.000
74.94731 391.000
74.96725 404.000
74.98720 431.000
75.00715 372.000
75.02710 412.000
75.04704 399.000
75.06699 395.000
75.08694 425.000
75.10688 419.000
75.12683 367.000
75.14678 370.000
75.16672 384.000
75.18667 391.000
75.20662 364.000
75.22657 381.000
75.24651 373.000
75.26646 344.000
75.28641 379.000
75.30635 360.000
75.32630 332.000
75.34625 360.000
75.36619 369.000
75.38614 339.000
75.40609 316.000
75.42603 312.000
75.44598 343.000
75.46593 294.000
75.48588 352.000
75.50582 372.000
75.52577 330.000
75.54572 339.000
75.56566 337.000
75.58561 324.000
75.60556 293.000
75.62550 320.000
75.64545 330.000
75.66540 306.000
75.68535 277.000
75.70529 282.000
75.72524 279.000
75.74519 300.000
75.76513 291.000
75.78508 266.000
75.80503 272.000
75.82497 261.000
75.84492 264.000
75.86487 284.000
75.88481 263.000
75.90476 266.000
75.92471 273.000
75.94466 273.000
75.96460 272.000
75.98455 267.000
76.00450 260.000
76.02444 261.000
76.04439 267.000
76.06434 246.000
76.08428 261.000
76.10423 276.000
76.12418 258.000
76.14413 226.000
76.16407 266.000
76.18402 256.000
76.20397 244.000
76.22391 262.000
76.24386 276.000
76.26381 267.000
76.28375 247.000
76.30370 241.000
76.32365 242.000
76.34359 269.000
76.36354 260.000
76.38349 266.000
76.40344 254.000
76.42338 260.000
76.44333 255.000
76.46328 244.000
76.48322 251.000
76.50317 254.000
76.52312 266.000
76.54306 229.000
76.56301 276.000
76.58296 261.000
76.60291 268.000
76.62285 245.000
76.64280 278.000
76.66275 254.000
76.68269 249.000
76.70264 271.000
76.72259 296.000
76.74253 252.000
76.76248 261.000
76.78243 249.000
76.80238 246.000
76.82232 247.000
76.84227 230.000
76.86222 236.000
76.88216 267.000
76.90211 276.000
76.92206 247.000
76.94200 265.000
76.96195 281.000
76.98190 289.000
77.00184 230.000
77.02179 249.000
77.04174 234.000
77.06169 248.000
77.08163 237.000
77.10158 275.000
77.12153 257.000
77.14147 285.000
77.16142 230.000
77.18137 280.000
77.20131 282.000
77.22126 254.000
77.24121 277.000
77.26116 260.000
77.28110 258.000
77.30105 257.000
77.32100 255.000
77.34094 269.000
77.36089 261.000
77.38084 274.000
77.40078 262.000
77.42073 292.000
77.44068 278.000
77.46062 277.000
77.48057 269.000
77.50052 264.000
77.52047 246.000
77.54041 279.000
77.56036 280.000
77.58031 272.000
77.60025 262.000
77.62020 287.000
77.64015 284.000
77.66009 292.000
77.68004 269.000
77.69999 276.000
77.71994 254.000
77.73988 315.000
77.75983 261.000
77.77978 281.000
77.79972 258.000
77.81967 282.000
77.83962 284.000
77.85956 287.000
77.87951 277.000
77.89946 250.000
77.91940 254.000
77.93935 261.000
77.95930 270.000
77.97925 301.000
77.99919 252.000
78.01914 266.000
78.03909 267.000
78.05903 266.000
78.07898 262.000
78.09893 298.000
78.11887 268.000
78.13882 248.000
78.15877 260.000
78.17872 288.000
78.19866 289.000
78.21861 283.000
78.23856 297.000
78.25850 264.000
78.27845 248.000
78.29840 301.000
78.31834 274.000
78.33829 282.000
78.35824 276.000
78.37819 289.000
78.39813 247.000
78.41808 265.000
78.43803 269.000
78.45797 296.000
78.47792 281.000
78.49787 261.000
78.51781 258.000
78.53776 251.000
78.55771 286.000
78.57765 269.000
78.59760 260.000
78.61755 293.000
78.63750 281.000
78.65744 294.000
78.67739 291.000
78.69734 329.000
78.71728 265.000
78.73723 326.000
78.75718 305.000
78.77712 348.000
78.79707 327.000
78.81702 299.000
78.83697 337.000
78.85691 309.000
78.87686 335.000
78.89681 322.000
78.91675 317.000
78.93670 301.000
78.95665 344.000
78.97659 296.000
78.99654 333.000
79.01649 278.000
79.03643 309.000
79.05638 319.000
79.07633 345.000
79.09628 326.000
79.11622 337.000
79.13617 309.000
79.15612 296.000
79.17606 306.000
79.19601 299.000
79.21596 302.000
79.23590 269.000
79.25585 296.000
79.27580 301.000
79.29575 281.000
79.31569 293.000
79.33564 289.000
79.35559 295.000
79.37553 279.000
79.39548 304.000
79.41543 264.000
79.43537 284.000
79.45532 276.000
79.47527 311.000
79.49521 264.000
79.51516 285.000
79.53511 301.000
79.55506 266.000
79.57500 333.000
79.59495 263.000
79.61490 282.000
79.63484 276.000
79.65479 270.000
79.67474 266.000
79.69468 255.000
79.71463 274.000
79.73458 275.000
79.75453 282.000
79.77447 253.000
79.79442 244.000
79.81437 267.000
79.83431 232.000
79.85426 281.000
79.87421 282.000
79.89415 244.000
79.91410 270.000
79.93405 269.000
79.95399 252.000
79.97394 254.000
79.99389 250.000
80.01384 263.000
80.03378 260.000
80.05373 249.000
80.07368 269.000
80.09362 240.000
80.11357 277.000
80.13352 237.000
80.15346 255.000
80.17341 267.000
80.19336 251.000
80.21331 273.000
80.23325 250.000
80.25320 268.000
80.27315 263.000
80.29309 261.000
80.31304 281.000
80.33299 277.000
80.35293 285.000
80.37288 271.000
80.39283 277.000
80.41278 281.000
80.43272 275.000
80.45267 240.000
80.47262 287.000
80.49256 241.000
80.51251 223.000
80.53246 266.000
80.55240 252.000
80.57235 232.000
80.59230 249.000
80.61224 266.000
80.63219 269.000
80.65214 257.000
80.67209 269.000
80.69203 259.000
80.71198 220.000
80.73193 198.000
80.75187 245.000
80.77182 245.000
80.79177 242.000
80.81171 238.000
80.83166 271.000
80.85161 242.000
80.87156 246.000
80.89150 252.000
80.91145 277.000
80.93140 267.000
80.95134 270.000
80.97129 268.000
80.99124 248.000
81.01118 243.000
81.03113 230.000
81.05108 230.000
81.07102 243.000
81.09097 282.000
81.11092 282.000
81.13087 259.000
81.15081 235.000
81.17076 239.000
81.19071 264.000
81.21065 230.000
81.23060 237.000
81.25055 248.000
81.27049 264.000
81.29044 248.000
81.31039 260.000
81.33034 232.000
81.35028 227.000
81.37023 279.000
81.39018 242.000
81.41012 260.000
81.43007 213.000
81.45002 251.000
81.46996 233.000
81.48991 275.000
81.50986 220.000
81.52980 285.000
81.54975 240.000
81.56970 245.000
81.58965 274.000
81.60959 256.000
81.62954 278.000
81.64949 265.000
81.66943 252.000
81.68938 253.000
81.70933 256.000
81.72927 280.000
81.74922 245.000
81.76917 251.000
81.78912 253.000
81.80906 245.000
81.82901 248.000
81.84896 229.000
81.86890 242.000
81.88885 259.000
81.90880 234.000
81.92874 223.000
81.94869 245.000
81.96864 285.000
81.98859 255.000
82.00853 272.000
82.02848 256.000
82.04843 250.000
82.06837 236.000
82.08832 210.000
82.10827 262.000
82.12821 248.000
82.14816 255.000
82.16811 298.000
82.18805 270.000
82.20800 260.000
82.22795 271.000
82.24790 271.000
82.26784 281.000
82.28779 244.000
82.30774 252.000
82.32768 296.000
82.34763 297.000
82.36758 282.000
82.38752 280.000
82.40747 272.000
82.42742 267.000
82.44737 276.000
82.46731 235.000
82.48726 261.000
82.50721 261.000
82.52715 261.000
82.54710 284.000
82.56705 266.000
82.58699 249.000
82.60694 302.000
82.62689 282.000
82.64683 268.000
82.66678 251.000
82.68673 294.000
82.70668 291.000
82.72662 280.000
82.74657 269.000
82.76652 269.000
82.78646 278.000
82.80641 291.000
82.82636 281.000
82.84630 284.000
82.86625 286.000
82.88620 284.000
82.90615 286.000
82.92609 274.000
82.94604 265.000
82.96599 280.000
82.98593 249.000
83.00588 298.000
83.02583 275.000
83.04577 283.000
83.06572 273.000
83.08567 286.000
83.10561 296.000
83.12556 274.000
83.14551 300.000
83.16546 230.000
83.18540 274.000
83.20535 254.000
83.22530 283.000
83.24524 267.000
83.26519 273.000
83.28514 288.000
83.30508 235.000
83.32503 278.000
83.34498 273.000
83.36493 266.000
83.38487 257.000
83.40482 294.000
83.42477 278.000
83.44471 259.000
83.46466 273.000
83.48461 275.000
83.50455 261.000
83.52450 231.000
83.54445 254.000
83.56440 267.000
83.58434 283.000
83.60429 277.000
83.62424 271.000
83.64418 249.000
83.66413 266.000
83.68408 273.000
83.70402 259.000
83.72397 277.000
83.74392 252.000
83.76386 269.000
83.78381 265.000
83.80376 278.000
83.82371 255.000
83.84365 246.000
83.86360 266.000
83.88355 286.000
83.90349 277.000
83.92344 291.000
83.94339 250.000
83.96333 231.000
83.98328 255.000
84.00323 263.000
84.02318 258.000
84.04312 261.000
84.06307 288.000
84.08302 279.000
84.10296 289.000
84.12291 225.000
84.14286 251.000
84.16280 245.000
84.18275 239.000
84.20270 257.000
84.22264 255.000
84.24259 273.000
84.26254 250.000
84.28249 243.000
84.30243 231.000
84.32238 274.000
84.34233 262.000
84.36227 277.000
84.38222 283.000
84.40217 275.000
84.42211 256.000
84.44206 254.000
84.46201 277.000
84.48196 259.000
84.50190 251.000
84.52185 254.000
84.54180 271.000
84.56174 246.000
84.58169 267.000
84.60164 278.000
84.62158 258.000
84.64153 235.000
84.66148 262.000
84.68142 273.000
84.70137 223.000
84.72132 279.000
84.74127 241.000
84.76121 253.000
84.78116 259.000
84.80111 240.000
84.82105 237.000
84.84100 253.000
84.86095 280.000
84.88089 306.000
84.90084 227.000
84.92079 254.000
84.94074 231.000
84.96068 276.000
84.98063 224.000
85.00058 258.000
85.02052 251.000
85.04047 248.000
85.06042 268.000
85.08036 245.000
85.10031 261.000
85.12026 243.000
85.14021 248.000
85.16015 256.000
85.18010 243.000
85.20005 238.000
85.21999 231.000
85.23994 271.000
85.25989 253.000
85.27983 238.000
85.29978 232.000
85.31973 242.000
85.33967 261.000
85.35962 254.000
85.37957 242.000
85.39952 251.000
85.41946 233.000
85.43941 253.000
85.45936 240.000
85.47930 272.000
85.49925 256.000
85.51920 258.000
85.53914 257.000
85.55909 259.000
85.57904 251.000
85.59899 267.000
85.61893 248.000
85.63888 239.000
85.65883 267.000
85.67877 246.000
85.69872 243.000
85.71867 202.000
85.73861 263.000
85.75856 264.000
85.77851 258.000
85.79845 237.000
85.81840 251.000
85.83835 258.000
85.85830 250.000
85.87824 266.000
85.89819 263.000
85.91814 252.000
85.93808 236.000
85.95803 281.000
85.97798 251.000
85.99792 268.000
86.01787 268.000
86.03782 255.000
86.05777 261.000
86.07771 236.000
86.09766 250.000
86.11761 265.000
86.13755 261.000
86.15750 242.000
86.17745 262.000
86.19739 270.000
86.21734 273.000
86.23729 248.000
86.25723 284.000
86.27718 248.000
86.29713 235.000
86.31708 239.000
86.33702 249.000
86.35697 257.000
86.37692 256.000
86.39686 249.000
86.41681 234.000
86.43676 255.000
86.45670 281.000
86.47665 256.000
86.49660 267.000
86.51655 275.000
86.53649 264.000
86.55644 273.000
86.57639 289.000
86.59633 238.000
86.61628 250.000
86.63623 253.000
86.65617 266.000
86.67612 259.000
86.69607 284.000
86.71602 270.000
86.73596 277.000
86.75591 269.000
86.77586 249.000
86.79580 258.000
86.81575 260.000
86.83570 281.000
86.85564 259.000
86.87559 260.000
86.89554 254.000
86.91548 295.000
86.93543 262.000
86.95538 238.000
86.97533 285.000
86.99527 252.000
87.01522 261.000
87.03517 260.000
87.05511 287.000
87.07506 262.000
87.09501 284.000
87.11495 269.000
87.13490 285.000
87.15485 281.000
87.17480 258.000
87.19474 236.000
87.21469 278.000
87.23464 276.000
87.25458 232.000
87.27453 270.000
87.29448 289.000
87.31442 257.000
87.33437 269.000
87.35432 299.000
87.37426 273.000
87.39421 307.000
87.41416 284.000
87.43411 259.000
87.45405 282.000
87.47400 273.000
87.49395 243.000
87.51389 294.000
87.53384 283.000
87.55379 249.000
87.57373 285.000
87.59368 266.000
87.61363 250.000
87.63358 292.000
87.65352 286.000
87.67347 264.000
87.69342 270.000
87.71336 253.000
87.73331 283.000
87.75326 256.000
87.77320 243.000
87.79315 269.000
87.81310 244.000
87.83304 212.000
87.85299 239.000
87.87294 265.000
87.89289 227.000
87.91283 262.000
87.93278 262.000
87.95273 254.000
87.97267 261.000
87.99262 243.000
88.01257 258.000
88.03251 226.000
88.05246 219.000
88.07241 260.000
88.09236 242.000
88.11230 246.000
88.13225 223.000
88.15220 295.000
88.17214 244.000
88.19209 212.000
88.21204 243.000
88.23198 252.000
88.25193 268.000
88.27188 246.000
88.29183 267.000
88.31177 250.000
88.33172 259.000
88.35167 257.000
88.37161 231.000
88.39156 247.000
88.41151 260.000
88.43145 259.000
88.45140 275.000
88.47135 247.000
88.49129 241.000
88.51124 273.000
88.53119 253.000
88.55114 256.000
88.57108 241.000
88.59103 263.000
88.61098 231.000
88.63092 260.000
88.65087 277.000
88.67082 271.000
88.69076 293.000
88.71071 231.000
88.73066 263.000
88.75061 238.000
88.77055 260.000
88.79050 240.000
88.81045 255.000
88.83039 229.000
88.85034 259.000
88.87029 244.000
88.89023 266.000
88.91018 272.000
88.93013 261.000
88.95007 271.000
88.97002 270.000
88.98997 239.000
89.00992 247.000
89.02986 260.000
89.04981 257.000
89.06976 277.000
89.08970 267.000
89.10965 245.000
89.12960 259.000
89.14954 244.000
89.16949 256.000
89.18944 268.000
89.20939 274.000
89.22933 260.000
89.24928 230.000
89.26923 236.000
89.28917 271.000
89.30912 263.000
89.32907 265.000
89.34901 264.000
89.36896 285.000
89.38891 264.000
89.40885 259.000
89.42880 263.000
89.44875 280.000
89.46870 261.000
89.48864 268.000
89.50859 252.000
89.52854 261.000
89.54848 258.000
89.56843 258.000
89.58838 274.000
89.60832 265.000
89.62827 267.000
89.64822 242.000
89.66817 278.000
89.68811 273.000
89.70806 266.000
89.72801 286.000
89.74795 275.000
89.76790 269.000
89.78785 243.000
89.80779 310.000
89.82774 263.000
89.84769 275.000
89.86764 277.000
89.88758 275.000
89.90753 275.000
89.92748 288.000
89.94742 266.000
89.96737 281.000
89.98732 274.000
90.00726 305.000
