10.00000 125.000
10.01995 121.000
10.03989 115.000
10.05984 117.000
10.07979 105.000
10.09973 130.000
10.11968 132.000
10.13963 114.000
10.15958 137.000
10.17952 139.000
10.19947 128.000
10.21942 116.000
10.23936 126.000
10.25931 115.000
10.27926 117.000
10.29920 142.000
10.31915 123.000
10.33910 143.000
10.35905 130.000
10.37899 126.000
10.39894 161.000
10.41889 120.000
10.43883 112.000
10.45878 124.000
10.47873 129.000
10.49867 116.000
10.51862 135.000
10.53857 155.000
10.55851 117.000
10.57846 133.000
10.59841 147.000
10.61836 131.000
10.63830 152.000
10.65825 157.000
10.67820 143.000
10.69814 117.000
10.71809 130.000
10.73804 120.000
10.75798 139.000
10.77793 152.000
10.79788 152.000
10.81783 139.000
10.83777 142.000
10.85772 129.000
10.87767 154.000
10.89761 142.000
10.91756 112.000
10.93751 132.000
10.95745 145.000
10.97740 132.000
10.99735 138.000
11.01730 136.000
11.03724 134.000
11.05719 136.000
11.07714 163.000
11.09708 139.000
11.11703 137.000
11.13698 147.000
11.15692 158.000
11.17687 157.000
11.19682 143.000
11.21676 156.000
11.23671 164.000
11.25666 148.000
11.27661 139.000
11.29655 137.000
11.31650 155.000
11.33645 142.000
11.35639 149.000
11.37634 153.000
11.39629 151.000
11.41623 168.000
11.43618 153.000
11.45613 164.000
11.47608 163.000
11.49602 165.000
11.51597 138.000
11.53592 146.000
11.55586 170.000
11.57581 190.000
11.59576 146.000
11.61570 133.000
11.63565 148.000
11.65560 147.000
11.67554 151.000
11.69549 161.000
11.71544 161.000
11.73539 173.000
11.75533 160.000
11.77528 165.000
11.79523 172.000
11.81517 154.000
11.83512 163.000
11.85507 174.000
11.87501 168.000
11.89496 140.000
11.91491 169.000
11.93486 162.000
11.95480 171.000
11.97475 190.000
11.99470 136.000
12.01464 162.000
12.03459 169.000
12.05454 198.000
12.07448 161.000
12.09443 179.000
12.11438 145.000
12.13432 150.000
12.15427 162.000
12.17422 167.000
12.19417 159.000
12.21411 183.000
12.23406 189.000
12.25401 172.000
12.27395 173.000
12.29390 185.000
12.31385 176.000
12.33379 185.000
12.35374 168.000
12.37369 204.000
12.39364 189.000
12.41358 197.000
12.43353 211.000
12.45348 184.000
12.47342 172.000
12.49337 189.000
12.51332 197.000
12.53326 156.000
12.55321 160.000
12.57316 180.000
12.59311 175.000
12.61305 209.000
12.63300 178.000
12.65295 213.000
12.67289 189.000
12.69284 171.000
12.71279 200.000
12.73273 202.000
12.75268 202.000
12.77263 194.000
12.79257 186.000
12.81252 183.000
12.83247 195.000
12.85242 200.000
12.87236 202.000
12.89231 192.000
12.91226 208.000
12.93220 206.000
12.95215 199.000
12.97210 201.000
12.99204 205.000
13.01199 191.000
13.03194 180.000
13.05189 206.000
13.07183 190.000
13.09178 191.000
13.11173 211.000
13.13167 185.000
13.15162 194.000
13.17157 210.000
13.19151 194.000
13.21146 199.000
13.23141 240.000
13.25135 200.000
13.27130 213.000
13.29125 243.000
13.31120 240.000
13.33114 195.000
13.35109 214.000
13.37104 205.000
13.39098 214.000
13.41093 228.000
13.43088 204.000
13.45082 215.000
13.47077 200.000
13.49072 221.000
13.51067 232.000
13.53061 205.000
13.55056 218.000
13.57051 228.000
13.59045 232.000
13.61040 201.000
13.63035 225.000
13.65029 241.000
13.67024 227.000
13.69019 244.000
13.71013 258.000
13.73008 236.000
13.75003 199.000
13.76998 202.000
13.78992 217.000
13.80987 232.000
13.82982 231.000
13.84976 218.000
13.86971 212.000
13.88966 261.000
13.90960 216.000
13.92955 252.000
13.94950 256.000
13.96945 241.000
13.98939 210.000
14.00934 247.000
14.02929 244.000
14.04923 213.000
14.06918 262.000
14.08913 238.000
14.10907 214.000
14.12902 268.000
14.14897 263.000
14.16892 245.000
14.18886 241.000
14.20881 258.000
14.22876 264.000
14.24870 229.000
14.26865 268.000
14.28860 248.000
14.30854 246.000
14.32849 257.000
14.34844 220.000
14.36838 242.000
14.38833 249.000
14.40828 263.000
14.42823 235.000
14.44817 220.000
14.46812 240.000
14.48807 265.000
14.50801 278.000
14.52796 240.000
14.54791 276.000
14.56785 264.000
14.58780 273.000
14.60775 271.000
14.62770 283.000
14.64764 297.000
14.66759 280.000
14.68754 231.000
14.70748 253.000
14.72743 249.000
14.74738 246.000
14.76732 251.000
14.78727 266.000
14.80722 284.000
14.82716 275.000
14.84711 297.000
14.86706 277.000
14.88701 296.000
14.90695 286.000
14.92690 283.000
14.94685 278.000
14.96679 290.000
14.98674 290.000
15.00669 286.000
15.02663 253.000
15.04658 263.000
15.06653 270.000
15.08648 268.000
15.10642 300.000
15.12637 313.000
15.14632 309.000
15.16626 293.000
15.18621 294.000
15.20616 274.000
15.22610 295.000
15.24605 300.000
15.26600 246.000
15.28594 300.000
15.30589 283.000
15.32584 291.000
15.34579 278.000
15.36573 272.000
15.38568 281.000
15.40563 301.000
15.42557 303.000
15.44552 296.000
15.46547 329.000
15.48541 302.000
15.50536 311.000
15.52531 308.000
15.54526 300.000
15.56520 350.000
15.58515 301.000
15.60510 325.000
15.62504 287.000
15.64499 312.000
15.66494 316.000
15.68488 315.000
15.70483 339.000
15.72478 318.000
15.74472 329.000
15.76467 317.000
15.78462 287.000
15.80457 329.000
15.82451 344.000
15.84446 312.000
15.86441 324.000
15.88435 331.000
15.90430 331.000
15.92425 337.000
15.94419 309.000
15.96414 343.000
15.98409 344.000
16.00404 325.000
16.02398 325.000
16.04393 324.000
16.06388 325.000
16.08382 326.000
16.10377 309.000
16.12372 356.000
16.14366 352.000
16.16361 321.000
16.18356 345.000
16.20351 326.000
16.22345 340.000
16.24340 358.000
16.26335 330.000
16.28329 323.000
16.30324 345.000
16.32319 341.000
16.34313 344.000
16.36308 382.000
16.38303 361.000
16.40297 348.000
16.42292 376.000
16.44287 349.000
16.46282 359.000
16.48276 363.000
16.50271 384.000
16.52266 379.000
16.54260 352.000
16.56255 395.000
16.58250 351.000
16.60244 392.000
16.62239 352.000
16.64234 353.000
16.66229 384.000
16.68223 375.000
16.70218 387.000
16.72213 344.000
16.74207 346.000
16.76202 390.000
16.78197 379.000
16.80191 344.000
16.82186 380.000
16.84181 339.000
16.86175 345.000
16.88170 377.000
16.90165 376.000
16.92160 357.000
16.94154 358.000
16.96149 356.000
16.98144 363.000
17.00138 381.000
17.02133 391.000
17.04128 357.000
17.06122 395.000
17.08117 410.000
17.10112 388.000
17.12107 357.000
17.14101 382.000
17.16096 386.000
17.18091 391.000
17.20085 401.000
17.22080 373.000
17.24075 417.000
17.26069 377.000
17.28064 378.000
17.30059 377.000
17.32053 379.000
17.34048 378.000
17.36043 384.000
17.38038 374.000
17.40032 388.000
17.42027 410.000
17.44022 388.000
17.46016 394.000
17.48011 390.000
17.50006 390.000
17.52000 389.000
17.53995 404.000
17.55990 373.000
17.57985 403.000
17.59979 390.000
17.61974 374.000
17.63969 397.000
17.65963 396.000
17.67958 388.000
17.69953 433.000
17.71947 405.000
17.73942 388.000
17.75937 373.000
17.77932 422.000
17.79926 421.000
17.81921 422.000
17.83916 406.000
17.85910 427.000
17.87905 467.000
17.89900 430.000
17.91894 453.000
17.93889 414.000
17.95884 448.000
17.97878 478.000
17.99873 446.000
18.01868 530.000
18.03863 484.000
18.05857 511.000
18.07852 475.000
18.09847 535.000
18.11841 479.000
18.13836 517.000
18.15831 454.000
18.17825 477.000
18.19820 448.000
18.21815 436.000
18.23810 486.000
18.25804 442.000
18.27799 426.000
18.29794 425.000
18.31788 467.000
18.33783 425.000
18.35778 445.000
18.37772 462.000
18.39767 440.000
18.41762 445.000
18.43756 418.000
18.45751 422.000
18.47746 479.000
18.49741 451.000
18.51735 437.000
18.53730 422.000
18.55725 427.000
18.57719 403.000
18.59714 451.000
18.61709 445.000
18.63703 473.000
18.65698 458.000
18.67693 449.000
18.69688 458.000
18.71682 415.000
18.73677 450.000
18.75672 448.000
18.77666 468.000
18.79661 486.000
18.81656 481.000
18.83650 449.000
18.85645 442.000
18.87640 475.000
18.89634 489.000
18.91629 483.000
18.93624 481.000
18.95619 454.000
18.97613 441.000
18.99608 462.000
19.01603 476.000
19.03597 472.000
19.05592 483.000
19.07587 454.000
19.09581 475.000
19.11576 465.000
19.13571 485.000
19.15566 495.000
19.17560 453.000
19.19555 434.000
19.21550 478.000
19.23544 435.000
19.25539 467.000
19.27534 450.000
19.29528 468.000
19.31523 507.000
19.33518 472.000
19.35513 470.000
19.37507 506.000
19.39502 478.000
19.41497 501.000
19.43491 489.000
19.45486 475.000
19.47481 484.000
19.49475 479.000
19.51470 486.000
19.53465 474.000
19.55459 459.000
19.57454 461.000
19.59449 492.000
19.61444 472.000
19.63438 484.000
19.65433 470.000
19.67428 493.000
19.69422 464.000
19.71417 459.000
19.73412 488.000
19.75406 471.000
19.77401 508.000
19.79396 486.000
19.81391 521.000
19.83385 482.000
19.85380 520.000
19.87375 515.000
19.89369 485.000
19.91364 506.000
19.93359 546.000
19.95353 497.000
19.97348 502.000
19.99343 511.000
20.01337 499.000
20.03332 507.000
20.05327 461.000
20.07322 517.000
20.09316 510.000
20.11311 517.000
20.13306 513.000
20.15300 540.000
20.17295 558.000
20.19290 526.000
20.21284 534.000
20.23279 549.000
20.25274 586.000
20.27269 596.000
20.29263 603.000
20.31258 580.000
20.33253 682.000
20.35247 680.000
20.37242 700.000
20.39237 761.000
20.41231 774.000
20.43226 793.000
20.45221 866.000
20.47215 844.000
20.49210 879.000
20.51205 979.000
20.53200 998.000
20.55194 1017.000
20.57189 1038.000
20.59184 988.000
20.61178 949.000
20.63173 945.000
20.65168 869.000
20.67162 873.000
20.69157 801.000
20.71152 853.000
20.73147 733.000
20.75141 704.000
20.77136 659.000
20.79131 655.000
20.81125 678.000
20.83120 600.000
20.85115 624.000
20.87109 604.000
20.89104 544.000
20.91099 573.000
20.93094 514.000
20.95088 539.000
20.97083 550.000
20.99078 555.000
21.01072 513.000
21.03067 541.000
21.05062 477.000
21.07056 502.000
21.09051 498.000
21.11046 530.000
21.13040 525.000
21.15035 503.000
21.17030 507.000
21.19025 513.000
21.21019 496.000
21.23014 522.000
21.25009 543.000
21.27003 478.000
21.28998 524.000
21.30993 558.000
21.32987 512.000
21.34982 484.000
21.36977 539.000
21.38972 517.000
21.40966 502.000
21.42961 501.000
21.44956 510.000
21.46950 534.000
21.48945 515.000
21.50940 531.000
21.52934 526.000
21.54929 530.000
21.56924 510.000
21.58918 519.000
21.60913 506.000
21.62908 485.000
21.64903 525.000
21.66897 528.000
21.68892 504.000
21.70887 535.000
21.72881 525.000
21.74876 496.000
21.76871 490.000
21.78865 544.000
21.80860 551.000
21.82855 515.000
21.84850 554.000
21.86844 529.000
21.88839 550.000
21.90834 526.000
21.92828 572.000
21.94823 549.000
21.96818 506.000
21.98812 488.000
22.00807 543.000
22.02802 534.000
22.04796 558.000
22.06791 529.000
22.08786 520.000
22.10781 515.000
22.12775 529.000
22.14770 533.000
22.16765 523.000
22.18759 530.000
22.20754 489.000
22.22749 518.000
22.24743 544.000
22.26738 527.000
22.28733 547.000
22.30728 572.000
22.32722 523.000
22.34717 548.000
22.36712 582.000
22.38706 551.000
22.40701 535.000
22.42696 580.000
22.44690 519.000
22.46685 531.000
22.48680 532.000
22.50675 514.000
22.52669 528.000
22.54664 551.000
22.56659 549.000
22.58653 553.000
22.60648 514.000
22.62643 514.000
22.64637 574.000
22.66632 541.000
22.68627 542.000
22.70621 555.000
22.72616 532.000
22.74611 554.000
22.76606 549.000
22.78600 532.000
22.80595 572.000
22.82590 532.000
22.84584 576.000
22.86579 574.000
22.88574 568.000
22.90568 542.000
22.92563 575.000
22.94558 543.000
22.96553 549.000
22.98547 548.000
23.00542 563.000
23.02537 553.000
23.04531 528.000
23.06526 494.000
23.08521 551.000
23.10515 589.000
23.12510 535.000
23.14505 544.000
23.16499 558.000
23.18494 553.000
23.20489 534.000
23.22484 556.000
23.24478 605.000
23.26473 564.000
23.28468 551.000
23.30462 538.000
23.32457 526.000
23.34452 555.000
23.36446 564.000
23.38441 512.000
23.40436 525.000
23.42431 593.000
23.44425 553.000
23.46420 579.000
23.48415 563.000
23.50409 567.000
23.52404 549.000
23.54399 567.000
23.56393 569.000
23.58388 575.000
23.60383 585.000
23.62377 556.000
23.64372 563.000
23.66367 504.000
23.68362 557.000
23.70356 561.000
23.72351 561.000
23.74346 586.000
23.76340 529.000
23.78335 612.000
23.80330 572.000
23.82324 541.000
23.84319 569.000
23.86314 589.000
23.88309 521.000
23.90303 528.000
23.92298 544.000
23.94293 542.000
23.96287 539.000
23.98282 605.000
24.00277 534.000
24.02271 549.000
24.04266 551.000
24.06261 542.000
24.08256 560.000
24.10250 572.000
24.12245 577.000
24.14240 547.000
24.16234 523.000
24.18229 537.000
24.20224 552.000
24.22218 551.000
24.24213 574.000
24.26208 579.000
24.28202 529.000
24.30197 582.000
24.32192 579.000
24.34187 531.000
24.36181 597.000
24.38176 591.000
24.40171 550.000
24.42165 517.000
24.44160 580.000
24.46155 545.000
24.48149 557.000
24.50144 580.000
24.52139 534.000
24.54134 497.000
24.56128 592.000
24.58123 569.000
24.60118 603.000
24.62112 582.000
24.64107 607.000
24.66102 576.000
24.68096 590.000
24.70091 569.000
24.72086 600.000
24.74080 609.000
24.76075 565.000
24.78070 534.000
24.80065 594.000
24.82059 610.000
24.84054 571.000
24.86049 574.000
24.88043 527.000
24.90038 593.000
24.92033 579.000
24.94027 567.000
24.96022 583.000
24.98017 572.000
25.00012 574.000
25.02006 546.000
25.04001 607.000
25.05996 524.000
25.07990 599.000
25.09985 559.000
25.11980 583.000
25.13974 559.000
25.15969 588.000
25.17964 564.000
25.19958 585.000
25.21953 583.000
25.23948 550.000
25.25943 564.000
25.27937 563.000
25.29932 552.000
25.31927 561.000
25.33921 559.000
25.35916 532.000
25.37911 568.000
25.39905 578.000
25.41900 576.000
25.43895 596.000
25.45890 569.000
25.47884 582.000
25.49879 572.000
25.51874 551.000
25.53868 580.000
25.55863 555.000
25.57858 569.000
25.59852 597.000
25.61847 556.000
25.63842 560.000
25.65837 523.000
25.67831 572.000
25.69826 580.000
25.71821 538.000
25.73815 571.000
25.75810 583.000
25.77805 543.000
25.79799 582.000
25.81794 563.000
25.83789 581.000
25.85783 554.000
25.87778 587.000
25.89773 578.000
25.91768 579.000
25.93762 608.000
25.95757 538.000
25.97752 589.000
25.99746 609.000
26.01741 539.000
26.03736 587.000
26.05730 582.000
26.07725 568.000
26.09720 529.000
26.11715 583.000
26.13709 588.000
26.15704 554.000
26.17699 639.000
26.19693 592.000
26.21688 610.000
26.23683 598.000
26.25677 592.000
26.27672 553.000
26.29667 572.000
26.31661 555.000
26.33656 630.000
26.35651 589.000
26.37646 586.000
26.39640 613.000
26.41635 588.000
26.43630 601.000
26.45624 569.000
26.47619 556.000
26.49614 593.000
26.51608 586.000
26.53603 562.000
26.55598 578.000
26.57593 617.000
26.59587 602.000
26.61582 601.000
26.63577 565.000
26.65571 588.000
26.67566 610.000
26.69561 567.000
26.71555 587.000
26.73550 640.000
26.75545 623.000
26.77539 583.000
26.79534 564.000
26.81529 548.000
26.83524 565.000
26.85518 584.000
26.87513 560.000
26.89508 588.000
26.91502 592.000
26.93497 612.000
26.95492 559.000
26.97486 586.000
26.99481 590.000
27.01476 579.000
27.03471 586.000
27.05465 609.000
27.07460 549.000
27.09455 603.000
27.11449 590.000
27.13444 613.000
27.15439 599.000
27.17433 545.000
27.19428 609.000
27.21423 580.000
27.23417 578.000
27.25412 576.000
27.27407 629.000
27.29402 563.000
27.31396 596.000
27.33391 592.000
27.35386 547.000
27.37380 571.000
27.39375 609.000
27.41370 581.000
27.43364 586.000
27.45359 569.000
27.47354 607.000
27.49349 619.000
27.51343 598.000
27.53338 579.000
27.55333 613.000
27.57327 624.000
27.59322 541.000
27.61317 557.000
27.63311 572.000
27.65306 563.000
27.67301 562.000
27.69296 579.000
27.71290 587.000
27.73285 589.000
27.75280 606.000
27.77274 593.000
27.79269 587.000
27.81264 584.000
27.83258 627.000
27.85253 567.000
27.87248 598.000
27.89242 571.000
27.91237 553.000
27.93232 574.000
27.95227 600.000
27.97221 573.000
27.99216 538.000
28.01211 602.000
28.03205 600.000
28.05200 587.000
28.07195 590.000
28.09189 565.000
28.11184 594.000
28.13179 569.000
28.15174 614.000
28.17168 579.000
28.19163 641.000
28.21158 646.000
28.23152 586.000
28.25147 573.000
28.27142 616.000
28.29136 578.000
28.31131 566.000
28.33126 589.000
28.35120 590.000
28.37115 625.000
28.39110 583.000
28.41105 586.000
28.43099 610.000
28.45094 590.000
28.47089 590.000
28.49083 573.000
28.51078 597.000
28.53073 594.000
28.55067 597.000
28.57062 592.000
28.59057 558.000
28.61052 596.000
28.63046 599.000
28.65041 622.000
28.67036 577.000
28.69030 614.000
28.71025 551.000
28.73020 583.000
28.75014 626.000
28.77009 604.000
28.79004 600.000
28.80998 602.000
28.82993 610.000
28.84988 612.000
28.86983 605.000
28.88977 636.000
28.90972 617.000
28.92967 589.000
28.94961 628.000
28.96956 639.000
28.98951 656.000
29.00945 647.000
29.02940 635.000
29.04935 687.000
29.06930 671.000
29.08924 715.000
29.10919 685.000
29.12914 716.000
29.14908 714.000
29.16903 688.000
29.18898 682.000
29.20892 649.000
29.22887 633.000
29.24882 610.000
29.26877 618.000
29.28871 717.000
29.30866 641.000
29.32861 650.000
29.34855 602.000
29.36850 639.000
29.38845 614.000
29.40839 621.000
29.42834 603.000
29.44829 569.000
29.46823 553.000
29.48818 609.000
29.50813 592.000
29.52808 624.000
29.54802 567.000
29.56797 627.000
29.58792 632.000
29.60786 611.000
29.62781 611.000
29.64776 653.000
29.66770 610.000
29.68765 601.000
29.70760 604.000
29.72755 626.000
29.74749 655.000
29.76744 675.000
29.78739 661.000
29.80733 696.000
29.82728 679.000
29.84723 702.000
29.86717 737.000
29.88712 771.000
29.90707 756.000
29.92701 870.000
29.94696 881.000
29.96691 900.000
29.98686 962.000
30.00680 882.000
30.02675 859.000
30.04670 812.000
30.06664 791.000
30.08659 739.000
30.10654 683.000
30.12648 728.000
30.14643 690.000
30.16638 659.000
30.18633 619.000
30.20627 608.000
30.22622 583.000
30.24617 629.000
30.26611 566.000
30.28606 609.000
30.30601 605.000
30.32595 615.000
30.34590 594.000
30.36585 569.000
30.38579 630.000
30.40574 586.000
30.42569 562.000
30.44564 625.000
30.46558 578.000
30.48553 570.000
30.50548 577.000
30.52542 577.000
30.54537 564.000
30.56532 616.000
30.58526 613.000
30.60521 580.000
30.62516 569.000
30.64511 619.000
30.66505 582.000
30.68500 611.000
30.70495 582.000
30.72489 645.000
30.74484 563.000
30.76479 594.000
30.78473 610.000
30.80468 599.000
30.82463 570.000
30.84458 592.000
30.86452 585.000
30.88447 592.000
30.90442 587.000
30.92436 589.000
30.94431 632.000
30.96426 577.000
30.98420 598.000
31.00415 613.000
31.02410 580.000
31.04404 621.000
31.06399 615.000
31.08394 590.000
31.10389 646.000
31.12383 584.000
31.14378 566.000
31.16373 624.000
31.18367 573.000
31.20362 651.000
31.22357 593.000
31.24351 619.000
31.26346 585.000
31.28341 593.000
31.30336 607.000
31.32330 619.000
31.34325 563.000
31.36320 575.000
31.38314 592.000
31.40309 610.000
31.42304 648.000
31.44298 596.000
31.46293 626.000
31.48288 608.000
31.50282 617.000
31.52277 557.000
31.54272 578.000
31.56267 602.000
31.58261 588.000
31.60256 557.000
31.62251 584.000
31.64245 581.000
31.66240 579.000
31.68235 633.000
31.70229 622.000
31.72224 625.000
31.74219 646.000
31.76214 617.000
31.78208 621.000
31.80203 600.000
31.82198 621.000
31.84192 677.000
31.86187 627.000
31.88182 599.000
31.90176 660.000
31.92171 603.000
31.94166 619.000
31.96160 655.000
31.98155 654.000
32.00150 639.000
32.02145 720.000
32.04139 680.000
32.06134 753.000
32.08129 785.000
32.10123 816.000
32.12118 834.000
32.14113 849.000
32.16107 899.000
32.18102 919.000
32.20097 875.000
32.22092 930.000
32.24086 895.000
32.26081 801.000
32.28076 774.000
32.30070 705.000
32.32065 778.000
32.34060 741.000
32.36054 669.000
32.38049 659.000
32.40044 639.000
32.42039 624.000
32.44033 572.000
32.46028 589.000
32.48023 657.000
32.50017 594.000
32.52012 596.000
32.54007 597.000
32.56001 598.000
32.57996 643.000
32.59991 605.000
32.61985 565.000
32.63980 603.000
32.65975 577.000
32.67970 577.000
32.69964 617.000
32.71959 636.000
32.73954 633.000
32.75948 625.000
32.77943 570.000
32.79938 591.000
32.81932 570.000
32.83927 622.000
32.85922 620.000
32.87917 608.000
32.89911 627.000
32.91906 584.000
32.93901 573.000
32.95895 585.000
32.97890 583.000
32.99885 596.000
33.01879 588.000
33.03874 539.000
33.05869 605.000
33.07863 623.000
33.09858 595.000
33.11853 617.000
33.13848 647.000
33.15842 608.000
33.17837 622.000
33.19832 568.000
33.21826 619.000
33.23821 614.000
33.25816 599.000
33.27810 627.000
33.29805 617.000
33.31800 650.000
33.33795 642.000
33.35789 585.000
33.37784 614.000
33.39779 639.000
33.41773 594.000
33.43768 633.000
33.45763 603.000
33.47757 600.000
33.49752 594.000
33.51747 615.000
33.53741 643.000
33.55736 636.000
33.57731 649.000
33.59726 648.000
33.61720 664.000
33.63715 669.000
33.65710 691.000
33.67704 682.000
33.69699 716.000
33.71694 682.000
33.73688 690.000
33.75683 739.000
33.77678 659.000
33.79673 670.000
33.81667 706.000
33.83662 793.000
33.85657 808.000
33.87651 791.000
33.89646 819.000
33.91641 902.000
33.93635 892.000
33.95630 981.000
33.97625 1013.000
33.99620 1048.000
34.01614 1044.000
34.03609 1127.000
34.05604 1146.000
34.07598 1222.000
34.09593 1247.000
34.11588 1335.000
34.13582 1380.000
34.15577 1365.000
34.17572 1276.000
34.19566 1201.000
34.21561 1190.000
34.23556 1165.000
34.25551 1095.000
34.27545 1036.000
34.29540 1028.000
34.31535 926.000
34.33529 895.000
34.35524 905.000
34.37519 916.000
34.39513 834.000
34.41508 837.000
34.43503 870.000
34.45498 838.000
34.47492 787.000
34.49487 790.000
34.51482 797.000
34.53476 800.000
34.55471 790.000
34.57466 754.000
34.59460 758.000
34.61455 740.000
34.63450 775.000
34.65444 776.000
34.67439 741.000
34.69434 788.000
34.71429 736.000
34.73423 749.000
34.75418 751.000
34.77413 831.000
34.79407 816.000
34.81402 818.000
34.83397 893.000
34.85391 958.000
34.87386 990.000
34.89381 1017.000
34.91376 1137.000
34.93370 1197.000
34.95365 1251.000
34.97360 1408.000
34.99354 1592.000
35.01349 1705.000
35.03344 1810.000
35.05338 2057.000
35.07333 2403.000
35.09328 2661.000
35.11322 3005.000
35.13317 3407.000
35.15312 3727.000
35.17307 3858.000
35.19301 4122.000
35.21296 4400.000
35.23291 4805.000
35.25285 4740.000
35.27280 4832.000
35.29275 4742.000
35.31269 4240.000
35.33264 4099.000
35.35259 3712.000
35.37254 3458.000
35.39248 3011.000
35.41243 2816.000
35.43238 2374.000
35.45232 2021.000
35.47227 1760.000
35.49222 1633.000
35.51216 1341.000
35.53211 1269.000
35.55206 1044.000
35.57201 916.000
35.59195 891.000
35.61190 844.000
35.63185 785.000
35.65179 780.000
35.67174 808.000
35.69169 736.000
35.71163 762.000
35.73158 777.000
35.75153 749.000
35.77147 726.000
35.79142 716.000
35.81137 760.000
35.83132 715.000
35.85126 690.000
35.87121 722.000
35.89116 676.000
35.91110 664.000
35.93105 673.000
35.95100 634.000
35.97094 666.000
35.99089 688.000
36.01084 673.000
36.03079 652.000
36.05073 648.000
36.07068 655.000
36.09063 600.000
36.11057 660.000
36.13052 688.000
36.15047 688.000
36.17041 634.000
36.19036 631.000
36.21031 654.000
36.23025 636.000
36.25020 638.000
36.27015 677.000
36.29010 652.000
36.31004 673.000
36.32999 659.000
36.34994 672.000
36.36988 709.000
36.38983 664.000
36.40978 663.000
36.42972 659.000
36.44967 676.000
36.46962 737.000
36.48957 711.000
36.50951 750.000
36.52946 761.000
36.54941 787.000
36.56935 796.000
36.58930 896.000
36.60925 895.000
36.62919 911.000
36.64914 919.000
36.66909 979.000
36.68903 1011.000
36.70898 1075.000
36.72893 1114.000
36.74888 1147.000
36.76882 1161.000
36.78877 1249.000
36.80872 1142.000
36.82866 1203.000
36.84861 1162.000
36.86856 1245.000
36.88850 1087.000
36.90845 1191.000
36.92840 1101.000
36.94835 1000.000
36.96829 911.000
36.98824 928.000
37.00819 806.000
37.02813 859.000
37.04808 828.000
37.06803 781.000
37.08797 763.000
37.10792 691.000
37.12787 651.000
37.14781 638.000
37.16776 658.000
37.18771 600.000
37.20766 615.000
37.22760 651.000
37.24755 608.000
37.26750 667.000
37.28744 638.000
37.30739 638.000
37.32734 654.000
37.34728 660.000
37.36723 629.000
37.38718 606.000
37.40713 645.000
37.42707 621.000
37.44702 625.000
37.46697 600.000
37.48691 649.000
37.50686 652.000
37.52681 622.000
37.54675 620.000
37.56670 694.000
37.58665 611.000
37.60660 650.000
37.62654 623.000
37.64649 676.000
37.66644 642.000
37.68638 664.000
37.70633 672.000
37.72628 687.000
37.74622 642.000
37.76617 694.000
37.78612 683.000
37.80606 702.000
37.82601 690.000
37.84596 729.000
37.86591 696.000
37.88585 750.000
37.90580 781.000
37.92575 842.000
37.94569 858.000
37.96564 867.000
37.98559 847.000
38.00553 949.000
38.02548 1022.000
38.04543 1039.000
38.06538 1129.000
38.08532 1165.000
38.10527 1205.000
38.12522 1334.000
38.14516 1402.000
38.16511 1581.000
38.18506 1703.000
38.20500 1794.000
38.22495 2050.000
38.24490 2258.000
38.26484 2565.000
38.28479 2929.000
38.30474 3284.000
38.32469 3459.000
38.34463 3715.000
38.36458 4040.000
38.38453 4113.000
38.40447 3837.000
38.42442 3655.000
38.44437 3438.000
38.46431 3051.000
38.48426 2685.000
38.50421 2532.000
38.52416 2253.000
38.54410 1960.000
38.56405 1652.000
38.58400 1539.000
38.60394 1446.000
38.62389 1370.000
38.64384 1365.000
38.66378 1400.000
38.68373 1382.000
38.70368 1423.000
38.72362 1492.000
38.74357 1469.000
38.76352 1410.000
38.78347 1414.000
38.80341 1305.000
38.82336 1279.000
38.84331 1187.000
38.86325 1125.000
38.88320 942.000
38.90315 940.000
38.92309 870.000
38.94304 801.000
38.96299 746.000
38.98294 737.000
39.00288 717.000
39.02283 695.000
39.04278 689.000
39.06272 636.000
39.08267 648.000
39.10262 653.000
39.12256 630.000
39.14251 590.000
39.16246 642.000
39.18241 627.000
39.20235 639.000
39.22230 625.000
39.24225 598.000
39.26219 640.000
39.28214 623.000
39.30209 606.000
39.32203 642.000
39.34198 581.000
39.36193 625.000
39.38187 575.000
39.40182 618.000
39.42177 599.000
39.44172 583.000
39.46166 617.000
39.48161 570.000
39.50156 608.000
39.52150 640.000
39.54145 596.000
39.56140 605.000
39.58134 576.000
39.60129 582.000
39.62124 542.000
39.64119 586.000
39.66113 578.000
39.68108 579.000
39.70103 606.000
39.72097 573.000
39.74092 579.000
39.76087 569.000
39.78081 617.000
39.80076 613.000
39.82071 583.000
39.84065 591.000
39.86060 545.000
39.88055 590.000
39.90050 623.000
39.92044 554.000
39.94039 540.000
39.96034 560.000
39.98028 567.000
40.00023 546.000
40.02018 603.000
40.04012 556.000
40.06007 623.000
40.08002 577.000
40.09997 587.000
40.11991 558.000
40.13986 581.000
40.15981 588.000
40.17975 558.000
40.19970 587.000
40.21965 546.000
40.23959 576.000
40.25954 583.000
40.27949 579.000
40.29943 569.000
40.31938 599.000
40.33933 543.000
40.35928 522.000
40.37922 574.000
40.39917 547.000
40.41912 516.000
40.43906 569.000
40.45901 556.000
40.47896 530.000
40.49890 553.000
40.51885 609.000
40.53880 585.000
40.55875 574.000
40.57869 588.000
40.59864 542.000
40.61859 525.000
40.63853 572.000
40.65848 532.000
40.67843 554.000
40.69837 575.000
40.71832 550.000
40.73827 585.000
40.75822 597.000
40.77816 580.000
40.79811 606.000
40.81806 510.000
40.83800 530.000
40.85795 616.000
40.87790 544.000
40.89784 611.000
40.91779 589.000
40.93774 556.000
40.95768 566.000
40.97763 583.000
40.99758 597.000
41.01753 586.000
41.03747 599.000
41.05742 600.000
41.07737 563.000
41.09731 571.000
41.11726 578.000
41.13721 579.000
41.15715 606.000
41.17710 574.000
41.19705 533.000
41.21700 567.000
41.23694 583.000
41.25689 544.000
41.27684 565.000
41.29678 559.000
41.31673 594.000
41.33668 560.000
41.35662 600.000
41.37657 590.000
41.39652 543.000
41.41646 560.000
41.43641 605.000
41.45636 553.000
41.47631 556.000
41.49625 553.000
41.51620 599.000
41.53615 555.000
41.55609 530.000
41.57604 557.000
41.59599 576.000
41.61593 548.000
41.63588 570.000
41.65583 519.000
41.67578 576.000
41.69572 572.000
41.71567 536.000
41.73562 592.000
41.75556 603.000
41.77551 572.000
41.79546 597.000
41.81540 554.000
41.83535 596.000
41.85530 604.000
41.87524 569.000
41.89519 589.000
41.91514 599.000
41.93509 608.000
41.95503 572.000
41.97498 610.000
41.99493 582.000
42.01487 584.000
42.03482 592.000
42.05477 599.000
42.07471 608.000
42.09466 635.000
42.11461 650.000
42.13456 656.000
42.15450 605.000
42.17445 632.000
42.19440 646.000
42.21434 645.000
42.23429 641.000
42.25424 610.000
42.27418 642.000
42.29413 645.000
42.31408 659.000
42.33403 692.000
42.35397 621.000
42.37392 650.000
42.39387 758.000
42.41381 707.000
42.43376 743.000
42.45371 716.000
42.47365 805.000
42.49360 755.000
42.51355 775.000
42.53349 744.000
42.55344 778.000
42.57339 842.000
42.59334 916.000
42.61328 872.000
42.63323 949.000
42.65318 937.000
42.67312 974.000
42.69307 1014.000
42.71302 1105.000
42.73296 1139.000
42.75291 1149.000
42.77286 1162.000
42.79281 1242.000
42.81275 1300.000
42.83270 1263.000
42.85265 1335.000
42.87259 1349.000
42.89254 1305.000
42.91249 1238.000
42.93243 1318.000
42.95238 1263.000
42.97233 1146.000
42.99227 1119.000
43.01222 1145.000
43.03217 1150.000
43.05212 1071.000
43.07206 1045.000
43.09201 1012.000
43.11196 976.000
43.13190 911.000
43.15185 882.000
43.17180 826.000
43.19174 785.000
43.21169 742.000
43.23164 714.000
43.25159 728.000
43.27153 611.000
43.29148 638.000
43.31143 590.000
43.33137 587.000
43.35132 563.000
43.37127 579.000
43.39121 617.000
43.41116 593.000
43.43111 565.000
43.45105 586.000
43.47100 577.000
43.49095 593.000
43.51090 561.000
43.53084 538.000
43.55079 531.000
43.57074 554.000
43.59068 541.000
43.61063 598.000
43.63058 572.000
43.65052 531.000
43.67047 581.000
43.69042 605.000
43.71037 560.000
43.73031 541.000
43.75026 535.000
43.77021 568.000
43.79015 577.000
43.81010 542.000
43.83005 554.000
43.84999 546.000
43.86994 585.000
43.88989 572.000
43.90984 554.000
43.92978 522.000
43.94973 567.000
43.96968 577.000
43.98962 557.000
44.00957 530.000
44.02952 557.000
44.04946 555.000
44.06941 567.000
44.08936 568.000
44.10930 602.000
44.12925 528.000
44.14920 533.000
44.16915 535.000
44.18909 584.000
44.20904 551.000
44.22899 548.000
44.24893 514.000
44.26888 563.000
44.28883 559.000
44.30877 545.000
44.32872 554.000
44.34867 536.000
44.36862 555.000
44.38856 578.000
44.40851 529.000
44.42846 528.000
44.44840 516.000
44.46835 559.000
44.48830 566.000
44.50824 527.000
44.52819 513.000
44.54814 557.000
44.56808 586.000
44.58803 534.000
44.60798 554.000
44.62793 525.000
44.64787 517.000
44.66782 533.000
44.68777 527.000
44.70771 538.000
44.72766 569.000
44.74761 522.000
44.76755 547.000
44.78750 541.000
44.80745 547.000
44.82740 579.000
44.84734 559.000
44.86729 543.000
44.88724 532.000
44.90718 537.000
44.92713 546.000
44.94708 517.000
44.96702 565.000
44.98697 560.000
45.00692 539.000
45.02686 519.000
45.04681 528.000
45.06676 562.000
45.08671 513.000
45.10665 575.000
45.12660 544.000
45.14655 499.000
45.16649 541.000
45.18644 549.000
45.20639 552.000
45.22633 545.000
45.24628 558.000
45.26623 527.000
45.28618 543.000
45.30612 523.000
45.32607 535.000
45.34602 488.000
45.36596 558.000
45.38591 545.000
45.40586 552.000
45.42580 521.000
45.44575 517.000
45.46570 481.000
45.48565 534.000
45.50559 519.000
45.52554 560.000
45.54549 526.000
45.56543 587.000
45.58538 522.000
45.60533 538.000
45.62527 531.000
45.64522 518.000
45.66517 542.000
45.68511 561.000
45.70506 535.000
45.72501 544.000
45.74496 567.000
45.76490 547.000
45.78485 573.000
45.80480 557.000
45.82474 515.000
45.84469 567.000
45.86464 589.000
45.88458 588.000
45.90453 587.000
45.92448 588.000
45.94443 608.000
45.96437 625.000
45.98432 589.000
46.00427 579.000
46.02421 609.000
46.04416 623.000
46.06411 596.000
46.08405 590.000
46.10400 643.000
46.12395 567.000
46.14389 587.000
46.16384 572.000
46.18379 510.000
46.20374 561.000
46.22368 555.000
46.24363 548.000
46.26358 536.000
46.28352 539.000
46.30347 545.000
46.32342 541.000
46.34336 559.000
46.36331 523.000
46.38326 513.000
46.40321 549.000
46.42315 527.000
46.44310 542.000
46.46305 563.000
46.48299 543.000
46.50294 525.000
46.52289 559.000
46.54283 563.000
46.56278 541.000
46.58273 524.000
46.60267 558.000
46.62262 537.000
46.64257 552.000
46.66252 502.000
46.68246 540.000
46.70241 533.000
46.72236 506.000
46.74230 557.000
46.76225 538.000
46.78220 528.000
46.80214 527.000
46.82209 519.000
46.84204 545.000
46.86199 513.000
46.88193 546.000
46.90188 568.000
46.92183 574.000
46.94177 555.000
46.96172 491.000
46.98167 506.000
47.00161 537.000
47.02156 532.000
47.04151 586.000
47.06146 575.000
47.08140 583.000
47.10135 556.000
47.12130 540.000
47.14124 546.000
47.16119 506.000
47.18114 562.000
47.20108 534.000
47.22103 566.000
47.24098 548.000
47.26092 500.000
47.28087 545.000
47.30082 572.000
47.32077 511.000
47.34071 594.000
47.36066 561.000
47.38061 547.000
47.40055 595.000
47.42050 547.000
47.44045 519.000
47.46039 573.000
47.48034 562.000
47.50029 544.000
47.52024 571.000
47.54018 553.000
47.56013 532.000
47.58008 559.000
47.60002 557.000
47.61997 533.000
47.63992 552.000
47.65986 540.000
47.67981 563.000
47.69976 568.000
47.71970 548.000
47.73965 616.000
47.75960 535.000
47.77955 545.000
47.79949 554.000
47.81944 564.000
47.83939 595.000
47.85933 549.000
47.87928 593.000
47.89923 579.000
47.91917 575.000
47.93912 551.000
47.95907 538.000
47.97902 552.000
47.99896 557.000
48.01891 541.000
48.03886 571.000
48.05880 553.000
48.07875 549.000
48.09870 600.000
48.11864 558.000
48.13859 550.000
48.15854 545.000
48.17848 587.000
48.19843 618.000
48.21838 592.000
48.23833 651.000
48.25827 609.000
48.27822 603.000
48.29817 659.000
48.31811 676.000
48.33806 642.000
48.35801 661.000
48.37795 738.000
48.39790 736.000
48.41785 789.000
48.43780 857.000
48.45774 828.000
48.47769 876.000
48.49764 926.000
48.51758 1000.000
48.53753 1079.000
48.55748 1168.000
48.57742 1228.000
48.59737 1345.000
48.61732 1346.000
48.63726 1399.000
48.65721 1443.000
48.67716 1379.000
48.69711 1336.000
48.71705 1275.000
48.73700 1255.000
48.75695 1125.000
48.77689 1139.000
48.79684 1016.000
48.81679 1010.000
48.83673 917.000
48.85668 869.000
48.87663 809.000
48.89658 786.000
48.91652 712.000
48.93647 745.000
48.95642 697.000
48.97636 622.000
48.99631 660.000
49.01626 638.000
49.03620 648.000
49.05615 644.000
49.07610 641.000
49.09605 638.000
49.11599 605.000
49.13594 573.000
49.15589 621.000
49.17583 653.000
49.19578 614.000
49.21573 659.000
49.23567 599.000
49.25562 581.000
49.27557 654.000
49.29551 554.000
49.31546 633.000
49.33541 603.000
49.35536 581.000
49.37530 561.000
49.39525 620.000
49.41520 596.000
49.43514 590.000
49.45509 569.000
49.47504 562.000
49.49498 583.000
49.51493 528.000
49.53488 587.000
49.55483 522.000
49.57477 576.000
49.59472 603.000
49.61467 548.000
49.63461 529.000
49.65456 558.000
49.67451 576.000
49.69445 544.000
49.71440 537.000
49.73435 555.000
49.75429 531.000
49.77424 506.000
49.79419 566.000
49.81414 526.000
49.83408 586.000
49.85403 539.000
49.87398 506.000
49.89392 548.000
49.91387 530.000
49.93382 547.000
49.95376 550.000
49.97371 548.000
49.99366 588.000
50.01361 582.000
50.03355 520.000
50.05350 505.000
50.07345 535.000
50.09339 510.000
50.11334 545.000
50.13329 567.000
50.15323 562.000
50.17318 488.000
50.19313 551.000
50.21307 508.000
50.23302 541.000
50.25297 550.000
50.27292 502.000
50.29286 521.000
50.31281 532.000
50.33276 541.000
50.35270 532.000
50.37265 496.000
50.39260 550.000
50.41254 535.000
50.43249 520.000
50.45244 521.000
50.47239 509.000
50.49233 556.000
50.51228 512.000
50.53223 511.000
50.55217 541.000
50.57212 517.000
50.59207 528.000
50.61201 538.000
50.63196 553.000
50.65191 555.000
50.67186 543.000
50.69180 553.000
50.71175 612.000
50.73170 523.000
50.75164 534.000
50.77159 537.000
50.79154 556.000
50.81148 537.000
50.83143 561.000
50.85138 567.000
50.87132 533.000
50.89127 576.000
50.91122 576.000
50.93117 548.000
50.95111 596.000
50.97106 580.000
50.99101 601.000
51.01095 572.000
51.03090 584.000
51.05085 552.000
51.07079 586.000
51.09074 546.000
51.11069 593.000
51.13064 553.000
51.15058 599.000
51.17053 531.000
51.19048 539.000
51.21042 536.000
51.23037 556.000
51.25032 522.000
51.27026 514.000
51.29021 554.000
51.31016 549.000
51.33010 532.000
51.35005 548.000
51.37000 543.000
51.38995 524.000
51.40989 483.000
51.42984 536.000
51.44979 484.000
51.46973 509.000
51.48968 560.000
51.50963 532.000
51.52957 523.000
51.54952 551.000
51.56947 521.000
51.58942 563.000
51.60936 555.000
51.62931 528.000
51.64926 522.000
51.66920 555.000
51.68915 567.000
51.70910 560.000
51.72904 532.000
51.74899 554.000
51.76894 535.000
51.78888 543.000
51.80883 543.000
51.82878 585.000
51.84873 562.000
51.86867 586.000
51.88862 591.000
51.90857 544.000
51.92851 557.000
51.94846 529.000
51.96841 582.000
51.98835 550.000
52.00830 564.000
52.02825 552.000
52.04820 528.000
52.06814 537.000
52.08809 492.000
52.10804 581.000
52.12798 575.000
52.14793 539.000
52.16788 531.000
52.18782 584.000
52.20777 516.000
52.22772 563.000
52.24767 545.000
52.26761 555.000
52.28756 557.000
52.30751 572.000
52.32745 526.000
52.34740 540.000
52.36735 550.000
52.38729 549.000
52.40724 552.000
52.42719 569.000
52.44713 543.000
52.46708 490.000
52.48703 559.000
52.50698 577.000
52.52692 467.000
52.54687 590.000
52.56682 559.000
52.58676 569.000
52.60671 560.000
52.62666 551.000
52.64660 559.000
52.66655 587.000
52.68650 583.000
52.70645 581.000
52.72639 608.000
52.74634 579.000
52.76629 623.000
52.78623 635.000
52.80618 640.000
52.82613 596.000
52.84607 684.000
52.86602 672.000
52.88597 656.000
52.90591 699.000
52.92586 692.000
52.94581 748.000
52.96576 699.000
52.98570 741.000
53.00565 735.000
53.02560 746.000
53.04554 764.000
53.06549 755.000
53.08544 770.000
53.10538 753.000
53.12533 736.000
53.14528 708.000
53.16523 697.000
53.18517 763.000
53.20512 684.000
53.22507 648.000
53.24501 677.000
53.26496 662.000
53.28491 667.000
53.30485 614.000
53.32480 633.000
53.34475 648.000
53.36469 610.000
53.38464 597.000
53.40459 604.000
53.42454 600.000
53.44448 636.000
53.46443 610.000
53.48438 597.000
53.50432 631.000
53.52427 665.000
53.54422 642.000
53.56416 651.000
53.58411 639.000
53.60406 625.000
53.62401 600.000
53.64395 604.000
53.66390 603.000
53.68385 574.000
53.70379 579.000
53.72374 615.000
53.74369 592.000
53.76363 601.000
53.78358 558.000
53.80353 536.000
53.82348 573.000
53.84342 557.000
53.86337 527.000
53.88332 572.000
53.90326 564.000
53.92321 573.000
53.94316 551.000
53.96310 549.000
53.98305 565.000
54.00300 553.000
54.02294 506.000
54.04289 582.000
54.06284 534.000
54.08279 591.000
54.10273 517.000
54.12268 550.000
54.14263 520.000
54.16257 531.000
54.18252 559.000
54.20247 567.000
54.22241 503.000
54.24236 543.000
54.26231 530.000
54.28226 502.000
54.30220 503.000
54.32215 532.000
54.34210 515.000
54.36204 552.000
54.38199 542.000
54.40194 504.000
54.42188 527.000
54.44183 537.000
54.46178 556.000
54.48172 498.000
54.50167 548.000
54.52162 536.000
54.54157 505.000
54.56151 550.000
54.58146 534.000
54.60141 525.000
54.62135 492.000
54.64130 515.000
54.66125 539.000
54.68119 524.000
54.70114 533.000
54.72109 510.000
54.74104 517.000
54.76098 510.000
54.78093 530.000
54.80088 505.000
54.82082 512.000
54.84077 508.000
54.86072 585.000
54.88066 540.000
54.90061 535.000
54.92056 534.000
54.94050 498.000
54.96045 523.000
54.98040 525.000
55.00035 544.000
55.02029 548.000
55.04024 515.000
55.06019 533.000
55.08013 569.000
55.10008 488.000
55.12003 531.000
55.13997 574.000
55.15992 492.000
55.17987 543.000
55.19982 507.000
55.21976 519.000
55.23971 548.000
55.25966 512.000
55.27960 579.000
55.29955 518.000
55.31950 525.000
55.33944 540.000
55.35939 564.000
55.37934 557.000
55.39929 453.000
55.41923 565.000
55.43918 521.000
55.45913 523.000
55.47907 482.000
55.49902 521.000
55.51897 475.000
55.53891 522.000
55.55886 533.000
55.57881 483.000
55.59875 581.000
55.61870 507.000
55.63865 504.000
55.65860 519.000
55.67854 497.000
55.69849 556.000
55.71844 515.000
55.73838 532.000
55.75833 523.000
55.77828 505.000
55.79822 503.000
55.81817 506.000
55.83812 570.000
55.85807 517.000
55.87801 561.000
55.89796 529.000
55.91791 552.000
55.93785 517.000
55.95780 552.000
55.97775 512.000
55.99769 535.000
56.01764 507.000
56.03759 580.000
56.05753 546.000
56.07748 478.000
56.09743 558.000
56.11738 515.000
56.13732 562.000
56.15727 488.000
56.17722 562.000
56.19716 540.000
56.21711 552.000
56.23706 550.000
56.25700 566.000
56.27695 551.000
56.29690 544.000
56.31685 551.000
56.33679 547.000
56.35674 561.000
56.37669 582.000
56.39663 576.000
56.41658 561.000
56.43653 535.000
56.45647 569.000
56.47642 548.000
56.49637 527.000
56.51631 588.000
56.53626 554.000
56.55621 566.000
56.57616 541.000
56.59610 504.000
56.61605 549.000
56.63600 549.000
56.65594 530.000
56.67589 582.000
56.69584 498.000
56.71578 540.000
56.73573 513.000
56.75568 520.000
56.77563 586.000
56.79557 586.000
56.81552 575.000
56.83547 562.000
56.85541 560.000
56.87536 563.000
56.89531 613.000
56.91525 622.000
56.93520 649.000
56.95515 682.000
56.97510 645.000
56.99504 681.000
57.01499 690.000
57.03494 732.000
57.05488 789.000
57.07483 857.000
57.09478 885.000
57.11472 844.000
57.13467 844.000
57.15462 766.000
57.17456 730.000
57.19451 711.000
57.21446 720.000
57.23441 701.000
57.25435 709.000
57.27430 733.000
57.29425 671.000
57.31419 634.000
57.33414 610.000
57.35409 606.000
57.37403 620.000
57.39398 552.000
57.41393 560.000
57.43388 576.000
57.45382 564.000
57.47377 535.000
57.49372 591.000
57.51366 592.000
57.53361 562.000
57.55356 565.000
57.57350 586.000
57.59345 581.000
57.61340 578.000
57.63334 579.000
57.65329 603.000
57.67324 588.000
57.69319 577.000
57.71313 627.000
57.73308 622.000
57.75303 660.000
57.77297 660.000
57.79292 692.000
57.81287 678.000
57.83281 750.000
57.85276 748.000
57.87271 782.000
57.89266 795.000
57.91260 835.000
57.93255 872.000
57.95250 969.000
57.97244 944.000
57.99239 976.000
58.01234 948.000
58.03228 940.000
58.05223 897.000
58.07218 847.000
58.09212 870.000
58.11207 849.000
58.13202 830.000
58.15197 756.000
58.17191 743.000
58.19186 704.000
58.21181 703.000
58.23175 656.000
58.25170 657.000
58.27165 638.000
58.29159 551.000
58.31154 607.000
58.33149 597.000
58.35144 552.000
58.37138 536.000
58.39133 577.000
58.41128 551.000
58.43122 557.000
58.45117 577.000
58.47112 531.000
58.49106 592.000
58.51101 510.000
58.53096 500.000
58.55090 525.000
58.57085 578.000
58.59080 524.000
58.61075 537.000
58.63069 567.000
58.65064 503.000
58.67059 562.000
58.69053 526.000
58.71048 537.000
58.73043 534.000
58.75037 548.000
58.77032 548.000
58.79027 543.000
58.81022 546.000
58.83016 539.000
58.85011 569.000
58.87006 525.000
58.89000 521.000
58.90995 569.000
58.92990 508.000
58.94984 554.000
58.96979 550.000
58.98974 534.000
59.00969 593.000
59.02963 554.000
59.04958 520.000
59.06953 545.000
59.08947 544.000
59.10942 523.000
59.12937 533.000
59.14931 509.000
59.16926 504.000
59.18921 516.000
59.20915 527.000
59.22910 553.000
59.24905 576.000
59.26900 509.000
59.28894 520.000
59.30889 535.000
59.32884 569.000
59.34878 554.000
59.36873 507.000
59.38868 526.000
59.40862 558.000
59.42857 566.000
59.44852 565.000
59.46847 541.000
59.48841 513.000
59.50836 561.000
59.52831 550.000
59.54825 550.000
59.56820 512.000
59.58815 555.000
59.60809 564.000
59.62804 507.000
59.64799 532.000
59.66793 532.000
59.68788 567.000
59.70783 541.000
59.72778 509.000
59.74772 522.000
59.76767 531.000
59.78762 522.000
59.80756 551.000
59.82751 519.000
59.84746 534.000
59.86740 534.000
59.88735 515.000
59.90730 578.000
59.92725 560.000
59.94719 535.000
59.96714 512.000
59.98709 528.000
60.00703 523.000
60.02698 528.000
60.04693 503.000
60.06687 544.000
60.08682 550.000
60.10677 529.000
60.12671 501.000
60.14666 543.000
60.16661 536.000
60.18656 570.000
60.20650 544.000
60.22645 607.000
60.24640 537.000
60.26634 549.000
60.28629 555.000
60.30624 573.000
60.32618 518.000
60.34613 564.000
60.36608 573.000
60.38603 560.000
60.40597 538.000
60.42592 577.000
60.44587 512.000
60.46581 547.000
60.48576 517.000
60.50571 602.000
60.52565 553.000
60.54560 510.000
60.56555 567.000
60.58550 545.000
60.60544 536.000
60.62539 577.000
60.64534 535.000
60.66528 561.000
60.68523 569.000
60.70518 547.000
60.72512 592.000
60.74507 584.000
60.76502 621.000
60.78496 522.000
60.80491 578.000
60.82486 606.000
60.84481 589.000
60.86475 615.000
60.88470 531.000
60.90465 578.000
60.92459 595.000
60.94454 584.000
60.96449 598.000
60.98443 632.000
61.00438 707.000
61.02433 727.000
61.04428 692.000
61.06422 722.000
61.08417 710.000
61.10412 760.000
61.12406 754.000
61.14401 819.000
61.16396 864.000
61.18390 942.000
61.20385 950.000
61.22380 1074.000
61.24374 1125.000
61.26369 1159.000
61.28364 1194.000
61.30359 1355.000
61.32353 1305.000
61.34348 1272.000
61.36343 1171.000
61.38337 1155.000
61.40332 1091.000
61.42327 1153.000
61.44321 1026.000
61.46316 1019.000
61.48311 1067.000
61.50306 955.000
61.52300 924.000
61.54295 923.000
61.56290 848.000
61.58284 810.000
61.60279 735.000
61.62274 792.000
61.64268 720.000
61.66263 680.000
61.68258 647.000
61.70252 625.000
61.72247 623.000
61.74242 628.000
61.76237 660.000
61.78231 656.000
61.80226 689.000
61.82221 608.000
61.84215 634.000
61.86210 609.000
61.88205 612.000
61.90199 617.000
61.92194 648.000
61.94189 677.000
61.96184 666.000
61.98178 688.000
62.00173 668.000
62.02168 640.000
62.04162 666.000
62.06157 686.000
62.08152 711.000
62.10146 731.000
62.12141 725.000
62.14136 686.000
62.16131 742.000
62.18125 658.000
62.20120 809.000
62.22115 794.000
62.24109 781.000
62.26104 824.000
62.28099 839.000
62.30093 805.000
62.32088 836.000
62.34083 842.000
62.36077 830.000
62.38072 906.000
62.40067 909.000
62.42062 896.000
62.44056 830.000
62.46051 834.000
62.48046 869.000
62.50040 897.000
62.52035 851.000
62.54030 843.000
62.56024 885.000
62.58019 877.000
62.60014 818.000
62.62009 904.000
62.64003 924.000
62.65998 913.000
62.67993 914.000
62.69987 926.000
62.71982 937.000
62.73977 925.000
62.75971 943.000
62.77966 873.000
62.79961 831.000
62.81955 784.000
62.83950 759.000
62.85945 749.000
62.87940 775.000
62.89934 715.000
62.91929 716.000
62.93924 730.000
62.95918 673.000
62.97913 645.000
62.99908 626.000
63.01902 545.000
63.03897 519.000
63.05892 550.000
63.07887 571.000
63.09881 534.000
63.11876 607.000
63.13871 590.000
63.15865 565.000
63.17860 541.000
63.19855 547.000
63.21849 562.000
63.23844 520.000
63.25839 566.000
63.27833 525.000
63.29828 528.000
63.31823 534.000
63.33818 542.000
63.35812 514.000
63.37807 505.000
63.39802 540.000
63.41796 520.000
63.43791 543.000
63.45786 508.000
63.47780 547.000
63.49775 538.000
63.51770 502.000
63.53765 532.000
63.55759 521.000
63.57754 518.000
63.59749 551.000
63.61743 591.000
63.63738 604.000
63.65733 544.000
63.67727 537.000
63.69722 534.000
63.71717 537.000
63.73712 547.000
63.75706 564.000
63.77701 531.000
63.79696 569.000
63.81690 539.000
63.83685 521.000
63.85680 542.000
63.87674 555.000
63.89669 526.000
63.91664 541.000
63.93658 531.000
63.95653 533.000
63.97648 552.000
63.99643 535.000
64.01637 568.000
64.03632 556.000
64.05627 561.000
64.07621 522.000
64.09616 566.000
64.11611 549.000
64.13605 541.000
64.15600 557.000
64.17595 558.000
64.19590 577.000
64.21584 529.000
64.23579 542.000
64.25574 536.000
64.27568 535.000
64.29563 529.000
64.31558 558.000
64.33552 562.000
64.35547 584.000
64.37542 505.000
64.39536 488.000
64.41531 581.000
64.43526 534.000
64.45521 564.000
64.47515 509.000
64.49510 526.000
64.51505 533.000
64.53499 516.000
64.55494 564.000
64.57489 542.000
64.59483 576.000
64.61478 542.000
64.63473 574.000
64.65468 579.000
64.67462 564.000
64.69457 533.000
64.71452 570.000
64.73446 587.000
64.75441 540.000
64.77436 551.000
64.79430 532.000
64.81425 527.000
64.83420 561.000
64.85414 572.000
64.87409 584.000
64.89404 607.000
64.91399 593.000
64.93393 589.000
64.95388 574.000
64.97383 610.000
64.99377 587.000
65.01372 661.000
65.03367 623.000
65.05361 589.000
65.07356 642.000
65.09351 622.000
65.11346 632.000
65.13340 753.000
65.15335 691.000
65.17330 705.000
65.19324 713.000
65.21319 769.000
65.23314 755.000
65.25308 800.000
65.27303 795.000
65.29298 831.000
65.31293 893.000
65.33287 862.000
65.35282 937.000
65.37277 923.000
65.39271 896.000
65.41266 912.000
65.43261 899.000
65.45255 878.000
65.47250 873.000
65.49245 867.000
65.51239 851.000
65.53234 882.000
65.55229 856.000
65.57224 799.000
65.59218 734.000
65.61213 812.000
65.63208 779.000
65.65202 667.000
65.67197 653.000
65.69192 687.000
65.71186 666.000
65.73181 682.000
65.75176 685.000
65.77171 642.000
65.79165 666.000
65.81160 668.000
65.83155 691.000
65.85149 652.000
65.87144 621.000
65.89139 708.000
65.91133 680.000
65.93128 712.000
65.95123 736.000
65.97117 679.000
65.99112 737.000
66.01107 801.000
66.03102 858.000
66.05096 865.000
66.07091 957.000
66.09086 952.000
66.11080 986.000
66.13075 965.000
66.15070 963.000
66.17064 1043.000
66.19059 984.000
66.21054 970.000
66.23049 946.000
66.25043 864.000
66.27038 879.000
66.29033 860.000
66.31027 860.000
66.33022 848.000
66.35017 780.000
66.37011 714.000
66.39006 750.000
66.41001 745.000
66.42995 717.000
66.44990 685.000
66.46985 639.000
66.48980 611.000
66.50974 652.000
66.52969 635.000
66.54964 598.000
66.56958 592.000
66.58953 642.000
66.60948 567.000
66.62942 591.000
66.64937 540.000
66.66932 547.000
66.68927 540.000
66.70921 509.000
66.72916 541.000
66.74911 534.000
66.76905 593.000
66.78900 575.000
66.80895 528.000
66.82889 543.000
66.84884 522.000
66.86879 571.000
66.88874 549.000
66.90868 567.000
66.92863 523.000
66.94858 541.000
66.96852 531.000
66.98847 582.000
67.00842 534.000
67.02836 574.000
67.04831 564.000
67.06826 527.000
67.08820 513.000
67.10815 586.000
67.12810 555.000
67.14805 586.000
67.16799 570.000
67.18794 577.000
67.20789 629.000
67.22783 550.000
67.24778 616.000
67.26773 620.000
67.28767 593.000
67.30762 658.000
67.32757 682.000
67.34752 624.000
67.36746 637.000
67.38741 698.000
67.40736 697.000
67.42730 768.000
67.44725 778.000
67.46720 759.000
67.48714 765.000
67.50709 836.000
67.52704 801.000
67.54698 852.000
67.56693 879.000
67.58688 876.000
67.60683 929.000
67.62677 917.000
67.64672 978.000
67.66667 895.000
67.68661 1011.000
67.70656 1038.000
67.72651 1002.000
67.74645 1083.000
67.76640 955.000
67.78635 994.000
67.80630 962.000
67.82624 916.000
67.84619 904.000
67.86614 885.000
67.88608 883.000
67.90603 830.000
67.92598 818.000
67.94592 784.000
67.96587 726.000
67.98582 734.000
68.00576 734.000
68.02571 724.000
68.04566 672.000
68.06561 606.000
68.08555 657.000
68.10550 589.000
68.12545 622.000
68.14539 589.000
68.16534 559.000
68.18529 565.000
68.20523 562.000
68.22518 533.000
68.24513 570.000
68.26508 551.000
68.28502 557.000
68.30497 561.000
68.32492 591.000
68.34486 507.000
68.36481 525.000
68.38476 540.000
68.40470 480.000
68.42465 530.000
68.44460 517.000
68.46455 538.000
68.48449 521.000
68.50444 508.000
68.52439 563.000
68.54433 511.000
68.56428 524.000
68.58423 506.000
68.60417 511.000
68.62412 513.000
68.64407 581.000
68.66401 516.000
68.68396 560.000
68.70391 536.000
68.72386 551.000
68.74380 529.000
68.76375 482.000
68.78370 533.000
68.80364 503.000
68.82359 574.000
68.84354 534.000
68.86348 511.000
68.88343 542.000
68.90338 551.000
68.92333 536.000
68.94327 524.000
68.96322 476.000
68.98317 518.000
69.00311 512.000
69.02306 534.000
69.04301 508.000
69.06295 488.000
69.08290 503.000
69.10285 506.000
69.12279 534.000
69.14274 505.000
69.16269 527.000
69.18264 541.000
69.20258 498.000
69.22253 510.000
69.24248 494.000
69.26242 505.000
69.28237 529.000
69.30232 494.000
69.32226 533.000
69.34221 507.000
69.36216 548.000
69.38211 481.000
69.40205 489.000
69.42200 530.000
69.44195 497.000
69.46189 501.000
69.48184 516.000
69.50179 514.000
69.52173 511.000
69.54168 543.000
69.56163 468.000
69.58157 507.000
69.60152 498.000
69.62147 512.000
69.64142 547.000
69.66136 521.000
69.68131 497.000
69.70126 510.000
69.72120 532.000
69.74115 509.000
69.76110 513.000
69.78104 533.000
69.80099 522.000
69.82094 517.000
69.84089 521.000
69.86083 534.000
69.88078 499.000
69.90073 525.000
69.92067 529.000
69.94062 497.000
69.96057 536.000
69.98051 511.000
70.00046 486.000
70.02041 482.000
70.04035 526.000
70.06030 529.000
70.08025 508.000
70.10020 539.000
70.12014 486.000
70.14009 512.000
70.16004 519.000
70.17998 512.000
70.19993 512.000
70.21988 506.000
70.23982 513.000
70.25977 544.000
70.27972 524.000
70.29967 513.000
70.31961 509.000
70.33956 522.000
70.35951 502.000
70.37945 533.000
70.39940 484.000
70.41935 517.000
70.43929 483.000
70.45924 522.000
70.47919 509.000
70.49914 488.000
70.51908 504.000
70.53903 518.000
70.55898 506.000
70.57892 534.000
70.59887 511.000
70.61882 538.000
70.63876 520.000
70.65871 508.000
70.67866 545.000
70.69860 544.000
70.71855 507.000
70.73850 534.000
70.75845 552.000
70.77839 494.000
70.79834 510.000
70.81829 537.000
70.83823 528.000
70.85818 528.000
70.87813 518.000
70.89807 511.000
70.91802 553.000
70.93797 537.000
70.95792 503.000
70.97786 541.000
70.99781 529.000
71.01776 533.000
71.03770 529.000
71.05765 523.000
71.07760 562.000
71.09754 515.000
71.11749 505.000
71.13744 488.000
71.15738 541.000
71.17733 531.000
71.19728 545.000
71.21723 518.000
71.23717 568.000
71.25712 555.000
71.27707 490.000
71.29701 560.000
71.31696 539.000
71.33691 571.000
71.35685 500.000
71.37680 488.000
71.39675 531.000
71.41670 518.000
71.43664 509.000
71.45659 499.000
71.47654 543.000
71.49648 512.000
71.51643 563.000
71.53638 525.000
71.55632 527.000
71.57627 525.000
71.59622 504.000
71.61616 575.000
71.63611 499.000
71.65606 476.000
71.67601 527.000
71.69595 523.000
71.71590 574.000
71.73585 531.000
71.75579 543.000
71.77574 547.000
71.79569 527.000
71.81563 559.000
71.83558 535.000
71.85553 541.000
71.87548 515.000
71.89542 550.000
71.91537 537.000
71.93532 572.000
71.95526 575.000
71.97521 565.000
71.99516 640.000
72.01510 615.000
72.03505 621.000
72.05500 632.000
72.07495 656.000
72.09489 650.000
72.11484 693.000
72.13479 715.000
72.15473 686.000
72.17468 710.000
72.19463 752.000
72.21457 715.000
72.23452 631.000
72.25447 699.000
72.27441 673.000
72.29436 651.000
72.31431 648.000
72.33426 640.000
72.35420 606.000
72.37415 625.000
72.39410 639.000
72.41404 639.000
72.43399 628.000
72.45394 582.000
72.47388 601.000
72.49383 602.000
72.51378 526.000
72.53373 559.000
72.55367 513.000
72.57362 547.000
72.59357 545.000
72.61351 551.000
72.63346 526.000
72.65341 539.000
72.67335 519.000
72.69330 522.000
72.71325 518.000
72.73319 576.000
72.75314 492.000
72.77309 530.000
72.79304 576.000
72.81298 537.000
72.83293 513.000
72.85288 523.000
72.87282 548.000
72.89277 498.000
72.91272 502.000
72.93266 529.000
72.95261 536.000
72.97256 497.000
72.99251 509.000
73.01245 535.000
73.03240 514.000
73.05235 507.000
73.07229 533.000
73.09224 500.000
73.11219 536.000
73.13213 522.000
73.15208 496.000
73.17203 523.000
73.19197 513.000
73.21192 544.000
73.23187 500.000
73.25182 560.000
73.27176 515.000
73.29171 527.000
73.31166 486.000
73.33160 500.000
73.35155 501.000
73.37150 496.000
73.39144 494.000
73.41139 469.000
73.43134 479.000
73.45129 507.000
73.47123 555.000
73.49118 522.000
73.51113 482.000
73.53107 509.000
73.55102 489.000
73.57097 520.000
73.59091 528.000
73.61086 519.000
73.63081 517.000
73.65076 494.000
73.67070 518.000
73.69065 503.000
73.71060 552.000
73.73054 498.000
73.75049 526.000
73.77044 551.000
73.79038 497.000
73.81033 526.000
73.83028 535.000
73.85022 495.000
73.87017 536.000
73.89012 556.000
73.91007 515.000
73.93001 547.000
73.94996 524.000
73.96991 562.000
73.98985 510.000
74.00980 513.000
74.02975 475.000
74.04969 541.000
74.06964 536.000
74.08959 520.000
74.10954 547.000
74.12948 559.000
74.14943 544.000
74.16938 540.000
74.18932 570.000
74.20927 606.000
74.22922 622.000
74.24916 627.000
74.26911 606.000
74.28906 631.000
74.30900 588.000
74.32895 629.000
74.34890 598.000
74.36885 605.000
74.38879 577.000
74.40874 604.000
74.42869 608.000
74.44863 634.000
74.46858 658.000
74.48853 661.000
74.50847 650.000
74.52842 656.000
74.54837 604.000
74.56832 670.000
74.58826 685.000
74.60821 734.000
74.62816 724.000
74.64810 697.000
74.66805 759.000
74.68800 744.000
74.70794 799.000
74.72789 792.000
74.74784 790.000
74.76778 819.000
74.78773 757.000
74.80768 776.000
74.82763 792.000
74.84757 769.000
74.86752 810.000
74.88747 789.000
74.90741 787.000
74.92736 842.000
74.94731 863.000
74.96725 852.000
74.98720 823.000
75.00715 801.000
75.02710 754.000
75.04704 767.000
75.06699 729.000
75.08694 753.000
75.10688 691.000
75.12683 709.000
75.14678 647.000
75.16672 655.000
75.18667 677.000
75.20662 695.000
75.22657 645.000
75.24651 673.000
75.26646 626.000
75.28641 587.000
75.30635 593.000
75.32630 588.000
75.34625 598.000
75.36619 567.000
75.38614 532.000
75.40609 595.000
75.42603 594.000
75.44598 551.000
75.46593 592.000
75.48588 551.000
75.50582 532.000
75.52577 546.000
75.54572 557.000
75.56566 569.000
75.58561 549.000
75.60556 520.000
75.62550 487.000
75.64545 546.000
75.66540 547.000
75.68535 522.000
75.70529 526.000
75.72524 534.000
75.74519 561.000
75.76513 515.000
75.78508 519.000
75.80503 510.000
75.82497 524.000
75.84492 521.000
75.86487 523.000
75.88481 543.000
75.90476 510.000
75.92471 522.000
75.94466 507.000
75.96460 489.000
75.98455 537.000
76.00450 542.000
76.02444 468.000
76.04439 485.000
76.06434 547.000
76.08428 523.000
76.10423 517.000
76.12418 492.000
76.14413 474.000
76.16407 530.000
76.18402 517.000
76.20397 505.000
76.22391 526.000
76.24386 498.000
76.26381 505.000
76.28375 496.000
76.30370 538.000
76.32365 529.000
76.34359 525.000
76.36354 489.000
76.38349 488.000
76.40344 511.000
76.42338 495.000
76.44333 499.000
76.46328 528.000
76.48322 491.000
76.50317 531.000
76.52312 549.000
76.54306 537.000
76.56301 541.000
76.58296 536.000
76.60291 529.000
76.62285 514.000
76.64280 548.000
76.66275 491.000
76.68269 527.000
76.70264 507.000
76.72259 494.000
76.74253 503.000
76.76248 530.000
76.78243 526.000
76.80238 552.000
76.82232 504.000
76.84227 547.000
76.86222 528.000
76.88216 513.000
76.90211 492.000
76.92206 491.000
76.94200 529.000
76.96195 526.000
76.98190 533.000
77.00184 482.000
77.02179 471.000
77.04174 482.000
77.06169 517.000
77.08163 527.000
77.10158 499.000
77.12153 488.000
77.14147 518.000
77.16142 522.000
77.18137 513.000
77.20131 484.000
77.22126 498.000
77.24121 525.000
77.26116 474.000
77.28110 465.000
77.30105 488.000
77.32100 523.000
77.34094 502.000
77.36089 502.000
77.38084 534.000
77.40078 472.000
77.42073 512.000
77.44068 467.000
77.46062 517.000
77.48057 525.000
77.50052 470.000
77.52047 505.000
77.54041 476.000
77.56036 470.000
77.58031 510.000
77.60025 497.000
77.62020 514.000
77.64015 527.000
77.66009 483.000
77.68004 507.000
77.69999 539.000
77.71994 521.000
77.73988 509.000
77.75983 477.000
77.77978 551.000
77.79972 497.000
77.81967 540.000
77.83962 503.000
77.85956 445.000
77.87951 533.000
77.89946 509.000
77.91940 535.000
77.93935 488.000
77.95930 500.000
77.97925 547.000
77.99919 511.000
78.01914 504.000
78.03909 513.000
78.05903 478.000
78.07898 572.000
78.09893 510.000
78.11887 537.000
78.13882 547.000
78.15877 507.000
78.17872 512.000
78.19866 491.000
78.21861 553.000
78.23856 559.000
78.25850 502.000
78.27845 495.000
78.29840 550.000
78.31834 539.000
78.33829 564.000
78.35824 544.000
78.37819 543.000
78.39813 518.000
78.41808 514.000
78.43803 544.000
78.45797 544.000
78.47792 532.000
78.49787 500.000
78.51781 517.000
78.53776 525.000
78.55771 553.000
78.57765 495.000
78.59760 548.000
78.61755 563.000
78.63750 562.000
78.65744 584.000
78.67739 528.000
78.69734 576.000
78.71728 523.000
78.73723 576.000
78.75718 526.000
78.77712 592.000
78.79707 538.000
78.81702 545.000
78.83697 558.000
78.85691 547.000
78.87686 586.000
78.89681 593.000
78.91675 526.000
78.93670 550.000
78.95665 579.000
78.97659 536.000
78.99654 523.000
79.01649 573.000
79.03643 586.000
79.05638 533.000
79.07633 532.000
79.09628 558.000
79.11622 579.000
79.13617 543.000
79.15612 537.000
79.17606 551.000
79.19601 545.000
79.21596 507.000
79.23590 589.000
79.25585 572.000
79.27580 525.000
79.29575 549.000
79.31569 541.000
79.33564 553.000
79.35559 561.000
79.37553 487.000
79.39548 542.000
79.41543 555.000
79.43537 509.000
79.45532 516.000
79.47527 508.000
79.49521 503.000
79.51516 527.000
79.53511 509.000
79.55506 548.000
79.57500 528.000
79.59495 517.000
79.61490 548.000
79.63484 513.000
79.65479 508.000
79.67474 458.000
79.69468 514.000
79.71463 501.000
79.73458 454.000
79.75453 472.000
79.77447 481.000
79.79442 496.000
79.81437 509.000
79.83431 500.000
79.85426 516.000
79.87421 567.000
79.89415 536.000
79.91410 530.000
79.93405 500.000
79.95399 556.000
79.97394 550.000
79.99389 551.000
80.01384 501.000
80.03378 564.000
80.05373 541.000
80.07368 528.000
80.09362 567.000
80.11357 569.000
80.13352 530.000
80.15346 571.000
80.17341 535.000
80.19336 545.000
80.21331 515.000
80.23325 523.000
80.25320 536.000
80.27315 558.000
80.29309 534.000
80.31304 554.000
80.33299 540.000
80.35293 552.000
80.37288 534.000
80.39283 520.000
80.41278 553.000
80.43272 498.000
80.45267 521.000
80.47262 565.000
80.49256 536.000
80.51251 481.000
80.53246 570.000
80.55240 499.000
80.57235 541.000
80.59230 522.000
80.61224 518.000
80.63219 453.000
80.65214 502.000
80.67209 504.000
80.69203 515.000
80.71198 560.000
80.73193 497.000
80.75187 493.000
80.77182 517.000
80.79177 467.000
80.81171 454.000
80.83166 530.000
80.85161 474.000
80.87156 507.000
80.89150 513.000
80.91145 534.000
80.93140 488.000
80.95134 522.000
80.97129 475.000
80.99124 520.000
81.01118 494.000
81.03113 490.000
81.05108 491.000
81.07102 491.000
81.09097 522.000
81.11092 489.000
81.13087 488.000
81.15081 505.000
81.17076 525.000
81.19071 518.000
81.21065 492.000
81.23060 479.000
81.25055 510.000
81.27049 529.000
81.29044 512.000
81.31039 539.000
81.33034 514.000
81.35028 537.000
81.37023 496.000
81.39018 527.000
81.41012 505.000
81.43007 529.000
81.45002 523.000
81.46996 516.000
81.48991 520.000
81.50986 484.000
81.52980 497.000
81.54975 476.000
81.56970 533.000
81.58965 499.000
81.60959 539.000
81.62954 497.000
81.64949 514.000
81.66943 493.000
81.68938 479.000
81.70933 494.000
81.72927 514.000
81.74922 480.000
81.76917 520.000
81.78912 515.000
81.80906 518.000
81.82901 502.000
81.84896 504.000
81.86890 528.000
81.88885 531.000
81.90880 514.000
81.92874 480.000
81.94869 546.000
81.96864 511.000
81.98859 532.000
82.00853 530.000
82.02848 504.000
82.04843 544.000
82.06837 559.000
82.08832 564.000
82.10827 531.000
82.12821 567.000
82.14816 540.000
82.16811 554.000
82.18805 571.000
82.20800 593.000
82.22795 561.000
82.24790 559.000
82.26784 603.000
82.28779 620.000
82.30774 614.000
82.32768 632.000
82.34763 606.000
82.36758 673.000
82.38752 619.000
82.40747 666.000
82.42742 686.000
82.44737 696.000
82.46731 649.000
82.48726 665.000
82.50721 666.000
82.52715 696.000
82.54710 658.000
82.56705 657.000
82.58699 674.000
82.60694 691.000
82.62689 661.000
82.64683 719.000
82.66678 672.000
82.68673 643.000
82.70668 624.000
82.72662 633.000
82.74657 632.000
82.76652 580.000
82.78646 617.000
82.80641 570.000
82.82636 635.000
82.84630 590.000
82.86625 572.000
82.88620 591.000
82.90615 541.000
82.92609 636.000
82.94604 569.000
82.96599 578.000
82.98593 564.000
83.00588 557.000
83.02583 586.000
83.04577 574.000
83.06572 527.000
83.08567 586.000
83.10561 533.000
83.12556 529.000
83.14551 533.000
83.16546 557.000
83.18540 554.000
83.20535 531.000
83.22530 560.000
83.24524 536.000
83.26519 533.000
83.28514 588.000
83.30508 565.000
83.32503 559.000
83.34498 502.000
83.36493 553.000
83.38487 534.000
83.40482 561.000
83.42477 621.000
83.44471 574.000
83.46466 580.000
83.48461 598.000
83.50455 556.000
83.52450 566.000
83.54445 616.000
83.56440 592.000
83.58434 577.000
83.60429 553.000
83.62424 615.000
83.64418 592.000
83.66413 627.000
83.68408 563.000
83.70402 560.000
83.72397 550.000
83.74392 558.000
83.76386 542.000
83.78381 560.000
83.80376 539.000
83.82371 553.000
83.84365 523.000
83.86360 580.000
83.88355 566.000
83.90349 524.000
83.92344 522.000
83.94339 532.000
83.96333 551.000
83.98328 519.000
84.00323 515.000
84.02318 516.000
84.04312 550.000
84.06307 501.000
84.08302 514.000
84.10296 535.000
84.12291 547.000
84.14286 476.000
84.16280 499.000
84.18275 495.000
84.20270 535.000
84.22264 508.000
84.24259 555.000
84.26254 524.000
84.28249 511.000
84.30243 505.000
84.32238 492.000
84.34233 527.000
84.36227 483.000
84.38222 515.000
84.40217 514.000
84.42211 532.000
84.44206 522.000
84.46201 546.000
84.48196 516.000
84.50190 516.000
84.52185 497.000
84.54180 529.000
84.56174 508.000
84.58169 535.000
84.60164 524.000
84.62158 485.000
84.64153 517.000
84.66148 459.000
84.68142 548.000
84.70137 526.000
84.72132 506.000
84.74127 508.000
84.76121 529.000
84.78116 533.000
84.80111 485.000
84.82105 473.000
84.84100 482.000
84.86095 473.000
84.88089 515.000
84.90084 481.000
84.92079 479.000
84.94074 471.000
84.96068 470.000
84.98063 473.000
85.00058 511.000
85.02052 529.000
85.04047 507.000
85.06042 477.000
85.08036 510.000
85.10031 495.000
85.12026 548.000
85.14021 487.000
85.16015 464.000
85.18010 511.000
85.20005 473.000
85.21999 481.000
85.23994 513.000
85.25989 499.000
85.27983 535.000
85.29978 473.000
85.31973 526.000
85.33967 501.000
85.35962 563.000
85.37957 463.000
85.39952 518.000
85.41946 498.000
85.43941 504.000
85.45936 495.000
85.47930 504.000
85.49925 513.000
85.51920 509.000
85.53914 490.000
85.55909 472.000
85.57904 506.000
85.59899 498.000
85.61893 515.000
85.63888 479.000
85.65883 529.000
85.67877 475.000
85.69872 471.000
85.71867 538.000
85.73861 502.000
85.75856 437.000
85.77851 497.000
85.79845 529.000
85.81840 488.000
85.83835 460.000
85.85830 506.000
85.87824 494.000
85.89819 493.000
85.91814 529.000
85.93808 476.000
85.95803 469.000
85.97798 505.000
85.99792 465.000
86.01787 437.000
86.03782 479.000
86.05777 500.000
86.07771 508.000
86.09766 532.000
86.11761 515.000
86.13755 487.000
86.15750 509.000
86.17745 486.000
86.19739 502.000
86.21734 538.000
86.23729 487.000
86.25723 541.000
86.27718 507.000
86.29713 507.000
86.31708 519.000
86.33702 492.000
86.35697 538.000
86.37692 537.000
86.39686 507.000
86.41681 486.000
86.43676 492.000
86.45670 554.000
86.47665 556.000
86.49660 481.000
86.51655 541.000
86.53649 530.000
86.55644 492.000
86.57639 501.000
86.59633 555.000
86.61628 512.000
86.63623 523.000
86.65617 539.000
86.67612 553.000
86.69607 515.000
86.71602 584.000
86.73596 571.000
86.75591 543.000
86.77586 538.000
86.79580 539.000
86.81575 559.000
86.83570 533.000
86.85564 543.000
86.87559 549.000
86.89554 494.000
86.91548 518.000
86.93543 521.000
86.95538 566.000
86.97533 533.000
86.99527 546.000
87.01522 548.000
87.03517 511.000
87.05511 580.000
87.07506 542.000
87.09501 491.000
87.11495 560.000
87.13490 532.000
87.15485 563.000
87.17480 530.000
87.19474 509.000
87.21469 528.000
87.23464 558.000
87.25458 531.000
87.27453 535.000
87.29448 509.000
87.31442 506.000
87.33437 527.000
87.35432 499.000
87.37426 521.000
87.39421 479.000
87.41416 480.000
87.43411 531.000
87.45405 518.000
87.47400 570.000
87.49395 509.000
87.51389 519.000
87.53384 512.000
87.55379 481.000
87.57373 470.000
87.59368 473.000
87.61363 502.000
87.63358 500.000
87.65352 523.000
87.67347 505.000
87.69342 504.000
87.71336 522.000
87.73331 514.000
87.75326 479.000
87.77320 515.000
87.79315 462.000
87.81310 468.000
87.83304 461.000
87.85299 518.000
87.87294 505.000
87.89289 527.000
87.91283 500.000
87.93278 515.000
87.95273 549.000
87.97267 454.000
87.99262 493.000
88.01257 519.000
88.03251 493.000
88.05246 491.000
88.07241 526.000
88.09236 517.000
88.11230 524.000
88.13225 514.000
88.15220 488.000
88.17214 520.000
88.19209 507.000
88.21204 502.000
88.23198 517.000
88.25193 488.000
88.27188 510.000
88.29183 503.000
88.31177 533.000
88.33172 505.000
88.35167 528.000
88.37161 513.000
88.39156 507.000
88.41151 486.000
88.43145 496.000
88.45140 530.000
88.47135 507.000
88.49129 473.000
88.51124 519.000
88.53119 524.000
88.55114 519.000
88.57108 494.000
88.59103 500.000
88.61098 527.000
88.63092 529.000
88.65087 522.000
88.67082 526.000
88.69076 551.000
88.71071 517.000
88.73066 501.000
88.75061 531.000
88.77055 570.000
88.79050 523.000
88.81045 541.000
88.83039 554.000
88.85034 487.000
88.87029 518.000
88.89023 556.000
88.91018 523.000
88.93013 521.000
88.95007 493.000
88.97002 567.000
88.98997 513.000
89.00992 531.000
89.02986 582.000
89.04981 575.000
89.06976 608.000
89.08970 581.000
89.10965 591.000
89.12960 568.000
89.14954 580.000
89.16949 580.000
89.18944 572.000
89.20939 613.000
89.22933 600.000
89.24928 545.000
89.26923 557.000
89.28917 560.000
89.30912 612.000
89.32907 569.000
89.34901 544.000
89.36896 624.000
89.38891 582.000
89.40885 570.000
89.42880 552.000
89.44875 579.000
89.46870 605.000
89.48864 565.000
89.50859 562.000
89.52854 580.000
89.54848 521.000
89.56843 513.000
89.58838 549.000
89.60832 531.000
89.62827 538.000
89.64822 562.000
89.66817 571.000
89.68811 554.000
89.70806 546.000
89.72801 593.000
89.74795 540.000
89.76790 557.000
89.78785 569.000
89.80779 543.000
89.82774 598.000
89.84769 533.000
89.86764 497.000
89.88758 556.000
89.90753 552.000
89.92748 581.000
89.94742 526.000
89.96737 539.000
89.98732 521.000
90.00726 546.000
