10.00000 43.000
10.01995 54.000
10.03989 52.000
10.05984 57.000
10.07979 50.000
10.09973 57.000
10.11968 54.000
10.13963 65.000
10.15958 61.000
10.17952 60.000
10.19947 47.000
10.21942 57.000
10.23936 47.000
10.25931 48.000
10.27926 72.000
10.29920 57.000
10.31915 56.000
10.33910 61.000
10.35905 40.000
10.37899 59.000
10.39894 62.000
10.41889 47.000
10.43883 60.000
10.45878 50.000
10.47873 67.000
10.49867 60.000
10.51862 60.000
10.53857 61.000
10.55851 53.000
10.57846 48.000
10.59841 55.000
10.61836 58.000
10.63830 56.000
10.65825 46.000
10.67820 39.000
10.69814 60.000
10.71809 58.000
10.73804 50.000
10.75798 46.000
10.77793 50.000
10.79788 60.000
10.81783 42.000
10.83777 50.000
10.85772 52.000
10.87767 51.000
10.89761 58.000
10.91756 66.000
10.93751 55.000
10.95745 60.000
10.97740 60.000
10.99735 67.000
11.01730 46.000
11.03724 59.000
11.05719 53.000
11.07714 49.000
11.09708 61.000
11.11703 65.000
11.13698 60.000
11.15692 50.000
11.17687 57.000
11.19682 56.000
11.21676 53.000
11.23671 54.000
11.25666 58.000
11.27661 64.000
11.29655 49.000
11.31650 60.000
11.33645 64.000
11.35639 61.000
11.37634 62.000
11.39629 86.000
11.41623 59.000
11.43618 61.000
11.45613 54.000
11.47608 50.000
11.49602 53.000
11.51597 55.000
11.53592 68.000
11.55586 59.000
11.57581 48.000
11.59576 51.000
11.61570 54.000
11.63565 60.000
11.65560 54.000
11.67554 55.000
11.69549 71.000
11.71544 56.000
11.73539 59.000
11.75533 44.000
11.77528 48.000
11.79523 55.000
11.81517 62.000
11.83512 45.000
11.85507 67.000
11.87501 48.000
11.89496 60.000
11.91491 78.000
11.93486 69.000
11.95480 82.000
11.97475 60.000
11.99470 71.000
12.01464 65.000
12.03459 48.000
12.05454 53.000
12.07448 63.000
12.09443 49.000
12.11438 70.000
12.13432 57.000
12.15427 68.000
12.17422 68.000
12.19417 63.000
12.21411 53.000
12.23406 72.000
12.25401 53.000
12.27395 65.000
12.29390 56.000
12.31385 60.000
12.33379 62.000
12.35374 57.000
12.37369 65.000
12.39364 58.000
12.41358 64.000
12.43353 75.000
12.45348 64.000
12.47342 68.000
12.49337 63.000
12.51332 75.000
12.53326 52.000
12.55321 55.000
12.57316 69.000
12.59311 62.000
12.61305 64.000
12.63300 73.000
12.65295 62.000
12.67289 69.000
12.69284 70.000
12.71279 71.000
12.73273 57.000
12.75268 63.000
12.77263 64.000
12.79257 67.000
12.81252 72.000
12.83247 48.000
12.85242 66.000
12.87236 58.000
12.89231 75.000
12.91226 80.000
12.93220 61.000
12.95215 54.000
12.97210 73.000
12.99204 66.000
13.01199 58.000
13.03194 59.000
13.05189 59.000
13.07183 55.000
13.09178 66.000
13.11173 81.000
13.13167 63.000
13.15162 65.000
13.17157 75.000
13.19151 59.000
13.21146 70.000
13.23141 69.000
13.25135 53.000
13.27130 60.000
13.29125 60.000
13.31120 74.000
13.33114 52.000
13.35109 64.000
13.37104 71.000
13.39098 61.000
13.41093 69.000
13.43088 67.000
13.45082 75.000
13.47077 77.000
13.49072 59.000
13.51067 62.000
13.53061 70.000
13.55056 69.000
13.57051 62.000
13.59045 48.000
13.61040 65.000
13.63035 71.000
13.65029 61.000
13.67024 62.000
13.69019 68.000
13.71013 65.000
13.73008 72.000
13.75003 53.000
13.76998 69.000
13.78992 62.000
13.80987 54.000
13.82982 79.000
13.84976 77.000
13.86971 64.000
13.88966 64.000
13.90960 64.000
13.92955 76.000
13.94950 68.000
13.96945 72.000
13.98939 69.000
14.00934 67.000
14.02929 71.000
14.04923 51.000
14.06918 58.000
14.08913 67.000
14.10907 51.000
14.12902 84.000
14.14897 71.000
14.16892 68.000
14.18886 82.000
14.20881 70.000
14.22876 63.000
14.24870 73.000
14.26865 64.000
14.28860 71.000
14.30854 70.000
14.32849 83.000
14.34844 61.000
14.36838 54.000
14.38833 70.000
14.40828 65.000
14.42823 67.000
14.44817 65.000
14.46812 65.000
14.48807 68.000
14.50801 69.000
14.52796 50.000
14.54791 66.000
14.56785 76.000
14.58780 66.000
14.60775 67.000
14.62770 70.000
14.64764 68.000
14.66759 81.000
14.68754 64.000
14.70748 72.000
14.72743 84.000
14.74738 80.000
14.76732 78.000
14.78727 84.000
14.80722 73.000
14.82716 79.000
14.84711 70.000
14.86706 82.000
14.88701 73.000
14.90695 60.000
14.92690 70.000
14.94685 61.000
14.96679 78.000
14.98674 69.000
15.00669 54.000
15.02663 63.000
15.04658 85.000
15.06653 94.000
15.08648 71.000
15.10642 59.000
15.12637 89.000
15.14632 76.000
15.16626 67.000
15.18621 71.000
15.20616 77.000
15.22610 65.000
15.24605 75.000
15.26600 79.000
15.28594 71.000
15.30589 67.000
15.32584 84.000
15.34579 72.000
15.36573 88.000
15.38568 83.000
15.40563 78.000
15.42557 79.000
15.44552 90.000
15.46547 93.000
15.48541 75.000
15.50536 77.000
15.52531 83.000
15.54526 87.000
15.56520 71.000
15.58515 95.000
15.60510 107.000
15.62504 98.000
15.64499 88.000
15.66494 86.000
15.68488 105.000
15.70483 106.000
15.72478 107.000
15.74472 134.000
15.76467 152.000
15.78462 172.000
15.80457 208.000
15.82451 244.000
15.84446 342.000
15.86441 384.000
15.88435 493.000
15.90430 480.000
15.92425 564.000
15.94419 568.000
15.96414 580.000
15.98409 539.000
16.00404 514.000
16.02398 460.000
16.04393 420.000
16.06388 413.000
16.08382 355.000
16.10377 378.000
16.12372 416.000
16.14366 416.000
16.16361 544.000
16.18356 656.000
16.20351 721.000
16.22345 800.000
16.24340 877.000
16.26335 970.000
16.28329 989.000
16.30324 1078.000
16.32319 1101.000
16.34313 1022.000
16.36308 893.000
16.38303 935.000
16.40297 807.000
16.42292 710.000
16.44287 565.000
16.46282 502.000
16.48276 388.000
16.50271 347.000
16.52266 262.000
16.54260 190.000
16.56255 160.000
16.58250 121.000
16.60244 105.000
16.62239 90.000
16.64234 100.000
16.66229 90.000
16.68223 77.000
16.70218 99.000
16.72213 103.000
16.74207 91.000
16.76202 80.000
16.78197 89.000
16.80191 72.000
16.82186 83.000
16.84181 78.000
16.86175 80.000
16.88170 93.000
16.90165 82.000
16.92160 88.000
16.94154 83.000
16.96149 80.000
16.98144 87.000
17.00138 101.000
17.02133 88.000
17.04128 96.000
17.06122 80.000
17.08117 86.000
17.10112 74.000
17.12107 99.000
17.14101 74.000
17.16096 81.000
17.18091 96.000
17.20085 67.000
17.22080 65.000
17.24075 78.000
17.26069 70.000
17.28064 73.000
17.30059 76.000
17.32053 71.000
17.34048 78.000
17.36043 86.000
17.38038 73.000
17.40032 76.000
17.42027 90.000
17.44022 78.000
17.46016 89.000
17.48011 93.000
17.50006 78.000
17.52000 86.000
17.53995 76.000
17.55990 77.000
17.57985 84.000
17.59979 95.000
17.61974 98.000
17.63969 66.000
17.65963 69.000
17.67958 97.000
17.69953 71.000
17.71947 88.000
17.73942 82.000
17.75937 90.000
17.77932 84.000
17.79926 81.000
17.81921 89.000
17.83916 84.000
17.85910 88.000
17.87905 80.000
17.89900 87.000
17.91894 76.000
17.93889 83.000
17.95884 71.000
17.97878 82.000
17.99873 88.000
18.01868 82.000
18.03863 84.000
18.05857 59.000
18.07852 74.000
18.09847 95.000
18.11841 75.000
18.13836 80.000
18.15831 100.000
18.17825 95.000
18.19820 85.000
18.21815 81.000
18.23810 86.000
18.25804 77.000
18.27799 73.000
18.29794 82.000
18.31788 89.000
18.33783 80.000
18.35778 102.000
18.37772 79.000
18.39767 92.000
18.41762 88.000
18.43756 74.000
18.45751 84.000
18.47746 73.000
18.49741 83.000
18.51735 98.000
18.53730 84.000
18.55725 82.000
18.57719 103.000
18.59714 79.000
18.61709 83.000
18.63703 84.000
18.65698 84.000
18.67693 87.000
18.69688 86.000
18.71682 66.000
18.73677 78.000
18.75672 67.000
18.77666 82.000
18.79661 90.000
18.81656 79.000
18.83650 81.000
18.85645 73.000
18.87640 76.000
18.89634 72.000
18.91629 79.000
18.93624 96.000
18.95619 84.000
18.97613 85.000
18.99608 82.000
19.01603 88.000
19.03597 99.000
19.05592 80.000
19.07587 87.000
19.09581 93.000
19.11576 65.000
19.13571 84.000
19.15566 85.000
19.17560 83.000
19.19555 82.000
19.21550 102.000
19.23544 79.000
19.25539 90.000
19.27534 79.000
19.29528 76.000
19.31523 85.000
19.33518 86.000
19.35513 98.000
19.37507 89.000
19.39502 108.000
19.41497 99.000
19.43491 82.000
19.45486 87.000
19.47481 85.000
19.49475 85.000
19.51470 77.000
19.53465 80.000
19.55459 81.000
19.57454 93.000
19.59449 94.000
19.61444 96.000
19.63438 88.000
19.65433 86.000
19.67428 79.000
19.69422 93.000
19.71417 88.000
19.73412 81.000
19.75406 90.000
19.77401 101.000
19.79396 79.000
19.81391 97.000
19.83385 74.000
19.85380 111.000
19.87375 78.000
19.89369 89.000
19.91364 94.000
19.93359 84.000
19.95353 96.000
19.97348 85.000
19.99343 104.000
20.01337 89.000
20.03332 88.000
20.05327 87.000
20.07322 92.000
20.09316 91.000
20.11311 92.000
20.13306 91.000
20.15300 104.000
20.17295 92.000
20.19290 90.000
20.21284 73.000
20.23279 86.000
20.25274 96.000
20.27269 84.000
20.29263 86.000
20.31258 94.000
20.33253 80.000
20.35247 90.000
20.37242 96.000
20.39237 75.000
20.41231 97.000
20.43226 95.000
20.45221 92.000
20.47215 91.000
20.49210 94.000
20.51205 103.000
20.53200 77.000
20.55194 95.000
20.57189 95.000
20.59184 90.000
20.61178 96.000
20.63173 78.000
20.65168 100.000
20.67162 93.000
20.69157 86.000
20.71152 90.000
20.73147 102.000
20.75141 91.000
20.77136 102.000
20.79131 88.000
20.81125 102.000
20.83120 89.000
20.85115 116.000
20.87109 78.000
20.89104 96.000
20.91099 90.000
20.93094 119.000
20.95088 119.000
20.97083 100.000
20.99078 107.000
21.01072 131.000
21.03067 116.000
21.05062 116.000
21.07056 119.000
21.09051 145.000
21.11046 132.000
21.13040 109.000
21.15035 110.000
21.17030 110.000
21.19025 98.000
21.21019 110.000
21.23014 117.000
21.25009 100.000
21.27003 107.000
21.28998 101.000
21.30993 83.000
21.32987 95.000
21.34982 93.000
21.36977 85.000
21.38972 92.000
21.40966 90.000
21.42961 103.000
21.44956 97.000
21.46950 89.000
21.48945 98.000
21.50940 80.000
21.52934 107.000
21.54929 90.000
21.56924 100.000
21.58918 112.000
21.60913 109.000
21.62908 105.000
21.64903 94.000
21.66897 92.000
21.68892 95.000
21.70887 91.000
21.72881 66.000
21.74876 96.000
21.76871 98.000
21.78865 98.000
21.80860 116.000
21.82855 96.000
21.84850 95.000
21.86844 102.000
21.88839 110.000
21.90834 86.000
21.92828 88.000
21.94823 108.000
21.96818 89.000
21.98812 73.000
22.00807 110.000
22.02802 89.000
22.04796 103.000
22.06791 96.000
22.08786 90.000
22.10781 92.000
22.12775 90.000
22.14770 109.000
22.16765 91.000
22.18759 100.000
22.20754 83.000
22.22749 97.000
22.24743 93.000
22.26738 95.000
22.28733 99.000
22.30728 101.000
22.32722 92.000
22.34717 87.000
22.36712 89.000
22.38706 109.000
22.40701 92.000
22.42696 93.000
22.44690 93.000
22.46685 86.000
22.48680 113.000
22.50675 111.000
22.52669 92.000
22.54664 87.000
22.56659 99.000
22.58653 73.000
22.60648 98.000
22.62643 105.000
22.64637 103.000
22.66632 81.000
22.68627 93.000
22.70621 86.000
22.72616 73.000
22.74611 99.000
22.76606 104.000
22.78600 101.000
22.80595 83.000
22.82590 109.000
22.84584 106.000
22.86579 88.000
22.88574 109.000
22.90568 103.000
22.92563 108.000
22.94558 71.000
22.96553 75.000
22.98547 95.000
23.00542 103.000
23.02537 99.000
23.04531 106.000
23.06526 104.000
23.08521 98.000
23.10515 99.000
23.12510 107.000
23.14505 96.000
23.16499 103.000
23.18494 93.000
23.20489 106.000
23.22484 97.000
23.24478 94.000
23.26473 99.000
23.28468 84.000
23.30462 97.000
23.32457 105.000
23.34452 86.000
23.36446 102.000
23.38441 106.000
23.40436 94.000
23.42431 108.000
23.44425 103.000
23.46420 86.000
23.48415 82.000
23.50409 106.000
23.52404 111.000
23.54399 97.000
23.56393 99.000
23.58388 104.000
23.60383 88.000
23.62377 93.000
23.64372 104.000
23.66367 107.000
23.68362 102.000
23.70356 103.000
23.72351 120.000
23.74346 88.000
23.76340 102.000
23.78335 113.000
23.80330 83.000
23.82324 109.000
23.84319 91.000
23.86314 108.000
23.88309 108.000
23.90303 102.000
23.92298 114.000
23.94293 115.000
23.96287 108.000
23.98282 109.000
24.00277 111.000
24.02271 94.000
24.04266 106.000
24.06261 91.000
24.08256 84.000
24.10250 109.000
24.12245 112.000
24.14240 92.000
24.16234 127.000
24.18229 97.000
24.20224 88.000
24.22218 100.000
24.24213 106.000
24.26208 125.000
24.28202 100.000
24.30197 93.000
24.32192 120.000
24.34187 89.000
24.36181 87.000
24.38176 95.000
24.40171 106.000
24.42165 108.000
24.44160 109.000
24.46155 107.000
24.48149 123.000
24.50144 102.000
24.52139 96.000
24.54134 113.000
24.56128 119.000
24.58123 102.000
24.60118 104.000
24.62112 91.000
24.64107 103.000
24.66102 116.000
24.68096 100.000
24.70091 84.000
24.72086 100.000
24.74080 95.000
24.76075 73.000
24.78070 104.000
24.80065 108.000
24.82059 94.000
24.84054 89.000
24.86049 106.000
24.88043 113.000
24.90038 106.000
24.92033 97.000
24.94027 105.000
24.96022 111.000
24.98017 102.000
25.00012 92.000
25.02006 94.000
25.04001 96.000
25.05996 112.000
25.07990 100.000
25.09985 122.000
25.11980 91.000
25.13974 100.000
25.15969 121.000
25.17964 108.000
25.19958 116.000
25.21953 121.000
25.23948 104.000
25.25943 93.000
25.27937 127.000
25.29932 88.000
25.31927 112.000
25.33921 99.000
25.35916 102.000
25.37911 98.000
25.39905 105.000
25.41900 108.000
25.43895 102.000
25.45890 114.000
25.47884 103.000
25.49879 122.000
25.51874 103.000
25.53868 101.000
25.55863 114.000
25.57858 117.000
25.59852 90.000
25.61847 93.000
25.63842 108.000
25.65837 106.000
25.67831 86.000
25.69826 99.000
25.71821 106.000
25.73815 106.000
25.75810 92.000
25.77805 107.000
25.79799 120.000
25.81794 112.000
25.83789 108.000
25.85783 115.000
25.87778 95.000
25.89773 123.000
25.91768 101.000
25.93762 112.000
25.95757 90.000
25.97752 118.000
25.99746 112.000
26.01741 101.000
26.03736 114.000
26.05730 98.000
26.07725 99.000
26.09720 123.000
26.11715 110.000
26.13709 105.000
26.15704 95.000
26.17699 106.000
26.19693 109.000
26.21688 110.000
26.23683 105.000
26.25677 134.000
26.27672 108.000
26.29667 109.000
26.31661 101.000
26.33656 102.000
26.35651 130.000
26.37646 110.000
26.39640 114.000
26.41635 119.000
26.43630 82.000
26.45624 104.000
26.47619 128.000
26.49614 125.000
26.51608 102.000
26.53603 85.000
26.55598 119.000
26.57593 119.000
26.59587 112.000
26.61582 106.000
26.63577 110.000
26.65571 115.000
26.67566 105.000
26.69561 121.000
26.71555 125.000
26.73550 118.000
26.75545 117.000
26.77539 95.000
26.79534 104.000
26.81529 110.000
26.83524 107.000
26.85518 117.000
26.87513 105.000
26.89508 127.000
26.91502 104.000
26.93497 125.000
26.95492 102.000
26.97486 119.000
26.99481 138.000
27.01476 110.000
27.03471 111.000
27.05465 127.000
27.07460 113.000
27.09455 106.000
27.11449 114.000
27.13444 103.000
27.15439 120.000
27.17433 113.000
27.19428 114.000
27.21423 114.000
27.23417 108.000
27.25412 111.000
27.27407 124.000
27.29402 118.000
27.31396 126.000
27.33391 119.000
27.35386 99.000
27.37380 131.000
27.39375 97.000
27.41370 119.000
27.43364 127.000
27.45359 105.000
27.47354 111.000
27.49349 114.000
27.51343 113.000
27.53338 114.000
27.55333 102.000
27.57327 90.000
27.59322 121.000
27.61317 133.000
27.63311 109.000
27.65306 116.000
27.67301 123.000
27.69296 109.000
27.71290 122.000
27.73285 109.000
27.75280 131.000
27.77274 109.000
27.79269 111.000
27.81264 112.000
27.83258 108.000
27.85253 127.000
27.87248 115.000
27.89242 119.000
27.91237 99.000
27.93232 109.000
27.95227 114.000
27.97221 115.000
27.99216 98.000
28.01211 116.000
28.03205 108.000
28.05200 117.000
28.07195 99.000
28.09189 116.000
28.11184 114.000
28.13179 116.000
28.15174 121.000
28.17168 114.000
28.19163 111.000
28.21158 119.000
28.23152 113.000
28.25147 121.000
28.27142 112.000
28.29136 122.000
28.31131 125.000
28.33126 127.000
28.35120 96.000
28.37115 125.000
28.39110 116.000
28.41105 120.000
28.43099 90.000
28.45094 120.000
28.47089 117.000
28.49083 117.000
28.51078 114.000
28.53073 122.000
28.55067 119.000
28.57062 101.000
28.59057 133.000
28.61052 106.000
28.63046 108.000
28.65041 125.000
28.67036 97.000
28.69030 103.000
28.71025 129.000
28.73020 106.000
28.75014 151.000
28.77009 129.000
28.79004 112.000
28.80998 112.000
28.82993 107.000
28.84988 110.000
28.86983 124.000
28.88977 115.000
28.90972 108.000
28.92967 124.000
28.94961 112.000
28.96956 129.000
28.98951 128.000
29.00945 96.000
29.02940 129.000
29.04935 119.000
29.06930 102.000
29.08924 138.000
29.10919 118.000
29.12914 130.000
29.14908 131.000
29.16903 109.000
29.18898 120.000
29.20892 105.000
29.22887 135.000
29.24882 121.000
29.26877 128.000
29.28871 120.000
29.30866 100.000
29.32861 104.000
29.34855 132.000
29.36850 111.000
29.38845 106.000
29.40839 109.000
29.42834 140.000
29.44829 131.000
29.46823 146.000
29.48818 117.000
29.50813 123.000
29.52808 130.000
29.54802 137.000
29.56797 111.000
29.58792 140.000
29.60786 147.000
29.62781 130.000
29.64776 118.000
29.66770 130.000
29.68765 118.000
29.70760 128.000
29.72755 102.000
29.74749 116.000
29.76744 120.000
29.78739 124.000
29.80733 124.000
29.82728 114.000
29.84723 106.000
29.86717 130.000
29.88712 123.000
29.90707 110.000
29.92701 124.000
29.94696 135.000
29.96691 128.000
29.98686 136.000
30.00680 121.000
30.02675 130.000
30.04670 108.000
30.06664 140.000
30.08659 148.000
30.10654 124.000
30.12648 130.000
30.14643 116.000
30.16638 140.000
30.18633 135.000
30.20627 137.000
30.22622 128.000
30.24617 140.000
30.26611 133.000
30.28606 131.000
30.30601 163.000
30.32595 142.000
30.34590 132.000
30.36585 129.000
30.38579 121.000
30.40574 126.000
30.42569 154.000
30.44564 125.000
30.46558 127.000
30.48553 128.000
30.50548 129.000
30.52542 134.000
30.54537 133.000
30.56532 116.000
30.58526 132.000
30.60521 111.000
30.62516 121.000
30.64511 124.000
30.66505 152.000
30.68500 110.000
30.70495 130.000
30.72489 131.000
30.74484 117.000
30.76479 124.000
30.78473 117.000
30.80468 129.000
30.82463 128.000
30.84458 127.000
30.86452 134.000
30.88447 122.000
30.90442 137.000
30.92436 129.000
30.94431 129.000
30.96426 128.000
30.98420 121.000
31.00415 110.000
31.02410 148.000
31.04404 127.000
31.06399 133.000
31.08394 145.000
31.10389 120.000
31.12383 121.000
31.14378 121.000
31.16373 126.000
31.18367 118.000
31.20362 127.000
31.22357 112.000
31.24351 117.000
31.26346 143.000
31.28341 112.000
31.30336 145.000
31.32330 137.000
31.34325 139.000
31.36320 126.000
31.38314 131.000
31.40309 119.000
31.42304 137.000
31.44298 154.000
31.46293 119.000
31.48288 124.000
31.50282 107.000
31.52277 133.000
31.54272 132.000
31.56267 135.000
31.58261 124.000
31.60256 118.000
31.62251 122.000
31.64245 139.000
31.66240 138.000
31.68235 111.000
31.70229 118.000
31.72224 102.000
31.74219 136.000
31.76214 155.000
31.78208 115.000
31.80203 149.000
31.82198 143.000
31.84192 138.000
31.86187 130.000
31.88182 128.000
31.90176 141.000
31.92171 140.000
31.94166 120.000
31.96160 177.000
31.98155 147.000
32.00150 186.000
32.02145 186.000
32.04139 165.000
32.06134 202.000
32.08129 208.000
32.10123 202.000
32.12118 208.000
32.14113 200.000
32.16107 184.000
32.18102 213.000
32.20097 199.000
32.22092 210.000
32.24086 194.000
32.26081 195.000
32.28076 173.000
32.30070 162.000
32.32065 178.000
32.34060 142.000
32.36054 130.000
32.38049 130.000
32.40044 163.000
32.42039 159.000
32.44033 174.000
32.46028 147.000
32.48023 147.000
32.50017 183.000
32.52012 174.000
32.54007 182.000
32.56001 208.000
32.57996 226.000
32.59991 231.000
32.61985 257.000
32.63980 266.000
32.65975 285.000
32.67970 270.000
32.69964 287.000
32.71959 280.000
32.73954 296.000
32.75948 252.000
32.77943 281.000
32.79938 290.000
32.81932 322.000
32.83927 322.000
32.85922 293.000
32.87917 298.000
32.89911 297.000
32.91906 289.000
32.93901 298.000
32.95895 290.000
32.97890 291.000
32.99885 257.000
33.01879 274.000
33.03874 267.000
33.05869 236.000
33.07863 219.000
33.09858 225.000
33.11853 229.000
33.13848 221.000
33.15842 202.000
33.17837 213.000
33.19832 206.000
33.21826 209.000
33.23821 161.000
33.25816 154.000
33.27810 176.000
33.29805 155.000
33.31800 147.000
33.33795 156.000
33.35789 167.000
33.37784 142.000
33.39779 143.000
33.41773 132.000
33.43768 131.000
33.45763 156.000
33.47757 144.000
33.49752 137.000
33.51747 129.000
33.53741 127.000
33.55736 124.000
33.57731 147.000
33.59726 122.000
33.61720 137.000
33.63715 140.000
33.65710 143.000
33.67704 132.000
33.69699 134.000
33.71694 124.000
33.73688 159.000
33.75683 124.000
33.77678 148.000
33.79673 140.000
33.81667 136.000
33.83662 138.000
33.85657 142.000
33.87651 135.000
33.89646 154.000
33.91641 144.000
33.93635 151.000
33.95630 148.000
33.97625 138.000
33.99620 134.000
34.01614 144.000
34.03609 161.000
34.05604 145.000
34.07598 140.000
34.09593 137.000
34.11588 152.000
34.13582 172.000
34.15577 152.000
34.17572 153.000
34.19566 137.000
34.21561 169.000
34.23556 130.000
34.25551 154.000
34.27545 147.000
34.29540 144.000
34.31535 162.000
34.33529 146.000
34.35524 184.000
34.37519 153.000
34.39513 174.000
34.41508 172.000
34.43503 197.000
34.45498 160.000
34.47492 169.000
34.49487 204.000
34.51482 165.000
34.53476 215.000
34.55471 201.000
34.57466 214.000
34.59460 205.000
34.61455 203.000
34.63450 205.000
34.65444 189.000
34.67439 188.000
34.69434 194.000
34.71429 193.000
34.73423 182.000
34.75418 176.000
34.77413 193.000
34.79407 201.000
34.81402 163.000
34.83397 174.000
34.85391 194.000
34.87386 188.000
34.89381 174.000
34.91376 156.000
34.93370 179.000
34.95365 180.000
34.97360 184.000
34.99354 184.000
35.01349 175.000
35.03344 153.000
35.05338 172.000
35.07333 161.000
35.09328 176.000
35.11322 140.000
35.13317 161.000
35.15312 167.000
35.17307 151.000
35.19301 187.000
35.21296 163.000
35.23291 163.000
35.25285 173.000
35.27280 213.000
35.29275 199.000
35.31269 197.000
35.33264 200.000
35.35259 244.000
35.37254 248.000
35.39248 297.000
35.41243 288.000
35.43238 366.000
35.45232 373.000
35.47227 418.000
35.49222 494.000
35.51216 572.000
35.53211 635.000
35.55206 778.000
35.57201 834.000
35.59195 887.000
35.61190 1049.000
35.63185 1093.000
35.65179 1141.000
35.67174 1253.000
35.69169 1218.000
35.71163 1188.000
35.73158 1114.000
35.75153 1039.000
35.77147 1002.000
35.79142 833.000
35.81137 795.000
35.83132 655.000
35.85126 569.000
35.87121 466.000
35.89116 408.000
35.91110 329.000
35.93105 289.000
35.95100 270.000
35.97094 234.000
35.99089 225.000
36.01084 205.000
36.03079 186.000
36.05073 197.000
36.07068 183.000
36.09063 180.000
36.11057 166.000
36.13052 187.000
36.15047 165.000
36.17041 165.000
36.19036 180.000
36.21031 162.000
36.23025 184.000
36.25020 178.000
36.27015 167.000
36.29010 174.000
36.31004 177.000
36.32999 155.000
36.34994 148.000
36.36988 150.000
36.38983 163.000
36.40978 198.000
36.42972 162.000
36.44967 139.000
36.46962 160.000
36.48957 180.000
36.50951 168.000
36.52946 173.000
36.54941 170.000
36.56935 168.000
36.58930 184.000
36.60925 198.000
36.62919 206.000
36.64914 189.000
36.66909 211.000
36.68903 228.000
36.70898 228.000
36.72893 232.000
36.74888 261.000
36.76882 285.000
36.78877 351.000
36.80872 312.000
36.82866 340.000
36.84861 391.000
36.86856 436.000
36.88850 396.000
36.90845 453.000
36.92840 475.000
36.94835 471.000
36.96829 492.000
36.98824 509.000
37.00819 450.000
37.02813 509.000
37.04808 446.000
37.06803 424.000
37.08797 387.000
37.10792 342.000
37.12787 321.000
37.14781 312.000
37.16776 279.000
37.18771 249.000
37.20766 243.000
37.22760 229.000
37.24755 218.000
37.26750 192.000
37.28744 219.000
37.30739 219.000
37.32734 199.000
37.34728 181.000
37.36723 194.000
37.38718 200.000
37.40713 169.000
37.42707 173.000
37.44702 187.000
37.46697 161.000
37.48691 189.000
37.50686 196.000
37.52681 165.000
37.54675 131.000
37.56670 179.000
37.58665 156.000
37.60660 171.000
37.62654 170.000
37.64649 148.000
37.66644 147.000
37.68638 159.000
37.70633 160.000
37.72628 175.000
37.74622 160.000
37.76617 170.000
37.78612 164.000
37.80606 163.000
37.82601 156.000
37.84596 174.000
37.86591 171.000
37.88585 133.000
37.90580 167.000
37.92575 170.000
37.94569 165.000
37.96564 154.000
37.98559 143.000
38.00553 153.000
38.02548 174.000
38.04543 145.000
38.06538 165.000
38.08532 175.000
38.10527 153.000
38.12522 175.000
38.14516 160.000
38.16511 180.000
38.18506 167.000
38.20500 161.000
38.22495 174.000
38.24490 183.000
38.26484 158.000
38.28479 164.000
38.30474 158.000
38.32469 159.000
38.34463 164.000
38.36458 160.000
38.38453 171.000
38.40447 152.000
38.42442 167.000
38.44437 190.000
38.46431 201.000
38.48426 195.000
38.50421 183.000
38.52416 185.000
38.54410 219.000
38.56405 218.000
38.58400 222.000
38.60394 246.000
38.62389 279.000
38.64384 315.000
38.66378 381.000
38.68373 393.000
38.70368 425.000
38.72362 520.000
38.74357 567.000
38.76352 619.000
38.78347 745.000
38.80341 775.000
38.82336 828.000
38.84331 803.000
38.86325 867.000
38.88320 795.000
38.90315 761.000
38.92309 788.000
38.94304 708.000
38.96299 645.000
38.98294 600.000
39.00288 545.000
39.02283 508.000
39.04278 474.000
39.06272 466.000
39.08267 459.000
39.10262 436.000
39.12256 431.000
39.14251 395.000
39.16246 380.000
39.18241 417.000
39.20235 416.000
39.22230 382.000
39.24225 405.000
39.26219 413.000
39.28214 424.000
39.30209 407.000
39.32203 356.000
39.34198 369.000
39.36193 315.000
39.38187 355.000
39.40182 322.000
39.42177 281.000
39.44172 285.000
39.46166 265.000
39.48161 245.000
39.50156 226.000
39.52150 205.000
39.54145 208.000
39.56140 210.000
39.58134 217.000
39.60129 168.000
39.62124 167.000
39.64119 162.000
39.66113 169.000
39.68108 164.000
39.70103 159.000
39.72097 150.000
39.74092 146.000
39.76087 146.000
39.78081 171.000
39.80076 171.000
39.82071 146.000
39.84065 161.000
39.86060 150.000
39.88055 169.000
39.90050 153.000
39.92044 171.000
39.94039 165.000
39.96034 185.000
39.98028 156.000
40.00023 161.000
40.02018 176.000
40.04012 158.000
40.06007 163.000
40.08002 160.000
40.09997 189.000
40.11991 161.000
40.13986 157.000
40.15981 169.000
40.17975 171.000
40.19970 175.000
40.21965 161.000
40.23959 143.000
40.25954 157.000
40.27949 154.000
40.29943 176.000
40.31938 157.000
40.33933 158.000
40.35928 175.000
40.37922 136.000
40.39917 165.000
40.41912 147.000
40.43906 148.000
40.45901 155.000
40.47896 148.000
40.49890 147.000
40.51885 166.000
40.53880 137.000
40.55875 151.000
40.57869 138.000
40.59864 160.000
40.61859 171.000
40.63853 151.000
40.65848 139.000
40.67843 159.000
40.69837 160.000
40.71832 146.000
40.73827 154.000
40.75822 163.000
40.77816 164.000
40.79811 144.000
40.81806 157.000
40.83800 140.000
40.85795 165.000
40.87790 147.000
40.89784 162.000
40.91779 147.000
40.93774 180.000
40.95768 156.000
40.97763 171.000
40.99758 168.000
41.01753 166.000
41.03747 140.000
41.05742 179.000
41.07737 158.000
41.09731 191.000
41.11726 140.000
41.13721 201.000
41.15715 169.000
41.17710 162.000
41.19705 164.000
41.21700 183.000
41.23694 196.000
41.25689 195.000
41.27684 179.000
41.29678 173.000
41.31673 200.000
41.33668 206.000
41.35662 196.000
41.37657 192.000
41.39652 182.000
41.41646 203.000
41.43641 213.000
41.45636 275.000
41.47631 279.000
41.49625 308.000
41.51620 342.000
41.53615 419.000
41.55609 468.000
41.57604 583.000
41.59599 745.000
41.61593 840.000
41.63588 999.000
41.65583 1172.000
41.67578 1439.000
41.69572 1630.000
41.71567 1690.000
41.73562 1864.000
41.75556 1996.000
41.77551 1973.000
41.79546 2057.000
41.81540 1897.000
41.83535 1671.000
41.85530 1523.000
41.87524 1366.000
41.89519 1146.000
41.91514 964.000
41.93509 829.000
41.95503 645.000
41.97498 510.000
41.99493 393.000
42.01487 314.000
42.03482 272.000
42.05477 264.000
42.07471 222.000
42.09466 205.000
42.11461 219.000
42.13456 204.000
42.15450 184.000
42.17445 207.000
42.19440 197.000
42.21434 187.000
42.23429 164.000
42.25424 156.000
42.27418 179.000
42.29413 172.000
42.31408 183.000
42.33403 199.000
42.35397 158.000
42.37392 158.000
42.39387 152.000
42.41381 161.000
42.43376 168.000
42.45371 157.000
42.47365 158.000
42.49360 159.000
42.51355 159.000
42.53349 158.000
42.55344 163.000
42.57339 175.000
42.59334 159.000
42.61328 170.000
42.63323 145.000
42.65318 176.000
42.67312 154.000
42.69307 163.000
42.71302 151.000
42.73296 139.000
42.75291 162.000
42.77286 150.000
42.79281 160.000
42.81275 153.000
42.83270 162.000
42.85265 157.000
42.87259 157.000
42.89254 173.000
42.91249 144.000
42.93243 168.000
42.95238 194.000
42.97233 176.000
42.99227 174.000
43.01222 171.000
43.03217 184.000
43.05212 174.000
43.07206 176.000
43.09201 177.000
43.11196 183.000
43.13190 192.000
43.15185 206.000
43.17180 193.000
43.19174 209.000
43.21169 216.000
43.23164 199.000
43.25159 215.000
43.27153 217.000
43.29148 220.000
43.31143 265.000
43.33137 232.000
43.35132 237.000
43.37127 264.000
43.39121 248.000
43.41116 243.000
43.43111 291.000
43.45105 267.000
43.47100 269.000
43.49095 248.000
43.51090 246.000
43.53084 212.000
43.55079 252.000
43.57074 218.000
43.59068 204.000
43.61063 209.000
43.63058 216.000
43.65052 165.000
43.67047 162.000
43.69042 173.000
43.71037 183.000
43.73031 168.000
43.75026 175.000
43.77021 169.000
43.79015 151.000
43.81010 148.000
43.83005 146.000
43.84999 161.000
43.86994 178.000
43.88989 178.000
43.90984 158.000
43.92978 144.000
43.94973 165.000
43.96968 151.000
43.98962 149.000
44.00957 164.000
44.02952 174.000
44.04946 136.000
44.06941 159.000
44.08936 146.000
44.10930 154.000
44.12925 154.000
44.14920 173.000
44.16915 163.000
44.18909 151.000
44.20904 143.000
44.22899 163.000
44.24893 135.000
44.26888 145.000
44.28883 178.000
44.30877 165.000
44.32872 149.000
44.34867 168.000
44.36862 164.000
44.38856 138.000
44.40851 155.000
44.42846 154.000
44.44840 136.000
44.46835 121.000
44.48830 146.000
44.50824 156.000
44.52819 152.000
44.54814 129.000
44.56808 160.000
44.58803 164.000
44.60798 144.000
44.62793 155.000
44.64787 159.000
44.66782 152.000
44.68777 157.000
44.70771 141.000
44.72766 161.000
44.74761 165.000
44.76755 143.000
44.78750 166.000
44.80745 146.000
44.82740 160.000
44.84734 155.000
44.86729 166.000
44.88724 167.000
44.90718 177.000
44.92713 191.000
44.94708 170.000
44.96702 199.000
44.98697 202.000
45.00692 211.000
45.02686 221.000
45.04681 245.000
45.06676 194.000
45.08671 234.000
45.10665 213.000
45.12660 206.000
45.14655 215.000
45.16649 199.000
45.18644 239.000
45.20639 215.000
45.22633 166.000
45.24628 194.000
45.26623 158.000
45.28618 171.000
45.30612 150.000
45.32607 174.000
45.34602 166.000
45.36596 131.000
45.38591 154.000
45.40586 135.000
45.42580 176.000
45.44575 129.000
45.46570 144.000
45.48565 174.000
45.50559 148.000
45.52554 146.000
45.54549 159.000
45.56543 157.000
45.58538 147.000
45.60533 167.000
45.62527 154.000
45.64522 155.000
45.66517 152.000
45.68511 138.000
45.70506 156.000
45.72501 186.000
45.74496 154.000
45.76490 151.000
45.78485 170.000
45.80480 158.000
45.82474 156.000
45.84469 151.000
45.86464 150.000
45.88458 166.000
45.90453 158.000
45.92448 146.000
45.94443 161.000
45.96437 159.000
45.98432 120.000
46.00427 143.000
46.02421 160.000
46.04416 141.000
46.06411 154.000
46.08405 133.000
46.10400 164.000
46.12395 173.000
46.14389 144.000
46.16384 132.000
46.18379 157.000
46.20374 151.000
46.22368 153.000
46.24363 167.000
46.26358 145.000
46.28352 135.000
46.30347 180.000
46.32342 154.000
46.34336 146.000
46.36331 175.000
46.38326 171.000
46.40321 174.000
46.42315 177.000
46.44310 160.000
46.46305 164.000
46.48299 164.000
46.50294 173.000
46.52289 161.000
46.54283 168.000
46.56278 157.000
46.58273 144.000
46.60267 153.000
46.62262 157.000
46.64257 150.000
46.66252 176.000
46.68246 153.000
46.70241 154.000
46.72236 139.000
46.74230 145.000
46.76225 143.000
46.78220 160.000
46.80214 179.000
46.82209 147.000
46.84204 141.000
46.86199 136.000
46.88193 171.000
46.90188 176.000
46.92183 147.000
46.94177 142.000
46.96172 158.000
46.98167 134.000
47.00161 135.000
47.02156 136.000
47.04151 134.000
47.06146 158.000
47.08140 141.000
47.10135 157.000
47.12130 166.000
47.14124 159.000
47.16119 173.000
47.18114 152.000
47.20108 171.000
47.22103 122.000
47.24098 159.000
47.26092 162.000
47.28087 135.000
47.30082 152.000
47.32077 145.000
47.34071 159.000
47.36066 140.000
47.38061 160.000
47.40055 129.000
47.42050 139.000
47.44045 136.000
47.46039 125.000
47.48034 125.000
47.50029 148.000
47.52024 147.000
47.54018 147.000
47.56013 157.000
47.58008 149.000
47.60002 154.000
47.61997 142.000
47.63992 133.000
47.65986 165.000
47.67981 147.000
47.69976 146.000
47.71970 149.000
47.73965 157.000
47.75960 160.000
47.77955 146.000
47.79949 143.000
47.81944 141.000
47.83939 158.000
47.85933 154.000
47.87928 159.000
47.89923 144.000
47.91917 166.000
47.93912 149.000
47.95907 149.000
47.97902 159.000
47.99896 150.000
48.01891 154.000
48.03886 170.000
48.05880 152.000
48.07875 145.000
48.09870 136.000
48.11864 154.000
48.13859 193.000
48.15854 159.000
48.17848 136.000
48.19843 161.000
48.21838 172.000
48.23833 153.000
48.25827 139.000
48.27822 164.000
48.29817 184.000
48.31811 177.000
48.33806 161.000
48.35801 178.000
48.37795 161.000
48.39790 178.000
48.41785 182.000
48.43780 185.000
48.45774 174.000
48.47769 175.000
48.49764 173.000
48.51758 189.000
48.53753 201.000
48.55748 195.000
48.57742 237.000
48.59737 224.000
48.61732 258.000
48.63726 256.000
48.65721 280.000
48.67716 324.000
48.69711 374.000
48.71705 408.000
48.73700 421.000
48.75695 434.000
48.77689 437.000
48.79684 433.000
48.81679 412.000
48.83673 411.000
48.85668 526.000
48.87663 447.000
48.89658 492.000
48.91652 413.000
48.93647 426.000
48.95642 403.000
48.97636 417.000
48.99631 356.000
49.01626 367.000
49.03620 342.000
49.05615 319.000
49.07610 275.000
49.09605 223.000
49.11599 273.000
49.13594 245.000
49.15589 229.000
49.17583 191.000
49.19578 196.000
49.21573 210.000
49.23567 161.000
49.25562 171.000
49.27557 161.000
49.29551 154.000
49.31546 171.000
49.33541 166.000
49.35536 163.000
49.37530 156.000
49.39525 165.000
49.41520 155.000
49.43514 138.000
49.45509 168.000
49.47504 169.000
49.49498 155.000
49.51493 148.000
49.53488 181.000
49.55483 180.000
49.57477 168.000
49.59472 173.000
49.61467 157.000
49.63461 154.000
49.65456 135.000
49.67451 155.000
49.69445 159.000
49.71440 171.000
49.73435 155.000
49.75429 159.000
49.77424 178.000
49.79419 163.000
49.81414 161.000
49.83408 150.000
49.85403 148.000
49.87398 148.000
49.89392 161.000
49.91387 159.000
49.93382 159.000
49.95376 149.000
49.97371 141.000
49.99366 143.000
50.01361 157.000
50.03355 157.000
50.05350 162.000
50.07345 144.000
50.09339 154.000
50.11334 155.000
50.13329 160.000
50.15323 161.000
50.17318 171.000
50.19313 181.000
50.21307 165.000
50.23302 156.000
50.25297 151.000
50.27292 167.000
50.29286 142.000
50.31281 162.000
50.33276 143.000
50.35270 158.000
50.37265 146.000
50.39260 127.000
50.41254 161.000
50.43249 174.000
50.45244 149.000
50.47239 158.000
50.49233 142.000
50.51228 147.000
50.53223 151.000
50.55217 142.000
50.57212 150.000
50.59207 150.000
50.61201 148.000
50.63196 132.000
50.65191 158.000
50.67186 146.000
50.69180 140.000
50.71175 151.000
50.73170 137.000
50.75164 153.000
50.77159 164.000
50.79154 144.000
50.81148 141.000
50.83143 145.000
50.85138 161.000
50.87132 145.000
50.89127 146.000
50.91122 145.000
50.93117 160.000
50.95111 131.000
50.97106 153.000
50.99101 137.000
51.01095 156.000
51.03090 133.000
51.05085 169.000
51.07079 135.000
51.09074 133.000
51.11069 155.000
51.13064 131.000
51.15058 146.000
51.17053 148.000
51.19048 166.000
51.21042 162.000
51.23037 140.000
51.25032 134.000
51.27026 153.000
51.29021 170.000
51.31016 145.000
51.33010 149.000
51.35005 163.000
51.37000 168.000
51.38995 174.000
51.40989 147.000
51.42984 142.000
51.44979 164.000
51.46973 162.000
51.48968 173.000
51.50963 159.000
51.52957 159.000
51.54952 160.000
51.56947 164.000
51.58942 136.000
51.60936 155.000
51.62931 147.000
51.64926 142.000
51.66920 132.000
51.68915 165.000
51.70910 159.000
51.72904 149.000
51.74899 151.000
51.76894 162.000
51.78888 139.000
51.80883 148.000
51.82878 155.000
51.84873 140.000
51.86867 165.000
51.88862 146.000
51.90857 175.000
51.92851 137.000
51.94846 158.000
51.96841 152.000
51.98835 165.000
52.00830 151.000
52.02825 151.000
52.04820 146.000
52.06814 143.000
52.08809 153.000
52.10804 171.000
52.12798 167.000
52.14793 148.000
52.16788 145.000
52.18782 158.000
52.20777 162.000
52.22772 158.000
52.24767 163.000
52.26761 129.000
52.28756 165.000
52.30751 143.000
52.32745 141.000
52.34740 136.000
52.36735 156.000
52.38729 155.000
52.40724 155.000
52.42719 158.000
52.44713 183.000
52.46708 162.000
52.48703 142.000
52.50698 163.000
52.52692 153.000
52.54687 171.000
52.56682 156.000
52.58676 182.000
52.60671 154.000
52.62666 156.000
52.64660 164.000
52.66655 170.000
52.68650 165.000
52.70645 172.000
52.72639 148.000
52.74634 161.000
52.76629 154.000
52.78623 180.000
52.80618 181.000
52.82613 205.000
52.84607 182.000
52.86602 169.000
52.88597 181.000
52.90591 194.000
52.92586 190.000
52.94581 223.000
52.96576 223.000
52.98570 250.000
53.00565 272.000
53.02560 311.000
53.04554 355.000
53.06549 318.000
53.08544 375.000
53.10538 381.000
53.12533 427.000
53.14528 441.000
53.16523 417.000
53.18517 417.000
53.20512 397.000
53.22507 380.000
53.24501 369.000
53.26496 354.000
53.28491 326.000
53.30485 334.000
53.32480 295.000
53.34475 302.000
53.36469 257.000
53.38464 273.000
53.40459 236.000
53.42454 227.000
53.44448 234.000
53.46443 209.000
53.48438 224.000
53.50432 217.000
53.52427 185.000
53.54422 189.000
53.56416 207.000
53.58411 172.000
53.60406 183.000
53.62401 193.000
53.64395 184.000
53.66390 204.000
53.68385 202.000
53.70379 202.000
53.72374 197.000
53.74369 185.000
53.76363 190.000
53.78358 175.000
53.80353 184.000
53.82348 169.000
53.84342 179.000
53.86337 159.000
53.88332 169.000
53.90326 169.000
53.92321 169.000
53.94316 166.000
53.96310 153.000
53.98305 152.000
54.00300 154.000
54.02294 182.000
54.04289 191.000
54.06284 148.000
54.08279 154.000
54.10273 160.000
54.12268 181.000
54.14263 162.000
54.16257 179.000
54.18252 155.000
54.20247 177.000
54.22241 163.000
54.24236 180.000
54.26231 144.000
54.28226 140.000
54.30220 154.000
54.32215 152.000
54.34210 152.000
54.36204 142.000
54.38199 156.000
54.40194 160.000
54.42188 157.000
54.44183 164.000
54.46178 158.000
54.48172 180.000
54.50167 155.000
54.52162 114.000
54.54157 162.000
54.56151 143.000
54.58146 149.000
54.60141 134.000
54.62135 148.000
54.64130 150.000
54.66125 132.000
54.68119 157.000
54.70114 176.000
54.72109 155.000
54.74104 169.000
54.76098 169.000
54.78093 165.000
54.80088 156.000
54.82082 162.000
54.84077 166.000
54.86072 146.000
54.88066 166.000
54.90061 152.000
54.92056 156.000
54.94050 148.000
54.96045 141.000
54.98040 128.000
55.00035 157.000
55.02029 150.000
55.04024 168.000
55.06019 165.000
55.08013 160.000
55.10008 143.000
55.12003 152.000
55.13997 142.000
55.15992 162.000
55.17987 152.000
55.19982 158.000
55.21976 148.000
55.23971 159.000
55.25966 142.000
55.27960 171.000
55.29955 169.000
55.31950 145.000
55.33944 144.000
55.35939 163.000
55.37934 144.000
55.39929 160.000
55.41923 144.000
55.43918 146.000
55.45913 150.000
55.47907 129.000
55.49902 160.000
55.51897 134.000
55.53891 153.000
55.55886 150.000
55.57881 166.000
55.59875 145.000
55.61870 148.000
55.63865 150.000
55.65860 151.000
55.67854 147.000
55.69849 151.000
55.71844 141.000
55.73838 148.000
55.75833 150.000
55.77828 164.000
55.79822 128.000
55.81817 157.000
55.83812 163.000
55.85807 162.000
55.87801 153.000
55.89796 166.000
55.91791 161.000
55.93785 151.000
55.95780 152.000
55.97775 162.000
55.99769 156.000
56.01764 172.000
56.03759 162.000
56.05753 159.000
56.07748 181.000
56.09743 161.000
56.11738 136.000
56.13732 150.000
56.15727 176.000
56.17722 170.000
56.19716 160.000
56.21711 153.000
56.23706 151.000
56.25700 166.000
56.27695 159.000
56.29690 162.000
56.31685 159.000
56.33679 167.000
56.35674 170.000
56.37669 143.000
56.39663 166.000
56.41658 134.000
56.43653 129.000
56.45647 138.000
56.47642 155.000
56.49637 142.000
56.51631 157.000
56.53626 157.000
56.55621 160.000
56.57616 142.000
56.59610 154.000
56.61605 188.000
56.63600 159.000
56.65594 149.000
56.67589 158.000
56.69584 145.000
56.71578 149.000
56.73573 157.000
56.75568 145.000
56.77563 163.000
56.79557 171.000
56.81552 161.000
56.83547 169.000
56.85541 163.000
56.87536 180.000
56.89531 151.000
56.91525 167.000
56.93520 166.000
56.95515 179.000
56.97510 167.000
56.99504 165.000
57.01499 168.000
57.03494 152.000
57.05488 164.000
57.07483 177.000
57.09478 162.000
57.11472 169.000
57.13467 180.000
57.15462 177.000
57.17456 168.000
57.19451 180.000
57.21446 179.000
57.23441 157.000
57.25435 193.000
57.27430 186.000
57.29425 158.000
57.31419 185.000
57.33414 185.000
57.35409 188.000
57.37403 185.000
57.39398 202.000
57.41393 204.000
57.43388 221.000
57.45382 218.000
57.47377 236.000
57.49372 258.000
57.51366 253.000
57.53361 277.000
57.55356 318.000
57.57350 300.000
57.59345 334.000
57.61340 302.000
57.63334 316.000
57.65329 381.000
57.67324 416.000
57.69319 430.000
57.71313 437.000
57.73308 447.000
57.75303 483.000
57.77297 507.000
57.79292 464.000
57.81287 450.000
57.83281 462.000
57.85276 414.000
57.87271 447.000
57.89266 446.000
57.91260 381.000
57.93255 363.000
57.95250 358.000
57.97244 326.000
57.99239 294.000
58.01234 301.000
58.03228 259.000
58.05223 254.000
58.07218 229.000
58.09212 244.000
58.11207 193.000
58.13202 220.000
58.15197 197.000
58.17191 188.000
58.19186 208.000
58.21181 183.000
58.23175 210.000
58.25170 224.000
58.27165 203.000
58.29159 223.000
58.31154 227.000
58.33149 246.000
58.35144 245.000
58.37138 246.000
58.39133 220.000
58.41128 249.000
58.43122 249.000
58.45117 232.000
58.47112 254.000
58.49106 234.000
58.51101 212.000
58.53096 221.000
58.55090 214.000
58.57085 222.000
58.59080 206.000
58.61075 200.000
58.63069 178.000
58.65064 194.000
58.67059 168.000
58.69053 162.000
58.71048 158.000
58.73043 155.000
58.75037 166.000
58.77032 143.000
58.79027 150.000
58.81022 164.000
58.83016 146.000
58.85011 148.000
58.87006 174.000
58.89000 162.000
58.90995 148.000
58.92990 182.000
58.94984 164.000
58.96979 156.000
58.98974 137.000
59.00969 174.000
59.02963 144.000
59.04958 176.000
59.06953 134.000
59.08947 176.000
59.10942 163.000
59.12937 158.000
59.14931 164.000
59.16926 144.000
59.18921 130.000
59.20915 168.000
59.22910 179.000
59.24905 153.000
59.26900 141.000
59.28894 141.000
59.30889 168.000
59.32884 153.000
59.34878 154.000
59.36873 153.000
59.38868 160.000
59.40862 156.000
59.42857 142.000
59.44852 176.000
59.46847 166.000
59.48841 150.000
59.50836 172.000
59.52831 142.000
59.54825 143.000
59.56820 165.000
59.58815 161.000
59.60809 149.000
59.62804 161.000
59.64799 148.000
59.66793 134.000
59.68788 143.000
59.70783 155.000
59.72778 147.000
59.74772 155.000
59.76767 141.000
59.78762 170.000
59.80756 147.000
59.82751 140.000
59.84746 161.000
59.86740 172.000
59.88735 151.000
59.90730 158.000
59.92725 132.000
59.94719 160.000
59.96714 146.000
59.98709 159.000
60.00703 141.000
60.02698 137.000
60.04693 157.000
60.06687 153.000
60.08682 152.000
60.10677 147.000
60.12671 168.000
60.14666 150.000
60.16661 130.000
60.18656 150.000
60.20650 148.000
60.22645 159.000
60.24640 155.000
60.26634 150.000
60.28629 141.000
60.30624 141.000
60.32618 147.000
60.34613 167.000
60.36608 143.000
60.38603 136.000
60.40597 154.000
60.42592 183.000
60.44587 158.000
60.46581 150.000
60.48576 168.000
60.50571 148.000
60.52565 166.000
60.54560 129.000
60.56555 142.000
60.58550 161.000
60.60544 145.000
60.62539 150.000
60.64534 172.000
60.66528 168.000
60.68523 156.000
60.70518 147.000
60.72512 174.000
60.74507 144.000
60.76502 134.000
60.78496 133.000
60.80491 151.000
60.82486 165.000
60.84481 156.000
60.86475 157.000
60.88470 152.000
60.90465 165.000
60.92459 151.000
60.94454 147.000
60.96449 171.000
60.98443 165.000
61.00438 162.000
61.02433 179.000
61.04428 178.000
61.06422 155.000
61.08417 154.000
61.10412 138.000
61.12406 162.000
61.14401 150.000
61.16396 164.000
61.18390 157.000
61.20385 176.000
61.22380 160.000
61.24374 181.000
61.26369 143.000
61.28364 180.000
61.30359 165.000
61.32353 188.000
61.34348 166.000
61.36343 179.000
61.38337 183.000
61.40332 170.000
61.42327 176.000
61.44321 195.000
61.46316 199.000
61.48311 182.000
61.50306 218.000
61.52300 204.000
61.54295 227.000
61.56290 216.000
61.58284 229.000
61.60279 238.000
61.62274 253.000
61.64268 295.000
61.66263 335.000
61.68258 318.000
61.70252 332.000
61.72247 307.000
61.74242 260.000
61.76237 269.000
61.78231 295.000
61.80226 266.000
61.82221 302.000
61.84215 316.000
61.86210 316.000
61.88205 290.000
61.90199 267.000
61.92194 246.000
61.94189 268.000
61.96184 274.000
61.98178 271.000
62.00173 273.000
62.02168 235.000
62.04162 256.000
62.06157 248.000
62.08152 252.000
62.10146 207.000
62.12141 247.000
62.14136 217.000
62.16131 232.000
62.18125 219.000
62.20120 218.000
62.22115 203.000
62.24109 200.000
62.26104 198.000
62.28099 195.000
62.30093 212.000
62.32088 181.000
62.34083 187.000
62.36077 176.000
62.38072 182.000
62.40067 186.000
62.42062 196.000
62.44056 200.000
62.46051 181.000
62.48046 207.000
62.50040 188.000
62.52035 187.000
62.54030 188.000
62.56024 212.000
62.58019 215.000
62.60014 229.000
62.62009 244.000
62.64003 253.000
62.65998 214.000
62.67993 258.000
62.69987 253.000
62.71982 254.000
62.73977 277.000
62.75971 275.000
62.77966 277.000
62.79961 276.000
62.81955 284.000
62.83950 280.000
62.85945 288.000
62.87940 305.000
62.89934 294.000
62.91929 320.000
62.93924 337.000
62.95918 304.000
62.97913 307.000
62.99908 367.000
63.01902 378.000
63.03897 342.000
63.05892 327.000
63.07887 357.000
63.09881 362.000
63.11876 352.000
63.13871 370.000
63.15865 323.000
63.17860 371.000
63.19855 373.000
63.21849 381.000
63.23844 343.000
63.25839 360.000
63.27833 352.000
63.29828 342.000
63.31823 317.000
63.33818 328.000
63.35812 267.000
63.37807 295.000
63.39802 310.000
63.41796 251.000
63.43791 262.000
63.45786 264.000
63.47780 244.000
63.49775 237.000
63.51770 211.000
63.53765 189.000
63.55759 192.000
63.57754 228.000
63.59749 191.000
63.61743 216.000
63.63738 185.000
63.65733 184.000
63.67727 166.000
63.69722 213.000
63.71717 215.000
63.73712 217.000
63.75706 181.000
63.77701 192.000
63.79696 185.000
63.81690 175.000
63.83685 205.000
63.85680 206.000
63.87674 215.000
63.89669 190.000
63.91664 226.000
63.93658 205.000
63.95653 222.000
63.97648 216.000
63.99643 192.000
64.01637 189.000
64.03632 206.000
64.05627 199.000
64.07621 199.000
64.09616 208.000
64.11611 223.000
64.13605 200.000
64.15600 205.000
64.17595 184.000
64.19590 186.000
64.21584 168.000
64.23579 188.000
64.25574 175.000
64.27568 188.000
64.29563 184.000
64.31558 214.000
64.33552 179.000
64.35547 175.000
64.37542 169.000
64.39536 177.000
64.41531 185.000
64.43526 186.000
64.45521 184.000
64.47515 170.000
64.49510 158.000
64.51505 177.000
64.53499 185.000
64.55494 167.000
64.57489 164.000
64.59483 157.000
64.61478 158.000
64.63473 172.000
64.65468 144.000
64.67462 171.000
64.69457 160.000
64.71452 164.000
64.73446 167.000
64.75441 151.000
64.77436 134.000
64.79430 158.000
64.81425 170.000
64.83420 156.000
64.85414 167.000
64.87409 159.000
64.89404 169.000
64.91399 174.000
64.93393 170.000
64.95388 158.000
64.97383 156.000
64.99377 161.000
65.01372 164.000
65.03367 178.000
65.05361 165.000
65.07356 176.000
65.09351 182.000
65.11346 178.000
65.13340 179.000
65.15335 180.000
65.17330 163.000
65.19324 165.000
65.21319 187.000
65.23314 180.000
65.25308 210.000
65.27303 184.000
65.29298 218.000
65.31293 238.000
65.33287 206.000
65.35282 221.000
65.37277 209.000
65.39271 175.000
65.41266 216.000
65.43261 230.000
65.45255 213.000
65.47250 235.000
65.49245 251.000
65.51239 252.000
65.53234 274.000
65.55229 252.000
65.57224 276.000
65.59218 300.000
65.61213 298.000
65.63208 290.000
65.65202 291.000
65.67197 289.000
65.69192 302.000
65.71186 290.000
65.73181 323.000
65.75176 320.000
65.77171 306.000
65.79165 304.000
65.81160 317.000
65.83155 282.000
65.85149 317.000
65.87144 313.000
65.89139 312.000
65.91133 335.000
65.93128 291.000
65.95123 286.000
65.97117 274.000
65.99112 248.000
66.01107 262.000
66.03102 237.000
66.05096 259.000
66.07091 228.000
66.09086 237.000
66.11080 245.000
66.13075 232.000
66.15070 234.000
66.17064 230.000
66.19059 256.000
66.21054 223.000
66.23049 224.000
66.25043 265.000
66.27038 288.000
66.29033 269.000
66.31027 274.000
66.33022 247.000
66.35017 283.000
66.37011 280.000
66.39006 315.000
66.41001 280.000
66.42995 300.000
66.44990 325.000
66.46985 277.000
66.48980 271.000
66.50974 279.000
66.52969 259.000
66.54964 244.000
66.56958 251.000
66.58953 225.000
66.60948 202.000
66.62942 244.000
66.64937 224.000
66.66932 265.000
66.68927 240.000
66.70921 210.000
66.72916 211.000
66.74911 197.000
66.76905 156.000
66.78900 177.000
66.80895 220.000
66.82889 196.000
66.84884 190.000
66.86879 176.000
66.88874 164.000
66.90868 173.000
66.92863 185.000
66.94858 169.000
66.96852 157.000
66.98847 180.000
67.00842 163.000
67.02836 154.000
67.04831 173.000
67.06826 173.000
67.08820 185.000
67.10815 166.000
67.12810 176.000
67.14805 171.000
67.16799 161.000
67.18794 159.000
67.20789 176.000
67.22783 169.000
67.24778 174.000
67.26773 177.000
67.28767 153.000
67.30762 164.000
67.32757 178.000
67.34752 145.000
67.36746 168.000
67.38741 152.000
67.40736 160.000
67.42730 172.000
67.44725 170.000
67.46720 149.000
67.48714 178.000
67.50709 163.000
67.52704 160.000
67.54698 184.000
67.56693 162.000
67.58688 192.000
67.60683 191.000
67.62677 172.000
67.64672 190.000
67.66667 171.000
67.68661 193.000
67.70656 192.000
67.72651 191.000
67.74645 201.000
67.76640 243.000
67.78635 211.000
67.80630 202.000
67.82624 227.000
67.84619 213.000
67.86614 226.000
67.88608 233.000
67.90603 270.000
67.92598 289.000
67.94592 269.000
67.96587 281.000
67.98582 265.000
68.00576 287.000
68.02571 309.000
68.04566 326.000
68.06561 327.000
68.08555 326.000
68.10550 349.000
68.12545 338.000
68.14539 361.000
68.16534 303.000
68.18529 363.000
68.20523 303.000
68.22518 307.000
68.24513 316.000
68.26508 294.000
68.28502 301.000
68.30497 320.000
68.32492 276.000
68.34486 251.000
68.36481 269.000
68.38476 270.000
68.40470 256.000
68.42465 257.000
68.44460 239.000
68.46455 220.000
68.48449 218.000
68.50444 221.000
68.52439 194.000
68.54433 210.000
68.56428 184.000
68.58423 178.000
68.60417 176.000
68.62412 178.000
68.64407 177.000
68.66401 170.000
68.68396 177.000
68.70391 180.000
68.72386 162.000
68.74380 201.000
68.76375 187.000
68.78370 186.000
68.80364 185.000
68.82359 180.000
68.84354 188.000
68.86348 184.000
68.88343 204.000
68.90338 175.000
68.92333 181.000
68.94327 183.000
68.96322 166.000
68.98317 169.000
69.00311 161.000
69.02306 183.000
69.04301 170.000
69.06295 192.000
69.08290 180.000
69.10285 164.000
69.12279 174.000
69.14274 165.000
69.16269 168.000
69.18264 158.000
69.20258 186.000
69.22253 160.000
69.24248 158.000
69.26242 165.000
69.28237 176.000
69.30232 193.000
69.32226 188.000
69.34221 185.000
69.36216 178.000
69.38211 169.000
69.40205 160.000
69.42200 161.000
69.44195 171.000
69.46189 181.000
69.48184 150.000
69.50179 166.000
69.52173 155.000
69.54168 186.000
69.56163 159.000
69.58157 167.000
69.60152 175.000
69.62147 186.000
69.64142 162.000
69.66136 141.000
69.68131 171.000
69.70126 161.000
69.72120 174.000
69.74115 158.000
69.76110 178.000
69.78104 148.000
69.80099 169.000
69.82094 147.000
69.84089 151.000
69.86083 175.000
69.88078 160.000
69.90073 155.000
69.92067 182.000
69.94062 154.000
69.96057 161.000
69.98051 164.000
70.00046 155.000
70.02041 174.000
70.04035 166.000
70.06030 167.000
70.08025 152.000
70.10020 142.000
70.12014 172.000
70.14009 138.000
70.16004 157.000
70.17998 165.000
70.19993 158.000
70.21988 148.000
70.23982 170.000
70.25977 122.000
70.27972 169.000
70.29967 148.000
70.31961 162.000
70.33956 157.000
70.35951 161.000
70.37945 148.000
70.39940 156.000
70.41935 174.000
70.43929 159.000
70.45924 156.000
70.47919 134.000
70.49914 157.000
70.51908 155.000
70.53903 141.000
70.55898 170.000
70.57892 156.000
70.59887 172.000
70.61882 156.000
70.63876 161.000
70.65871 147.000
70.67866 151.000
70.69860 155.000
70.71855 153.000
70.73850 171.000
70.75845 158.000
70.77839 168.000
70.79834 133.000
70.81829 135.000
70.83823 143.000
70.85818 152.000
70.87813 182.000
70.89807 142.000
70.91802 162.000
70.93797 141.000
70.95792 153.000
70.97786 181.000
70.99781 151.000
71.01776 137.000
71.03770 169.000
71.05765 181.000
71.07760 153.000
71.09754 154.000
71.11749 151.000
71.13744 177.000
71.15738 150.000
71.17733 175.000
71.19728 161.000
71.21723 154.000
71.23717 158.000
71.25712 149.000
71.27707 168.000
71.29701 147.000
71.31696 166.000
71.33691 163.000
71.35685 168.000
71.37680 145.000
71.39675 159.000
71.41670 130.000
71.43664 142.000
71.45659 162.000
71.47654 167.000
71.49648 136.000
71.51643 162.000
71.53638 147.000
71.55632 166.000
71.57627 159.000
71.59622 167.000
71.61616 137.000
71.63611 152.000
71.65606 153.000
71.67601 167.000
71.69595 171.000
71.71590 147.000
71.73585 173.000
71.75579 182.000
71.77574 147.000
71.79569 144.000
71.81563 144.000
71.83558 161.000
71.85553 124.000
71.87548 158.000
71.89542 155.000
71.91537 148.000
71.93532 165.000
71.95526 155.000
71.97521 142.000
71.99516 169.000
72.01510 167.000
72.03505 163.000
72.05500 163.000
72.07495 144.000
72.09489 155.000
72.11484 147.000
72.13479 165.000
72.15473 163.000
72.17468 164.000
72.19463 185.000
72.21457 173.000
72.23452 161.000
72.25447 152.000
72.27441 185.000
72.29436 189.000
72.31431 167.000
72.33426 188.000
72.35420 171.000
72.37415 170.000
72.39410 187.000
72.41404 201.000
72.43399 192.000
72.45394 193.000
72.47388 186.000
72.49383 192.000
72.51378 220.000
72.53373 228.000
72.55367 217.000
72.57362 230.000
72.59357 207.000
72.61351 195.000
72.63346 195.000
72.65341 217.000
72.67335 225.000
72.69330 231.000
72.71325 236.000
72.73319 247.000
72.75314 217.000
72.77309 216.000
72.79304 217.000
72.81298 207.000
72.83293 206.000
72.85288 228.000
72.87282 261.000
72.89277 226.000
72.91272 236.000
72.93266 248.000
72.95261 268.000
72.97256 246.000
72.99251 263.000
73.01245 302.000
73.03240 266.000
73.05235 238.000
73.07229 237.000
73.09224 228.000
73.11219 218.000
73.13213 242.000
73.15208 235.000
73.17203 207.000
73.19197 214.000
73.21192 234.000
73.23187 199.000
73.25182 226.000
73.27176 231.000
73.29171 207.000
73.31166 215.000
73.33160 195.000
73.35155 206.000
73.37150 203.000
73.39144 207.000
73.41139 221.000
73.43134 223.000
73.45129 203.000
73.47123 211.000
73.49118 222.000
73.51113 212.000
73.53107 205.000
73.55102 207.000
73.57097 198.000
73.59091 213.000
73.61086 221.000
73.63081 227.000
73.65076 215.000
73.67070 195.000
73.69065 220.000
73.71060 219.000
73.73054 221.000
73.75049 181.000
73.77044 212.000
73.79038 204.000
73.81033 215.000
73.83028 200.000
73.85022 197.000
73.87017 182.000
73.89012 213.000
73.91007 198.000
73.93001 175.000
73.94996 189.000
73.96991 198.000
73.98985 197.000
74.00980 185.000
74.02975 174.000
74.04969 172.000
74.06964 195.000
74.08959 191.000
74.10954 195.000
74.12948 175.000
74.14943 159.000
74.16938 181.000
74.18932 152.000
74.20927 170.000
74.22922 200.000
74.24916 152.000
74.26911 165.000
74.28906 189.000
74.30900 166.000
74.32895 191.000
74.34890 151.000
74.36885 169.000
74.38879 191.000
74.40874 166.000
74.42869 183.000
74.44863 186.000
74.46858 180.000
74.48853 180.000
74.50847 174.000
74.52842 180.000
74.54837 176.000
74.56832 173.000
74.58826 167.000
74.60821 173.000
74.62816 186.000
74.64810 188.000
74.66805 186.000
74.68800 186.000
74.70794 192.000
74.72789 170.000
74.74784 168.000
74.76778 161.000
74.78773 206.000
74.80768 188.000
74.82763 194.000
74.84757 162.000
74.86752 183.000
74.88747 191.000
74.90741 193.000
74.92736 181.000
74.94731 190.000
74.96725 184.000
74.98720 211.000
75.00715 209.000
75.02710 246.000
75.04704 219.000
75.06699 243.000
75.08694 243.000
75.10688 255.000
75.12683 224.000
75.14678 263.000
75.16672 219.000
75.18667 211.000
75.20662 233.000
75.22657 234.000
75.24651 223.000
75.26646 220.000
75.28641 212.000
75.30635 218.000
75.32630 241.000
75.34625 216.000
75.36619 226.000
75.38614 250.000
75.40609 243.000
75.42603 230.000
75.44598 206.000
75.46593 219.000
75.48588 230.000
75.50582 217.000
75.52577 209.000
75.54572 226.000
75.56566 212.000
75.58561 204.000
75.60556 196.000
75.62550 215.000
75.64545 187.000
75.66540 200.000
75.68535 163.000
75.70529 194.000
75.72524 197.000
75.74519 205.000
75.76513 167.000
75.78508 184.000
75.80503 158.000
75.82497 181.000
75.84492 155.000
75.86487 170.000
75.88481 155.000
75.90476 169.000
75.92471 155.000
75.94466 174.000
75.96460 169.000
75.98455 150.000
76.00450 163.000
76.02444 174.000
76.04439 163.000
76.06434 172.000
76.08428 168.000
76.10423 156.000
76.12418 146.000
76.14413 151.000
76.16407 161.000
76.18402 157.000
76.20397 130.000
76.22391 160.000
76.24386 165.000
76.26381 142.000
76.28375 153.000
76.30370 170.000
76.32365 148.000
76.34359 177.000
76.36354 187.000
76.38349 155.000
76.40344 159.000
76.42338 168.000
76.44333 150.000
76.46328 163.000
76.48322 162.000
76.50317 129.000
76.52312 160.000
76.54306 171.000
76.56301 134.000
76.58296 162.000
76.60291 179.000
76.62285 159.000
76.64280 159.000
76.66275 142.000
76.68269 157.000
76.70264 163.000
76.72259 155.000
76.74253 152.000
76.76248 150.000
76.78243 148.000
76.80238 160.000
76.82232 150.000
76.84227 154.000
76.86222 154.000
76.88216 163.000
76.90211 138.000
76.92206 152.000
76.94200 175.000
76.96195 146.000
76.98190 169.000
77.00184 157.000
77.02179 162.000
77.04174 171.000
77.06169 171.000
77.08163 167.000
77.10158 157.000
77.12153 153.000
77.14147 160.000
77.16142 188.000
77.18137 129.000
77.20131 159.000
77.22126 131.000
77.24121 182.000
77.26116 151.000
77.28110 176.000
77.30105 172.000
77.32100 144.000
77.34094 165.000
77.36089 160.000
77.38084 162.000
77.40078 148.000
77.42073 156.000
77.44068 162.000
77.46062 164.000
77.48057 149.000
77.50052 159.000
77.52047 172.000
77.54041 170.000
77.56036 164.000
77.58031 181.000
77.60025 159.000
77.62020 168.000
77.64015 186.000
77.66009 156.000
77.68004 163.000
77.69999 166.000
77.71994 157.000
77.73988 146.000
77.75983 155.000
77.77978 174.000
77.79972 167.000
77.81967 177.000
77.83962 176.000
77.85956 184.000
77.87951 169.000
77.89946 186.000
77.91940 184.000
77.93935 198.000
77.95930 215.000
77.97925 209.000
77.99919 184.000
78.01914 177.000
78.03909 177.000
78.05903 196.000
78.07898 204.000
78.09893 205.000
78.11887 211.000
78.13882 195.000
78.15877 185.000
78.17872 195.000
78.19866 198.000
78.21861 205.000
78.23856 240.000
78.25850 201.000
78.27845 223.000
78.29840 235.000
78.31834 194.000
78.33829 186.000
78.35824 231.000
78.37819 227.000
78.39813 233.000
78.41808 232.000
78.43803 241.000
78.45797 247.000
78.47792 259.000
78.49787 236.000
78.51781 222.000
78.53776 213.000
78.55771 235.000
78.57765 206.000
78.59760 225.000
78.61755 240.000
78.63750 241.000
78.65744 193.000
78.67739 227.000
78.69734 220.000
78.71728 209.000
78.73723 233.000
78.75718 244.000
78.77712 203.000
78.79707 206.000
78.81702 203.000
78.83697 180.000
78.85691 188.000
78.87686 200.000
78.89681 164.000
78.91675 211.000
78.93670 157.000
78.95665 169.000
78.97659 177.000
78.99654 175.000
79.01649 183.000
79.03643 190.000
79.05638 167.000
79.07633 155.000
79.09628 148.000
79.11622 182.000
79.13617 193.000
79.15612 175.000
79.17606 154.000
79.19601 165.000
79.21596 151.000
79.23590 153.000
79.25585 169.000
79.27580 183.000
79.29575 169.000
79.31569 174.000
79.33564 158.000
79.35559 164.000
79.37553 158.000
79.39548 179.000
79.41543 169.000
79.43537 148.000
79.45532 178.000
79.47527 173.000
79.49521 183.000
79.51516 161.000
79.53511 168.000
79.55506 147.000
79.57500 167.000
79.59495 150.000
79.61490 167.000
79.63484 161.000
79.65479 167.000
79.67474 141.000
79.69468 158.000
79.71463 158.000
79.73458 174.000
79.75453 148.000
79.77447 149.000
79.79442 153.000
79.81437 149.000
79.83431 154.000
79.85426 153.000
79.87421 148.000
79.89415 167.000
79.91410 147.000
79.93405 159.000
79.95399 142.000
79.97394 161.000
79.99389 183.000
80.01384 148.000
80.03378 181.000
80.05373 143.000
80.07368 169.000
80.09362 141.000
80.11357 158.000
80.13352 159.000
80.15346 151.000
80.17341 169.000
80.19336 155.000
80.21331 158.000
80.23325 177.000
80.25320 176.000
80.27315 192.000
80.29309 175.000
80.31304 164.000
80.33299 179.000
80.35293 180.000
80.37288 160.000
80.39283 176.000
80.41278 183.000
80.43272 181.000
80.45267 172.000
80.47262 161.000
80.49256 178.000
80.51251 155.000
80.53246 183.000
80.55240 165.000
80.57235 157.000
80.59230 185.000
80.61224 173.000
80.63219 168.000
80.65214 168.000
80.67209 167.000
80.69203 170.000
80.71198 167.000
80.73193 171.000
80.75187 164.000
80.77182 158.000
80.79177 165.000
80.81171 152.000
80.83166 158.000
80.85161 178.000
80.87156 177.000
80.89150 147.000
80.91145 155.000
80.93140 168.000
80.95134 184.000
80.97129 145.000
80.99124 160.000
81.01118 168.000
81.03113 185.000
81.05108 171.000
81.07102 171.000
81.09097 163.000
81.11092 148.000
81.13087 183.000
81.15081 154.000
81.17076 152.000
81.19071 185.000
81.21065 154.000
81.23060 177.000
81.25055 162.000
81.27049 174.000
81.29044 134.000
81.31039 158.000
81.33034 158.000
81.35028 140.000
81.37023 161.000
81.39018 178.000
81.41012 147.000
81.43007 150.000
81.45002 149.000
81.46996 173.000
81.48991 166.000
81.50986 148.000
81.52980 149.000
81.54975 164.000
81.56970 137.000
81.58965 158.000
81.60959 163.000
81.62954 150.000
81.64949 161.000
81.66943 161.000
81.68938 150.000
81.70933 157.000
81.72927 161.000
81.74922 168.000
81.76917 152.000
81.78912 145.000
81.80906 179.000
81.82901 158.000
81.84896 158.000
81.86890 161.000
81.88885 178.000
81.90880 147.000
81.92874 147.000
81.94869 148.000
81.96864 152.000
81.98859 180.000
82.00853 167.000
82.02848 146.000
82.04843 179.000
82.06837 144.000
82.08832 160.000
82.10827 156.000
82.12821 149.000
82.14816 144.000
82.16811 151.000
82.18805 152.000
82.20800 142.000
82.22795 156.000
82.24790 155.000
82.26784 147.000
82.28779 176.000
82.30774 156.000
82.32768 183.000
82.34763 163.000
82.36758 168.000
82.38752 177.000
82.40747 147.000
82.42742 168.000
82.44737 172.000
82.46731 177.000
82.48726 185.000
82.50721 161.000
82.52715 188.000
82.54710 187.000
82.56705 189.000
82.58699 189.000
82.60694 168.000
82.62689 161.000
82.64683 189.000
82.66678 192.000
82.68673 192.000
82.70668 190.000
82.72662 171.000
82.74657 180.000
82.76652 161.000
82.78646 176.000
82.80641 177.000
82.82636 189.000
82.84630 199.000
82.86625 178.000
82.88620 198.000
82.90615 184.000
82.92609 181.000
82.94604 178.000
82.96599 185.000
82.98593 196.000
83.00588 177.000
83.02583 181.000
83.04577 167.000
83.06572 205.000
83.08567 168.000
83.10561 166.000
83.12556 175.000
83.14551 181.000
83.16546 200.000
83.18540 188.000
83.20535 179.000
83.22530 176.000
83.24524 158.000
83.26519 183.000
83.28514 171.000
83.30508 187.000
83.32503 179.000
83.34498 177.000
83.36493 161.000
83.38487 191.000
83.40482 169.000
83.42477 172.000
83.44471 154.000
83.46466 175.000
83.48461 174.000
83.50455 184.000
83.52450 182.000
83.54445 172.000
83.56440 167.000
83.58434 167.000
83.60429 190.000
83.62424 174.000
83.64418 169.000
83.66413 174.000
83.68408 151.000
83.70402 183.000
83.72397 180.000
83.74392 162.000
83.76386 168.000
83.78381 170.000
83.80376 178.000
83.82371 185.000
83.84365 186.000
83.86360 175.000
83.88355 169.000
83.90349 170.000
83.92344 175.000
83.94339 180.000
83.96333 188.000
83.98328 175.000
84.00323 189.000
84.02318 167.000
84.04312 149.000
84.06307 183.000
84.08302 195.000
84.10296 155.000
84.12291 157.000
84.14286 166.000
84.16280 172.000
84.18275 172.000
84.20270 183.000
84.22264 165.000
84.24259 196.000
84.26254 157.000
84.28249 198.000
84.30243 175.000
84.32238 183.000
84.34233 189.000
84.36227 175.000
84.38222 155.000
84.40217 186.000
84.42211 178.000
84.44206 176.000
84.46201 162.000
84.48196 161.000
84.50190 186.000
84.52185 168.000
84.54180 173.000
84.56174 192.000
84.58169 179.000
84.60164 166.000
84.62158 173.000
84.64153 168.000
84.66148 188.000
84.68142 167.000
84.70137 173.000
84.72132 187.000
84.74127 166.000
84.76121 178.000
84.78116 180.000
84.80111 173.000
84.82105 177.000
84.84100 156.000
84.86095 181.000
84.88089 181.000
84.90084 152.000
84.92079 172.000
84.94074 152.000
84.96068 153.000
84.98063 189.000
85.00058 154.000
85.02052 188.000
85.04047 146.000
85.06042 165.000
85.08036 162.000
85.10031 158.000
85.12026 163.000
85.14021 158.000
85.16015 141.000
85.18010 178.000
85.20005 136.000
85.21999 167.000
85.23994 173.000
85.25989 172.000
85.27983 130.000
85.29978 144.000
85.31973 150.000
85.33967 176.000
85.35962 167.000
85.37957 156.000
85.39952 175.000
85.41946 164.000
85.43941 149.000
85.45936 149.000
85.47930 185.000
85.49925 165.000
85.51920 162.000
85.53914 168.000
85.55909 138.000
85.57904 151.000
85.59899 157.000
85.61893 155.000
85.63888 186.000
85.65883 173.000
85.67877 149.000
85.69872 156.000
85.71867 157.000
85.73861 153.000
85.75856 158.000
85.77851 138.000
85.79845 154.000
85.81840 167.000
85.83835 172.000
85.85830 135.000
85.87824 163.000
85.89819 164.000
85.91814 165.000
85.93808 142.000
85.95803 153.000
85.97798 182.000
85.99792 177.000
86.01787 151.000
86.03782 159.000
86.05777 159.000
86.07771 183.000
86.09766 174.000
86.11761 154.000
86.13755 150.000
86.15750 137.000
86.17745 174.000
86.19739 155.000
86.21734 170.000
86.23729 166.000
86.25723 156.000
86.27718 163.000
86.29713 147.000
86.31708 154.000
86.33702 176.000
86.35697 175.000
86.37692 159.000
86.39686 173.000
86.41681 146.000
86.43676 179.000
86.45670 189.000
86.47665 175.000
86.49660 182.000
86.51655 185.000
86.53649 169.000
86.55644 164.000
86.57639 165.000
86.59633 164.000
86.61628 188.000
86.63623 215.000
86.65617 183.000
86.67612 176.000
86.69607 164.000
86.71602 187.000
86.73596 178.000
86.75591 187.000
86.77586 184.000
86.79580 180.000
86.81575 194.000
86.83570 216.000
86.85564 195.000
86.87559 166.000
86.89554 200.000
86.91548 186.000
86.93543 187.000
86.95538 193.000
86.97533 177.000
86.99527 192.000
87.01522 198.000
87.03517 217.000
87.05511 189.000
87.07506 195.000
87.09501 185.000
87.11495 173.000
87.13490 205.000
87.15485 192.000
87.17480 176.000
87.19474 186.000
87.21469 189.000
87.23464 182.000
87.25458 185.000
87.27453 178.000
87.29448 169.000
87.31442 202.000
87.33437 159.000
87.35432 174.000
87.37426 185.000
87.39421 157.000
87.41416 167.000
87.43411 164.000
87.45405 162.000
87.47400 156.000
87.49395 187.000
87.51389 161.000
87.53384 154.000
87.55379 163.000
87.57373 150.000
87.59368 174.000
87.61363 145.000
87.63358 158.000
87.65352 164.000
87.67347 140.000
87.69342 150.000
87.71336 178.000
87.73331 168.000
87.75326 171.000
87.77320 162.000
87.79315 139.000
87.81310 170.000
87.83304 148.000
87.85299 179.000
87.87294 152.000
87.89289 157.000
87.91283 177.000
87.93278 166.000
87.95273 134.000
87.97267 150.000
87.99262 151.000
88.01257 174.000
88.03251 176.000
88.05246 165.000
88.07241 155.000
88.09236 181.000
88.11230 146.000
88.13225 158.000
88.15220 173.000
88.17214 161.000
88.19209 152.000
88.21204 158.000
88.23198 152.000
88.25193 174.000
88.27188 172.000
88.29183 154.000
88.31177 144.000
88.33172 142.000
88.35167 150.000
88.37161 170.000
88.39156 155.000
88.41151 154.000
88.43145 143.000
88.45140 157.000
88.47135 180.000
88.49129 175.000
88.51124 165.000
88.53119 162.000
88.55114 160.000
88.57108 170.000
88.59103 166.000
88.61098 166.000
88.63092 148.000
88.65087 143.000
88.67082 160.000
88.69076 153.000
88.71071 139.000
88.73066 149.000
88.75061 164.000
88.77055 155.000
88.79050 152.000
88.81045 170.000
88.83039 152.000
88.85034 187.000
88.87029 181.000
88.89023 170.000
88.91018 146.000
88.93013 142.000
88.95007 179.000
88.97002 137.000
88.98997 183.000
89.00992 179.000
89.02986 155.000
89.04981 158.000
89.06976 161.000
89.08970 187.000
89.10965 159.000
89.12960 157.000
89.14954 173.000
89.16949 175.000
89.18944 172.000
89.20939 172.000
89.22933 186.000
89.24928 162.000
89.26923 153.000
89.28917 165.000
89.30912 167.000
89.32907 170.000
89.34901 158.000
89.36896 163.000
89.38891 146.000
89.40885 151.000
89.42880 162.000
89.44875 192.000
89.46870 172.000
89.48864 154.000
89.50859 170.000
89.52854 154.000
89.54848 178.000
89.56843 178.000
89.58838 176.000
89.60832 190.000
89.62827 171.000
89.64822 161.000
89.66817 177.000
89.68811 169.000
89.70806 143.000
89.72801 181.000
89.74795 192.000
89.76790 162.000
89.78785 136.000
89.80779 174.000
89.82774 179.000
89.84769 170.000
89.86764 200.000
89.88758 170.000
89.90753 166.000
89.92748 176.000
89.94742 190.000
89.96737 171.000
89.98732 176.000
90.00726 188.000
