10.00000 391.000
10.01995 364.000
10.03989 371.000
10.05984 373.000
10.07979 365.000
10.09973 354.000
10.11968 360.000
10.13963 364.000
10.15958 384.000
10.17952 373.000
10.19947 369.000
10.21942 388.000
10.23936 368.000
10.25931 356.000
10.27926 380.000
10.29920 352.000
10.31915 365.000
10.33910 378.000
10.35905 358.000
10.37899 314.000
10.39894 383.000
10.41889 328.000
10.43883 365.000
10.45878 390.000
10.47873 370.000
10.49867 347.000
10.51862 330.000
10.53857 382.000
10.55851 404.000
10.57846 380.000
10.59841 402.000
10.61836 342.000
10.63830 364.000
10.65825 325.000
10.67820 372.000
10.69814 387.000
10.71809 361.000
10.73804 340.000
10.75798 353.000
10.77793 364.000
10.79788 377.000
10.81783 376.000
10.83777 410.000
10.85772 390.000
10.87767 348.000
10.89761 424.000
10.91756 390.000
10.93751 336.000
10.95745 355.000
10.97740 360.000
10.99735 312.000
11.01730 373.000
11.03724 355.000
11.05719 345.000
11.07714 360.000
11.09708 359.000
11.11703 405.000
11.13698 383.000
11.15692 355.000
11.17687 362.000
11.19682 391.000
11.21676 378.000
11.23671 353.000
11.25666 368.000
11.27661 344.000
11.29655 375.000
11.31650 388.000
11.33645 393.000
11.35639 365.000
11.37634 353.000
11.39629 358.000
11.41623 381.000
11.43618 358.000
11.45613 372.000
11.47608 374.000
11.49602 358.000
11.51597 375.000
11.53592 381.000
11.55586 374.000
11.57581 326.000
11.59576 314.000
11.61570 361.000
11.63565 380.000
11.65560 387.000
11.67554 358.000
11.69549 382.000
11.71544 368.000
11.73539 381.000
11.75533 378.000
11.77528 355.000
11.79523 392.000
11.81517 341.000
11.83512 349.000
11.85507 342.000
11.87501 381.000
11.89496 391.000
11.91491 345.000
11.93486 379.000
11.95480 397.000
11.97475 363.000
11.99470 397.000
12.01464 377.000
12.03459 351.000
12.05454 388.000
12.07448 342.000
12.09443 355.000
12.11438 386.000
12.13432 334.000
12.15427 384.000
12.17422 389.000
12.19417 376.000
12.21411 372.000
12.23406 363.000
12.25401 366.000
12.27395 343.000
12.29390 368.000
12.31385 372.000
12.33379 402.000
12.35374 409.000
12.37369 345.000
12.39364 417.000
12.41358 347.000
12.43353 377.000
12.45348 374.000
12.47342 387.000
12.49337 378.000
12.51332 379.000
12.53326 362.000
12.55321 383.000
12.57316 388.000
12.59311 353.000
12.61305 376.000
12.63300 361.000
12.65295 371.000
12.67289 374.000
12.69284 327.000
12.71279 392.000
12.73273 360.000
12.75268 372.000
12.77263 372.000
12.79257 361.000
12.81252 357.000
12.83247 394.000
12.85242 413.000
12.87236 334.000
12.89231 362.000
12.91226 353.000
12.93220 360.000
12.95215 369.000
12.97210 332.000
12.99204 399.000
13.01199 356.000
13.03194 406.000
13.05189 407.000
13.07183 382.000
13.09178 349.000
13.11173 375.000
13.13167 383.000
13.15162 355.000
13.17157 358.000
13.19151 378.000
13.21146 381.000
13.23141 352.000
13.25135 396.000
13.27130 374.000
13.29125 400.000
13.31120 351.000
13.33114 352.000
13.35109 374.000
13.37104 376.000
13.39098 410.000
13.41093 359.000
13.43088 384.000
13.45082 360.000
13.47077 346.000
13.49072 386.000
13.51067 373.000
13.53061 388.000
13.55056 375.000
13.57051 395.000
13.59045 405.000
13.61040 343.000
13.63035 406.000
13.65029 362.000
13.67024 409.000
13.69019 364.000
13.71013 403.000
13.73008 356.000
13.75003 336.000
13.76998 391.000
13.78992 358.000
13.80987 368.000
13.82982 367.000
13.84976 400.000
13.86971 333.000
13.88966 358.000
13.90960 356.000
13.92955 355.000
13.94950 360.000
13.96945 412.000
13.98939 361.000
14.00934 373.000
14.02929 384.000
14.04923 373.000
14.06918 351.000
14.08913 385.000
14.10907 405.000
14.12902 354.000
14.14897 378.000
14.16892 401.000
14.18886 395.000
14.20881 362.000
14.22876 354.000
14.24870 365.000
14.26865 374.000
14.28860 394.000
14.30854 373.000
14.32849 365.000
14.34844 380.000
14.36838 376.000
14.38833 386.000
14.40828 393.000
14.42823 393.000
14.44817 386.000
14.46812 368.000
14.48807 385.000
14.50801 354.000
14.52796 368.000
14.54791 386.000
14.56785 377.000
14.58780 365.000
14.60775 412.000
14.62770 385.000
14.64764 348.000
14.66759 371.000
14.68754 376.000
14.70748 375.000
14.72743 385.000
14.74738 399.000
14.76732 388.000
14.78727 359.000
14.80722 388.000
14.82716 383.000
14.84711 378.000
14.86706 360.000
14.88701 391.000
14.90695 379.000
14.92690 388.000
14.94685 381.000
14.96679 383.000
14.98674 390.000
15.00669 352.000
15.02663 377.000
15.04658 389.000
15.06653 405.000
15.08648 421.000
15.10642 415.000
15.12637 393.000
15.14632 422.000
15.16626 413.000
15.18621 432.000
15.20616 399.000
15.22610 414.000
15.24605 396.000
15.26600 417.000
15.28594 411.000
15.30589 388.000
15.32584 445.000
15.34579 438.000
15.36573 398.000
15.38568 440.000
15.40563 408.000
15.42557 437.000
15.44552 457.000
15.46547 476.000
15.48541 457.000
15.50536 434.000
15.52531 444.000
15.54526 463.000
15.56520 458.000
15.58515 450.000
15.60510 494.000
15.62504 514.000
15.64499 585.000
15.66494 636.000
15.68488 666.000
15.70483 942.000
15.72478 1069.000
15.74472 1597.000
15.76467 2132.000
15.78462 2966.000
15.80457 3585.000
15.82451 3658.000
15.84446 3086.000
15.86441 2457.000
15.88435 1788.000
15.90430 1311.000
15.92425 1115.000
15.94419 998.000
15.96414 1143.000
15.98409 1283.000
16.00404 1481.000
16.02398 1821.000
16.04393 2150.000
16.06388 2222.000
16.08382 2202.000
16.10377 2031.000
16.12372 1763.000
16.14366 1448.000
16.16361 1070.000
16.18356 778.000
16.20351 658.000
16.22345 599.000
16.24340 537.000
16.26335 458.000
16.28329 496.000
16.30324 463.000
16.32319 462.000
16.34313 465.000
16.36308 415.000
16.38303 435.000
16.40297 426.000
16.42292 441.000
16.44287 419.000
16.46282 424.000
16.48276 407.000
16.50271 401.000
16.52266 377.000
16.54260 412.000
16.56255 428.000
16.58250 396.000
16.60244 412.000
16.62239 432.000
16.64234 420.000
16.66229 414.000
16.68223 383.000
16.70218 382.000
16.72213 391.000
16.74207 406.000
16.76202 397.000
16.78197 454.000
16.80191 423.000
16.82186 446.000
16.84181 424.000
16.86175 449.000
16.88170 439.000
16.90165 425.000
16.92160 429.000
16.94154 398.000
16.96149 403.000
16.98144 417.000
17.00138 352.000
17.02133 406.000
17.04128 391.000
17.06122 395.000
17.08117 384.000
17.10112 372.000
17.12107 383.000
17.14101 399.000
17.16096 363.000
17.18091 369.000
17.20085 378.000
17.22080 364.000
17.24075 369.000
17.26069 349.000
17.28064 378.000
17.30059 378.000
17.32053 369.000
17.34048 398.000
17.36043 343.000
17.38038 355.000
17.40032 354.000
17.42027 339.000
17.44022 419.000
17.46016 403.000
17.48011 384.000
17.50006 361.000
17.52000 380.000
17.53995 374.000
17.55990 400.000
17.57985 365.000
17.59979 393.000
17.61974 402.000
17.63969 373.000
17.65963 393.000
17.67958 385.000
17.69953 371.000
17.71947 392.000
17.73942 373.000
17.75937 401.000
17.77932 375.000
17.79926 395.000
17.81921 331.000
17.83916 359.000
17.85910 373.000
17.87905 382.000
17.89900 397.000
17.91894 374.000
17.93889 349.000
17.95884 349.000
17.97878 362.000
17.99873 380.000
18.01868 386.000
18.03863 367.000
18.05857 371.000
18.07852 372.000
18.09847 349.000
18.11841 393.000
18.13836 341.000
18.15831 377.000
18.17825 409.000
18.19820 375.000
18.21815 386.000
18.23810 392.000
18.25804 412.000
18.27799 412.000
18.29794 386.000
18.31788 394.000
18.33783 400.000
18.35778 411.000
18.37772 373.000
18.39767 371.000
18.41762 366.000
18.43756 417.000
18.45751 360.000
18.47746 355.000
18.49741 393.000
18.51735 382.000
18.53730 340.000
18.55725 381.000
18.57719 367.000
18.59714 396.000
18.61709 361.000
18.63703 355.000
18.65698 367.000
18.67693 370.000
18.69688 384.000
18.71682 388.000
18.73677 342.000
18.75672 398.000
18.77666 372.000
18.79661 367.000
18.81656 370.000
18.83650 381.000
18.85645 416.000
18.87640 335.000
18.89634 383.000
18.91629 367.000
18.93624 381.000
18.95619 381.000
18.97613 362.000
18.99608 335.000
19.01603 397.000
19.03597 369.000
19.05592 386.000
19.07587 356.000
19.09581 370.000
19.11576 356.000
19.13571 354.000
19.15566 377.000
19.17560 368.000
19.19555 367.000
19.21550 391.000
19.23544 360.000
19.25539 324.000
19.27534 385.000
19.29528 368.000
19.31523 358.000
19.33518 368.000
19.35513 382.000
19.37507 370.000
19.39502 380.000
19.41497 411.000
19.43491 357.000
19.45486 402.000
19.47481 342.000
19.49475 382.000
19.51470 372.000
19.53465 371.000
19.55459 360.000
19.57454 386.000
19.59449 371.000
19.61444 381.000
19.63438 389.000
19.65433 395.000
19.67428 352.000
19.69422 373.000
19.71417 369.000
19.73412 393.000
19.75406 367.000
19.77401 360.000
19.79396 380.000
19.81391 414.000
19.83385 397.000
19.85380 390.000
19.87375 380.000
19.89369 395.000
19.91364 337.000
19.93359 390.000
19.95353 395.000
19.97348 398.000
19.99343 355.000
20.01337 360.000
20.03332 428.000
20.05327 340.000
20.07322 403.000
20.09316 382.000
20.11311 372.000
20.13306 366.000
20.15300 364.000
20.17295 408.000
20.19290 332.000
20.21284 383.000
20.23279 320.000
20.25274 400.000
20.27269 380.000
20.29263 382.000
20.31258 363.000
20.33253 389.000
20.35247 365.000
20.37242 413.000
20.39237 359.000
20.41231 394.000
20.43226 372.000
20.45221 392.000
20.47215 374.000
20.49210 374.000
20.51205 386.000
20.53200 400.000
20.55194 391.000
20.57189 417.000
20.59184 402.000
20.61178 411.000
20.63173 379.000
20.65168 408.000
20.67162 398.000
20.69157 428.000
20.71152 428.000
20.73147 387.000
20.75141 421.000
20.77136 433.000
20.79131 424.000
20.81125 531.000
20.83120 565.000
20.85115 582.000
20.87109 646.000
20.89104 646.000
20.91099 662.000
20.93094 607.000
20.95088 609.000
20.97083 569.000
20.99078 560.000
21.01072 524.000
21.03067 518.000
21.05062 470.000
21.07056 475.000
21.09051 443.000
21.11046 404.000
21.13040 405.000
21.15035 408.000
21.17030 430.000
21.19025 405.000
21.21019 356.000
21.23014 359.000
21.25009 397.000
21.27003 398.000
21.28998 393.000
21.30993 425.000
21.32987 389.000
21.34982 390.000
21.36977 368.000
21.38972 388.000
21.40966 375.000
21.42961 417.000
21.44956 339.000
21.46950 394.000
21.48945 371.000
21.50940 383.000
21.52934 367.000
21.54929 397.000
21.56924 370.000
21.58918 400.000
21.60913 408.000
21.62908 368.000
21.64903 348.000
21.66897 357.000
21.68892 381.000
21.70887 374.000
21.72881 358.000
21.74876 401.000
21.76871 380.000
21.78865 388.000
21.80860 405.000
21.82855 350.000
21.84850 369.000
21.86844 412.000
21.88839 406.000
21.90834 379.000
21.92828 354.000
21.94823 387.000
21.96818 341.000
21.98812 375.000
22.00807 368.000
22.02802 387.000
22.04796 387.000
22.06791 372.000
22.08786 345.000
22.10781 385.000
22.12775 392.000
22.14770 370.000
22.16765 363.000
22.18759 363.000
22.20754 376.000
22.22749 399.000
22.24743 407.000
22.26738 368.000
22.28733 355.000
22.30728 384.000
22.32722 389.000
22.34717 392.000
22.36712 416.000
22.38706 377.000
22.40701 403.000
22.42696 389.000
22.44690 415.000
22.46685 373.000
22.48680 356.000
22.50675 383.000
22.52669 385.000
22.54664 347.000
22.56659 384.000
22.58653 369.000
22.60648 359.000
22.62643 388.000
22.64637 386.000
22.66632 368.000
22.68627 384.000
22.70621 382.000
22.72616 366.000
22.74611 367.000
22.76606 364.000
22.78600 369.000
22.80595 396.000
22.82590 372.000
22.84584 412.000
22.86579 391.000
22.88574 370.000
22.90568 401.000
22.92563 360.000
22.94558 388.000
22.96553 398.000
22.98547 382.000
23.00542 379.000
23.02537 393.000
23.04531 423.000
23.06526 379.000
23.08521 391.000
23.10515 351.000
23.12510 372.000
23.14505 390.000
23.16499 381.000
23.18494 358.000
23.20489 375.000
23.22484 391.000
23.24478 380.000
23.26473 390.000
23.28468 340.000
23.30462 397.000
23.32457 377.000
23.34452 368.000
23.36446 393.000
23.38441 373.000
23.40436 371.000
23.42431 396.000
23.44425 375.000
23.46420 374.000
23.48415 374.000
23.50409 376.000
23.52404 380.000
23.54399 413.000
23.56393 380.000
23.58388 363.000
23.60383 403.000
23.62377 399.000
23.64372 400.000
23.66367 373.000
23.68362 381.000
23.70356 365.000
23.72351 368.000
23.74346 416.000
23.76340 356.000
23.78335 339.000
23.80330 367.000
23.82324 370.000
23.84319 395.000
23.86314 365.000
23.88309 352.000
23.90303 407.000
23.92298 387.000
23.94293 388.000
23.96287 351.000
23.98282 373.000
24.00277 387.000
24.02271 358.000
24.04266 376.000
24.06261 363.000
24.08256 346.000
24.10250 373.000
24.12245 389.000
24.14240 401.000
24.16234 393.000
24.18229 411.000
24.20224 359.000
24.22218 387.000
24.24213 362.000
24.26208 362.000
24.28202 379.000
24.30197 413.000
24.32192 377.000
24.34187 383.000
24.36181 395.000
24.38176 385.000
24.40171 406.000
24.42165 404.000
24.44160 372.000
24.46155 404.000
24.48149 376.000
24.50144 397.000
24.52139 349.000
24.54134 401.000
24.56128 350.000
24.58123 376.000
24.60118 373.000
24.62112 396.000
24.64107 378.000
24.66102 377.000
24.68096 414.000
24.70091 407.000
24.72086 417.000
24.74080 431.000
24.76075 392.000
24.78070 403.000
24.80065 399.000
24.82059 390.000
24.84054 377.000
24.86049 358.000
24.88043 386.000
24.90038 390.000
24.92033 399.000
24.94027 458.000
24.96022 400.000
24.98017 432.000
25.00012 440.000
25.02006 404.000
25.04001 419.000
25.05996 421.000
25.07990 423.000
25.09985 410.000
25.11980 412.000
25.13974 395.000
25.15969 374.000
25.17964 395.000
25.19958 392.000
25.21953 399.000
25.23948 376.000
25.25943 446.000
25.27937 435.000
25.29932 399.000
25.31927 380.000
25.33921 370.000
25.35916 384.000
25.37911 363.000
25.39905 364.000
25.41900 413.000
25.43895 378.000
25.45890 400.000
25.47884 362.000
25.49879 422.000
25.51874 347.000
25.53868 395.000
25.55863 351.000
25.57858 379.000
25.59852 415.000
25.61847 412.000
25.63842 368.000
25.65837 372.000
25.67831 370.000
25.69826 378.000
25.71821 369.000
25.73815 400.000
25.75810 401.000
25.77805 384.000
25.79799 334.000
25.81794 371.000
25.83789 357.000
25.85783 398.000
25.87778 352.000
25.89773 390.000
25.91768 415.000
25.93762 350.000
25.95757 394.000
25.97752 380.000
25.99746 392.000
26.01741 426.000
26.03736 399.000
26.05730 392.000
26.07725 410.000
26.09720 399.000
26.11715 384.000
26.13709 375.000
26.15704 378.000
26.17699 395.000
26.19693 404.000
26.21688 394.000
26.23683 385.000
26.25677 394.000
26.27672 397.000
26.29667 371.000
26.31661 427.000
26.33656 380.000
26.35651 404.000
26.37646 401.000
26.39640 412.000
26.41635 347.000
26.43630 354.000
26.45624 416.000
26.47619 368.000
26.49614 378.000
26.51608 365.000
26.53603 393.000
26.55598 402.000
26.57593 382.000
26.59587 414.000
26.61582 398.000
26.63577 385.000
26.65571 361.000
26.67566 425.000
26.69561 399.000
26.71555 376.000
26.73550 403.000
26.75545 386.000
26.77539 408.000
26.79534 394.000
26.81529 363.000
26.83524 416.000
26.85518 384.000
26.87513 379.000
26.89508 374.000
26.91502 356.000
26.93497 396.000
26.95492 367.000
26.97486 380.000
26.99481 395.000
27.01476 424.000
27.03471 391.000
27.05465 417.000
27.07460 412.000
27.09455 416.000
27.11449 401.000
27.13444 352.000
27.15439 422.000
27.17433 443.000
27.19428 407.000
27.21423 402.000
27.23417 411.000
27.25412 370.000
27.27407 380.000
27.29402 355.000
27.31396 393.000
27.33391 381.000
27.35386 437.000
27.37380 359.000
27.39375 349.000
27.41370 373.000
27.43364 385.000
27.45359 371.000
27.47354 415.000
27.49349 398.000
27.51343 400.000
27.53338 370.000
27.55333 392.000
27.57327 376.000
27.59322 374.000
27.61317 386.000
27.63311 392.000
27.65306 388.000
27.67301 382.000
27.69296 411.000
27.71290 398.000
27.73285 422.000
27.75280 419.000
27.77274 399.000
27.79269 432.000
27.81264 385.000
27.83258 398.000
27.85253 394.000
27.87248 394.000
27.89242 387.000
27.91237 389.000
27.93232 428.000
27.95227 383.000
27.97221 410.000
27.99216 383.000
28.01211 419.000
28.03205 391.000
28.05200 406.000
28.07195 397.000
28.09189 399.000
28.11184 410.000
28.13179 406.000
28.15174 385.000
28.17168 390.000
28.19163 367.000
28.21158 373.000
28.23152 389.000
28.25147 384.000
28.27142 369.000
28.29136 394.000
28.31131 374.000
28.33126 399.000
28.35120 386.000
28.37115 380.000
28.39110 403.000
28.41105 393.000
28.43099 394.000
28.45094 395.000
28.47089 410.000
28.49083 389.000
28.51078 412.000
28.53073 382.000
28.55067 406.000
28.57062 375.000
28.59057 378.000
28.61052 388.000
28.63046 418.000
28.65041 380.000
28.67036 388.000
28.69030 398.000
28.71025 427.000
28.73020 438.000
28.75014 388.000
28.77009 375.000
28.79004 361.000
28.80998 398.000
28.82993 428.000
28.84988 378.000
28.86983 392.000
28.88977 425.000
28.90972 425.000
28.92967 384.000
28.94961 386.000
28.96956 404.000
28.98951 429.000
29.00945 396.000
29.02940 406.000
29.04935 411.000
29.06930 394.000
29.08924 374.000
29.10919 413.000
29.12914 422.000
29.14908 412.000
29.16903 412.000
29.18898 378.000
29.20892 388.000
29.22887 411.000
29.24882 413.000
29.26877 447.000
29.28871 409.000
29.30866 509.000
29.32861 470.000
29.34855 451.000
29.36850 513.000
29.38845 513.000
29.40839 537.000
29.42834 566.000
29.44829 537.000
29.46823 511.000
29.48818 504.000
29.50813 472.000
29.52808 477.000
29.54802 477.000
29.56797 484.000
29.58792 450.000
29.60786 408.000
29.62781 421.000
29.64776 404.000
29.66770 405.000
29.68765 407.000
29.70760 383.000
29.72755 432.000
29.74749 396.000
29.76744 415.000
29.78739 385.000
29.80733 495.000
29.82728 396.000
29.84723 389.000
29.86717 387.000
29.88712 383.000
29.90707 432.000
29.92701 403.000
29.94696 424.000
29.96691 420.000
29.98686 400.000
30.00680 451.000
30.02675 411.000
30.04670 384.000
30.06664 430.000
30.08659 441.000
30.10654 448.000
30.12648 431.000
30.14643 447.000
30.16638 416.000
30.18633 445.000
30.20627 415.000
30.22622 413.000
30.24617 428.000
30.26611 416.000
30.28606 408.000
30.30601 424.000
30.32595 403.000
30.34590 424.000
30.36585 403.000
30.38579 411.000
30.40574 423.000
30.42569 405.000
30.44564 386.000
30.46558 378.000
30.48553 421.000
30.50548 417.000
30.52542 371.000
30.54537 402.000
30.56532 420.000
30.58526 447.000
30.60521 407.000
30.62516 382.000
30.64511 387.000
30.66505 383.000
30.68500 415.000
30.70495 440.000
30.72489 378.000
30.74484 418.000
30.76479 374.000
30.78473 406.000
30.80468 424.000
30.82463 399.000
30.84458 428.000
30.86452 430.000
30.88447 435.000
30.90442 411.000
30.92436 409.000
30.94431 448.000
30.96426 437.000
30.98420 381.000
31.00415 374.000
31.02410 382.000
31.04404 424.000
31.06399 409.000
31.08394 419.000
31.10389 419.000
31.12383 396.000
31.14378 381.000
31.16373 420.000
31.18367 413.000
31.20362 438.000
31.22357 385.000
31.24351 448.000
31.26346 417.000
31.28341 409.000
31.30336 407.000
31.32330 422.000
31.34325 417.000
31.36320 406.000
31.38314 427.000
31.40309 366.000
31.42304 419.000
31.44298 383.000
31.46293 387.000
31.48288 390.000
31.50282 425.000
31.52277 420.000
31.54272 391.000
31.56267 417.000
31.58261 414.000
31.60256 376.000
31.62251 411.000
31.64245 416.000
31.66240 422.000
31.68235 406.000
31.70229 420.000
31.72224 380.000
31.74219 414.000
31.76214 416.000
31.78208 409.000
31.80203 465.000
31.82198 484.000
31.84192 521.000
31.86187 577.000
31.88182 569.000
31.90176 583.000
31.92171 601.000
31.94166 626.000
31.96160 575.000
31.98155 585.000
32.00150 567.000
32.02145 526.000
32.04139 495.000
32.06134 484.000
32.08129 446.000
32.10123 457.000
32.12118 457.000
32.14113 447.000
32.16107 436.000
32.18102 449.000
32.20097 453.000
32.22092 426.000
32.24086 467.000
32.26081 449.000
32.28076 431.000
32.30070 484.000
32.32065 490.000
32.34060 514.000
32.36054 504.000
32.38049 540.000
32.40044 536.000
32.42039 585.000
32.44033 643.000
32.46028 637.000
32.48023 673.000
32.50017 707.000
32.52012 830.000
32.54007 856.000
32.56001 970.000
32.57996 826.000
32.59991 732.000
32.61985 710.000
32.63980 638.000
32.65975 574.000
32.67970 527.000
32.69964 468.000
32.71959 458.000
32.73954 488.000
32.75948 410.000
32.77943 445.000
32.79938 451.000
32.81932 430.000
32.83927 437.000
32.85922 415.000
32.87917 447.000
32.89911 383.000
32.91906 398.000
32.93901 409.000
32.95895 384.000
32.97890 381.000
32.99885 413.000
33.01879 391.000
33.03874 407.000
33.05869 400.000
33.07863 404.000
33.09858 435.000
33.11853 447.000
33.13848 393.000
33.15842 442.000
33.17837 387.000
33.19832 425.000
33.21826 374.000
33.23821 397.000
33.25816 425.000
33.27810 397.000
33.29805 399.000
33.31800 431.000
33.33795 415.000
33.35789 421.000
33.37784 433.000
33.39779 424.000
33.41773 428.000
33.43768 417.000
33.45763 363.000
33.47757 406.000
33.49752 446.000
33.51747 420.000
33.53741 395.000
33.55736 409.000
33.57731 404.000
33.59726 419.000
33.61720 392.000
33.63715 430.000
33.65710 385.000
33.67704 405.000
33.69699 435.000
33.71694 408.000
33.73688 457.000
33.75683 420.000
33.77678 414.000
33.79673 428.000
33.81667 438.000
33.83662 443.000
33.85657 405.000
33.87651 446.000
33.89646 409.000
33.91641 437.000
33.93635 440.000
33.95630 404.000
33.97625 417.000
33.99620 477.000
34.01614 471.000
34.03609 450.000
34.05604 451.000
34.07598 392.000
34.09593 436.000
34.11588 431.000
34.13582 444.000
34.15577 459.000
34.17572 472.000
34.19566 478.000
34.21561 494.000
34.23556 519.000
34.25551 515.000
34.27545 602.000
34.29540 578.000
34.31535 659.000
34.33529 624.000
34.35524 676.000
34.37519 719.000
34.39513 702.000
34.41508 762.000
34.43503 745.000
34.45498 768.000
34.47492 734.000
34.49487 780.000
34.51482 702.000
34.53476 714.000
34.55471 633.000
34.57466 679.000
34.59460 620.000
34.61455 578.000
34.63450 560.000
34.65444 570.000
34.67439 553.000
34.69434 538.000
34.71429 557.000
34.73423 511.000
34.75418 523.000
34.77413 531.000
34.79407 528.000
34.81402 572.000
34.83397 507.000
34.85391 555.000
34.87386 541.000
34.89381 517.000
34.91376 525.000
34.93370 536.000
34.95365 543.000
34.97360 560.000
34.99354 469.000
35.01349 526.000
35.03344 510.000
35.05338 501.000
35.07333 539.000
35.09328 518.000
35.11322 513.000
35.13317 511.000
35.15312 538.000
35.17307 565.000
35.19301 568.000
35.21296 596.000
35.23291 593.000
35.25285 623.000
35.27280 664.000
35.29275 773.000
35.31269 746.000
35.33264 806.000
35.35259 922.000
35.37254 1016.000
35.39248 1155.000
35.41243 1458.000
35.43238 1822.000
35.45232 2300.000
35.47227 2732.000
35.49222 2784.000
35.51216 2921.000
35.53211 3606.000
35.55206 4486.000
35.57201 4880.000
35.59195 4158.000
35.61190 3555.000
35.63185 3147.000
35.65179 3084.000
35.67174 2800.000
35.69169 2189.000
35.71163 1699.000
35.73158 1401.000
35.75153 1089.000
35.77147 1032.000
35.79142 912.000
35.81137 761.000
35.83132 737.000
35.85126 671.000
35.87121 713.000
35.89116 642.000
35.91110 631.000
35.93105 606.000
35.95100 608.000
35.97094 546.000
35.99089 569.000
36.01084 512.000
36.03079 532.000
36.05073 533.000
36.07068 549.000
36.09063 532.000
36.11057 483.000
36.13052 519.000
36.15047 506.000
36.17041 503.000
36.19036 516.000
36.21031 494.000
36.23025 479.000
36.25020 475.000
36.27015 472.000
36.29010 496.000
36.31004 468.000
36.32999 473.000
36.34994 482.000
36.36988 456.000
36.38983 446.000
36.40978 461.000
36.42972 436.000
36.44967 464.000
36.46962 446.000
36.48957 460.000
36.50951 460.000
36.52946 475.000
36.54941 474.000
36.56935 489.000
36.58930 488.000
36.60925 454.000
36.62919 468.000
36.64914 486.000
36.66909 486.000
36.68903 504.000
36.70898 512.000
36.72893 584.000
36.74888 517.000
36.76882 496.000
36.78877 591.000
36.80872 601.000
36.82866 598.000
36.84861 653.000
36.86856 691.000
36.88850 689.000
36.90845 668.000
36.92840 637.000
36.94835 636.000
36.96829 650.000
36.98824 617.000
37.00819 644.000
37.02813 611.000
37.04808 657.000
37.06803 622.000
37.08797 628.000
37.10792 602.000
37.12787 627.000
37.14781 636.000
37.16776 626.000
37.18771 568.000
37.20766 597.000
37.22760 613.000
37.24755 586.000
37.26750 551.000
37.28744 559.000
37.30739 504.000
37.32734 522.000
37.34728 484.000
37.36723 500.000
37.38718 515.000
37.40713 443.000
37.42707 461.000
37.44702 502.000
37.46697 455.000
37.48691 455.000
37.50686 436.000
37.52681 436.000
37.54675 436.000
37.56670 441.000
37.58665 423.000
37.60660 400.000
37.62654 452.000
37.64649 450.000
37.66644 447.000
37.68638 468.000
37.70633 438.000
37.72628 449.000
37.74622 436.000
37.76617 463.000
37.78612 463.000
37.80606 473.000
37.82601 449.000
37.84596 459.000
37.86591 494.000
37.88585 430.000
37.90580 453.000
37.92575 473.000
37.94569 485.000
37.96564 448.000
37.98559 461.000
38.00553 488.000
38.02548 473.000
38.04543 473.000
38.06538 475.000
38.08532 475.000
38.10527 504.000
38.12522 468.000
38.14516 462.000
38.16511 509.000
38.18506 536.000
38.20500 513.000
38.22495 499.000
38.24490 512.000
38.26484 497.000
38.28479 516.000
38.30474 517.000
38.32469 489.000
38.34463 556.000
38.36458 551.000
38.38453 560.000
38.40447 586.000
38.42442 579.000
38.44437 599.000
38.46431 632.000
38.48426 633.000
38.50421 709.000
38.52416 709.000
38.54410 756.000
38.56405 889.000
38.58400 916.000
38.60394 1011.000
38.62389 1083.000
38.64384 1283.000
38.66378 1609.000
38.68373 1893.000
38.70368 2452.000
38.72362 3034.000
38.74357 3669.000
38.76352 4287.000
38.78347 4070.000
38.80341 3686.000
38.82336 3501.000
38.84331 3357.000
38.86325 3271.000
38.88320 3061.000
38.90315 2734.000
38.92309 2390.000
38.94304 2174.000
38.96299 1917.000
38.98294 1601.000
39.00288 1432.000
39.02283 1311.000
39.04278 1367.000
39.06272 1139.000
39.08267 1002.000
39.10262 918.000
39.12256 818.000
39.14251 779.000
39.16246 768.000
39.18241 745.000
39.20235 683.000
39.22230 727.000
39.24225 675.000
39.26219 664.000
39.28214 656.000
39.30209 621.000
39.32203 639.000
39.34198 621.000
39.36193 595.000
39.38187 538.000
39.40182 514.000
39.42177 562.000
39.44172 581.000
39.46166 531.000
39.48161 529.000
39.50156 511.000
39.52150 476.000
39.54145 475.000
39.56140 458.000
39.58134 441.000
39.60129 437.000
39.62124 468.000
39.64119 451.000
39.66113 492.000
39.68108 471.000
39.70103 445.000
39.72097 403.000
39.74092 485.000
39.76087 417.000
39.78081 438.000
39.80076 434.000
39.82071 441.000
39.84065 446.000
39.86060 405.000
39.88055 423.000
39.90050 401.000
39.92044 424.000
39.94039 397.000
39.96034 447.000
39.98028 458.000
40.00023 450.000
40.02018 422.000
40.04012 426.000
40.06007 418.000
40.08002 405.000
40.09997 421.000
40.11991 409.000
40.13986 427.000
40.15981 464.000
40.17975 465.000
40.19970 436.000
40.21965 445.000
40.23959 435.000
40.25954 421.000
40.27949 435.000
40.29943 442.000
40.31938 404.000
40.33933 433.000
40.35928 399.000
40.37922 396.000
40.39917 432.000
40.41912 418.000
40.43906 435.000
40.45901 399.000
40.47896 427.000
40.49890 405.000
40.51885 449.000
40.53880 422.000
40.55875 445.000
40.57869 425.000
40.59864 433.000
40.61859 431.000
40.63853 428.000
40.65848 427.000
40.67843 394.000
40.69837 408.000
40.71832 417.000
40.73827 405.000
40.75822 442.000
40.77816 433.000
40.79811 388.000
40.81806 443.000
40.83800 417.000
40.85795 451.000
40.87790 427.000
40.89784 461.000
40.91779 403.000
40.93774 413.000
40.95768 431.000
40.97763 459.000
40.99758 441.000
41.01753 440.000
41.03747 447.000
41.05742 459.000
41.07737 469.000
41.09731 430.000
41.11726 418.000
41.13721 419.000
41.15715 466.000
41.17710 438.000
41.19705 460.000
41.21700 466.000
41.23694 464.000
41.25689 480.000
41.27684 461.000
41.29678 456.000
41.31673 472.000
41.33668 512.000
41.35662 558.000
41.37657 536.000
41.39652 535.000
41.41646 599.000
41.43641 560.000
41.45636 642.000
41.47631 728.000
41.49625 784.000
41.51620 944.000
41.53615 1055.000
41.55609 1246.000
41.57604 1343.000
41.59599 1346.000
41.61593 1171.000
41.63588 1150.000
41.65583 1091.000
41.67578 1023.000
41.69572 1002.000
41.71567 921.000
41.73562 806.000
41.75556 694.000
41.77551 687.000
41.79546 599.000
41.81540 494.000
41.83535 520.000
41.85530 475.000
41.87524 480.000
41.89519 443.000
41.91514 491.000
41.93509 456.000
41.95503 436.000
41.97498 484.000
41.99493 430.000
42.01487 459.000
42.03482 476.000
42.05477 490.000
42.07471 447.000
42.09466 470.000
42.11461 438.000
42.13456 434.000
42.15450 423.000
42.17445 461.000
42.19440 395.000
42.21434 406.000
42.23429 388.000
42.25424 418.000
42.27418 422.000
42.29413 418.000
42.31408 425.000
42.33403 443.000
42.35397 420.000
42.37392 404.000
42.39387 407.000
42.41381 459.000
42.43376 428.000
42.45371 449.000
42.47365 417.000
42.49360 456.000
42.51355 431.000
42.53349 451.000
42.55344 474.000
42.57339 413.000
42.59334 440.000
42.61328 451.000
42.63323 424.000
42.65318 436.000
42.67312 403.000
42.69307 453.000
42.71302 456.000
42.73296 439.000
42.75291 436.000
42.77286 409.000
42.79281 381.000
42.81275 439.000
42.83270 458.000
42.85265 434.000
42.87259 402.000
42.89254 432.000
42.91249 435.000
42.93243 432.000
42.95238 382.000
42.97233 415.000
42.99227 424.000
43.01222 438.000
43.03217 426.000
43.05212 443.000
43.07206 445.000
43.09201 431.000
43.11196 441.000
43.13190 462.000
43.15185 494.000
43.17180 450.000
43.19174 430.000
43.21169 497.000
43.23164 511.000
43.25159 454.000
43.27153 459.000
43.29148 502.000
43.31143 455.000
43.33137 434.000
43.35132 482.000
43.37127 493.000
43.39121 495.000
43.41116 472.000
43.43111 485.000
43.45105 481.000
43.47100 427.000
43.49095 454.000
43.51090 471.000
43.53084 458.000
43.55079 455.000
43.57074 440.000
43.59068 450.000
43.61063 425.000
43.63058 453.000
43.65052 418.000
43.67047 413.000
43.69042 421.000
43.71037 433.000
43.73031 403.000
43.75026 424.000
43.77021 371.000
43.79015 396.000
43.81010 422.000
43.83005 478.000
43.84999 432.000
43.86994 414.000
43.88989 438.000
43.90984 420.000
43.92978 428.000
43.94973 399.000
43.96968 448.000
43.98962 392.000
44.00957 467.000
44.02952 428.000
44.04946 384.000
44.06941 425.000
44.08936 413.000
44.10930 439.000
44.12925 425.000
44.14920 394.000
44.16915 389.000
44.18909 447.000
44.20904 415.000
44.22899 431.000
44.24893 443.000
44.26888 425.000
44.28883 424.000
44.30877 441.000
44.32872 442.000
44.34867 398.000
44.36862 424.000
44.38856 458.000
44.40851 421.000
44.42846 438.000
44.44840 413.000
44.46835 398.000
44.48830 465.000
44.50824 444.000
44.52819 462.000
44.54814 452.000
44.56808 498.000
44.58803 448.000
44.60798 450.000
44.62793 439.000
44.64787 500.000
44.66782 455.000
44.68777 485.000
44.70771 495.000
44.72766 521.000
44.74761 532.000
44.76755 543.000
44.78750 506.000
44.80745 557.000
44.82740 580.000
44.84734 529.000
44.86729 583.000
44.88724 537.000
44.90718 539.000
44.92713 536.000
44.94708 497.000
44.96702 498.000
44.98697 523.000
45.00692 503.000
45.02686 501.000
45.04681 516.000
45.06676 490.000
45.08671 439.000
45.10665 449.000
45.12660 464.000
45.14655 464.000
45.16649 461.000
45.18644 438.000
45.20639 426.000
45.22633 406.000
45.24628 429.000
45.26623 401.000
45.28618 407.000
45.30612 408.000
45.32607 399.000
45.34602 430.000
45.36596 405.000
45.38591 420.000
45.40586 426.000
45.42580 401.000
45.44575 401.000
45.46570 381.000
45.48565 415.000
45.50559 396.000
45.52554 421.000
45.54549 430.000
45.56543 387.000
45.58538 412.000
45.60533 407.000
45.62527 424.000
45.64522 421.000
45.66517 390.000
45.68511 401.000
45.70506 390.000
45.72501 415.000
45.74496 379.000
45.76490 389.000
45.78485 387.000
45.80480 424.000
45.82474 398.000
45.84469 399.000
45.86464 377.000
45.88458 412.000
45.90453 387.000
45.92448 398.000
45.94443 385.000
45.96437 394.000
45.98432 415.000
46.00427 413.000
46.02421 383.000
46.04416 431.000
46.06411 420.000
46.08405 391.000
46.10400 406.000
46.12395 402.000
46.14389 437.000
46.16384 418.000
46.18379 404.000
46.20374 426.000
46.22368 412.000
46.24363 447.000
46.26358 496.000
46.28352 523.000
46.30347 468.000
46.32342 458.000
46.34336 456.000
46.36331 430.000
46.38326 468.000
46.40321 464.000
46.42315 461.000
46.44310 400.000
46.46305 438.000
46.48299 419.000
46.50294 379.000
46.52289 404.000
46.54283 391.000
46.56278 407.000
46.58273 434.000
46.60267 420.000
46.62262 406.000
46.64257 407.000
46.66252 388.000
46.68246 434.000
46.70241 422.000
46.72236 446.000
46.74230 408.000
46.76225 395.000
46.78220 409.000
46.80214 420.000
46.82209 418.000
46.84204 450.000
46.86199 392.000
46.88193 380.000
46.90188 386.000
46.92183 416.000
46.94177 456.000
46.96172 411.000
46.98167 407.000
47.00161 440.000
47.02156 433.000
47.04151 395.000
47.06146 425.000
47.08140 406.000
47.10135 390.000
47.12130 424.000
47.14124 406.000
47.16119 424.000
47.18114 419.000
47.20108 395.000
47.22103 385.000
47.24098 413.000
47.26092 381.000
47.28087 397.000
47.30082 383.000
47.32077 424.000
47.34071 456.000
47.36066 420.000
47.38061 378.000
47.40055 428.000
47.42050 437.000
47.44045 435.000
47.46039 404.000
47.48034 422.000
47.50029 361.000
47.52024 412.000
47.54018 396.000
47.56013 430.000
47.58008 412.000
47.60002 441.000
47.61997 422.000
47.63992 379.000
47.65986 413.000
47.67981 378.000
47.69976 431.000
47.71970 418.000
47.73965 425.000
47.75960 427.000
47.77955 403.000
47.79949 432.000
47.81944 432.000
47.83939 401.000
47.85933 424.000
47.87928 430.000
47.89923 406.000
47.91917 409.000
47.93912 446.000
47.95907 469.000
47.97902 409.000
47.99896 423.000
48.01891 436.000
48.03886 465.000
48.05880 437.000
48.07875 426.000
48.09870 456.000
48.11864 460.000
48.13859 453.000
48.15854 473.000
48.17848 473.000
48.19843 464.000
48.21838 459.000
48.23833 439.000
48.25827 464.000
48.27822 479.000
48.29817 481.000
48.31811 479.000
48.33806 487.000
48.35801 505.000
48.37795 488.000
48.39790 510.000
48.41785 578.000
48.43780 585.000
48.45774 560.000
48.47769 634.000
48.49764 625.000
48.51758 641.000
48.53753 671.000
48.55748 726.000
48.57742 771.000
48.59737 800.000
48.61732 868.000
48.63726 1016.000
48.65721 1180.000
48.67716 1312.000
48.69711 1489.000
48.71705 1512.000
48.73700 1417.000
48.75695 1252.000
48.77689 1265.000
48.79684 1208.000
48.81679 1063.000
48.83673 1119.000
48.85668 1025.000
48.87663 957.000
48.89658 807.000
48.91652 745.000
48.93647 626.000
48.95642 568.000
48.97636 570.000
48.99631 524.000
49.01626 501.000
49.03620 530.000
49.05615 485.000
49.07610 425.000
49.09605 482.000
49.11599 431.000
49.13594 473.000
49.15589 466.000
49.17583 427.000
49.19578 447.000
49.21573 426.000
49.23567 479.000
49.25562 465.000
49.27557 461.000
49.29551 436.000
49.31546 457.000
49.33541 447.000
49.35536 426.000
49.37530 453.000
49.39525 429.000
49.41520 463.000
49.43514 482.000
49.45509 420.000
49.47504 438.000
49.49498 458.000
49.51493 423.000
49.53488 477.000
49.55483 480.000
49.57477 482.000
49.59472 447.000
49.61467 414.000
49.63461 418.000
49.65456 443.000
49.67451 418.000
49.69445 405.000
49.71440 433.000
49.73435 404.000
49.75429 453.000
49.77424 425.000
49.79419 433.000
49.81414 424.000
49.83408 410.000
49.85403 431.000
49.87398 407.000
49.89392 410.000
49.91387 413.000
49.93382 423.000
49.95376 434.000
49.97371 399.000
49.99366 398.000
50.01361 446.000
50.03355 390.000
50.05350 401.000
50.07345 411.000
50.09339 429.000
50.11334 420.000
50.13329 421.000
50.15323 414.000
50.17318 434.000
50.19313 412.000
50.21307 434.000
50.23302 377.000
50.25297 400.000
50.27292 418.000
50.29286 408.000
50.31281 395.000
50.33276 400.000
50.35270 396.000
50.37265 421.000
50.39260 435.000
50.41254 408.000
50.43249 429.000
50.45244 416.000
50.47239 435.000
50.49233 421.000
50.51228 426.000
50.53223 394.000
50.55217 420.000
50.57212 416.000
50.59207 395.000
50.61201 411.000
50.63196 412.000
50.65191 402.000
50.67186 405.000
50.69180 417.000
50.71175 401.000
50.73170 385.000
50.75164 396.000
50.77159 398.000
50.79154 420.000
50.81148 389.000
50.83143 406.000
50.85138 402.000
50.87132 404.000
50.89127 410.000
50.91122 416.000
50.93117 383.000
50.95111 407.000
50.97106 411.000
50.99101 377.000
51.01095 419.000
51.03090 374.000
51.05085 397.000
51.07079 396.000
51.09074 385.000
51.11069 398.000
51.13064 400.000
51.15058 371.000
51.17053 435.000
51.19048 400.000
51.21042 411.000
51.23037 411.000
51.25032 387.000
51.27026 431.000
51.29021 474.000
51.31016 449.000
51.33010 480.000
51.35005 409.000
51.37000 445.000
51.38995 460.000
51.40989 431.000
51.42984 407.000
51.44979 430.000
51.46973 439.000
51.48968 446.000
51.50963 481.000
51.52957 436.000
51.54952 435.000
51.56947 470.000
51.58942 440.000
51.60936 411.000
51.62931 440.000
51.64926 424.000
51.66920 384.000
51.68915 424.000
51.70910 412.000
51.72904 426.000
51.74899 398.000
51.76894 415.000
51.78888 420.000
51.80883 380.000
51.82878 376.000
51.84873 416.000
51.86867 411.000
51.88862 393.000
51.90857 425.000
51.92851 421.000
51.94846 413.000
51.96841 418.000
51.98835 454.000
52.00830 429.000
52.02825 400.000
52.04820 440.000
52.06814 435.000
52.08809 430.000
52.10804 457.000
52.12798 412.000
52.14793 441.000
52.16788 476.000
52.18782 451.000
52.20777 490.000
52.22772 426.000
52.24767 431.000
52.26761 462.000
52.28756 426.000
52.30751 419.000
52.32745 469.000
52.34740 462.000
52.36735 433.000
52.38729 460.000
52.40724 431.000
52.42719 435.000
52.44713 460.000
52.46708 446.000
52.48703 496.000
52.50698 458.000
52.52692 442.000
52.54687 457.000
52.56682 464.000
52.58676 421.000
52.60671 446.000
52.62666 440.000
52.64660 434.000
52.66655 479.000
52.68650 491.000
52.70645 492.000
52.72639 545.000
52.74634 526.000
52.76629 566.000
52.78623 564.000
52.80618 566.000
52.82613 559.000
52.84607 565.000
52.86602 525.000
52.88597 524.000
52.90591 518.000
52.92586 490.000
52.94581 480.000
52.96576 488.000
52.98570 472.000
53.00565 491.000
53.02560 448.000
53.04554 469.000
53.06549 459.000
53.08544 414.000
53.10538 435.000
53.12533 437.000
53.14528 415.000
53.16523 411.000
53.18517 467.000
53.20512 446.000
53.22507 438.000
53.24501 455.000
53.26496 461.000
53.28491 405.000
53.30485 448.000
53.32480 424.000
53.34475 462.000
53.36469 455.000
53.38464 485.000
53.40459 480.000
53.42454 513.000
53.44448 523.000
53.46443 540.000
53.48438 627.000
53.50432 650.000
53.52427 644.000
53.54422 626.000
53.56416 708.000
53.58411 640.000
53.60406 646.000
53.62401 654.000
53.64395 587.000
53.66390 634.000
53.68385 561.000
53.70379 590.000
53.72374 583.000
53.74369 553.000
53.76363 534.000
53.78358 488.000
53.80353 450.000
53.82348 508.000
53.84342 498.000
53.86337 490.000
53.88332 472.000
53.90326 469.000
53.92321 433.000
53.94316 458.000
53.96310 416.000
53.98305 407.000
54.00300 428.000
54.02294 428.000
54.04289 403.000
54.06284 450.000
54.08279 396.000
54.10273 398.000
54.12268 438.000
54.14263 411.000
54.16257 450.000
54.18252 387.000
54.20247 407.000
54.22241 432.000
54.24236 375.000
54.26231 395.000
54.28226 408.000
54.30220 403.000
54.32215 411.000
54.34210 399.000
54.36204 396.000
54.38199 430.000
54.40194 407.000
54.42188 424.000
54.44183 393.000
54.46178 432.000
54.48172 422.000
54.50167 461.000
54.52162 394.000
54.54157 434.000
54.56151 418.000
54.58146 430.000
54.60141 392.000
54.62135 432.000
54.64130 416.000
54.66125 457.000
54.68119 432.000
54.70114 427.000
54.72109 413.000
54.74104 399.000
54.76098 413.000
54.78093 369.000
54.80088 415.000
54.82082 391.000
54.84077 405.000
54.86072 382.000
54.88066 410.000
54.90061 421.000
54.92056 389.000
54.94050 431.000
54.96045 375.000
54.98040 446.000
55.00035 383.000
55.02029 413.000
55.04024 414.000
55.06019 398.000
55.08013 427.000
55.10008 373.000
55.12003 436.000
55.13997 432.000
55.15992 386.000
55.17987 403.000
55.19982 389.000
55.21976 418.000
55.23971 411.000
55.25966 407.000
55.27960 401.000
55.29955 406.000
55.31950 411.000
55.33944 412.000
55.35939 410.000
55.37934 415.000
55.39929 434.000
55.41923 425.000
55.43918 379.000
55.45913 398.000
55.47907 384.000
55.49902 408.000
55.51897 390.000
55.53891 374.000
55.55886 387.000
55.57881 439.000
55.59875 393.000
55.61870 427.000
55.63865 386.000
55.65860 407.000
55.67854 447.000
55.69849 386.000
55.71844 429.000
55.73838 383.000
55.75833 433.000
55.77828 425.000
55.79822 381.000
55.81817 416.000
55.83812 421.000
55.85807 415.000
55.87801 397.000
55.89796 411.000
55.91791 428.000
55.93785 415.000
55.95780 401.000
55.97775 405.000
55.99769 398.000
56.01764 415.000
56.03759 417.000
56.05753 418.000
56.07748 382.000
56.09743 389.000
56.11738 417.000
56.13732 401.000
56.15727 418.000
56.17722 422.000
56.19716 420.000
56.21711 406.000
56.23706 427.000
56.25700 420.000
56.27695 362.000
56.29690 439.000
56.31685 417.000
56.33679 388.000
56.35674 374.000
56.37669 424.000
56.39663 417.000
56.41658 444.000
56.43653 418.000
56.45647 377.000
56.47642 423.000
56.49637 426.000
56.51631 424.000
56.53626 422.000
56.55621 429.000
56.57616 423.000
56.59610 411.000
56.61605 405.000
56.63600 421.000
56.65594 450.000
56.67589 464.000
56.69584 419.000
56.71578 444.000
56.73573 463.000
56.75568 423.000
56.77563 442.000
56.79557 446.000
56.81552 480.000
56.83547 433.000
56.85541 486.000
56.87536 464.000
56.89531 401.000
56.91525 453.000
56.93520 496.000
56.95515 434.000
56.97510 433.000
56.99504 457.000
57.01499 432.000
57.03494 456.000
57.05488 448.000
57.07483 473.000
57.09478 493.000
57.11472 473.000
57.13467 477.000
57.15462 439.000
57.17456 483.000
57.19451 523.000
57.21446 466.000
57.23441 475.000
57.25435 492.000
57.27430 537.000
57.29425 514.000
57.31419 536.000
57.33414 514.000
57.35409 532.000
57.37403 543.000
57.39398 541.000
57.41393 553.000
57.43388 521.000
57.45382 523.000
57.47377 507.000
57.49372 530.000
57.51366 500.000
57.53361 458.000
57.55356 502.000
57.57350 453.000
57.59345 493.000
57.61340 452.000
57.63334 465.000
57.65329 422.000
57.67324 441.000
57.69319 457.000
57.71313 455.000
57.73308 407.000
57.75303 397.000
57.77297 410.000
57.79292 428.000
57.81287 423.000
57.83281 423.000
57.85276 436.000
57.87271 402.000
57.89266 428.000
57.91260 422.000
57.93255 449.000
57.95250 433.000
57.97244 452.000
57.99239 444.000
58.01234 437.000
58.03228 475.000
58.05223 460.000
58.07218 441.000
58.09212 483.000
58.11207 507.000
58.13202 484.000
58.15197 471.000
58.17191 513.000
58.19186 591.000
58.21181 585.000
58.23175 567.000
58.25170 637.000
58.27165 720.000
58.29159 743.000
58.31154 782.000
58.33149 856.000
58.35144 829.000
58.37138 814.000
58.39133 741.000
58.41128 662.000
58.43122 637.000
58.45117 656.000
58.47112 652.000
58.49106 657.000
58.51101 667.000
58.53096 567.000
58.55090 518.000
58.57085 483.000
58.59080 539.000
58.61075 499.000
58.63069 491.000
58.65064 461.000
58.67059 445.000
58.69053 458.000
58.71048 447.000
58.73043 428.000
58.75037 455.000
58.77032 407.000
58.79027 410.000
58.81022 414.000
58.83016 427.000
58.85011 451.000
58.87006 444.000
58.89000 405.000
58.90995 422.000
58.92990 420.000
58.94984 414.000
58.96979 455.000
58.98974 439.000
59.00969 417.000
59.02963 419.000
59.04958 398.000
59.06953 427.000
59.08947 400.000
59.10942 421.000
59.12937 406.000
59.14931 395.000
59.16926 390.000
59.18921 425.000
59.20915 391.000
59.22910 413.000
59.24905 421.000
59.26900 377.000
59.28894 390.000
59.30889 418.000
59.32884 409.000
59.34878 386.000
59.36873 392.000
59.38868 386.000
59.40862 411.000
59.42857 405.000
59.44852 415.000
59.46847 395.000
59.48841 412.000
59.50836 414.000
59.52831 394.000
59.54825 394.000
59.56820 416.000
59.58815 413.000
59.60809 387.000
59.62804 384.000
59.64799 403.000
59.66793 411.000
59.68788 407.000
59.70783 389.000
59.72778 391.000
59.74772 372.000
59.76767 419.000
59.78762 426.000
59.80756 349.000
59.82751 412.000
59.84746 370.000
59.86740 384.000
59.88735 413.000
59.90730 422.000
59.92725 385.000
59.94719 388.000
59.96714 389.000
59.98709 398.000
60.00703 428.000
60.02698 428.000
60.04693 411.000
60.06687 391.000
60.08682 371.000
60.10677 385.000
60.12671 378.000
60.14666 452.000
60.16661 436.000
60.18656 410.000
60.20650 439.000
60.22645 395.000
60.24640 449.000
60.26634 424.000
60.28629 399.000
60.30624 406.000
60.32618 418.000
60.34613 453.000
60.36608 399.000
60.38603 426.000
60.40597 421.000
60.42592 415.000
60.44587 414.000
60.46581 405.000
60.48576 469.000
60.50571 424.000
60.52565 412.000
60.54560 420.000
60.56555 413.000
60.58550 414.000
60.60544 398.000
60.62539 418.000
60.64534 413.000
60.66528 404.000
60.68523 385.000
60.70518 410.000
60.72512 433.000
60.74507 408.000
60.76502 445.000
60.78496 435.000
60.80491 417.000
60.82486 441.000
60.84481 432.000
60.86475 421.000
60.88470 429.000
60.90465 402.000
60.92459 393.000
60.94454 418.000
60.96449 434.000
60.98443 412.000
61.00438 443.000
61.02433 436.000
61.04428 422.000
61.06422 424.000
61.08417 400.000
61.10412 427.000
61.12406 462.000
61.14401 441.000
61.16396 460.000
61.18390 420.000
61.20385 485.000
61.22380 475.000
61.24374 469.000
61.26369 433.000
61.28364 496.000
61.30359 460.000
61.32353 488.000
61.34348 543.000
61.36343 500.000
61.38337 500.000
61.40332 542.000
61.42327 576.000
61.44321 655.000
61.46316 725.000
61.48311 837.000
61.50306 873.000
61.52300 1018.000
61.54295 1123.000
61.56290 1085.000
61.58284 1130.000
61.60279 1047.000
61.62274 913.000
61.64268 910.000
61.66263 907.000
61.68258 829.000
61.70252 890.000
61.72247 936.000
61.74242 928.000
61.76237 848.000
61.78231 742.000
61.80226 705.000
61.82221 625.000
61.84215 607.000
61.86210 575.000
61.88205 600.000
61.90199 538.000
61.92194 519.000
61.94189 543.000
61.96184 537.000
61.98178 502.000
62.00173 480.000
62.02168 505.000
62.04162 501.000
62.06157 462.000
62.08152 497.000
62.10146 455.000
62.12141 451.000
62.14136 486.000
62.16131 498.000
62.18125 487.000
62.20120 463.000
62.22115 457.000
62.24109 473.000
62.26104 440.000
62.28099 461.000
62.30093 440.000
62.32088 460.000
62.34083 478.000
62.36077 488.000
62.38072 412.000
62.40067 425.000
62.42062 428.000
62.44056 465.000
62.46051 449.000
62.48046 442.000
62.50040 453.000
62.52035 446.000
62.54030 433.000
62.56024 458.000
62.58019 462.000
62.60014 438.000
62.62009 430.000
62.64003 423.000
62.65998 439.000
62.67993 438.000
62.69987 455.000
62.71982 409.000
62.73977 430.000
62.75971 438.000
62.77966 440.000
62.79961 444.000
62.81955 463.000
62.83950 442.000
62.85945 476.000
62.87940 451.000
62.89934 446.000
62.91929 438.000
62.93924 513.000
62.95918 490.000
62.97913 469.000
62.99908 448.000
63.01902 497.000
63.03897 506.000
63.05892 539.000
63.07887 530.000
63.09881 503.000
63.11876 604.000
63.13871 569.000
63.15865 491.000
63.17860 530.000
63.19855 539.000
63.21849 515.000
63.23844 552.000
63.25839 507.000
63.27833 508.000
63.29828 468.000
63.31823 488.000
63.33818 500.000
63.35812 485.000
63.37807 471.000
63.39802 466.000
63.41796 475.000
63.43791 482.000
63.45786 488.000
63.47780 416.000
63.49775 444.000
63.51770 450.000
63.53765 421.000
63.55759 480.000
63.57754 471.000
63.59749 476.000
63.61743 469.000
63.63738 536.000
63.65733 466.000
63.67727 504.000
63.69722 543.000
63.71717 502.000
63.73712 480.000
63.75706 461.000
63.77701 486.000
63.79696 473.000
63.81690 516.000
63.83685 480.000
63.85680 496.000
63.87674 499.000
63.89669 487.000
63.91664 455.000
63.93658 478.000
63.95653 466.000
63.97648 457.000
63.99643 487.000
64.01637 468.000
64.03632 442.000
64.05627 458.000
64.07621 434.000
64.09616 461.000
64.11611 454.000
64.13605 470.000
64.15600 478.000
64.17595 491.000
64.19590 493.000
64.21584 452.000
64.23579 466.000
64.25574 475.000
64.27568 502.000
64.29563 485.000
64.31558 467.000
64.33552 508.000
64.35547 463.000
64.37542 471.000
64.39536 466.000
64.41531 488.000
64.43526 480.000
64.45521 472.000
64.47515 466.000
64.49510 458.000
64.51505 455.000
64.53499 473.000
64.55494 415.000
64.57489 499.000
64.59483 447.000
64.61478 441.000
64.63473 411.000
64.65468 459.000
64.67462 450.000
64.69457 411.000
64.71452 453.000
64.73446 434.000
64.75441 462.000
64.77436 416.000
64.79430 421.000
64.81425 448.000
64.83420 407.000
64.85414 412.000
64.87409 390.000
64.89404 393.000
64.91399 456.000
64.93393 443.000
64.95388 460.000
64.97383 421.000
64.99377 417.000
65.01372 430.000
65.03367 418.000
65.05361 441.000
65.07356 443.000
65.09351 441.000
65.11346 435.000
65.13340 462.000
65.15335 434.000
65.17330 416.000
65.19324 435.000
65.21319 457.000
65.23314 440.000
65.25308 446.000
65.27303 442.000
65.29298 445.000
65.31293 468.000
65.33287 462.000
65.35282 481.000
65.37277 444.000
65.39271 476.000
65.41266 467.000
65.43261 516.000
65.45255 503.000
65.47250 524.000
65.49245 491.000
65.51239 557.000
65.53234 509.000
65.55229 549.000
65.57224 579.000
65.59218 573.000
65.61213 550.000
65.63208 611.000
65.65202 595.000
65.67197 605.000
65.69192 630.000
65.71186 616.000
65.73181 643.000
65.75176 608.000
65.77171 692.000
65.79165 704.000
65.81160 801.000
65.83155 756.000
65.85149 793.000
65.87144 826.000
65.89139 833.000
65.91133 813.000
65.93128 809.000
65.95123 766.000
65.97117 759.000
65.99112 807.000
66.01107 790.000
66.03102 746.000
66.05096 761.000
66.07091 788.000
66.09086 798.000
66.11080 784.000
66.13075 838.000
66.15070 890.000
66.17064 962.000
66.19059 1044.000
66.21054 984.000
66.23049 1058.000
66.25043 1023.000
66.27038 870.000
66.29033 855.000
66.31027 790.000
66.33022 742.000
66.35017 742.000
66.37011 797.000
66.39006 737.000
66.41001 838.000
66.42995 755.000
66.44990 691.000
66.46985 643.000
66.48980 608.000
66.50974 595.000
66.52969 529.000
66.54964 518.000
66.56958 561.000
66.58953 465.000
66.60948 498.000
66.62942 518.000
66.64937 514.000
66.66932 517.000
66.68927 528.000
66.70921 484.000
66.72916 533.000
66.74911 469.000
66.76905 460.000
66.78900 484.000
66.80895 463.000
66.82889 507.000
66.84884 422.000
66.86879 435.000
66.88874 477.000
66.90868 429.000
66.92863 488.000
66.94858 456.000
66.96852 468.000
66.98847 472.000
67.00842 427.000
67.02836 433.000
67.04831 435.000
67.06826 486.000
67.08820 459.000
67.10815 447.000
67.12810 393.000
67.14805 461.000
67.16799 425.000
67.18794 437.000
67.20789 452.000
67.22783 410.000
67.24778 438.000
67.26773 462.000
67.28767 456.000
67.30762 450.000
67.32757 457.000
67.34752 466.000
67.36746 457.000
67.38741 454.000
67.40736 454.000
67.42730 505.000
67.44725 493.000
67.46720 497.000
67.48714 438.000
67.50709 477.000
67.52704 428.000
67.54698 520.000
67.56693 479.000
67.58688 456.000
67.60683 464.000
67.62677 483.000
67.64672 465.000
67.66667 514.000
67.68661 482.000
67.70656 469.000
67.72651 537.000
67.74645 545.000
67.76640 514.000
67.78635 540.000
67.80630 498.000
67.82624 529.000
67.84619 570.000
67.86614 604.000
67.88608 613.000
67.90603 639.000
67.92598 700.000
67.94592 684.000
67.96587 716.000
67.98582 733.000
68.00576 750.000
68.02571 701.000
68.04566 732.000
68.06561 729.000
68.08555 792.000
68.10550 891.000
68.12545 960.000
68.14539 934.000
68.16534 912.000
68.18529 889.000
68.20523 798.000
68.22518 759.000
68.24513 735.000
68.26508 705.000
68.28502 684.000
68.30497 676.000
68.32492 718.000
68.34486 645.000
68.36481 605.000
68.38476 609.000
68.40470 599.000
68.42465 508.000
68.44460 541.000
68.46455 479.000
68.48449 532.000
68.50444 529.000
68.52439 488.000
68.54433 460.000
68.56428 467.000
68.58423 453.000
68.60417 370.000
68.62412 452.000
68.64407 441.000
68.66401 424.000
68.68396 444.000
68.70391 426.000
68.72386 425.000
68.74380 451.000
68.76375 418.000
68.78370 436.000
68.80364 399.000
68.82359 423.000
68.84354 451.000
68.86348 421.000
68.88343 464.000
68.90338 443.000
68.92333 432.000
68.94327 425.000
68.96322 441.000
68.98317 442.000
69.00311 441.000
69.02306 414.000
69.04301 454.000
69.06295 383.000
69.08290 418.000
69.10285 429.000
69.12279 447.000
69.14274 421.000
69.16269 426.000
69.18264 419.000
69.20258 417.000
69.22253 417.000
69.24248 403.000
69.26242 427.000
69.28237 416.000
69.30232 421.000
69.32226 409.000
69.34221 440.000
69.36216 449.000
69.38211 411.000
69.40205 426.000
69.42200 403.000
69.44195 442.000
69.46189 407.000
69.48184 447.000
69.50179 421.000
69.52173 347.000
69.54168 397.000
69.56163 448.000
69.58157 414.000
69.60152 399.000
69.62147 387.000
69.64142 410.000
69.66136 425.000
69.68131 408.000
69.70126 434.000
69.72120 423.000
69.74115 403.000
69.76110 420.000
69.78104 422.000
69.80099 398.000
69.82094 398.000
69.84089 444.000
69.86083 427.000
69.88078 404.000
69.90073 437.000
69.92067 411.000
69.94062 430.000
69.96057 392.000
69.98051 436.000
70.00046 426.000
70.02041 398.000
70.04035 446.000
70.06030 396.000
70.08025 402.000
70.10020 439.000
70.12014 395.000
70.14009 414.000
70.16004 396.000
70.17998 389.000
70.19993 410.000
70.21988 378.000
70.23982 420.000
70.25977 412.000
70.27972 449.000
70.29967 418.000
70.31961 422.000
70.33956 401.000
70.35951 438.000
70.37945 400.000
70.39940 397.000
70.41935 402.000
70.43929 404.000
70.45924 419.000
70.47919 431.000
70.49914 400.000
70.51908 418.000
70.53903 403.000
70.55898 425.000
70.57892 405.000
70.59887 420.000
70.61882 406.000
70.63876 413.000
70.65871 421.000
70.67866 390.000
70.69860 416.000
70.71855 401.000
70.73850 375.000
70.75845 418.000
70.77839 428.000
70.79834 428.000
70.81829 419.000
70.83823 458.000
70.85818 403.000
70.87813 419.000
70.89807 401.000
70.91802 395.000
70.93797 403.000
70.95792 419.000
70.97786 389.000
70.99781 421.000
71.01776 386.000
71.03770 403.000
71.05765 412.000
71.07760 422.000
71.09754 404.000
71.11749 411.000
71.13744 433.000
71.15738 407.000
71.17733 417.000
71.19728 427.000
71.21723 386.000
71.23717 435.000
71.25712 404.000
71.27707 422.000
71.29701 408.000
71.31696 397.000
71.33691 379.000
71.35685 417.000
71.37680 405.000
71.39675 415.000
71.41670 401.000
71.43664 417.000
71.45659 427.000
71.47654 423.000
71.49648 417.000
71.51643 426.000
71.53638 396.000
71.55632 411.000
71.57627 417.000
71.59622 408.000
71.61616 400.000
71.63611 436.000
71.65606 404.000
71.67601 437.000
71.69595 385.000
71.71590 390.000
71.73585 415.000
71.75579 435.000
71.77574 428.000
71.79569 415.000
71.81563 405.000
71.83558 388.000
71.85553 419.000
71.87548 430.000
71.89542 396.000
71.91537 404.000
71.93532 440.000
71.95526 402.000
71.97521 412.000
71.99516 424.000
72.01510 454.000
72.03505 375.000
72.05500 441.000
72.07495 399.000
72.09489 469.000
72.11484 466.000
72.13479 448.000
72.15473 443.000
72.17468 413.000
72.19463 463.000
72.21457 433.000
72.23452 466.000
72.25447 473.000
72.27441 446.000
72.29436 512.000
72.31431 503.000
72.33426 523.000
72.35420 534.000
72.37415 605.000
72.39410 624.000
72.41404 654.000
72.43399 643.000
72.45394 576.000
72.47388 578.000
72.49383 582.000
72.51378 523.000
72.53373 491.000
72.55367 553.000
72.57362 521.000
72.59357 592.000
72.61351 540.000
72.63346 567.000
72.65341 600.000
72.67335 545.000
72.69330 551.000
72.71325 473.000
72.73319 495.000
72.75314 496.000
72.77309 459.000
72.79304 492.000
72.81298 505.000
72.83293 490.000
72.85288 503.000
72.87282 476.000
72.89277 521.000
72.91272 511.000
72.93266 483.000
72.95261 475.000
72.97256 460.000
72.99251 514.000
73.01245 522.000
73.03240 473.000
73.05235 462.000
73.07229 456.000
73.09224 506.000
73.11219 467.000
73.13213 460.000
73.15208 449.000
73.17203 451.000
73.19197 457.000
73.21192 450.000
73.23187 406.000
73.25182 456.000
73.27176 488.000
73.29171 457.000
73.31166 446.000
73.33160 433.000
73.35155 446.000
73.37150 430.000
73.39144 453.000
73.41139 423.000
73.43134 449.000
73.45129 417.000
73.47123 430.000
73.49118 439.000
73.51113 464.000
73.53107 433.000
73.55102 451.000
73.57097 437.000
73.59091 430.000
73.61086 411.000
73.63081 427.000
73.65076 442.000
73.67070 392.000
73.69065 398.000
73.71060 446.000
73.73054 421.000
73.75049 422.000
73.77044 439.000
73.79038 403.000
73.81033 382.000
73.83028 455.000
73.85022 418.000
73.87017 417.000
73.89012 460.000
73.91007 388.000
73.93001 414.000
73.94996 404.000
73.96991 426.000
73.98985 420.000
74.00980 435.000
74.02975 422.000
74.04969 415.000
74.06964 406.000
74.08959 423.000
74.10954 423.000
74.12948 406.000
74.14943 420.000
74.16938 432.000
74.18932 413.000
74.20927 417.000
74.22922 390.000
74.24916 424.000
74.26911 385.000
74.28906 421.000
74.30900 421.000
74.32895 414.000
74.34890 403.000
74.36885 409.000
74.38879 405.000
74.40874 395.000
74.42869 421.000
74.44863 433.000
74.46858 463.000
74.48853 428.000
74.50847 408.000
74.52842 430.000
74.54837 416.000
74.56832 419.000
74.58826 413.000
74.60821 435.000
74.62816 437.000
74.64810 437.000
74.66805 431.000
74.68800 443.000
74.70794 444.000
74.72789 447.000
74.74784 447.000
74.76778 458.000
74.78773 446.000
74.80768 459.000
74.82763 457.000
74.84757 452.000
74.86752 439.000
74.88747 489.000
74.90741 463.000
74.92736 508.000
74.94731 492.000
74.96725 522.000
74.98720 543.000
75.00715 628.000
75.02710 631.000
75.04704 610.000
75.06699 622.000
75.08694 597.000
75.10688 507.000
75.12683 557.000
75.14678 559.000
75.16672 529.000
75.18667 596.000
75.20662 604.000
75.22657 623.000
75.24651 620.000
75.26646 661.000
75.28641 623.000
75.30635 635.000
75.32630 568.000
75.34625 568.000
75.36619 571.000
75.38614 602.000
75.40609 571.000
75.42603 583.000
75.44598 573.000
75.46593 498.000
75.48588 554.000
75.50582 525.000
75.52577 519.000
75.54572 456.000
75.56566 483.000
75.58561 507.000
75.60556 490.000
75.62550 488.000
75.64545 462.000
75.66540 481.000
75.68535 411.000
75.70529 417.000
75.72524 406.000
75.74519 429.000
75.76513 418.000
75.78508 426.000
75.80503 430.000
75.82497 435.000
75.84492 420.000
75.86487 412.000
75.88481 378.000
75.90476 413.000
75.92471 476.000
75.94466 422.000
75.96460 411.000
75.98455 401.000
76.00450 387.000
76.02444 416.000
76.04439 449.000
76.06434 426.000
76.08428 403.000
76.10423 367.000
76.12418 399.000
76.14413 463.000
76.16407 400.000
76.18402 395.000
76.20397 446.000
76.22391 435.000
76.24386 411.000
76.26381 390.000
76.28375 418.000
76.30370 430.000
76.32365 398.000
76.34359 437.000
76.36354 427.000
76.38349 423.000
76.40344 420.000
76.42338 431.000
76.44333 439.000
76.46328 422.000
76.48322 407.000
76.50317 430.000
76.52312 385.000
76.54306 402.000
76.56301 419.000
76.58296 408.000
76.60291 390.000
76.62285 368.000
76.64280 379.000
76.66275 423.000
76.68269 424.000
76.70264 461.000
76.72259 425.000
76.74253 413.000
76.76248 406.000
76.78243 392.000
76.80238 418.000
76.82232 424.000
76.84227 417.000
76.86222 411.000
76.88216 404.000
76.90211 416.000
76.92206 410.000
76.94200 386.000
76.96195 384.000
76.98190 406.000
77.00184 395.000
77.02179 429.000
77.04174 424.000
77.06169 421.000
77.08163 416.000
77.10158 393.000
77.12153 412.000
77.14147 387.000
77.16142 417.000
77.18137 393.000
77.20131 406.000
77.22126 387.000
77.24121 415.000
77.26116 406.000
77.28110 419.000
77.30105 417.000
77.32100 393.000
77.34094 418.000
77.36089 447.000
77.38084 439.000
77.40078 418.000
77.42073 423.000
77.44068 450.000
77.46062 428.000
77.48057 362.000
77.50052 388.000
77.52047 410.000
77.54041 423.000
77.56036 438.000
77.58031 415.000
77.60025 407.000
77.62020 412.000
77.64015 379.000
77.66009 431.000
77.68004 413.000
77.69999 402.000
77.71994 449.000
77.73988 440.000
77.75983 364.000
77.77978 423.000
77.79972 400.000
77.81967 430.000
77.83962 426.000
77.85956 433.000
77.87951 426.000
77.89946 439.000
77.91940 401.000
77.93935 429.000
77.95930 412.000
77.97925 448.000
77.99919 421.000
78.01914 440.000
78.03909 437.000
78.05903 426.000
78.07898 393.000
78.09893 454.000
78.11887 422.000
78.13882 421.000
78.15877 447.000
78.17872 431.000
78.19866 434.000
78.21861 470.000
78.23856 458.000
78.25850 425.000
78.27845 409.000
78.29840 470.000
78.31834 465.000
78.33829 480.000
78.35824 446.000
78.37819 453.000
78.39813 477.000
78.41808 429.000
78.43803 421.000
78.45797 481.000
78.47792 451.000
78.49787 436.000
78.51781 407.000
78.53776 415.000
78.55771 440.000
78.57765 448.000
78.59760 422.000
78.61755 433.000
78.63750 417.000
78.65744 424.000
78.67739 433.000
78.69734 453.000
78.71728 473.000
78.73723 468.000
78.75718 433.000
78.77712 437.000
78.79707 412.000
78.81702 411.000
78.83697 408.000
78.85691 403.000
78.87686 423.000
78.89681 437.000
78.91675 389.000
78.93670 405.000
78.95665 425.000
78.97659 394.000
78.99654 418.000
79.01649 395.000
79.03643 403.000
79.05638 401.000
79.07633 396.000
79.09628 390.000
79.11622 399.000
79.13617 413.000
79.15612 370.000
79.17606 448.000
79.19601 426.000
79.21596 426.000
79.23590 422.000
79.25585 413.000
79.27580 419.000
79.29575 359.000
79.31569 430.000
79.33564 408.000
79.35559 392.000
79.37553 405.000
79.39548 411.000
79.41543 401.000
79.43537 394.000
79.45532 386.000
79.47527 405.000
79.49521 406.000
79.51516 401.000
79.53511 422.000
79.55506 429.000
79.57500 393.000
79.59495 413.000
79.61490 433.000
79.63484 420.000
79.65479 382.000
79.67474 407.000
79.69468 409.000
79.71463 429.000
79.73458 418.000
79.75453 453.000
79.77447 378.000
79.79442 419.000
79.81437 419.000
79.83431 382.000
79.85426 387.000
79.87421 415.000
79.89415 427.000
79.91410 401.000
79.93405 408.000
79.95399 403.000
79.97394 401.000
79.99389 409.000
80.01384 416.000
80.03378 422.000
80.05373 445.000
80.07368 472.000
80.09362 445.000
80.11357 461.000
80.13352 456.000
80.15346 474.000
80.17341 447.000
80.19336 493.000
80.21331 451.000
80.23325 432.000
80.25320 476.000
80.27315 422.000
80.29309 463.000
80.31304 408.000
80.33299 429.000
80.35293 462.000
80.37288 430.000
80.39283 472.000
80.41278 485.000
80.43272 432.000
80.45267 497.000
80.47262 419.000
80.49256 415.000
80.51251 392.000
80.53246 375.000
80.55240 403.000
80.57235 433.000
80.59230 409.000
80.61224 400.000
80.63219 421.000
80.65214 413.000
80.67209 431.000
80.69203 398.000
80.71198 399.000
80.73193 462.000
80.75187 373.000
80.77182 414.000
80.79177 430.000
80.81171 418.000
80.83166 392.000
80.85161 408.000
80.87156 454.000
80.89150 407.000
80.91145 420.000
80.93140 381.000
80.95134 404.000
80.97129 417.000
80.99124 436.000
81.01118 414.000
81.03113 398.000
81.05108 403.000
81.07102 423.000
81.09097 425.000
81.11092 426.000
81.13087 437.000
81.15081 406.000
81.17076 383.000
81.19071 416.000
81.21065 397.000
81.23060 385.000
81.25055 390.000
81.27049 438.000
81.29044 470.000
81.31039 412.000
81.33034 437.000
81.35028 386.000
81.37023 393.000
81.39018 384.000
81.41012 432.000
81.43007 385.000
81.45002 398.000
81.46996 451.000
81.48991 400.000
81.50986 419.000
81.52980 395.000
81.54975 433.000
81.56970 418.000
81.58965 425.000
81.60959 405.000
81.62954 404.000
81.64949 430.000
81.66943 387.000
81.68938 413.000
81.70933 413.000
81.72927 393.000
81.74922 434.000
81.76917 415.000
81.78912 376.000
81.80906 443.000
81.82901 401.000
81.84896 413.000
81.86890 373.000
81.88885 402.000
81.90880 442.000
81.92874 421.000
81.94869 423.000
81.96864 422.000
81.98859 454.000
82.00853 468.000
82.02848 454.000
82.04843 413.000
82.06837 392.000
82.08832 456.000
82.10827 433.000
82.12821 426.000
82.14816 486.000
82.16811 451.000
82.18805 454.000
82.20800 431.000
82.22795 478.000
82.24790 469.000
82.26784 481.000
82.28779 510.000
82.30774 507.000
82.32768 541.000
82.34763 530.000
82.36758 505.000
82.38752 494.000
82.40747 483.000
82.42742 506.000
82.44737 483.000
82.46731 435.000
82.48726 500.000
82.50721 443.000
82.52715 494.000
82.54710 497.000
82.56705 499.000
82.58699 503.000
82.60694 481.000
82.62689 484.000
82.64683 461.000
82.66678 404.000
82.68673 475.000
82.70668 478.000
82.72662 472.000
82.74657 486.000
82.76652 438.000
82.78646 450.000
82.80641 397.000
82.82636 460.000
82.84630 438.000
82.86625 446.000
82.88620 437.000
82.90615 459.000
82.92609 429.000
82.94604 462.000
82.96599 397.000
82.98593 455.000
83.00588 480.000
83.02583 459.000
83.04577 505.000
83.06572 460.000
83.08567 498.000
83.10561 491.000
83.12556 459.000
83.14551 532.000
83.16546 466.000
83.18540 448.000
83.20535 492.000
83.22530 459.000
83.24524 479.000
83.26519 475.000
83.28514 507.000
83.30508 478.000
83.32503 499.000
83.34498 526.000
83.36493 548.000
83.38487 531.000
83.40482 505.000
83.42477 509.000
83.44471 499.000
83.46466 494.000
83.48461 508.000
83.50455 522.000
83.52450 531.000
83.54445 496.000
83.56440 536.000
83.58434 502.000
83.60429 512.000
83.62424 535.000
83.64418 485.000
83.66413 495.000
83.68408 510.000
83.70402 491.000
83.72397 502.000
83.74392 473.000
83.76386 470.000
83.78381 497.000
83.80376 471.000
83.82371 471.000
83.84365 471.000
83.86360 470.000
83.88355 425.000
83.90349 474.000
83.92344 467.000
83.94339 423.000
83.96333 439.000
83.98328 456.000
84.00323 438.000
84.02318 397.000
84.04312 411.000
84.06307 414.000
84.08302 441.000
84.10296 441.000
84.12291 422.000
84.14286 462.000
84.16280 429.000
84.18275 417.000
84.20270 436.000
84.22264 441.000
84.24259 411.000
84.26254 394.000
84.28249 439.000
84.30243 422.000
84.32238 431.000
84.34233 450.000
84.36227 451.000
84.38222 412.000
84.40217 420.000
84.42211 395.000
84.44206 446.000
84.46201 422.000
84.48196 434.000
84.50190 399.000
84.52185 410.000
84.54180 436.000
84.56174 442.000
84.58169 451.000
84.60164 390.000
84.62158 391.000
84.64153 413.000
84.66148 413.000
84.68142 425.000
84.70137 389.000
84.72132 400.000
84.74127 341.000
84.76121 405.000
84.78116 440.000
84.80111 440.000
84.82105 419.000
84.84100 404.000
84.86095 403.000
84.88089 415.000
84.90084 379.000
84.92079 397.000
84.94074 383.000
84.96068 397.000
84.98063 377.000
85.00058 400.000
85.02052 384.000
85.04047 452.000
85.06042 439.000
85.08036 455.000
85.10031 404.000
85.12026 393.000
85.14021 441.000
85.16015 443.000
85.18010 384.000
85.20005 395.000
85.21999 447.000
85.23994 395.000
85.25989 411.000
85.27983 396.000
85.29978 407.000
85.31973 403.000
85.33967 408.000
85.35962 397.000
85.37957 377.000
85.39952 394.000
85.41946 423.000
85.43941 399.000
85.45936 431.000
85.47930 418.000
85.49925 401.000
85.51920 418.000
85.53914 371.000
85.55909 429.000
85.57904 382.000
85.59899 412.000
85.61893 420.000
85.63888 414.000
85.65883 409.000
85.67877 427.000
85.69872 426.000
85.71867 426.000
85.73861 426.000
85.75856 367.000
85.77851 403.000
85.79845 383.000
85.81840 379.000
85.83835 424.000
85.85830 404.000
85.87824 450.000
85.89819 408.000
85.91814 405.000
85.93808 429.000
85.95803 394.000
85.97798 399.000
85.99792 425.000
86.01787 432.000
86.03782 387.000
86.05777 412.000
86.07771 420.000
86.09766 421.000
86.11761 399.000
86.13755 411.000
86.15750 395.000
86.17745 410.000
86.19739 440.000
86.21734 422.000
86.23729 447.000
86.25723 422.000
86.27718 427.000
86.29713 402.000
86.31708 432.000
86.33702 411.000
86.35697 446.000
86.37692 413.000
86.39686 414.000
86.41681 430.000
86.43676 456.000
86.45670 430.000
86.47665 454.000
86.49660 446.000
86.51655 435.000
86.53649 441.000
86.55644 480.000
86.57639 460.000
86.59633 445.000
86.61628 464.000
86.63623 453.000
86.65617 514.000
86.67612 423.000
86.69607 448.000
86.71602 464.000
86.73596 432.000
86.75591 465.000
86.77586 474.000
86.79580 447.000
86.81575 428.000
86.83570 440.000
86.85564 441.000
86.87559 451.000
86.89554 430.000
86.91548 420.000
86.93543 443.000
86.95538 446.000
86.97533 465.000
86.99527 481.000
87.01522 409.000
87.03517 409.000
87.05511 427.000
87.07506 409.000
87.09501 448.000
87.11495 382.000
87.13490 420.000
87.15485 419.000
87.17480 428.000
87.19474 417.000
87.21469 413.000
87.23464 400.000
87.25458 451.000
87.27453 407.000
87.29448 395.000
87.31442 397.000
87.33437 387.000
87.35432 433.000
87.37426 461.000
87.39421 444.000
87.41416 403.000
87.43411 408.000
87.45405 421.000
87.47400 419.000
87.49395 425.000
87.51389 371.000
87.53384 423.000
87.55379 458.000
87.57373 399.000
87.59368 394.000
87.61363 402.000
87.63358 405.000
87.65352 390.000
87.67347 413.000
87.69342 426.000
87.71336 407.000
87.73331 417.000
87.75326 406.000
87.77320 423.000
87.79315 414.000
87.81310 438.000
87.83304 414.000
87.85299 418.000
87.87294 434.000
87.89289 395.000
87.91283 426.000
87.93278 419.000
87.95273 399.000
87.97267 412.000
87.99262 391.000
88.01257 434.000
88.03251 412.000
88.05246 384.000
88.07241 420.000
88.09236 410.000
88.11230 417.000
88.13225 404.000
88.15220 398.000
88.17214 431.000
88.19209 431.000
88.21204 424.000
88.23198 395.000
88.25193 426.000
88.27188 412.000
88.29183 389.000
88.31177 414.000
88.33172 413.000
88.35167 408.000
88.37161 397.000
88.39156 416.000
88.41151 432.000
88.43145 441.000
88.45140 436.000
88.47135 390.000
88.49129 425.000
88.51124 392.000
88.53119 401.000
88.55114 407.000
88.57108 397.000
88.59103 390.000
88.61098 391.000
88.63092 389.000
88.65087 381.000
88.67082 433.000
88.69076 417.000
88.71071 453.000
88.73066 408.000
88.75061 416.000
88.77055 409.000
88.79050 395.000
88.81045 418.000
88.83039 409.000
88.85034 396.000
88.87029 399.000
88.89023 401.000
88.91018 422.000
88.93013 406.000
88.95007 416.000
88.97002 410.000
88.98997 393.000
89.00992 384.000
89.02986 399.000
89.04981 423.000
89.06976 396.000
89.08970 419.000
89.10965 391.000
89.12960 412.000
89.14954 441.000
89.16949 386.000
89.18944 453.000
89.20939 398.000
89.22933 414.000
89.24928 439.000
89.26923 382.000
89.28917 418.000
89.30912 384.000
89.32907 405.000
89.34901 435.000
89.36896 402.000
89.38891 379.000
89.40885 349.000
89.42880 453.000
89.44875 423.000
89.46870 445.000
89.48864 448.000
89.50859 421.000
89.52854 385.000
89.54848 442.000
89.56843 453.000
89.58838 416.000
89.60832 425.000
89.62827 424.000
89.64822 423.000
89.66817 410.000
89.68811 457.000
89.70806 469.000
89.72801 448.000
89.74795 471.000
89.76790 469.000
89.78785 454.000
89.80779 531.000
89.82774 488.000
89.84769 514.000
89.86764 534.000
89.88758 491.000
89.90753 490.000
89.92748 506.000
89.94742 502.000
89.96737 484.000
89.98732 485.000
90.00726 475.000
