10.00000 95.000
10.01995 82.000
10.03989 92.000
10.05984 94.000
10.07979 68.000
10.09973 89.000
10.11968 96.000
10.13963 98.000
10.15958 64.000
10.17952 82.000
10.19947 83.000
10.21942 78.000
10.23936 104.000
10.25931 89.000
10.27926 87.000
10.29920 92.000
10.31915 80.000
10.33910 83.000
10.35905 80.000
10.37899 79.000
10.39894 69.000
10.41889 89.000
10.43883 89.000
10.45878 83.000
10.47873 86.000
10.49867 104.000
10.51862 94.000
10.53857 81.000
10.55851 102.000
10.57846 90.000
10.59841 71.000
10.61836 100.000
10.63830 91.000
10.65825 86.000
10.67820 84.000
10.69814 96.000
10.71809 83.000
10.73804 79.000
10.75798 81.000
10.77793 88.000
10.79788 70.000
10.81783 97.000
10.83777 86.000
10.85772 86.000
10.87767 98.000
10.89761 70.000
10.91756 90.000
10.93751 70.000
10.95745 67.000
10.97740 80.000
10.99735 95.000
11.01730 94.000
11.03724 77.000
11.05719 74.000
11.07714 102.000
11.09708 78.000
11.11703 76.000
11.13698 90.000
11.15692 79.000
11.17687 83.000
11.19682 72.000
11.21676 67.000
11.23671 77.000
11.25666 66.000
11.27661 88.000
11.29655 102.000
11.31650 83.000
11.33645 87.000
11.35639 73.000
11.37634 70.000
11.39629 90.000
11.41623 83.000
11.43618 61.000
11.45613 90.000
11.47608 74.000
11.49602 87.000
11.51597 92.000
11.53592 73.000
11.55586 77.000
11.57581 80.000
11.59576 96.000
11.61570 86.000
11.63565 87.000
11.65560 72.000
11.67554 72.000
11.69549 76.000
11.71544 78.000
11.73539 73.000
11.75533 81.000
11.77528 80.000
11.79523 71.000
11.81517 81.000
11.83512 81.000
11.85507 72.000
11.87501 71.000
11.89496 86.000
11.91491 74.000
11.93486 96.000
11.95480 84.000
11.97475 72.000
11.99470 82.000
12.01464 86.000
12.03459 76.000
12.05454 75.000
12.07448 70.000
12.09443 97.000
12.11438 88.000
12.13432 84.000
12.15427 84.000
12.17422 82.000
12.19417 73.000
12.21411 92.000
12.23406 76.000
12.25401 87.000
12.27395 78.000
12.29390 93.000
12.31385 78.000
12.33379 91.000
12.35374 102.000
12.37369 67.000
12.39364 84.000
12.41358 74.000
12.43353 89.000
12.45348 86.000
12.47342 81.000
12.49337 78.000
12.51332 92.000
12.53326 78.000
12.55321 69.000
12.57316 75.000
12.59311 84.000
12.61305 98.000
12.63300 85.000
12.65295 78.000
12.67289 65.000
12.69284 77.000
12.71279 81.000
12.73273 85.000
12.75268 81.000
12.77263 83.000
12.79257 75.000
12.81252 82.000
12.83247 90.000
12.85242 73.000
12.87236 93.000
12.89231 74.000
12.91226 82.000
12.93220 75.000
12.95215 76.000
12.97210 78.000
12.99204 75.000
13.01199 70.000
13.03194 81.000
13.05189 78.000
13.07183 92.000
13.09178 78.000
13.11173 82.000
13.13167 91.000
13.15162 77.000
13.17157 73.000
13.19151 75.000
13.21146 88.000
13.23141 80.000
13.25135 78.000
13.27130 77.000
13.29125 89.000
13.31120 69.000
13.33114 93.000
13.35109 83.000
13.37104 81.000
13.39098 68.000
13.41093 73.000
13.43088 77.000
13.45082 80.000
13.47077 62.000
13.49072 72.000
13.51067 86.000
13.53061 81.000
13.55056 75.000
13.57051 76.000
13.59045 82.000
13.61040 69.000
13.63035 75.000
13.65029 83.000
13.67024 80.000
13.69019 76.000
13.71013 83.000
13.73008 77.000
13.75003 77.000
13.76998 80.000
13.78992 73.000
13.80987 69.000
13.82982 79.000
13.84976 71.000
13.86971 86.000
13.88966 78.000
13.90960 72.000
13.92955 80.000
13.94950 84.000
13.96945 72.000
13.98939 80.000
14.00934 72.000
14.02929 71.000
14.04923 82.000
14.06918 62.000
14.08913 78.000
14.10907 76.000
14.12902 74.000
14.14897 81.000
14.16892 77.000
14.18886 67.000
14.20881 86.000
14.22876 72.000
14.24870 80.000
14.26865 80.000
14.28860 71.000
14.30854 79.000
14.32849 75.000
14.34844 74.000
14.36838 76.000
14.38833 70.000
14.40828 82.000
14.42823 85.000
14.44817 74.000
14.46812 79.000
14.48807 66.000
14.50801 54.000
14.52796 84.000
14.54791 80.000
14.56785 86.000
14.58780 74.000
14.60775 79.000
14.62770 74.000
14.64764 88.000
14.66759 86.000
14.68754 80.000
14.70748 77.000
14.72743 64.000
14.74738 86.000
14.76732 85.000
14.78727 88.000
14.80722 80.000
14.82716 74.000
14.84711 90.000
14.86706 89.000
14.88701 84.000
14.90695 86.000
14.92690 80.000
14.94685 75.000
14.96679 72.000
14.98674 86.000
15.00669 77.000
15.02663 74.000
15.04658 73.000
15.06653 76.000
15.08648 69.000
15.10642 85.000
15.12637 82.000
15.14632 87.000
15.16626 85.000
15.18621 89.000
15.20616 76.000
15.22610 84.000
15.24605 97.000
15.26600 85.000
15.28594 83.000
15.30589 107.000
15.32584 81.000
15.34579 76.000
15.36573 77.000
15.38568 89.000
15.40563 89.000
15.42557 85.000
15.44552 85.000
15.46547 105.000
15.48541 82.000
15.50536 88.000
15.52531 101.000
15.54526 95.000
15.56520 102.000
15.58515 104.000
15.60510 86.000
15.62504 90.000
15.64499 116.000
15.66494 108.000
15.68488 104.000
15.70483 111.000
15.72478 118.000
15.74472 126.000
15.76467 137.000
15.78462 131.000
15.80457 127.000
15.82451 145.000
15.84446 135.000
15.86441 149.000
15.88435 132.000
15.90430 122.000
15.92425 124.000
15.94419 131.000
15.96414 143.000
15.98409 157.000
16.00404 136.000
16.02398 148.000
16.04393 139.000
16.06388 171.000
16.08382 177.000
16.10377 202.000
16.12372 194.000
16.14366 194.000
16.16361 252.000
16.18356 273.000
16.20351 262.000
16.22345 332.000
16.24340 338.000
16.26335 441.000
16.28329 503.000
16.30324 561.000
16.32319 700.000
16.34313 812.000
16.36308 1088.000
16.38303 1324.000
16.40297 1559.000
16.42292 1855.000
16.44287 2114.000
16.46282 2231.000
16.48276 1986.000
16.50271 1589.000
16.52266 1166.000
16.54260 837.000
16.56255 576.000
16.58250 446.000
16.60244 382.000
16.62239 318.000
16.64234 271.000
16.66229 223.000
16.68223 213.000
16.70218 218.000
16.72213 195.000
16.74207 207.000
16.76202 191.000
16.78197 160.000
16.80191 172.000
16.82186 157.000
16.84181 169.000
16.86175 165.000
16.88170 138.000
16.90165 143.000
16.92160 131.000
16.94154 150.000
16.96149 144.000
16.98144 137.000
17.00138 145.000
17.02133 115.000
17.04128 111.000
17.06122 115.000
17.08117 139.000
17.10112 116.000
17.12107 125.000
17.14101 114.000
17.16096 116.000
17.18091 98.000
17.20085 111.000
17.22080 115.000
17.24075 114.000
17.26069 123.000
17.28064 114.000
17.30059 116.000
17.32053 114.000
17.34048 134.000
17.36043 100.000
17.38038 110.000
17.40032 109.000
17.42027 100.000
17.44022 97.000
17.46016 94.000
17.48011 101.000
17.50006 97.000
17.52000 92.000
17.53995 108.000
17.55990 97.000
17.57985 116.000
17.59979 103.000
17.61974 108.000
17.63969 105.000
17.65963 94.000
17.67958 79.000
17.69953 88.000
17.71947 85.000
17.73942 77.000
17.75937 87.000
17.77932 94.000
17.79926 91.000
17.81921 81.000
17.83916 87.000
17.85910 106.000
17.87905 83.000
17.89900 80.000
17.91894 91.000
17.93889 102.000
17.95884 86.000
17.97878 89.000
17.99873 83.000
18.01868 82.000
18.03863 84.000
18.05857 80.000
18.07852 76.000
18.09847 82.000
18.11841 86.000
18.13836 90.000
18.15831 101.000
18.17825 85.000
18.19820 85.000
18.21815 101.000
18.23810 93.000
18.25804 137.000
18.27799 115.000
18.29794 132.000
18.31788 167.000
18.33783 198.000
18.35778 202.000
18.37772 214.000
18.39767 228.000
18.41762 190.000
18.43756 169.000
18.45751 119.000
18.47746 102.000
18.49741 96.000
18.51735 99.000
18.53730 86.000
18.55725 86.000
18.57719 68.000
18.59714 61.000
18.61709 82.000
18.63703 98.000
18.65698 74.000
18.67693 76.000
18.69688 76.000
18.71682 85.000
18.73677 90.000
18.75672 72.000
18.77666 91.000
18.79661 78.000
18.81656 69.000
18.83650 83.000
18.85645 70.000
18.87640 96.000
18.89634 86.000
18.91629 75.000
18.93624 66.000
18.95619 78.000
18.97613 71.000
18.99608 86.000
19.01603 70.000
19.03597 83.000
19.05592 61.000
19.07587 72.000
19.09581 90.000
19.11576 64.000
19.13571 71.000
19.15566 70.000
19.17560 92.000
19.19555 65.000
19.21550 71.000
19.23544 70.000
19.25539 67.000
19.27534 84.000
19.29528 73.000
19.31523 86.000
19.33518 78.000
19.35513 78.000
19.37507 67.000
19.39502 76.000
19.41497 80.000
19.43491 80.000
19.45486 82.000
19.47481 88.000
19.49475 79.000
19.51470 59.000
19.53465 86.000
19.55459 93.000
19.57454 77.000
19.59449 72.000
19.61444 53.000
19.63438 71.000
19.65433 92.000
19.67428 89.000
19.69422 83.000
19.71417 81.000
19.73412 69.000
19.75406 84.000
19.77401 70.000
19.79396 82.000
19.81391 83.000
19.83385 74.000
19.85380 73.000
19.87375 72.000
19.89369 70.000
19.91364 73.000
19.93359 84.000
19.95353 81.000
19.97348 92.000
19.99343 104.000
20.01337 98.000
20.03332 128.000
20.05327 99.000
20.07322 130.000
20.09316 129.000
20.11311 98.000
20.13306 114.000
20.15300 77.000
20.17295 113.000
20.19290 108.000
20.21284 104.000
20.23279 85.000
20.25274 94.000
20.27269 105.000
20.29263 78.000
20.31258 72.000
20.33253 80.000
20.35247 93.000
20.37242 79.000
20.39237 106.000
20.41231 103.000
20.43226 134.000
20.45221 139.000
20.47215 155.000
20.49210 156.000
20.51205 157.000
20.53200 176.000
20.55194 197.000
20.57189 204.000
20.59184 186.000
20.61178 217.000
20.63173 221.000
20.65168 215.000
20.67162 225.000
20.69157 208.000
20.71152 177.000
20.73147 185.000
20.75141 169.000
20.77136 165.000
20.79131 164.000
20.81125 156.000
20.83120 169.000
20.85115 153.000
20.87109 160.000
20.89104 138.000
20.91099 121.000
20.93094 120.000
20.95088 125.000
20.97083 123.000
20.99078 94.000
21.01072 95.000
21.03067 93.000
21.05062 73.000
21.07056 69.000
21.09051 73.000
21.11046 86.000
21.13040 80.000
21.15035 70.000
21.17030 75.000
21.19025 73.000
21.21019 80.000
21.23014 95.000
21.25009 73.000
21.27003 83.000
21.28998 75.000
21.30993 80.000
21.32987 73.000
21.34982 66.000
21.36977 71.000
21.38972 69.000
21.40966 87.000
21.42961 66.000
21.44956 71.000
21.46950 78.000
21.48945 78.000
21.50940 80.000
21.52934 87.000
21.54929 90.000
21.56924 67.000
21.58918 90.000
21.60913 75.000
21.62908 97.000
21.64903 72.000
21.66897 68.000
21.68892 75.000
21.70887 86.000
21.72881 78.000
21.74876 64.000
21.76871 82.000
21.78865 76.000
21.80860 73.000
21.82855 73.000
21.84850 70.000
21.86844 85.000
21.88839 62.000
21.90834 68.000
21.92828 65.000
21.94823 80.000
21.96818 75.000
21.98812 71.000
22.00807 75.000
22.02802 84.000
22.04796 83.000
22.06791 74.000
22.08786 78.000
22.10781 73.000
22.12775 68.000
22.14770 69.000
22.16765 62.000
22.18759 75.000
22.20754 78.000
22.22749 93.000
22.24743 75.000
22.26738 72.000
22.28733 75.000
22.30728 86.000
22.32722 78.000
22.34717 72.000
22.36712 78.000
22.38706 76.000
22.40701 66.000
22.42696 66.000
22.44690 72.000
22.46685 75.000
22.48680 89.000
22.50675 65.000
22.52669 77.000
22.54664 69.000
22.56659 74.000
22.58653 85.000
22.60648 90.000
22.62643 67.000
22.64637 89.000
22.66632 72.000
22.68627 78.000
22.70621 75.000
22.72616 67.000
22.74611 85.000
22.76606 78.000
22.78600 69.000
22.80595 82.000
22.82590 87.000
22.84584 59.000
22.86579 78.000
22.88574 99.000
22.90568 87.000
22.92563 73.000
22.94558 75.000
22.96553 78.000
22.98547 84.000
23.00542 79.000
23.02537 90.000
23.04531 78.000
23.06526 64.000
23.08521 83.000
23.10515 93.000
23.12510 71.000
23.14505 74.000
23.16499 81.000
23.18494 89.000
23.20489 71.000
23.22484 80.000
23.24478 77.000
23.26473 87.000
23.28468 72.000
23.30462 70.000
23.32457 86.000
23.34452 75.000
23.36446 66.000
23.38441 91.000
23.40436 62.000
23.42431 70.000
23.44425 95.000
23.46420 69.000
23.48415 69.000
23.50409 79.000
23.52404 86.000
23.54399 77.000
23.56393 85.000
23.58388 74.000
23.60383 80.000
23.62377 85.000
23.64372 73.000
23.66367 68.000
23.68362 78.000
23.70356 62.000
23.72351 64.000
23.74346 77.000
23.76340 93.000
23.78335 81.000
23.80330 83.000
23.82324 71.000
23.84319 76.000
23.86314 61.000
23.88309 82.000
23.90303 62.000
23.92298 64.000
23.94293 100.000
23.96287 56.000
23.98282 67.000
24.00277 83.000
24.02271 76.000
24.04266 67.000
24.06261 76.000
24.08256 64.000
24.10250 75.000
24.12245 72.000
24.14240 93.000
24.16234 76.000
24.18229 67.000
24.20224 62.000
24.22218 70.000
24.24213 75.000
24.26208 77.000
24.28202 81.000
24.30197 79.000
24.32192 85.000
24.34187 90.000
24.36181 58.000
24.38176 70.000
24.40171 77.000
24.42165 78.000
24.44160 74.000
24.46155 82.000
24.48149 84.000
24.50144 79.000
24.52139 83.000
24.54134 78.000
24.56128 72.000
24.58123 65.000
24.60118 74.000
24.62112 69.000
24.64107 80.000
24.66102 70.000
24.68096 76.000
24.70091 61.000
24.72086 78.000
24.74080 68.000
24.76075 84.000
24.78070 71.000
24.80065 87.000
24.82059 86.000
24.84054 83.000
24.86049 76.000
24.88043 80.000
24.90038 70.000
24.92033 75.000
24.94027 83.000
24.96022 96.000
24.98017 99.000
25.00012 68.000
25.02006 72.000
25.04001 79.000
25.05996 80.000
25.07990 79.000
25.09985 73.000
25.11980 72.000
25.13974 77.000
25.15969 88.000
25.17964 100.000
25.19958 79.000
25.21953 96.000
25.23948 89.000
25.25943 67.000
25.27937 69.000
25.29932 78.000
25.31927 92.000
25.33921 90.000
25.35916 72.000
25.37911 75.000
25.39905 74.000
25.41900 77.000
25.43895 83.000
25.45890 85.000
25.47884 73.000
25.49879 89.000
25.51874 78.000
25.53868 80.000
25.55863 73.000
25.57858 71.000
25.59852 98.000
25.61847 81.000
25.63842 72.000
25.65837 91.000
25.67831 67.000
25.69826 88.000
25.71821 70.000
25.73815 71.000
25.75810 70.000
25.77805 79.000
25.79799 76.000
25.81794 74.000
25.83789 87.000
25.85783 66.000
25.87778 77.000
25.89773 92.000
25.91768 69.000
25.93762 96.000
25.95757 80.000
25.97752 89.000
25.99746 100.000
26.01741 96.000
26.03736 101.000
26.05730 84.000
26.07725 102.000
26.09720 98.000
26.11715 88.000
26.13709 84.000
26.15704 91.000
26.17699 77.000
26.19693 87.000
26.21688 99.000
26.23683 84.000
26.25677 76.000
26.27672 84.000
26.29667 88.000
26.31661 86.000
26.33656 106.000
26.35651 76.000
26.37646 94.000
26.39640 79.000
26.41635 96.000
26.43630 87.000
26.45624 82.000
26.47619 81.000
26.49614 92.000
26.51608 69.000
26.53603 90.000
26.55598 76.000
26.57593 88.000
26.59587 83.000
26.61582 64.000
26.63577 73.000
26.65571 68.000
26.67566 80.000
26.69561 96.000
26.71555 88.000
26.73550 69.000
26.75545 64.000
26.77539 92.000
26.79534 76.000
26.81529 87.000
26.83524 84.000
26.85518 92.000
26.87513 82.000
26.89508 84.000
26.91502 97.000
26.93497 89.000
26.95492 81.000
26.97486 90.000
26.99481 95.000
27.01476 81.000
27.03471 80.000
27.05465 80.000
27.07460 61.000
27.09455 78.000
27.11449 88.000
27.13444 89.000
27.15439 86.000
27.17433 88.000
27.19428 71.000
27.21423 91.000
27.23417 87.000
27.25412 89.000
27.27407 81.000
27.29402 76.000
27.31396 83.000
27.33391 97.000
27.35386 87.000
27.37380 73.000
27.39375 89.000
27.41370 87.000
27.43364 101.000
27.45359 83.000
27.47354 98.000
27.49349 85.000
27.51343 100.000
27.53338 82.000
27.55333 81.000
27.57327 76.000
27.59322 80.000
27.61317 83.000
27.63311 88.000
27.65306 92.000
27.67301 71.000
27.69296 86.000
27.71290 78.000
27.73285 83.000
27.75280 84.000
27.77274 82.000
27.79269 88.000
27.81264 93.000
27.83258 78.000
27.85253 85.000
27.87248 67.000
27.89242 74.000
27.91237 74.000
27.93232 72.000
27.95227 75.000
27.97221 86.000
27.99216 80.000
28.01211 87.000
28.03205 99.000
28.05200 87.000
28.07195 79.000
28.09189 77.000
28.11184 97.000
28.13179 80.000
28.15174 75.000
28.17168 79.000
28.19163 81.000
28.21158 77.000
28.23152 78.000
28.25147 89.000
28.27142 78.000
28.29136 84.000
28.31131 74.000
28.33126 68.000
28.35120 82.000
28.37115 94.000
28.39110 65.000
28.41105 80.000
28.43099 66.000
28.45094 88.000
28.47089 90.000
28.49083 84.000
28.51078 93.000
28.53073 86.000
28.55067 73.000
28.57062 81.000
28.59057 73.000
28.61052 85.000
28.63046 66.000
28.65041 86.000
28.67036 73.000
28.69030 87.000
28.71025 79.000
28.73020 86.000
28.75014 90.000
28.77009 91.000
28.79004 78.000
28.80998 86.000
28.82993 82.000
28.84988 86.000
28.86983 81.000
28.88977 87.000
28.90972 62.000
28.92967 79.000
28.94961 94.000
28.96956 81.000
28.98951 79.000
29.00945 92.000
29.02940 91.000
29.04935 76.000
29.06930 98.000
29.08924 88.000
29.10919 101.000
29.12914 86.000
29.14908 98.000
29.16903 76.000
29.18898 99.000
29.20892 83.000
29.22887 93.000
29.24882 93.000
29.26877 80.000
29.28871 87.000
29.30866 94.000
29.32861 85.000
29.34855 95.000
29.36850 81.000
29.38845 86.000
29.40839 103.000
29.42834 94.000
29.44829 107.000
29.46823 122.000
29.48818 116.000
29.50813 130.000
29.52808 123.000
29.54802 116.000
29.56797 124.000
29.58792 123.000
29.60786 100.000
29.62781 100.000
29.64776 98.000
29.66770 85.000
29.68765 114.000
29.70760 79.000
29.72755 78.000
29.74749 79.000
29.76744 85.000
29.78739 63.000
29.80733 76.000
29.82728 103.000
29.84723 92.000
29.86717 81.000
29.88712 96.000
29.90707 101.000
29.92701 95.000
29.94696 87.000
29.96691 136.000
29.98686 113.000
30.00680 130.000
30.02675 160.000
30.04670 146.000
30.06664 162.000
30.08659 177.000
30.10654 197.000
30.12648 212.000
30.14643 207.000
30.16638 224.000
30.18633 255.000
30.20627 301.000
30.22622 332.000
30.24617 367.000
30.26611 331.000
30.28606 304.000
30.30601 293.000
30.32595 241.000
30.34590 214.000
30.36585 176.000
30.38579 140.000
30.40574 118.000
30.42569 107.000
30.44564 84.000
30.46558 95.000
30.48553 84.000
30.50548 91.000
30.52542 92.000
30.54537 96.000
30.56532 129.000
30.58526 98.000
30.60521 104.000
30.62516 102.000
30.64511 109.000
30.66505 102.000
30.68500 90.000
30.70495 78.000
30.72489 92.000
30.74484 76.000
30.76479 100.000
30.78473 103.000
30.80468 84.000
30.82463 83.000
30.84458 86.000
30.86452 77.000
30.88447 86.000
30.90442 68.000
30.92436 93.000
30.94431 95.000
30.96426 90.000
30.98420 88.000
31.00415 93.000
31.02410 90.000
31.04404 66.000
31.06399 80.000
31.08394 77.000
31.10389 99.000
31.12383 91.000
31.14378 75.000
31.16373 67.000
31.18367 95.000
31.20362 100.000
31.22357 84.000
31.24351 82.000
31.26346 87.000
31.28341 98.000
31.30336 84.000
31.32330 86.000
31.34325 84.000
31.36320 78.000
31.38314 94.000
31.40309 102.000
31.42304 82.000
31.44298 76.000
31.46293 90.000
31.48288 93.000
31.50282 98.000
31.52277 87.000
31.54272 88.000
31.56267 112.000
31.58261 82.000
31.60256 101.000
31.62251 94.000
31.64245 82.000
31.66240 101.000
31.68235 95.000
31.70229 94.000
31.72224 104.000
31.74219 106.000
31.76214 84.000
31.78208 108.000
31.80203 95.000
31.82198 103.000
31.84192 99.000
31.86187 96.000
31.88182 91.000
31.90176 96.000
31.92171 118.000
31.94166 105.000
31.96160 116.000
31.98155 82.000
32.00150 104.000
32.02145 93.000
32.04139 87.000
32.06134 87.000
32.08129 89.000
32.10123 95.000
32.12118 118.000
32.14113 91.000
32.16107 81.000
32.18102 101.000
32.20097 80.000
32.22092 92.000
32.24086 104.000
32.26081 99.000
32.28076 100.000
32.30070 94.000
32.32065 96.000
32.34060 118.000
32.36054 87.000
32.38049 93.000
32.40044 99.000
32.42039 108.000
32.44033 109.000
32.46028 123.000
32.48023 96.000
32.50017 119.000
32.52012 100.000
32.54007 119.000
32.56001 119.000
32.57996 116.000
32.59991 125.000
32.61985 119.000
32.63980 108.000
32.65975 81.000
32.67970 110.000
32.69964 120.000
32.71959 118.000
32.73954 117.000
32.75948 115.000
32.77943 104.000
32.79938 116.000
32.81932 97.000
32.83927 95.000
32.85922 114.000
32.87917 91.000
32.89911 109.000
32.91906 126.000
32.93901 118.000
32.95895 114.000
32.97890 113.000
32.99885 154.000
33.01879 126.000
33.03874 142.000
33.05869 131.000
33.07863 131.000
33.09858 172.000
33.11853 186.000
33.13848 211.000
33.15842 250.000
33.17837 225.000
33.19832 276.000
33.21826 272.000
33.23821 313.000
33.25816 345.000
33.27810 395.000
33.29805 391.000
33.31800 439.000
33.33795 422.000
33.35789 397.000
33.37784 328.000
33.39779 277.000
33.41773 254.000
33.43768 231.000
33.45763 208.000
33.47757 167.000
33.49752 172.000
33.51747 146.000
33.53741 156.000
33.55736 153.000
33.57731 128.000
33.59726 142.000
33.61720 130.000
33.63715 145.000
33.65710 116.000
33.67704 128.000
33.69699 135.000
33.71694 158.000
33.73688 139.000
33.75683 149.000
33.77678 157.000
33.79673 140.000
33.81667 163.000
33.83662 137.000
33.85657 159.000
33.87651 168.000
33.89646 180.000
33.91641 189.000
33.93635 194.000
33.95630 222.000
33.97625 226.000
33.99620 210.000
34.01614 258.000
34.03609 233.000
34.05604 239.000
34.07598 225.000
34.09593 223.000
34.11588 177.000
34.13582 210.000
34.15577 205.000
34.17572 182.000
34.19566 196.000
34.21561 184.000
34.23556 175.000
34.25551 200.000
34.27545 170.000
34.29540 166.000
34.31535 169.000
34.33529 192.000
34.35524 158.000
34.37519 163.000
34.39513 181.000
34.41508 164.000
34.43503 155.000
34.45498 147.000
34.47492 157.000
34.49487 160.000
34.51482 155.000
34.53476 159.000
34.55471 136.000
34.57466 114.000
34.59460 139.000
34.61455 138.000
34.63450 117.000
34.65444 124.000
34.67439 109.000
34.69434 125.000
34.71429 139.000
34.73423 126.000
34.75418 126.000
34.77413 138.000
34.79407 129.000
34.81402 155.000
34.83397 194.000
34.85391 231.000
34.87386 301.000
34.89381 407.000
34.91376 387.000
34.93370 442.000
34.95365 390.000
34.97360 436.000
34.99354 370.000
35.01349 399.000
35.03344 363.000
35.05338 323.000
35.07333 279.000
35.09328 271.000
35.11322 209.000
35.13317 230.000
35.15312 258.000
35.17307 220.000
35.19301 206.000
35.21296 200.000
35.23291 197.000
35.25285 201.000
35.27280 227.000
35.29275 256.000
35.31269 287.000
35.33264 303.000
35.35259 348.000
35.37254 337.000
35.39248 443.000
35.41243 458.000
35.43238 564.000
35.45232 550.000
35.47227 575.000
35.49222 578.000
35.51216 697.000
35.53211 726.000
35.55206 811.000
35.57201 879.000
35.59195 988.000
35.61190 1020.000
35.63185 1065.000
35.65179 1004.000
35.67174 911.000
35.69169 829.000
35.71163 707.000
35.73158 588.000
35.75153 500.000
35.77147 394.000
35.79142 335.000
35.81137 251.000
35.83132 228.000
35.85126 232.000
35.87121 181.000
35.89116 202.000
35.91110 158.000
35.93105 180.000
35.95100 159.000
35.97094 159.000
35.99089 127.000
36.01084 159.000
36.03079 176.000
36.05073 156.000
36.07068 166.000
36.09063 154.000
36.11057 199.000
36.13052 177.000
36.15047 243.000
36.17041 246.000
36.19036 310.000
36.21031 447.000
36.23025 551.000
36.25020 642.000
36.27015 715.000
36.29010 641.000
36.31004 656.000
36.32999 651.000
36.34994 556.000
36.36988 550.000
36.38983 427.000
36.40978 387.000
36.42972 316.000
36.44967 305.000
36.46962 273.000
36.48957 194.000
36.50951 216.000
36.52946 186.000
36.54941 180.000
36.56935 170.000
36.58930 159.000
36.60925 148.000
36.62919 132.000
36.64914 143.000
36.66909 132.000
36.68903 138.000
36.70898 104.000
36.72893 124.000
36.74888 117.000
36.76882 115.000
36.78877 108.000
36.80872 120.000
36.82866 118.000
36.84861 107.000
36.86856 101.000
36.88850 113.000
36.90845 108.000
36.92840 95.000
36.94835 107.000
36.96829 113.000
36.98824 100.000
37.00819 126.000
37.02813 126.000
37.04808 100.000
37.06803 103.000
37.08797 119.000
37.10792 104.000
37.12787 111.000
37.14781 103.000
37.16776 104.000
37.18771 130.000
37.20766 148.000
37.22760 159.000
37.24755 145.000
37.26750 142.000
37.28744 155.000
37.30739 135.000
37.32734 121.000
37.34728 158.000
37.36723 130.000
37.38718 122.000
37.40713 106.000
37.42707 89.000
37.44702 97.000
37.46697 89.000
37.48691 104.000
37.50686 87.000
37.52681 106.000
37.54675 106.000
37.56670 114.000
37.58665 77.000
37.60660 72.000
37.62654 84.000
37.64649 93.000
37.66644 88.000
37.68638 86.000
37.70633 90.000
37.72628 104.000
37.74622 92.000
37.76617 78.000
37.78612 80.000
37.80606 89.000
37.82601 81.000
37.84596 75.000
37.86591 96.000
37.88585 77.000
37.90580 98.000
37.92575 89.000
37.94569 87.000
37.96564 108.000
37.98559 87.000
38.00553 109.000
38.02548 99.000
38.04543 93.000
38.06538 89.000
38.08532 104.000
38.10527 103.000
38.12522 110.000
38.14516 99.000
38.16511 105.000
38.18506 107.000
38.20500 97.000
38.22495 102.000
38.24490 106.000
38.26484 91.000
38.28479 90.000
38.30474 109.000
38.32469 100.000
38.34463 88.000
38.36458 108.000
38.38453 112.000
38.40447 98.000
38.42442 114.000
38.44437 113.000
38.46431 132.000
38.48426 111.000
38.50421 114.000
38.52416 152.000
38.54410 148.000
38.56405 158.000
38.58400 158.000
38.60394 164.000
38.62389 172.000
38.64384 198.000
38.66378 225.000
38.68373 229.000
38.70368 261.000
38.72362 245.000
38.74357 270.000
38.76352 230.000
38.78347 248.000
38.80341 250.000
38.82336 244.000
38.84331 212.000
38.86325 187.000
38.88320 205.000
38.90315 189.000
38.92309 184.000
38.94304 190.000
38.96299 179.000
38.98294 170.000
39.00288 159.000
39.02283 166.000
39.04278 149.000
39.06272 147.000
39.08267 141.000
39.10262 132.000
39.12256 119.000
39.14251 109.000
39.16246 110.000
39.18241 89.000
39.20235 92.000
39.22230 90.000
39.24225 102.000
39.26219 99.000
39.28214 91.000
39.30209 106.000
39.32203 103.000
39.34198 94.000
39.36193 102.000
39.38187 104.000
39.40182 110.000
39.42177 86.000
39.44172 102.000
39.46166 109.000
39.48161 100.000
39.50156 109.000
39.52150 101.000
39.54145 77.000
39.56140 95.000
39.58134 88.000
39.60129 104.000
39.62124 93.000
39.64119 105.000
39.66113 109.000
39.68108 94.000
39.70103 83.000
39.72097 74.000
39.74092 125.000
39.76087 93.000
39.78081 90.000
39.80076 94.000
39.82071 91.000
39.84065 91.000
39.86060 95.000
39.88055 98.000
39.90050 80.000
39.92044 86.000
39.94039 90.000
39.96034 86.000
39.98028 90.000
40.00023 92.000
40.02018 97.000
40.04012 81.000
40.06007 100.000
40.08002 80.000
40.09997 88.000
40.11991 93.000
40.13986 93.000
40.15981 95.000
40.17975 95.000
40.19970 99.000
40.21965 86.000
40.23959 85.000
40.25954 105.000
40.27949 85.000
40.29943 113.000
40.31938 106.000
40.33933 86.000
40.35928 112.000
40.37922 95.000
40.39917 106.000
40.41912 85.000
40.43906 92.000
40.45901 94.000
40.47896 87.000
40.49890 84.000
40.51885 97.000
40.53880 123.000
40.55875 113.000
40.57869 103.000
40.59864 103.000
40.61859 89.000
40.63853 105.000
40.65848 98.000
40.67843 112.000
40.69837 101.000
40.71832 118.000
40.73827 109.000
40.75822 121.000
40.77816 135.000
40.79811 145.000
40.81806 121.000
40.83800 124.000
40.85795 149.000
40.87790 138.000
40.89784 141.000
40.91779 165.000
40.93774 150.000
40.95768 167.000
40.97763 172.000
40.99758 198.000
41.01753 223.000
41.03747 229.000
41.05742 245.000
41.07737 242.000
41.09731 311.000
41.11726 371.000
41.13721 427.000
41.15715 496.000
41.17710 699.000
41.19705 1006.000
41.21700 1465.000
41.23694 2108.000
41.25689 2622.000
41.27684 2527.000
41.29678 2328.000
41.31673 2043.000
41.33668 1881.000
41.35662 1951.000
41.37657 1866.000
41.39652 1529.000
41.41646 1262.000
41.43641 950.000
41.45636 795.000
41.47631 626.000
41.49625 502.000
41.51620 421.000
41.53615 393.000
41.55609 341.000
41.57604 317.000
41.59599 260.000
41.61593 251.000
41.63588 242.000
41.65583 241.000
41.67578 213.000
41.69572 236.000
41.71567 195.000
41.73562 192.000
41.75556 188.000
41.77551 183.000
41.79546 163.000
41.81540 183.000
41.83535 162.000
41.85530 209.000
41.87524 179.000
41.89519 168.000
41.91514 178.000
41.93509 147.000
41.95503 166.000
41.97498 180.000
41.99493 169.000
42.01487 153.000
42.03482 153.000
42.05477 135.000
42.07471 135.000
42.09466 135.000
42.11461 124.000
42.13456 123.000
42.15450 137.000
42.17445 129.000
42.19440 125.000
42.21434 107.000
42.23429 117.000
42.25424 99.000
42.27418 108.000
42.29413 96.000
42.31408 112.000
42.33403 95.000
42.35397 111.000
42.37392 87.000
42.39387 98.000
42.41381 107.000
42.43376 109.000
42.45371 101.000
42.47365 116.000
42.49360 108.000
42.51355 94.000
42.53349 97.000
42.55344 94.000
42.57339 100.000
42.59334 93.000
42.61328 81.000
42.63323 111.000
42.65318 108.000
42.67312 93.000
42.69307 103.000
42.71302 93.000
42.73296 88.000
42.75291 97.000
42.77286 95.000
42.79281 111.000
42.81275 99.000
42.83270 95.000
42.85265 101.000
42.87259 84.000
42.89254 106.000
42.91249 105.000
42.93243 126.000
42.95238 107.000
42.97233 122.000
42.99227 127.000
43.01222 147.000
43.03217 141.000
43.05212 145.000
43.07206 115.000
43.09201 149.000
43.11196 136.000
43.13190 139.000
43.15185 180.000
43.17180 185.000
43.19174 173.000
43.21169 182.000
43.23164 186.000
43.25159 207.000
43.27153 233.000
43.29148 236.000
43.31143 239.000
43.33137 223.000
43.35132 168.000
43.37127 188.000
43.39121 188.000
43.41116 174.000
43.43111 187.000
43.45105 142.000
43.47100 159.000
43.49095 135.000
43.51090 127.000
43.53084 114.000
43.55079 96.000
43.57074 109.000
43.59068 83.000
43.61063 93.000
43.63058 103.000
43.65052 98.000
43.67047 86.000
43.69042 69.000
43.71037 88.000
43.73031 87.000
43.75026 86.000
43.77021 89.000
43.79015 84.000
43.81010 92.000
43.83005 92.000
43.84999 82.000
43.86994 72.000
43.88989 72.000
43.90984 77.000
43.92978 77.000
43.94973 87.000
43.96968 94.000
43.98962 86.000
44.00957 80.000
44.02952 78.000
44.04946 90.000
44.06941 72.000
44.08936 67.000
44.10930 67.000
44.12925 87.000
44.14920 67.000
44.16915 66.000
44.18909 90.000
44.20904 62.000
44.22899 84.000
44.24893 106.000
44.26888 92.000
44.28883 87.000
44.30877 86.000
44.32872 101.000
44.34867 69.000
44.36862 98.000
44.38856 78.000
44.40851 71.000
44.42846 69.000
44.44840 83.000
44.46835 89.000
44.48830 86.000
44.50824 78.000
44.52819 93.000
44.54814 84.000
44.56808 80.000
44.58803 98.000
44.60798 92.000
44.62793 98.000
44.64787 112.000
44.66782 129.000
44.68777 117.000
44.70771 135.000
44.72766 151.000
44.74761 139.000
44.76755 125.000
44.78750 105.000
44.80745 125.000
44.82740 129.000
44.84734 118.000
44.86729 110.000
44.88724 96.000
44.90718 107.000
44.92713 85.000
44.94708 80.000
44.96702 79.000
44.98697 98.000
45.00692 92.000
45.02686 91.000
45.04681 85.000
45.06676 94.000
45.08671 95.000
45.10665 93.000
45.12660 68.000
45.14655 70.000
45.16649 76.000
45.18644 85.000
45.20639 85.000
45.22633 73.000
45.24628 98.000
45.26623 76.000
45.28618 86.000
45.30612 62.000
45.32607 72.000
45.34602 76.000
45.36596 87.000
45.38591 71.000
45.40586 74.000
45.42580 69.000
45.44575 74.000
45.46570 70.000
45.48565 78.000
45.50559 81.000
45.52554 88.000
45.54549 67.000
45.56543 85.000
45.58538 76.000
45.60533 67.000
45.62527 75.000
45.64522 87.000
45.66517 68.000
45.68511 76.000
45.70506 92.000
45.72501 74.000
45.74496 82.000
45.76490 84.000
45.78485 65.000
45.80480 81.000
45.82474 82.000
45.84469 74.000
45.86464 54.000
45.88458 67.000
45.90453 67.000
45.92448 78.000
45.94443 91.000
45.96437 66.000
45.98432 78.000
46.00427 63.000
46.02421 88.000
46.04416 88.000
46.06411 85.000
46.08405 72.000
46.10400 91.000
46.12395 62.000
46.14389 70.000
46.16384 78.000
46.18379 85.000
46.20374 98.000
46.22368 76.000
46.24363 76.000
46.26358 77.000
46.28352 82.000
46.30347 76.000
46.32342 80.000
46.34336 76.000
46.36331 96.000
46.38326 88.000
46.40321 93.000
46.42315 75.000
46.44310 70.000
46.46305 85.000
46.48299 83.000
46.50294 90.000
46.52289 96.000
46.54283 88.000
46.56278 85.000
46.58273 102.000
46.60267 83.000
46.62262 85.000
46.64257 79.000
46.66252 86.000
46.68246 93.000
46.70241 91.000
46.72236 77.000
46.74230 77.000
46.76225 90.000
46.78220 87.000
46.80214 84.000
46.82209 72.000
46.84204 75.000
46.86199 86.000
46.88193 74.000
46.90188 69.000
46.92183 61.000
46.94177 80.000
46.96172 80.000
46.98167 76.000
47.00161 70.000
47.02156 69.000
47.04151 74.000
47.06146 74.000
47.08140 95.000
47.10135 90.000
47.12130 77.000
47.14124 84.000
47.16119 78.000
47.18114 68.000
47.20108 77.000
47.22103 67.000
47.24098 83.000
47.26092 86.000
47.28087 73.000
47.30082 85.000
47.32077 88.000
47.34071 77.000
47.36066 78.000
47.38061 89.000
47.40055 80.000
47.42050 81.000
47.44045 74.000
47.46039 82.000
47.48034 83.000
47.50029 79.000
47.52024 80.000
47.54018 77.000
47.56013 85.000
47.58008 77.000
47.60002 76.000
47.61997 79.000
47.63992 79.000
47.65986 89.000
47.67981 72.000
47.69976 80.000
47.71970 85.000
47.73965 61.000
47.75960 75.000
47.77955 88.000
47.79949 77.000
47.81944 66.000
47.83939 78.000
47.85933 78.000
47.87928 78.000
47.89923 79.000
47.91917 84.000
47.93912 79.000
47.95907 78.000
47.97902 78.000
47.99896 99.000
48.01891 86.000
48.03886 65.000
48.05880 94.000
48.07875 89.000
48.09870 92.000
48.11864 68.000
48.13859 77.000
48.15854 81.000
48.17848 90.000
48.19843 89.000
48.21838 79.000
48.23833 66.000
48.25827 77.000
48.27822 84.000
48.29817 92.000
48.31811 83.000
48.33806 75.000
48.35801 63.000
48.37795 97.000
48.39790 90.000
48.41785 71.000
48.43780 93.000
48.45774 90.000
48.47769 103.000
48.49764 95.000
48.51758 89.000
48.53753 79.000
48.55748 104.000
48.57742 74.000
48.59737 105.000
48.61732 108.000
48.63726 110.000
48.65721 93.000
48.67716 110.000
48.69711 96.000
48.71705 114.000
48.73700 119.000
48.75695 117.000
48.77689 129.000
48.79684 127.000
48.81679 121.000
48.83673 121.000
48.85668 115.000
48.87663 121.000
48.89658 136.000
48.91652 108.000
48.93647 101.000
48.95642 127.000
48.97636 99.000
48.99631 103.000
49.01626 108.000
49.03620 103.000
49.05615 117.000
49.07610 106.000
49.09605 101.000
49.11599 79.000
49.13594 113.000
49.15589 91.000
49.17583 82.000
49.19578 91.000
49.21573 89.000
49.23567 92.000
49.25562 85.000
49.27557 96.000
49.29551 108.000
49.31546 73.000
49.33541 75.000
49.35536 100.000
49.37530 80.000
49.39525 93.000
49.41520 79.000
49.43514 98.000
49.45509 87.000
49.47504 101.000
49.49498 68.000
49.51493 90.000
49.53488 91.000
49.55483 81.000
49.57477 79.000
49.59472 82.000
49.61467 83.000
49.63461 79.000
49.65456 87.000
49.67451 75.000
49.69445 86.000
49.71440 86.000
49.73435 93.000
49.75429 91.000
49.77424 95.000
49.79419 75.000
49.81414 85.000
49.83408 84.000
49.85403 92.000
49.87398 80.000
49.89392 71.000
49.91387 93.000
49.93382 89.000
49.95376 71.000
49.97371 72.000
49.99366 85.000
50.01361 84.000
50.03355 85.000
50.05350 94.000
50.07345 87.000
50.09339 76.000
50.11334 97.000
50.13329 81.000
50.15323 90.000
50.17318 81.000
50.19313 69.000
50.21307 83.000
50.23302 94.000
50.25297 78.000
50.27292 74.000
50.29286 86.000
50.31281 66.000
50.33276 70.000
50.35270 74.000
50.37265 92.000
50.39260 75.000
50.41254 69.000
50.43249 86.000
50.45244 80.000
50.47239 71.000
50.49233 98.000
50.51228 80.000
50.53223 80.000
50.55217 73.000
50.57212 74.000
50.59207 77.000
50.61201 100.000
50.63196 77.000
50.65191 79.000
50.67186 84.000
50.69180 81.000
50.71175 72.000
50.73170 76.000
50.75164 74.000
50.77159 86.000
50.79154 80.000
50.81148 83.000
50.83143 72.000
50.85138 74.000
50.87132 82.000
50.89127 86.000
50.91122 92.000
50.93117 94.000
50.95111 81.000
50.97106 80.000
50.99101 82.000
51.01095 72.000
51.03090 79.000
51.05085 85.000
51.07079 93.000
51.09074 89.000
51.11069 89.000
51.13064 83.000
51.15058 78.000
51.17053 82.000
51.19048 74.000
51.21042 77.000
51.23037 64.000
51.25032 95.000
51.27026 84.000
51.29021 71.000
51.31016 67.000
51.33010 86.000
51.35005 94.000
51.37000 83.000
51.38995 68.000
51.40989 67.000
51.42984 79.000
51.44979 75.000
51.46973 77.000
51.48968 94.000
51.50963 94.000
51.52957 76.000
51.54952 88.000
51.56947 78.000
51.58942 76.000
51.60936 80.000
51.62931 69.000
51.64926 79.000
51.66920 76.000
51.68915 80.000
51.70910 93.000
51.72904 81.000
51.74899 70.000
51.76894 77.000
51.78888 77.000
51.80883 76.000
51.82878 66.000
51.84873 70.000
51.86867 75.000
51.88862 87.000
51.90857 88.000
51.92851 79.000
51.94846 58.000
51.96841 87.000
51.98835 68.000
52.00830 86.000
52.02825 74.000
52.04820 91.000
52.06814 72.000
52.08809 79.000
52.10804 85.000
52.12798 79.000
52.14793 60.000
52.16788 85.000
52.18782 77.000
52.20777 81.000
52.22772 63.000
52.24767 80.000
52.26761 91.000
52.28756 93.000
52.30751 76.000
52.32745 82.000
52.34740 105.000
52.36735 76.000
52.38729 71.000
52.40724 83.000
52.42719 81.000
52.44713 99.000
52.46708 73.000
52.48703 81.000
52.50698 114.000
52.52692 96.000
52.54687 100.000
52.56682 78.000
52.58676 109.000
52.60671 86.000
52.62666 90.000
52.64660 90.000
52.66655 74.000
52.68650 91.000
52.70645 97.000
52.72639 99.000
52.74634 106.000
52.76629 115.000
52.78623 114.000
52.80618 122.000
52.82613 135.000
52.84607 126.000
52.86602 131.000
52.88597 150.000
52.90591 188.000
52.92586 188.000
52.94581 208.000
52.96576 212.000
52.98570 230.000
53.00565 273.000
53.02560 283.000
53.04554 288.000
53.06549 289.000
53.08544 274.000
53.10538 232.000
53.12533 214.000
53.14528 234.000
53.16523 177.000
53.18517 207.000
53.20512 202.000
53.22507 154.000
53.24501 138.000
53.26496 141.000
53.28491 119.000
53.30485 109.000
53.32480 100.000
53.34475 117.000
53.36469 104.000
53.38464 105.000
53.40459 113.000
53.42454 122.000
53.44448 105.000
53.46443 104.000
53.48438 112.000
53.50432 103.000
53.52427 116.000
53.54422 115.000
53.56416 128.000
53.58411 133.000
53.60406 114.000
53.62401 118.000
53.64395 137.000
53.66390 137.000
53.68385 128.000
53.70379 143.000
53.72374 135.000
53.74369 141.000
53.76363 123.000
53.78358 119.000
53.80353 141.000
53.82348 137.000
53.84342 130.000
53.86337 125.000
53.88332 124.000
53.90326 125.000
53.92321 114.000
53.94316 112.000
53.96310 113.000
53.98305 102.000
54.00300 86.000
54.02294 80.000
54.04289 76.000
54.06284 88.000
54.08279 91.000
54.10273 91.000
54.12268 95.000
54.14263 79.000
54.16257 90.000
54.18252 86.000
54.20247 78.000
54.22241 102.000
54.24236 99.000
54.26231 92.000
54.28226 103.000
54.30220 71.000
54.32215 83.000
54.34210 84.000
54.36204 79.000
54.38199 74.000
54.40194 70.000
54.42188 90.000
54.44183 89.000
54.46178 85.000
54.48172 78.000
54.50167 89.000
54.52162 71.000
54.54157 72.000
54.56151 92.000
54.58146 86.000
54.60141 95.000
54.62135 78.000
54.64130 90.000
54.66125 84.000
54.68119 85.000
54.70114 93.000
54.72109 86.000
54.74104 63.000
54.76098 87.000
54.78093 78.000
54.80088 86.000
54.82082 90.000
54.84077 77.000
54.86072 83.000
54.88066 82.000
54.90061 81.000
54.92056 90.000
54.94050 83.000
54.96045 81.000
54.98040 74.000
55.00035 86.000
55.02029 73.000
55.04024 78.000
55.06019 83.000
55.08013 99.000
55.10008 92.000
55.12003 95.000
55.13997 90.000
55.15992 65.000
55.17987 105.000
55.19982 92.000
55.21976 84.000
55.23971 89.000
55.25966 90.000
55.27960 87.000
55.29955 91.000
55.31950 80.000
55.33944 103.000
55.35939 93.000
55.37934 84.000
55.39929 72.000
55.41923 103.000
55.43918 93.000
55.45913 82.000
55.47907 87.000
55.49902 81.000
55.51897 85.000
55.53891 80.000
55.55886 72.000
55.57881 86.000
55.59875 81.000
55.61870 95.000
55.63865 76.000
55.65860 81.000
55.67854 74.000
55.69849 86.000
55.71844 65.000
55.73838 90.000
55.75833 80.000
55.77828 84.000
55.79822 83.000
55.81817 68.000
55.83812 67.000
55.85807 95.000
55.87801 90.000
55.89796 72.000
55.91791 76.000
55.93785 87.000
55.95780 78.000
55.97775 70.000
55.99769 90.000
56.01764 90.000
56.03759 74.000
56.05753 76.000
56.07748 98.000
56.09743 91.000
56.11738 79.000
56.13732 86.000
56.15727 66.000
56.17722 76.000
56.19716 69.000
56.21711 80.000
56.23706 90.000
56.25700 86.000
56.27695 72.000
56.29690 68.000
56.31685 88.000
56.33679 85.000
56.35674 83.000
56.37669 95.000
56.39663 84.000
56.41658 84.000
56.43653 72.000
56.45647 75.000
56.47642 98.000
56.49637 71.000
56.51631 90.000
56.53626 83.000
56.55621 92.000
56.57616 85.000
56.59610 87.000
56.61605 92.000
56.63600 104.000
56.65594 97.000
56.67589 81.000
56.69584 93.000
56.71578 88.000
56.73573 71.000
56.75568 97.000
56.77563 102.000
56.79557 114.000
56.81552 108.000
56.83547 99.000
56.85541 137.000
56.87536 116.000
56.89531 114.000
56.91525 147.000
56.93520 141.000
56.95515 139.000
56.97510 139.000
56.99504 138.000
57.01499 155.000
57.03494 156.000
57.05488 157.000
57.07483 129.000
57.09478 162.000
57.11472 159.000
57.13467 163.000
57.15462 192.000
57.17456 193.000
57.19451 213.000
57.21446 202.000
57.23441 197.000
57.25435 260.000
57.27430 253.000
57.29425 255.000
57.31419 261.000
57.33414 256.000
57.35409 227.000
57.37403 229.000
57.39398 208.000
57.41393 239.000
57.43388 223.000
57.45382 190.000
57.47377 206.000
57.49372 189.000
57.51366 193.000
57.53361 216.000
57.55356 199.000
57.57350 221.000
57.59345 215.000
57.61340 230.000
57.63334 271.000
57.65329 284.000
57.67324 309.000
57.69319 331.000
57.71313 393.000
57.73308 430.000
57.75303 506.000
57.77297 547.000
57.79292 599.000
57.81287 590.000
57.83281 569.000
57.85276 508.000
57.87271 446.000
57.89266 392.000
57.91260 368.000
57.93255 322.000
57.95250 371.000
57.97244 323.000
57.99239 321.000
58.01234 248.000
58.03228 220.000
58.05223 187.000
58.07218 136.000
58.09212 167.000
58.11207 140.000
58.13202 137.000
58.15197 123.000
58.17191 123.000
58.19186 132.000
58.21181 128.000
58.23175 136.000
58.25170 122.000
58.27165 110.000
58.29159 109.000
58.31154 108.000
58.33149 119.000
58.35144 102.000
58.37138 103.000
58.39133 87.000
58.41128 97.000
58.43122 111.000
58.45117 107.000
58.47112 103.000
58.49106 88.000
58.51101 94.000
58.53096 105.000
58.55090 111.000
58.57085 98.000
58.59080 95.000
58.61075 91.000
58.63069 82.000
58.65064 91.000
58.67059 88.000
58.69053 84.000
58.71048 81.000
58.73043 104.000
58.75037 86.000
58.77032 70.000
58.79027 90.000
58.81022 91.000
58.83016 88.000
58.85011 69.000
58.87006 74.000
58.89000 74.000
58.90995 88.000
58.92990 86.000
58.94984 84.000
58.96979 90.000
58.98974 104.000
59.00969 74.000
59.02963 94.000
59.04958 87.000
59.06953 89.000
59.08947 64.000
59.10942 102.000
59.12937 79.000
59.14931 88.000
59.16926 81.000
59.18921 72.000
59.20915 67.000
59.22910 86.000
59.24905 96.000
59.26900 85.000
59.28894 71.000
59.30889 86.000
59.32884 74.000
59.34878 73.000
59.36873 77.000
59.38868 88.000
59.40862 93.000
59.42857 92.000
59.44852 87.000
59.46847 77.000
59.48841 84.000
59.50836 86.000
59.52831 93.000
59.54825 114.000
59.56820 86.000
59.58815 86.000
59.60809 81.000
59.62804 83.000
59.64799 108.000
59.66793 80.000
59.68788 96.000
59.70783 92.000
59.72778 70.000
59.74772 84.000
59.76767 83.000
59.78762 100.000
59.80756 76.000
59.82751 104.000
59.84746 101.000
59.86740 80.000
59.88735 98.000
59.90730 84.000
59.92725 101.000
59.94719 94.000
59.96714 103.000
59.98709 108.000
60.00703 86.000
60.02698 87.000
60.04693 91.000
60.06687 106.000
60.08682 104.000
60.10677 108.000
60.12671 99.000
60.14666 108.000
60.16661 102.000
60.18656 96.000
60.20650 90.000
60.22645 114.000
60.24640 107.000
60.26634 102.000
60.28629 89.000
60.30624 86.000
60.32618 106.000
60.34613 89.000
60.36608 88.000
60.38603 91.000
60.40597 92.000
60.42592 103.000
60.44587 90.000
60.46581 90.000
60.48576 108.000
60.50571 88.000
60.52565 108.000
60.54560 101.000
60.56555 110.000
60.58550 94.000
60.60544 102.000
60.62539 87.000
60.64534 87.000
60.66528 95.000
60.68523 94.000
60.70518 103.000
60.72512 112.000
60.74507 101.000
60.76502 110.000
60.78496 97.000
60.80491 108.000
60.82486 98.000
60.84481 86.000
60.86475 91.000
60.88470 80.000
60.90465 79.000
60.92459 101.000
60.94454 101.000
60.96449 100.000
60.98443 94.000
61.00438 102.000
61.02433 95.000
61.04428 84.000
61.06422 87.000
61.08417 79.000
61.10412 97.000
61.12406 104.000
61.14401 98.000
61.16396 97.000
61.18390 110.000
61.20385 121.000
61.22380 118.000
61.24374 117.000
61.26369 142.000
61.28364 112.000
61.30359 127.000
61.32353 130.000
61.34348 117.000
61.36343 129.000
61.38337 128.000
61.40332 130.000
61.42327 115.000
61.44321 169.000
61.46316 159.000
61.48311 149.000
61.50306 158.000
61.52300 164.000
61.54295 176.000
61.56290 202.000
61.58284 234.000
61.60279 238.000
61.62274 340.000
61.64268 392.000
61.66263 416.000
61.68258 473.000
61.70252 496.000
61.72247 483.000
61.74242 486.000
61.76237 426.000
61.78231 432.000
61.80226 423.000
61.82221 445.000
61.84215 406.000
61.86210 389.000
61.88205 384.000
61.90199 400.000
61.92194 356.000
61.94189 315.000
61.96184 337.000
61.98178 265.000
62.00173 262.000
62.02168 242.000
62.04162 247.000
62.06157 201.000
62.08152 194.000
62.10146 170.000
62.12141 168.000
62.14136 152.000
62.16131 177.000
62.18125 152.000
62.20120 152.000
62.22115 143.000
62.24109 141.000
62.26104 132.000
62.28099 141.000
62.30093 133.000
62.32088 155.000
62.34083 122.000
62.36077 129.000
62.38072 145.000
62.40067 151.000
62.42062 148.000
62.44056 170.000
62.46051 171.000
62.48046 162.000
62.50040 168.000
62.52035 164.000
62.54030 194.000
62.56024 156.000
62.58019 188.000
62.60014 148.000
62.62009 177.000
62.64003 185.000
62.65998 157.000
62.67993 182.000
62.69987 182.000
62.71982 172.000
62.73977 201.000
62.75971 211.000
62.77966 205.000
62.79961 221.000
62.81955 242.000
62.83950 246.000
62.85945 258.000
62.87940 297.000
62.89934 262.000
62.91929 286.000
62.93924 263.000
62.95918 261.000
62.97913 264.000
62.99908 233.000
63.01902 209.000
63.03897 218.000
63.05892 213.000
63.07887 199.000
63.09881 193.000
63.11876 190.000
63.13871 164.000
63.15865 146.000
63.17860 130.000
63.19855 140.000
63.21849 124.000
63.23844 101.000
63.25839 121.000
63.27833 115.000
63.29828 117.000
63.31823 122.000
63.33818 98.000
63.35812 92.000
63.37807 96.000
63.39802 107.000
63.41796 91.000
63.43791 80.000
63.45786 113.000
63.47780 74.000
63.49775 75.000
63.51770 95.000
63.53765 82.000
63.55759 89.000
63.57754 95.000
63.59749 98.000
63.61743 78.000
63.63738 83.000
63.65733 84.000
63.67727 67.000
63.69722 103.000
63.71717 72.000
63.73712 77.000
63.75706 86.000
63.77701 81.000
63.79696 81.000
63.81690 67.000
63.83685 87.000
63.85680 98.000
63.87674 87.000
63.89669 74.000
63.91664 96.000
63.93658 89.000
63.95653 75.000
63.97648 99.000
63.99643 79.000
64.01637 107.000
64.03632 83.000
64.05627 90.000
64.07621 101.000
64.09616 89.000
64.11611 82.000
64.13605 100.000
64.15600 101.000
64.17595 93.000
64.19590 93.000
64.21584 106.000
64.23579 118.000
64.25574 129.000
64.27568 140.000
64.29563 177.000
64.31558 155.000
64.33552 160.000
64.35547 198.000
64.37542 178.000
64.39536 143.000
64.41531 166.000
64.43526 182.000
64.45521 163.000
64.47515 173.000
64.49510 167.000
64.51505 162.000
64.53499 167.000
64.55494 165.000
64.57489 145.000
64.59483 148.000
64.61478 133.000
64.63473 127.000
64.65468 130.000
64.67462 134.000
64.69457 130.000
64.71452 116.000
64.73446 120.000
64.75441 116.000
64.77436 78.000
64.79430 91.000
64.81425 110.000
64.83420 84.000
64.85414 106.000
64.87409 95.000
64.89404 120.000
64.91399 117.000
64.93393 106.000
64.95388 102.000
64.97383 95.000
64.99377 86.000
65.01372 92.000
65.03367 82.000
65.05361 87.000
65.07356 99.000
65.09351 83.000
65.11346 94.000
65.13340 91.000
65.15335 75.000
65.17330 85.000
65.19324 82.000
65.21319 80.000
65.23314 104.000
65.25308 99.000
65.27303 83.000
65.29298 82.000
65.31293 98.000
65.33287 89.000
65.35282 98.000
65.37277 83.000
65.39271 113.000
65.41266 100.000
65.43261 87.000
65.45255 113.000
65.47250 86.000
65.49245 66.000
65.51239 84.000
65.53234 104.000
65.55229 89.000
65.57224 95.000
65.59218 89.000
65.61213 81.000
65.63208 102.000
65.65202 90.000
65.67197 109.000
65.69192 110.000
65.71186 92.000
65.73181 92.000
65.75176 89.000
65.77171 123.000
65.79165 104.000
65.81160 101.000
65.83155 88.000
65.85149 83.000
65.87144 104.000
65.89139 116.000
65.91133 84.000
65.93128 91.000
65.95123 96.000
65.97117 107.000
65.99112 96.000
66.01107 97.000
66.03102 98.000
66.05096 104.000
66.07091 111.000
66.09086 117.000
66.11080 110.000
66.13075 111.000
66.15070 79.000
66.17064 109.000
66.19059 108.000
66.21054 113.000
66.23049 96.000
66.25043 115.000
66.27038 99.000
66.29033 114.000
66.31027 126.000
66.33022 118.000
66.35017 125.000
66.37011 96.000
66.39006 84.000
66.41001 100.000
66.42995 87.000
66.44990 108.000
66.46985 102.000
66.48980 114.000
66.50974 101.000
66.52969 88.000
66.54964 85.000
66.56958 96.000
66.58953 92.000
66.60948 92.000
66.62942 82.000
66.64937 96.000
66.66932 96.000
66.68927 69.000
66.70921 85.000
66.72916 81.000
66.74911 94.000
66.76905 79.000
66.78900 86.000
66.80895 71.000
66.82889 98.000
66.84884 78.000
66.86879 92.000
66.88874 70.000
66.90868 78.000
66.92863 83.000
66.94858 88.000
66.96852 93.000
66.98847 82.000
67.00842 86.000
67.02836 100.000
67.04831 92.000
67.06826 63.000
67.08820 77.000
67.10815 60.000
67.12810 69.000
67.14805 80.000
67.16799 87.000
67.18794 72.000
67.20789 94.000
67.22783 84.000
67.24778 86.000
67.26773 83.000
67.28767 74.000
67.30762 83.000
67.32757 91.000
67.34752 85.000
67.36746 76.000
67.38741 89.000
67.40736 81.000
67.42730 82.000
67.44725 72.000
67.46720 93.000
67.48714 73.000
67.50709 81.000
67.52704 85.000
67.54698 72.000
67.56693 80.000
67.58688 83.000
67.60683 73.000
67.62677 100.000
67.64672 83.000
67.66667 90.000
67.68661 93.000
67.70656 95.000
67.72651 91.000
67.74645 91.000
67.76640 101.000
67.78635 121.000
67.80630 102.000
67.82624 74.000
67.84619 107.000
67.86614 106.000
67.88608 88.000
67.90603 102.000
67.92598 100.000
67.94592 109.000
67.96587 123.000
67.98582 114.000
68.00576 103.000
68.02571 103.000
68.04566 128.000
68.06561 110.000
68.08555 115.000
68.10550 113.000
68.12545 123.000
68.14539 123.000
68.16534 144.000
68.18529 126.000
68.20523 149.000
68.22518 141.000
68.24513 139.000
68.26508 148.000
68.28502 149.000
68.30497 157.000
68.32492 154.000
68.34486 162.000
68.36481 164.000
68.38476 187.000
68.40470 189.000
68.42465 161.000
68.44460 158.000
68.46455 160.000
68.48449 133.000
68.50444 138.000
68.52439 139.000
68.54433 150.000
68.56428 128.000
68.58423 126.000
68.60417 122.000
68.62412 115.000
68.64407 98.000
68.66401 100.000
68.68396 107.000
68.70391 84.000
68.72386 90.000
68.74380 85.000
68.76375 72.000
68.78370 78.000
68.80364 84.000
68.82359 95.000
68.84354 90.000
68.86348 85.000
68.88343 86.000
68.90338 72.000
68.92333 79.000
68.94327 75.000
68.96322 80.000
68.98317 68.000
69.00311 75.000
69.02306 105.000
69.04301 70.000
69.06295 80.000
69.08290 71.000
69.10285 80.000
69.12279 78.000
69.14274 103.000
69.16269 73.000
69.18264 74.000
69.20258 84.000
69.22253 89.000
69.24248 85.000
69.26242 90.000
69.28237 66.000
69.30232 64.000
69.32226 93.000
69.34221 93.000
69.36216 90.000
69.38211 91.000
69.40205 87.000
69.42200 84.000
69.44195 107.000
69.46189 102.000
69.48184 86.000
69.50179 76.000
69.52173 80.000
69.54168 98.000
69.56163 98.000
69.58157 84.000
69.60152 93.000
69.62147 95.000
69.64142 101.000
69.66136 84.000
69.68131 78.000
69.70126 83.000
69.72120 90.000
69.74115 99.000
69.76110 107.000
69.78104 114.000
69.80099 101.000
69.82094 109.000
69.84089 117.000
69.86083 104.000
69.88078 110.000
69.90073 115.000
69.92067 107.000
69.94062 111.000
69.96057 123.000
69.98051 123.000
70.00046 104.000
70.02041 101.000
70.04035 103.000
70.06030 99.000
70.08025 99.000
70.10020 79.000
70.12014 93.000
70.14009 77.000
70.16004 112.000
70.17998 107.000
70.19993 90.000
70.21988 85.000
70.23982 83.000
70.25977 71.000
70.27972 68.000
70.29967 83.000
70.31961 67.000
70.33956 81.000
70.35951 85.000
70.37945 85.000
70.39940 83.000
70.41935 91.000
70.43929 82.000
70.45924 92.000
70.47919 79.000
70.49914 76.000
70.51908 63.000
70.53903 79.000
70.55898 62.000
70.57892 72.000
70.59887 82.000
70.61882 69.000
70.63876 81.000
70.65871 87.000
70.67866 70.000
70.69860 76.000
70.71855 77.000
70.73850 75.000
70.75845 86.000
70.77839 71.000
70.79834 72.000
70.81829 85.000
70.83823 77.000
70.85818 86.000
70.87813 73.000
70.89807 83.000
70.91802 87.000
70.93797 86.000
70.95792 98.000
70.97786 72.000
70.99781 116.000
71.01776 98.000
71.03770 78.000
71.05765 90.000
71.07760 93.000
71.09754 73.000
71.11749 76.000
71.13744 83.000
71.15738 98.000
71.17733 66.000
71.19728 75.000
71.21723 85.000
71.23717 81.000
71.25712 93.000
71.27707 74.000
71.29701 88.000
71.31696 77.000
71.33691 81.000
71.35685 102.000
71.37680 94.000
71.39675 104.000
71.41670 87.000
71.43664 104.000
71.45659 96.000
71.47654 100.000
71.49648 93.000
71.51643 81.000
71.53638 84.000
71.55632 83.000
71.57627 82.000
71.59622 117.000
71.61616 103.000
71.63611 108.000
71.65606 88.000
71.67601 90.000
71.69595 96.000
71.71590 90.000
71.73585 100.000
71.75579 101.000
71.77574 83.000
71.79569 101.000
71.81563 121.000
71.83558 127.000
71.85553 123.000
71.87548 154.000
71.89542 165.000
71.91537 157.000
71.93532 180.000
71.95526 178.000
71.97521 163.000
71.99516 175.000
72.01510 190.000
72.03505 184.000
72.05500 163.000
72.07495 184.000
72.09489 166.000
72.11484 168.000
72.13479 170.000
72.15473 160.000
72.17468 152.000
72.19463 145.000
72.21457 169.000
72.23452 137.000
72.25447 120.000
72.27441 134.000
72.29436 136.000
72.31431 119.000
72.33426 119.000
72.35420 108.000
72.37415 122.000
72.39410 113.000
72.41404 114.000
72.43399 95.000
72.45394 103.000
72.47388 97.000
72.49383 96.000
72.51378 109.000
72.53373 103.000
72.55367 104.000
72.57362 102.000
72.59357 95.000
72.61351 84.000
72.63346 95.000
72.65341 72.000
72.67335 79.000
72.69330 98.000
72.71325 98.000
72.73319 88.000
72.75314 83.000
72.77309 89.000
72.79304 99.000
72.81298 105.000
72.83293 81.000
72.85288 104.000
72.87282 103.000
72.89277 100.000
72.91272 99.000
72.93266 109.000
72.95261 96.000
72.97256 90.000
72.99251 91.000
73.01245 94.000
73.03240 104.000
73.05235 102.000
73.07229 106.000
73.09224 86.000
73.11219 91.000
73.13213 113.000
73.15208 84.000
73.17203 96.000
73.19197 99.000
73.21192 105.000
73.23187 97.000
73.25182 88.000
73.27176 95.000
73.29171 98.000
73.31166 88.000
73.33160 97.000
73.35155 91.000
73.37150 90.000
73.39144 79.000
73.41139 76.000
73.43134 85.000
73.45129 81.000
73.47123 86.000
73.49118 86.000
73.51113 83.000
73.53107 87.000
73.55102 81.000
73.57097 91.000
73.59091 95.000
73.61086 101.000
73.63081 99.000
73.65076 107.000
73.67070 108.000
73.69065 149.000
73.71060 126.000
73.73054 142.000
73.75049 130.000
73.77044 130.000
73.79038 139.000
73.81033 107.000
73.83028 124.000
73.85022 132.000
73.87017 143.000
73.89012 130.000
73.91007 120.000
73.93001 139.000
73.94996 135.000
73.96991 135.000
73.98985 132.000
74.00980 143.000
74.02975 134.000
74.04969 156.000
74.06964 148.000
74.08959 147.000
74.10954 128.000
74.12948 142.000
74.14943 143.000
74.16938 165.000
74.18932 160.000
74.20927 138.000
74.22922 147.000
74.24916 150.000
74.26911 136.000
74.28906 129.000
74.30900 139.000
74.32895 133.000
74.34890 147.000
74.36885 124.000
74.38879 133.000
74.40874 144.000
74.42869 117.000
74.44863 125.000
74.46858 144.000
74.48853 132.000
74.50847 115.000
74.52842 108.000
74.54837 123.000
74.56832 115.000
74.58826 113.000
74.60821 88.000
74.62816 104.000
74.64810 93.000
74.66805 95.000
74.68800 106.000
74.70794 98.000
74.72789 92.000
74.74784 101.000
74.76778 89.000
74.78773 85.000
74.80768 92.000
74.82763 92.000
74.84757 103.000
74.86752 92.000
74.88747 98.000
74.90741 86.000
74.92736 105.000
74.94731 93.000
74.96725 94.000
74.98720 87.000
75.00715 79.000
75.02710 91.000
75.04704 100.000
75.06699 96.000
75.08694 99.000
75.10688 83.000
75.12683 85.000
75.14678 107.000
75.16672 90.000
75.18667 91.000
75.20662 111.000
75.22657 88.000
75.24651 91.000
75.26646 85.000
75.28641 98.000
75.30635 80.000
75.32630 86.000
75.34625 98.000
75.36619 89.000
75.38614 96.000
75.40609 87.000
75.42603 80.000
75.44598 110.000
75.46593 94.000
75.48588 105.000
75.50582 112.000
75.52577 93.000
75.54572 83.000
75.56566 83.000
75.58561 84.000
75.60556 81.000
75.62550 105.000
75.64545 75.000
75.66540 106.000
75.68535 93.000
75.70529 72.000
75.72524 83.000
75.74519 97.000
75.76513 77.000
75.78508 75.000
75.80503 90.000
75.82497 74.000
75.84492 73.000
75.86487 77.000
75.88481 82.000
75.90476 76.000
75.92471 77.000
75.94466 72.000
75.96460 70.000
75.98455 69.000
76.00450 66.000
76.02444 90.000
76.04439 66.000
76.06434 76.000
76.08428 72.000
76.10423 67.000
76.12418 70.000
76.14413 74.000
76.16407 71.000
76.18402 86.000
76.20397 60.000
76.22391 75.000
76.24386 79.000
76.26381 77.000
76.28375 81.000
76.30370 83.000
76.32365 88.000
76.34359 73.000
76.36354 71.000
76.38349 72.000
76.40344 91.000
76.42338 69.000
76.44333 74.000
76.46328 69.000
76.48322 80.000
76.50317 80.000
76.52312 78.000
76.54306 74.000
76.56301 71.000
76.58296 77.000
76.60291 79.000
76.62285 82.000
76.64280 70.000
76.66275 98.000
76.68269 74.000
76.70264 94.000
76.72259 76.000
76.74253 96.000
76.76248 106.000
76.78243 122.000
76.80238 88.000
76.82232 106.000
76.84227 131.000
76.86222 132.000
76.88216 151.000
76.90211 146.000
76.92206 177.000
76.94200 180.000
76.96195 180.000
76.98190 208.000
77.00184 175.000
77.02179 196.000
77.04174 178.000
77.06169 146.000
77.08163 171.000
77.10158 158.000
77.12153 168.000
77.14147 161.000
77.16142 155.000
77.18137 149.000
77.20131 174.000
77.22126 148.000
77.24121 151.000
77.26116 150.000
77.28110 155.000
77.30105 141.000
77.32100 138.000
77.34094 140.000
77.36089 128.000
77.38084 118.000
77.40078 108.000
77.42073 119.000
77.44068 105.000
77.46062 107.000
77.48057 101.000
77.50052 81.000
77.52047 113.000
77.54041 87.000
77.56036 115.000
77.58031 108.000
77.60025 79.000
77.62020 100.000
77.64015 93.000
77.66009 93.000
77.68004 81.000
77.69999 106.000
77.71994 85.000
77.73988 89.000
77.75983 75.000
77.77978 104.000
77.79972 75.000
77.81967 90.000
77.83962 79.000
77.85956 89.000
77.87951 76.000
77.89946 75.000
77.91940 97.000
77.93935 84.000
77.95930 93.000
77.97925 80.000
77.99919 86.000
78.01914 91.000
78.03909 69.000
78.05903 70.000
78.07898 78.000
78.09893 69.000
78.11887 76.000
78.13882 83.000
78.15877 72.000
78.17872 68.000
78.19866 74.000
78.21861 77.000
78.23856 74.000
78.25850 76.000
78.27845 59.000
78.29840 72.000
78.31834 71.000
78.33829 71.000
78.35824 74.000
78.37819 82.000
78.39813 73.000
78.41808 66.000
78.43803 54.000
78.45797 92.000
78.47792 73.000
78.49787 73.000
78.51781 66.000
78.53776 69.000
78.55771 65.000
78.57765 74.000
78.59760 86.000
78.61755 61.000
78.63750 71.000
78.65744 67.000
78.67739 64.000
78.69734 75.000
78.71728 83.000
78.73723 72.000
78.75718 59.000
78.77712 79.000
78.79707 75.000
78.81702 79.000
78.83697 59.000
78.85691 78.000
78.87686 73.000
78.89681 84.000
78.91675 73.000
78.93670 73.000
78.95665 92.000
78.97659 81.000
78.99654 79.000
79.01649 85.000
79.03643 76.000
79.05638 66.000
79.07633 77.000
79.09628 67.000
79.11622 72.000
79.13617 82.000
79.15612 74.000
79.17606 68.000
79.19601 76.000
79.21596 60.000
79.23590 74.000
79.25585 77.000
79.27580 87.000
79.29575 91.000
79.31569 88.000
79.33564 73.000
79.35559 57.000
79.37553 97.000
79.39548 76.000
79.41543 74.000
79.43537 102.000
79.45532 90.000
79.47527 87.000
79.49521 86.000
79.51516 111.000
79.53511 93.000
79.55506 87.000
79.57500 101.000
79.59495 103.000
79.61490 76.000
79.63484 67.000
79.65479 99.000
79.67474 78.000
79.69468 81.000
79.71463 81.000
79.73458 84.000
79.75453 62.000
79.77447 78.000
79.79442 87.000
79.81437 54.000
79.83431 69.000
79.85426 85.000
79.87421 68.000
79.89415 68.000
79.91410 75.000
79.93405 66.000
79.95399 76.000
79.97394 55.000
79.99389 72.000
80.01384 71.000
80.03378 78.000
80.05373 87.000
80.07368 77.000
80.09362 88.000
80.11357 74.000
80.13352 75.000
80.15346 79.000
80.17341 75.000
80.19336 81.000
80.21331 74.000
80.23325 77.000
80.25320 76.000
80.27315 82.000
80.29309 64.000
80.31304 78.000
80.33299 74.000
80.35293 83.000
80.37288 69.000
80.39283 79.000
80.41278 78.000
80.43272 71.000
80.45267 65.000
80.47262 75.000
80.49256 81.000
80.51251 62.000
80.53246 74.000
80.55240 69.000
80.57235 74.000
80.59230 85.000
80.61224 68.000
80.63219 74.000
80.65214 73.000
80.67209 69.000
80.69203 74.000
80.71198 77.000
80.73193 73.000
80.75187 62.000
80.77182 67.000
80.79177 77.000
80.81171 64.000
80.83166 59.000
80.85161 76.000
80.87156 70.000
80.89150 80.000
80.91145 79.000
80.93140 85.000
80.95134 58.000
80.97129 82.000
80.99124 73.000
81.01118 69.000
81.03113 59.000
81.05108 80.000
81.07102 73.000
81.09097 70.000
81.11092 64.000
81.13087 71.000
81.15081 74.000
81.17076 72.000
81.19071 87.000
81.21065 78.000
81.23060 68.000
81.25055 69.000
81.27049 69.000
81.29044 62.000
81.31039 90.000
81.33034 71.000
81.35028 76.000
81.37023 86.000
81.39018 69.000
81.41012 67.000
81.43007 82.000
81.45002 78.000
81.46996 71.000
81.48991 67.000
81.50986 66.000
81.52980 73.000
81.54975 76.000
81.56970 61.000
81.58965 90.000
81.60959 74.000
81.62954 83.000
81.64949 73.000
81.66943 52.000
81.68938 76.000
81.70933 75.000
81.72927 64.000
81.74922 72.000
81.76917 74.000
81.78912 67.000
81.80906 72.000
81.82901 72.000
81.84896 81.000
81.86890 68.000
81.88885 86.000
81.90880 81.000
81.92874 82.000
81.94869 81.000
81.96864 81.000
81.98859 84.000
82.00853 72.000
82.02848 75.000
82.04843 85.000
82.06837 56.000
82.08832 83.000
82.10827 74.000
82.12821 64.000
82.14816 91.000
82.16811 72.000
82.18805 78.000
82.20800 87.000
82.22795 81.000
82.24790 69.000
82.26784 76.000
82.28779 82.000
82.30774 78.000
82.32768 84.000
82.34763 82.000
82.36758 80.000
82.38752 89.000
82.40747 78.000
82.42742 85.000
82.44737 87.000
82.46731 72.000
82.48726 56.000
82.50721 75.000
82.52715 93.000
82.54710 89.000
82.56705 84.000
82.58699 79.000
82.60694 100.000
82.62689 88.000
82.64683 81.000
82.66678 78.000
82.68673 83.000
82.70668 88.000
82.72662 85.000
82.74657 80.000
82.76652 91.000
82.78646 65.000
82.80641 85.000
82.82636 83.000
82.84630 78.000
82.86625 81.000
82.88620 82.000
82.90615 74.000
82.92609 71.000
82.94604 74.000
82.96599 85.000
82.98593 93.000
83.00588 71.000
83.02583 82.000
83.04577 72.000
83.06572 72.000
83.08567 95.000
83.10561 72.000
83.12556 68.000
83.14551 83.000
83.16546 70.000
83.18540 74.000
83.20535 87.000
83.22530 74.000
83.24524 79.000
83.26519 59.000
83.28514 73.000
83.30508 82.000
83.32503 62.000
83.34498 89.000
83.36493 71.000
83.38487 85.000
83.40482 79.000
83.42477 97.000
83.44471 76.000
83.46466 66.000
83.48461 70.000
83.50455 73.000
83.52450 85.000
83.54445 73.000
83.56440 74.000
83.58434 72.000
83.60429 65.000
83.62424 73.000
83.64418 75.000
83.66413 76.000
83.68408 78.000
83.70402 78.000
83.72397 75.000
83.74392 82.000
83.76386 76.000
83.78381 76.000
83.80376 70.000
83.82371 93.000
83.84365 86.000
83.86360 72.000
83.88355 68.000
83.90349 82.000
83.92344 79.000
83.94339 73.000
83.96333 87.000
83.98328 106.000
84.00323 85.000
84.02318 80.000
84.04312 78.000
84.06307 98.000
84.08302 68.000
84.10296 80.000
84.12291 76.000
84.14286 82.000
84.16280 73.000
84.18275 85.000
84.20270 76.000
84.22264 87.000
84.24259 87.000
84.26254 71.000
84.28249 71.000
84.30243 70.000
84.32238 75.000
84.34233 77.000
84.36227 59.000
84.38222 108.000
84.40217 101.000
84.42211 83.000
84.44206 90.000
84.46201 89.000
84.48196 80.000
84.50190 79.000
84.52185 96.000
84.54180 65.000
84.56174 73.000
84.58169 76.000
84.60164 75.000
84.62158 92.000
84.64153 66.000
84.66148 68.000
84.68142 78.000
84.70137 68.000
84.72132 65.000
84.74127 70.000
84.76121 68.000
84.78116 70.000
84.80111 59.000
84.82105 72.000
84.84100 80.000
84.86095 70.000
84.88089 101.000
84.90084 52.000
84.92079 64.000
84.94074 48.000
84.96068 76.000
84.98063 71.000
85.00058 74.000
85.02052 79.000
85.04047 71.000
85.06042 65.000
85.08036 80.000
85.10031 89.000
85.12026 76.000
85.14021 76.000
85.16015 76.000
85.18010 67.000
85.20005 81.000
85.21999 71.000
85.23994 63.000
85.25989 69.000
85.27983 80.000
85.29978 76.000
85.31973 75.000
85.33967 80.000
85.35962 71.000
85.37957 80.000
85.39952 66.000
85.41946 75.000
85.43941 70.000
85.45936 74.000
85.47930 80.000
85.49925 76.000
85.51920 71.000
85.53914 76.000
85.55909 81.000
85.57904 57.000
85.59899 80.000
85.61893 86.000
85.63888 93.000
85.65883 107.000
85.67877 112.000
85.69872 96.000
85.71867 98.000
85.73861 100.000
85.75856 92.000
85.77851 83.000
85.79845 102.000
85.81840 103.000
85.83835 101.000
85.85830 79.000
85.87824 101.000
85.89819 88.000
85.91814 81.000
85.93808 93.000
85.95803 92.000
85.97798 84.000
85.99792 106.000
86.01787 77.000
86.03782 87.000
86.05777 84.000
86.07771 73.000
86.09766 67.000
86.11761 84.000
86.13755 84.000
86.15750 81.000
86.17745 70.000
86.19739 80.000
86.21734 83.000
86.23729 88.000
86.25723 79.000
86.27718 85.000
86.29713 79.000
86.31708 89.000
86.33702 78.000
86.35697 86.000
86.37692 75.000
86.39686 65.000
86.41681 84.000
86.43676 79.000
86.45670 86.000
86.47665 92.000
86.49660 71.000
86.51655 76.000
86.53649 85.000
86.55644 79.000
86.57639 80.000
86.59633 72.000
86.61628 66.000
86.63623 78.000
86.65617 85.000
86.67612 73.000
86.69607 73.000
86.71602 83.000
86.73596 80.000
86.75591 98.000
86.77586 86.000
86.79580 65.000
86.81575 90.000
86.83570 72.000
86.85564 91.000
86.87559 85.000
86.89554 82.000
86.91548 70.000
86.93543 71.000
86.95538 63.000
86.97533 83.000
86.99527 87.000
87.01522 70.000
87.03517 107.000
87.05511 81.000
87.07506 82.000
87.09501 79.000
87.11495 93.000
87.13490 82.000
87.15485 83.000
87.17480 86.000
87.19474 85.000
87.21469 85.000
87.23464 88.000
87.25458 74.000
87.27453 85.000
87.29448 89.000
87.31442 90.000
87.33437 88.000
87.35432 109.000
87.37426 89.000
87.39421 89.000
87.41416 88.000
87.43411 81.000
87.45405 106.000
87.47400 66.000
87.49395 84.000
87.51389 89.000
87.53384 75.000
87.55379 76.000
87.57373 73.000
87.59368 76.000
87.61363 84.000
87.63358 102.000
87.65352 80.000
87.67347 76.000
87.69342 91.000
87.71336 86.000
87.73331 110.000
87.75326 86.000
87.77320 52.000
87.79315 84.000
87.81310 76.000
87.83304 62.000
87.85299 81.000
87.87294 68.000
87.89289 77.000
87.91283 79.000
87.93278 77.000
87.95273 64.000
87.97267 77.000
87.99262 94.000
88.01257 84.000
88.03251 59.000
88.05246 71.000
88.07241 78.000
88.09236 64.000
88.11230 75.000
88.13225 71.000
88.15220 71.000
88.17214 70.000
88.19209 65.000
88.21204 88.000
88.23198 73.000
88.25193 75.000
88.27188 68.000
88.29183 78.000
88.31177 78.000
88.33172 74.000
88.35167 97.000
88.37161 75.000
88.39156 67.000
88.41151 77.000
88.43145 74.000
88.45140 68.000
88.47135 74.000
88.49129 80.000
88.51124 81.000
88.53119 70.000
88.55114 87.000
88.57108 72.000
88.59103 69.000
88.61098 91.000
88.63092 59.000
88.65087 79.000
88.67082 80.000
88.69076 63.000
88.71071 72.000
88.73066 76.000
88.75061 74.000
88.77055 70.000
88.79050 69.000
88.81045 63.000
88.83039 72.000
88.85034 59.000
88.87029 76.000
88.89023 74.000
88.91018 104.000
88.93013 77.000
88.95007 73.000
88.97002 83.000
88.98997 79.000
89.00992 58.000
89.02986 83.000
89.04981 81.000
89.06976 76.000
89.08970 69.000
89.10965 68.000
89.12960 88.000
89.14954 79.000
89.16949 63.000
89.18944 76.000
89.20939 75.000
89.22933 81.000
89.24928 80.000
89.26923 88.000
89.28917 79.000
89.30912 95.000
89.32907 83.000
89.34901 92.000
89.36896 90.000
89.38891 97.000
89.40885 89.000
89.42880 106.000
89.44875 105.000
89.46870 120.000
89.48864 111.000
89.50859 118.000
89.52854 151.000
89.54848 123.000
89.56843 122.000
89.58838 127.000
89.60832 150.000
89.62827 154.000
89.64822 146.000
89.66817 125.000
89.68811 130.000
89.70806 126.000
89.72801 122.000
89.74795 179.000
89.76790 132.000
89.78785 127.000
89.80779 124.000
89.82774 135.000
89.84769 149.000
89.86764 144.000
89.88758 139.000
89.90753 145.000
89.92748 120.000
89.94742 153.000
89.96737 140.000
89.98732 136.000
90.00726 126.000
