10.00000 76.000
10.01995 81.000
10.03989 82.000
10.05984 93.000
10.07979 66.000
10.09973 81.000
10.11968 77.000
10.13963 58.000
10.15958 87.000
10.17952 80.000
10.19947 78.000
10.21942 74.000
10.23936 61.000
10.25931 66.000
10.27926 76.000
10.29920 79.000
10.31915 89.000
10.33910 75.000
10.35905 70.000
10.37899 59.000
10.39894 71.000
10.41889 75.000
10.43883 81.000
10.45878 71.000
10.47873 76.000
10.49867 72.000
10.51862 82.000
10.53857 85.000
10.55851 85.000
10.57846 74.000
10.59841 63.000
10.61836 60.000
10.63830 84.000
10.65825 78.000
10.67820 78.000
10.69814 80.000
10.71809 76.000
10.73804 58.000
10.75798 68.000
10.77793 90.000
10.79788 57.000
10.81783 95.000
10.83777 85.000
10.85772 84.000
10.87767 83.000
10.89761 84.000
10.91756 80.000
10.93751 70.000
10.95745 72.000
10.97740 73.000
10.99735 79.000
11.01730 60.000
11.03724 80.000
11.05719 77.000
11.07714 70.000
11.09708 59.000
11.11703 64.000
11.13698 63.000
11.15692 72.000
11.17687 69.000
11.19682 63.000
11.21676 80.000
11.23671 70.000
11.25666 78.000
11.27661 71.000
11.29655 75.000
11.31650 81.000
11.33645 60.000
11.35639 77.000
11.37634 68.000
11.39629 81.000
11.41623 65.000
11.43618 85.000
11.45613 96.000
11.47608 76.000
11.49602 83.000
11.51597 82.000
11.53592 71.000
11.55586 79.000
11.57581 78.000
11.59576 70.000
11.61570 59.000
11.63565 60.000
11.65560 71.000
11.67554 85.000
11.69549 75.000
11.71544 71.000
11.73539 59.000
11.75533 76.000
11.77528 76.000
11.79523 69.000
11.81517 61.000
11.83512 74.000
11.85507 70.000
11.87501 70.000
11.89496 74.000
11.91491 81.000
11.93486 74.000
11.95480 70.000
11.97475 67.000
11.99470 80.000
12.01464 81.000
12.03459 65.000
12.05454 91.000
12.07448 84.000
12.09443 64.000
12.11438 53.000
12.13432 76.000
12.15427 89.000
12.17422 67.000
12.19417 77.000
12.21411 83.000
12.23406 78.000
12.25401 69.000
12.27395 81.000
12.29390 71.000
12.31385 78.000
12.33379 87.000
12.35374 76.000
12.37369 70.000
12.39364 66.000
12.41358 78.000
12.43353 81.000
12.45348 64.000
12.47342 75.000
12.49337 61.000
12.51332 69.000
12.53326 69.000
12.55321 62.000
12.57316 66.000
12.59311 62.000
12.61305 82.000
12.63300 73.000
12.65295 53.000
12.67289 55.000
12.69284 66.000
12.71279 81.000
12.73273 49.000
12.75268 71.000
12.77263 80.000
12.79257 56.000
12.81252 75.000
12.83247 61.000
12.85242 77.000
12.87236 71.000
12.89231 72.000
12.91226 73.000
12.93220 57.000
12.95215 63.000
12.97210 58.000
12.99204 66.000
13.01199 67.000
13.03194 68.000
13.05189 74.000
13.07183 93.000
13.09178 82.000
13.11173 67.000
13.13167 68.000
13.15162 68.000
13.17157 71.000
13.19151 72.000
13.21146 68.000
13.23141 79.000
13.25135 80.000
13.27130 68.000
13.29125 61.000
13.31120 67.000
13.33114 66.000
13.35109 64.000
13.37104 82.000
13.39098 69.000
13.41093 67.000
13.43088 60.000
13.45082 84.000
13.47077 72.000
13.49072 68.000
13.51067 84.000
13.53061 86.000
13.55056 84.000
13.57051 60.000
13.59045 71.000
13.61040 51.000
13.63035 64.000
13.65029 61.000
13.67024 64.000
13.69019 64.000
13.71013 66.000
13.73008 70.000
13.75003 78.000
13.76998 74.000
13.78992 70.000
13.80987 68.000
13.82982 67.000
13.84976 83.000
13.86971 60.000
13.88966 65.000
13.90960 66.000
13.92955 72.000
13.94950 64.000
13.96945 66.000
13.98939 72.000
14.00934 81.000
14.02929 58.000
14.04923 69.000
14.06918 84.000
14.08913 58.000
14.10907 67.000
14.12902 58.000
14.14897 69.000
14.16892 73.000
14.18886 94.000
14.20881 69.000
14.22876 64.000
14.24870 78.000
14.26865 71.000
14.28860 62.000
14.30854 72.000
14.32849 79.000
14.34844 61.000
14.36838 63.000
14.38833 76.000
14.40828 74.000
14.42823 71.000
14.44817 65.000
14.46812 60.000
14.48807 73.000
14.50801 74.000
14.52796 71.000
14.54791 76.000
14.56785 71.000
14.58780 70.000
14.60775 70.000
14.62770 65.000
14.64764 57.000
14.66759 69.000
14.68754 62.000
14.70748 61.000
14.72743 60.000
14.74738 80.000
14.76732 72.000
14.78727 81.000
14.80722 76.000
14.82716 73.000
14.84711 67.000
14.86706 51.000
14.88701 64.000
14.90695 62.000
14.92690 69.000
14.94685 63.000
14.96679 63.000
14.98674 72.000
15.00669 50.000
15.02663 58.000
15.04658 80.000
15.06653 58.000
15.08648 75.000
15.10642 53.000
15.12637 59.000
15.14632 64.000
15.16626 61.000
15.18621 81.000
15.20616 65.000
15.22610 68.000
15.24605 63.000
15.26600 68.000
15.28594 71.000
15.30589 87.000
15.32584 72.000
15.34579 62.000
15.36573 69.000
15.38568 70.000
15.40563 72.000
15.42557 71.000
15.44552 66.000
15.46547 69.000
15.48541 79.000
15.50536 72.000
15.52531 65.000
15.54526 65.000
15.56520 72.000
15.58515 78.000
15.60510 79.000
15.62504 63.000
15.64499 79.000
15.66494 84.000
15.68488 69.000
15.70483 75.000
15.72478 89.000
15.74472 78.000
15.76467 91.000
15.78462 101.000
15.80457 82.000
15.82451 97.000
15.84446 95.000
15.86441 97.000
15.88435 75.000
15.90430 109.000
15.92425 102.000
15.94419 109.000
15.96414 128.000
15.98409 116.000
16.00404 153.000
16.02398 153.000
16.04393 178.000
16.06388 229.000
16.08382 204.000
16.10377 247.000
16.12372 277.000
16.14366 291.000
16.16361 348.000
16.18356 407.000
16.20351 542.000
16.22345 660.000
16.24340 774.000
16.26335 803.000
16.28329 905.000
16.30324 971.000
16.32319 978.000
16.34313 883.000
16.36308 688.000
16.38303 507.000
16.40297 392.000
16.42292 261.000
16.44287 182.000
16.46282 159.000
16.48276 145.000
16.50271 133.000
16.52266 110.000
16.54260 104.000
16.56255 105.000
16.58250 108.000
16.60244 90.000
16.62239 95.000
16.64234 90.000
16.66229 105.000
16.68223 67.000
16.70218 85.000
16.72213 86.000
16.74207 81.000
16.76202 72.000
16.78197 74.000
16.80191 90.000
16.82186 73.000
16.84181 82.000
16.86175 86.000
16.88170 72.000
16.90165 92.000
16.92160 80.000
16.94154 79.000
16.96149 81.000
16.98144 69.000
17.00138 83.000
17.02133 57.000
17.04128 103.000
17.06122 73.000
17.08117 69.000
17.10112 78.000
17.12107 70.000
17.14101 59.000
17.16096 78.000
17.18091 69.000
17.20085 74.000
17.22080 72.000
17.24075 82.000
17.26069 66.000
17.28064 77.000
17.30059 66.000
17.32053 73.000
17.34048 65.000
17.36043 64.000
17.38038 71.000
17.40032 69.000
17.42027 79.000
17.44022 79.000
17.46016 66.000
17.48011 84.000
17.50006 66.000
17.52000 81.000
17.53995 60.000
17.55990 65.000
17.57985 84.000
17.59979 65.000
17.61974 59.000
17.63969 79.000
17.65963 71.000
17.67958 52.000
17.69953 64.000
17.71947 66.000
17.73942 70.000
17.75937 62.000
17.77932 72.000
17.79926 71.000
17.81921 64.000
17.83916 70.000
17.85910 70.000
17.87905 81.000
17.89900 85.000
17.91894 83.000
17.93889 83.000
17.95884 71.000
17.97878 70.000
17.99873 78.000
18.01868 72.000
18.03863 70.000
18.05857 78.000
18.07852 73.000
18.09847 80.000
18.11841 70.000
18.13836 79.000
18.15831 91.000
18.17825 90.000
18.19820 108.000
18.21815 116.000
18.23810 118.000
18.25804 161.000
18.27799 168.000
18.29794 260.000
18.31788 300.000
18.33783 373.000
18.35778 376.000
18.37772 379.000
18.39767 262.000
18.41762 203.000
18.43756 181.000
18.45751 127.000
18.47746 90.000
18.49741 102.000
18.51735 76.000
18.53730 66.000
18.55725 69.000
18.57719 74.000
18.59714 86.000
18.61709 64.000
18.63703 68.000
18.65698 72.000
18.67693 71.000
18.69688 62.000
18.71682 61.000
18.73677 53.000
18.75672 78.000
18.77666 65.000
18.79661 65.000
18.81656 74.000
18.83650 57.000
18.85645 86.000
18.87640 83.000
18.89634 86.000
18.91629 60.000
18.93624 75.000
18.95619 73.000
18.97613 65.000
18.99608 64.000
19.01603 70.000
19.03597 60.000
19.05592 60.000
19.07587 70.000
19.09581 50.000
19.11576 67.000
19.13571 76.000
19.15566 84.000
19.17560 62.000
19.19555 60.000
19.21550 81.000
19.23544 56.000
19.25539 69.000
19.27534 72.000
19.29528 66.000
19.31523 76.000
19.33518 44.000
19.35513 65.000
19.37507 71.000
19.39502 58.000
19.41497 72.000
19.43491 73.000
19.45486 69.000
19.47481 65.000
19.49475 69.000
19.51470 62.000
19.53465 55.000
19.55459 71.000
19.57454 70.000
19.59449 57.000
19.61444 61.000
19.63438 76.000
19.65433 75.000
19.67428 61.000
19.69422 63.000
19.71417 72.000
19.73412 61.000
19.75406 78.000
19.77401 69.000
19.79396 56.000
19.81391 68.000
19.83385 73.000
19.85380 55.000
19.87375 76.000
19.89369 70.000
19.91364 60.000
19.93359 65.000
19.95353 56.000
19.97348 64.000
19.99343 88.000
20.01337 81.000
20.03332 75.000
20.05327 77.000
20.07322 78.000
20.09316 72.000
20.11311 72.000
20.13306 77.000
20.15300 69.000
20.17295 70.000
20.19290 72.000
20.21284 75.000
20.23279 76.000
20.25274 60.000
20.27269 60.000
20.29263 64.000
20.31258 73.000
20.33253 60.000
20.35247 66.000
20.37242 72.000
20.39237 68.000
20.41231 72.000
20.43226 55.000
20.45221 80.000
20.47215 83.000
20.49210 82.000
20.51205 85.000
20.53200 70.000
20.55194 97.000
20.57189 100.000
20.59184 102.000
20.61178 105.000
20.63173 113.000
20.65168 116.000
20.67162 101.000
20.69157 104.000
20.71152 93.000
20.73147 97.000
20.75141 117.000
20.77136 108.000
20.79131 91.000
20.81125 103.000
20.83120 91.000
20.85115 99.000
20.87109 82.000
20.89104 91.000
20.91099 78.000
20.93094 67.000
20.95088 70.000
20.97083 75.000
20.99078 79.000
21.01072 76.000
21.03067 84.000
21.05062 70.000
21.07056 64.000
21.09051 67.000
21.11046 59.000
21.13040 75.000
21.15035 65.000
21.17030 64.000
21.19025 75.000
21.21019 67.000
21.23014 73.000
21.25009 66.000
21.27003 58.000
21.28998 104.000
21.30993 59.000
21.32987 77.000
21.34982 76.000
21.36977 77.000
21.38972 71.000
21.40966 60.000
21.42961 60.000
21.44956 74.000
21.46950 63.000
21.48945 66.000
21.50940 81.000
21.52934 60.000
21.54929 58.000
21.56924 67.000
21.58918 71.000
21.60913 70.000
21.62908 64.000
21.64903 54.000
21.66897 67.000
21.68892 65.000
21.70887 88.000
21.72881 54.000
21.74876 75.000
21.76871 63.000
21.78865 62.000
21.80860 56.000
21.82855 70.000
21.84850 80.000
21.86844 68.000
21.88839 59.000
21.90834 66.000
21.92828 84.000
21.94823 62.000
21.96818 72.000
21.98812 68.000
22.00807 74.000
22.02802 59.000
22.04796 64.000
22.06791 62.000
22.08786 61.000
22.10781 71.000
22.12775 77.000
22.14770 75.000
22.16765 57.000
22.18759 77.000
22.20754 85.000
22.22749 71.000
22.24743 65.000
22.26738 67.000
22.28733 77.000
22.30728 57.000
22.32722 68.000
22.34717 67.000
22.36712 69.000
22.38706 80.000
22.40701 75.000
22.42696 66.000
22.44690 73.000
22.46685 73.000
22.48680 69.000
22.50675 72.000
22.52669 75.000
22.54664 71.000
22.56659 70.000
22.58653 59.000
22.60648 72.000
22.62643 66.000
22.64637 57.000
22.66632 78.000
22.68627 61.000
22.70621 61.000
22.72616 76.000
22.74611 71.000
22.76606 76.000
22.78600 60.000
22.80595 67.000
22.82590 82.000
22.84584 62.000
22.86579 79.000
22.88574 55.000
22.90568 61.000
22.92563 74.000
22.94558 80.000
22.96553 59.000
22.98547 62.000
23.00542 61.000
23.02537 77.000
23.04531 67.000
23.06526 64.000
23.08521 78.000
23.10515 66.000
23.12510 64.000
23.14505 81.000
23.16499 60.000
23.18494 61.000
23.20489 61.000
23.22484 61.000
23.24478 65.000
23.26473 75.000
23.28468 68.000
23.30462 63.000
23.32457 75.000
23.34452 57.000
23.36446 62.000
23.38441 63.000
23.40436 57.000
23.42431 67.000
23.44425 69.000
23.46420 66.000
23.48415 75.000
23.50409 64.000
23.52404 54.000
23.54399 68.000
23.56393 68.000
23.58388 74.000
23.60383 82.000
23.62377 59.000
23.64372 49.000
23.66367 71.000
23.68362 63.000
23.70356 63.000
23.72351 76.000
23.74346 66.000
23.76340 66.000
23.78335 54.000
23.80330 60.000
23.82324 73.000
23.84319 79.000
23.86314 79.000
23.88309 67.000
23.90303 61.000
23.92298 67.000
23.94293 52.000
23.96287 62.000
23.98282 69.000
24.00277 67.000
24.02271 56.000
24.04266 83.000
24.06261 73.000
24.08256 57.000
24.10250 65.000
24.12245 68.000
24.14240 69.000
24.16234 53.000
24.18229 64.000
24.20224 65.000
24.22218 81.000
24.24213 67.000
24.26208 61.000
24.28202 58.000
24.30197 69.000
24.32192 61.000
24.34187 71.000
24.36181 56.000
24.38176 71.000
24.40171 72.000
24.42165 64.000
24.44160 55.000
24.46155 77.000
24.48149 65.000
24.50144 61.000
24.52139 72.000
24.54134 53.000
24.56128 69.000
24.58123 65.000
24.60118 65.000
24.62112 66.000
24.64107 69.000
24.66102 65.000
24.68096 68.000
24.70091 76.000
24.72086 90.000
24.74080 71.000
24.76075 66.000
24.78070 83.000
24.80065 79.000
24.82059 60.000
24.84054 67.000
24.86049 87.000
24.88043 56.000
24.90038 61.000
24.92033 88.000
24.94027 70.000
24.96022 67.000
24.98017 74.000
25.00012 65.000
25.02006 74.000
25.04001 66.000
25.05996 68.000
25.07990 70.000
25.09985 62.000
25.11980 76.000
25.13974 62.000
25.15969 73.000
25.17964 75.000
25.19958 74.000
25.21953 72.000
25.23948 77.000
25.25943 60.000
25.27937 75.000
25.29932 71.000
25.31927 59.000
25.33921 79.000
25.35916 57.000
25.37911 64.000
25.39905 71.000
25.41900 69.000
25.43895 54.000
25.45890 77.000
25.47884 67.000
25.49879 79.000
25.51874 78.000
25.53868 58.000
25.55863 70.000
25.57858 74.000
25.59852 71.000
25.61847 71.000
25.63842 69.000
25.65837 67.000
25.67831 77.000
25.69826 72.000
25.71821 67.000
25.73815 78.000
25.75810 77.000
25.77805 80.000
25.79799 69.000
25.81794 70.000
25.83789 58.000
25.85783 70.000
25.87778 81.000
25.89773 81.000
25.91768 75.000
25.93762 84.000
25.95757 82.000
25.97752 86.000
25.99746 74.000
26.01741 75.000
26.03736 72.000
26.05730 60.000
26.07725 76.000
26.09720 90.000
26.11715 79.000
26.13709 47.000
26.15704 68.000
26.17699 76.000
26.19693 79.000
26.21688 67.000
26.23683 66.000
26.25677 77.000
26.27672 77.000
26.29667 69.000
26.31661 74.000
26.33656 67.000
26.35651 66.000
26.37646 90.000
26.39640 74.000
26.41635 93.000
26.43630 57.000
26.45624 72.000
26.47619 74.000
26.49614 70.000
26.51608 63.000
26.53603 76.000
26.55598 80.000
26.57593 66.000
26.59587 67.000
26.61582 91.000
26.63577 64.000
26.65571 63.000
26.67566 59.000
26.69561 82.000
26.71555 75.000
26.73550 69.000
26.75545 70.000
26.77539 75.000
26.79534 63.000
26.81529 67.000
26.83524 64.000
26.85518 68.000
26.87513 80.000
26.89508 85.000
26.91502 72.000
26.93497 68.000
26.95492 74.000
26.97486 81.000
26.99481 61.000
27.01476 72.000
27.03471 70.000
27.05465 66.000
27.07460 75.000
27.09455 74.000
27.11449 68.000
27.13444 65.000
27.15439 85.000
27.17433 79.000
27.19428 60.000
27.21423 71.000
27.23417 68.000
27.25412 70.000
27.27407 82.000
27.29402 58.000
27.31396 65.000
27.33391 81.000
27.35386 60.000
27.37380 83.000
27.39375 78.000
27.41370 78.000
27.43364 85.000
27.45359 69.000
27.47354 85.000
27.49349 76.000
27.51343 64.000
27.53338 68.000
27.55333 86.000
27.57327 49.000
27.59322 68.000
27.61317 85.000
27.63311 74.000
27.65306 74.000
27.67301 64.000
27.69296 62.000
27.71290 57.000
27.73285 66.000
27.75280 82.000
27.77274 74.000
27.79269 92.000
27.81264 79.000
27.83258 67.000
27.85253 70.000
27.87248 72.000
27.89242 61.000
27.91237 68.000
27.93232 68.000
27.95227 67.000
27.97221 77.000
27.99216 69.000
28.01211 68.000
28.03205 96.000
28.05200 66.000
28.07195 80.000
28.09189 70.000
28.11184 63.000
28.13179 70.000
28.15174 74.000
28.17168 59.000
28.19163 88.000
28.21158 81.000
28.23152 87.000
28.25147 60.000
28.27142 82.000
28.29136 84.000
28.31131 71.000
28.33126 79.000
28.35120 80.000
28.37115 78.000
28.39110 89.000
28.41105 69.000
28.43099 58.000
28.45094 83.000
28.47089 74.000
28.49083 73.000
28.51078 65.000
28.53073 74.000
28.55067 63.000
28.57062 70.000
28.59057 77.000
28.61052 79.000
28.63046 67.000
28.65041 66.000
28.67036 81.000
28.69030 83.000
28.71025 82.000
28.73020 71.000
28.75014 73.000
28.77009 73.000
28.79004 70.000
28.80998 69.000
28.82993 60.000
28.84988 69.000
28.86983 72.000
28.88977 60.000
28.90972 80.000
28.92967 83.000
28.94961 79.000
28.96956 68.000
28.98951 80.000
29.00945 82.000
29.02940 73.000
29.04935 94.000
29.06930 85.000
29.08924 81.000
29.10919 88.000
29.12914 64.000
29.14908 80.000
29.16903 74.000
29.18898 75.000
29.20892 78.000
29.22887 74.000
29.24882 85.000
29.26877 88.000
29.28871 82.000
29.30866 84.000
29.32861 72.000
29.34855 88.000
29.36850 92.000
29.38845 82.000
29.40839 76.000
29.42834 93.000
29.44829 87.000
29.46823 95.000
29.48818 69.000
29.50813 84.000
29.52808 95.000
29.54802 88.000
29.56797 84.000
29.58792 92.000
29.60786 89.000
29.62781 79.000
29.64776 87.000
29.66770 96.000
29.68765 104.000
29.70760 99.000
29.72755 92.000
29.74749 87.000
29.76744 82.000
29.78739 80.000
29.80733 84.000
29.82728 79.000
29.84723 108.000
29.86717 120.000
29.88712 98.000
29.90707 104.000
29.92701 102.000
29.94696 101.000
29.96691 122.000
29.98686 130.000
30.00680 151.000
30.02675 165.000
30.04670 202.000
30.06664 254.000
30.08659 313.000
30.10654 416.000
30.12648 505.000
30.14643 588.000
30.16638 694.000
30.18633 704.000
30.20627 721.000
30.22622 661.000
30.24617 543.000
30.26611 484.000
30.28606 397.000
30.30601 303.000
30.32595 239.000
30.34590 168.000
30.36585 131.000
30.38579 120.000
30.40574 100.000
30.42569 101.000
30.44564 86.000
30.46558 100.000
30.48553 92.000
30.50548 90.000
30.52542 83.000
30.54537 80.000
30.56532 66.000
30.58526 81.000
30.60521 62.000
30.62516 94.000
30.64511 84.000
30.66505 79.000
30.68500 73.000
30.70495 80.000
30.72489 87.000
30.74484 84.000
30.76479 67.000
30.78473 98.000
30.80468 88.000
30.82463 78.000
30.84458 79.000
30.86452 71.000
30.88447 76.000
30.90442 58.000
30.92436 70.000
30.94431 98.000
30.96426 80.000
30.98420 76.000
31.00415 74.000
31.02410 96.000
31.04404 81.000
31.06399 70.000
31.08394 81.000
31.10389 88.000
31.12383 90.000
31.14378 77.000
31.16373 80.000
31.18367 68.000
31.20362 71.000
31.22357 72.000
31.24351 83.000
31.26346 76.000
31.28341 68.000
31.30336 70.000
31.32330 75.000
31.34325 81.000
31.36320 78.000
31.38314 93.000
31.40309 65.000
31.42304 77.000
31.44298 87.000
31.46293 81.000
31.48288 83.000
31.50282 92.000
31.52277 67.000
31.54272 70.000
31.56267 82.000
31.58261 74.000
31.60256 86.000
31.62251 80.000
31.64245 78.000
31.66240 78.000
31.68235 72.000
31.70229 92.000
31.72224 84.000
31.74219 89.000
31.76214 83.000
31.78208 84.000
31.80203 73.000
31.82198 77.000
31.84192 88.000
31.86187 92.000
31.88182 90.000
31.90176 80.000
31.92171 96.000
31.94166 62.000
31.96160 81.000
31.98155 76.000
32.00150 73.000
32.02145 73.000
32.04139 81.000
32.06134 76.000
32.08129 105.000
32.10123 81.000
32.12118 78.000
32.14113 46.000
32.16107 67.000
32.18102 94.000
32.20097 79.000
32.22092 72.000
32.24086 77.000
32.26081 67.000
32.28076 88.000
32.30070 74.000
32.32065 88.000
32.34060 72.000
32.36054 76.000
32.38049 82.000
32.40044 81.000
32.42039 76.000
32.44033 75.000
32.46028 103.000
32.48023 104.000
32.50017 71.000
32.52012 85.000
32.54007 100.000
32.56001 83.000
32.57996 91.000
32.59991 91.000
32.61985 97.000
32.63980 93.000
32.65975 88.000
32.67970 91.000
32.69964 97.000
32.71959 97.000
32.73954 110.000
32.75948 121.000
32.77943 113.000
32.79938 124.000
32.81932 132.000
32.83927 145.000
32.85922 140.000
32.87917 136.000
32.89911 169.000
32.91906 182.000
32.93901 144.000
32.95895 173.000
32.97890 193.000
32.99885 186.000
33.01879 199.000
33.03874 165.000
33.05869 151.000
33.07863 161.000
33.09858 153.000
33.11853 115.000
33.13848 103.000
33.15842 101.000
33.17837 91.000
33.19832 101.000
33.21826 101.000
33.23821 84.000
33.25816 101.000
33.27810 86.000
33.29805 107.000
33.31800 94.000
33.33795 115.000
33.35789 83.000
33.37784 110.000
33.39779 91.000
33.41773 99.000
33.43768 90.000
33.45763 86.000
33.47757 99.000
33.49752 89.000
33.51747 100.000
33.53741 86.000
33.55736 75.000
33.57731 78.000
33.59726 75.000
33.61720 72.000
33.63715 82.000
33.65710 65.000
33.67704 93.000
33.69699 87.000
33.71694 75.000
33.73688 98.000
33.75683 69.000
33.77678 94.000
33.79673 88.000
33.81667 109.000
33.83662 97.000
33.85657 102.000
33.87651 125.000
33.89646 122.000
33.91641 120.000
33.93635 119.000
33.95630 123.000
33.97625 126.000
33.99620 127.000
34.01614 143.000
34.03609 121.000
34.05604 115.000
34.07598 130.000
34.09593 124.000
34.11588 121.000
34.13582 127.000
34.15577 104.000
34.17572 134.000
34.19566 116.000
34.21561 115.000
34.23556 103.000
34.25551 114.000
34.27545 108.000
34.29540 127.000
34.31535 117.000
34.33529 105.000
34.35524 134.000
34.37519 111.000
34.39513 102.000
34.41508 138.000
34.43503 105.000
34.45498 120.000
34.47492 131.000
34.49487 98.000
34.51482 113.000
34.53476 109.000
34.55471 98.000
34.57466 112.000
34.59460 117.000
34.61455 106.000
34.63450 104.000
34.65444 96.000
34.67439 104.000
34.69434 98.000
34.71429 100.000
34.73423 123.000
34.75418 110.000
34.77413 86.000
34.79407 93.000
34.81402 101.000
34.83397 113.000
34.85391 110.000
34.87386 86.000
34.89381 115.000
34.91376 127.000
34.93370 128.000
34.95365 116.000
34.97360 138.000
34.99354 134.000
35.01349 164.000
35.03344 164.000
35.05338 222.000
35.07333 218.000
35.09328 260.000
35.11322 271.000
35.13317 319.000
35.15312 270.000
35.17307 287.000
35.19301 332.000
35.21296 302.000
35.23291 264.000
35.25285 256.000
35.27280 311.000
35.29275 289.000
35.31269 307.000
35.33264 319.000
35.35259 412.000
35.37254 474.000
35.39248 570.000
35.41243 669.000
35.43238 885.000
35.45232 1043.000
35.47227 1345.000
35.49222 1558.000
35.51216 1812.000
35.53211 2061.000
35.55206 2111.000
35.57201 2101.000
35.59195 1988.000
35.61190 1752.000
35.63185 1568.000
35.65179 1296.000
35.67174 1139.000
35.69169 898.000
35.71163 629.000
35.73158 507.000
35.75153 375.000
35.77147 289.000
35.79142 250.000
35.81137 183.000
35.83132 166.000
35.85126 150.000
35.87121 140.000
35.89116 121.000
35.91110 133.000
35.93105 121.000
35.95100 105.000
35.97094 127.000
35.99089 122.000
36.01084 114.000
36.03079 116.000
36.05073 124.000
36.07068 110.000
36.09063 113.000
36.11057 121.000
36.13052 110.000
36.15047 127.000
36.17041 104.000
36.19036 121.000
36.21031 99.000
36.23025 107.000
36.25020 132.000
36.27015 116.000
36.29010 135.000
36.31004 142.000
36.32999 167.000
36.34994 200.000
36.36988 237.000
36.38983 257.000
36.40978 279.000
36.42972 308.000
36.44967 338.000
36.46962 301.000
36.48957 277.000
36.50951 263.000
36.52946 265.000
36.54941 227.000
36.56935 183.000
36.58930 186.000
36.60925 157.000
36.62919 131.000
36.64914 117.000
36.66909 120.000
36.68903 137.000
36.70898 100.000
36.72893 121.000
36.74888 106.000
36.76882 98.000
36.78877 74.000
36.80872 92.000
36.82866 117.000
36.84861 87.000
36.86856 93.000
36.88850 93.000
36.90845 74.000
36.92840 101.000
36.94835 102.000
36.96829 97.000
36.98824 102.000
37.00819 104.000
37.02813 114.000
37.04808 104.000
37.06803 125.000
37.08797 145.000
37.10792 152.000
37.12787 185.000
37.14781 185.000
37.16776 245.000
37.18771 239.000
37.20766 214.000
37.22760 215.000
37.24755 216.000
37.26750 175.000
37.28744 186.000
37.30739 163.000
37.32734 126.000
37.34728 125.000
37.36723 89.000
37.38718 98.000
37.40713 88.000
37.42707 77.000
37.44702 65.000
37.46697 92.000
37.48691 84.000
37.50686 85.000
37.52681 75.000
37.54675 84.000
37.56670 65.000
37.58665 83.000
37.60660 84.000
37.62654 84.000
37.64649 72.000
37.66644 82.000
37.68638 76.000
37.70633 76.000
37.72628 72.000
37.74622 85.000
37.76617 75.000
37.78612 73.000
37.80606 90.000
37.82601 98.000
37.84596 93.000
37.86591 78.000
37.88585 74.000
37.90580 75.000
37.92575 78.000
37.94569 61.000
37.96564 67.000
37.98559 65.000
38.00553 82.000
38.02548 78.000
38.04543 83.000
38.06538 66.000
38.08532 94.000
38.10527 77.000
38.12522 83.000
38.14516 76.000
38.16511 84.000
38.18506 79.000
38.20500 73.000
38.22495 86.000
38.24490 63.000
38.26484 74.000
38.28479 82.000
38.30474 77.000
38.32469 75.000
38.34463 64.000
38.36458 85.000
38.38453 70.000
38.40447 76.000
38.42442 69.000
38.44437 76.000
38.46431 84.000
38.48426 68.000
38.50421 87.000
38.52416 84.000
38.54410 73.000
38.56405 84.000
38.58400 107.000
38.60394 84.000
38.62389 89.000
38.64384 100.000
38.66378 94.000
38.68373 117.000
38.70368 114.000
38.72362 110.000
38.74357 121.000
38.76352 88.000
38.78347 102.000
38.80341 102.000
38.82336 97.000
38.84331 89.000
38.86325 113.000
38.88320 107.000
38.90315 89.000
38.92309 91.000
38.94304 89.000
38.96299 82.000
38.98294 86.000
39.00288 96.000
39.02283 79.000
39.04278 82.000
39.06272 86.000
39.08267 79.000
39.10262 87.000
39.12256 81.000
39.14251 62.000
39.16246 73.000
39.18241 77.000
39.20235 76.000
39.22230 72.000
39.24225 82.000
39.26219 70.000
39.28214 80.000
39.30209 87.000
39.32203 90.000
39.34198 88.000
39.36193 76.000
39.38187 86.000
39.40182 67.000
39.42177 58.000
39.44172 85.000
39.46166 65.000
39.48161 81.000
39.50156 65.000
39.52150 78.000
39.54145 80.000
39.56140 67.000
39.58134 84.000
39.60129 77.000
39.62124 69.000
39.64119 83.000
39.66113 59.000
39.68108 76.000
39.70103 81.000
39.72097 57.000
39.74092 68.000
39.76087 79.000
39.78081 59.000
39.80076 78.000
39.82071 76.000
39.84065 76.000
39.86060 95.000
39.88055 58.000
39.90050 74.000
39.92044 82.000
39.94039 83.000
39.96034 71.000
39.98028 76.000
40.00023 72.000
40.02018 78.000
40.04012 68.000
40.06007 70.000
40.08002 86.000
40.09997 70.000
40.11991 81.000
40.13986 85.000
40.15981 66.000
40.17975 81.000
40.19970 77.000
40.21965 73.000
40.23959 71.000
40.25954 70.000
40.27949 78.000
40.29943 83.000
40.31938 46.000
40.33933 74.000
40.35928 79.000
40.37922 80.000
40.39917 74.000
40.41912 90.000
40.43906 83.000
40.45901 62.000
40.47896 71.000
40.49890 90.000
40.51885 94.000
40.53880 69.000
40.55875 63.000
40.57869 87.000
40.59864 94.000
40.61859 85.000
40.63853 85.000
40.65848 84.000
40.67843 75.000
40.69837 67.000
40.71832 81.000
40.73827 76.000
40.75822 88.000
40.77816 95.000
40.79811 80.000
40.81806 79.000
40.83800 83.000
40.85795 89.000
40.87790 93.000
40.89784 116.000
40.91779 114.000
40.93774 99.000
40.95768 105.000
40.97763 107.000
40.99758 118.000
41.01753 106.000
41.03747 117.000
41.05742 141.000
41.07737 148.000
41.09731 145.000
41.11726 159.000
41.13721 167.000
41.15715 198.000
41.17710 245.000
41.19705 265.000
41.21700 369.000
41.23694 465.000
41.25689 626.000
41.27684 756.000
41.29678 871.000
41.31673 1025.000
41.33668 1101.000
41.35662 998.000
41.37657 993.000
41.39652 861.000
41.41646 809.000
41.43641 708.000
41.45636 676.000
41.47631 555.000
41.49625 445.000
41.51620 385.000
41.53615 290.000
41.55609 252.000
41.57604 192.000
41.59599 178.000
41.61593 162.000
41.63588 143.000
41.65583 116.000
41.67578 128.000
41.69572 116.000
41.71567 110.000
41.73562 98.000
41.75556 100.000
41.77551 95.000
41.79546 121.000
41.81540 91.000
41.83535 85.000
41.85530 100.000
41.87524 101.000
41.89519 93.000
41.91514 83.000
41.93509 68.000
41.95503 84.000
41.97498 95.000
41.99493 96.000
42.01487 82.000
42.03482 78.000
42.05477 79.000
42.07471 82.000
42.09466 82.000
42.11461 79.000
42.13456 91.000
42.15450 84.000
42.17445 71.000
42.19440 89.000
42.21434 72.000
42.23429 70.000
42.25424 84.000
42.27418 96.000
42.29413 70.000
42.31408 89.000
42.33403 75.000
42.35397 83.000
42.37392 82.000
42.39387 89.000
42.41381 68.000
42.43376 81.000
42.45371 82.000
42.47365 79.000
42.49360 86.000
42.51355 76.000
42.53349 77.000
42.55344 89.000
42.57339 83.000
42.59334 85.000
42.61328 94.000
42.63323 76.000
42.65318 76.000
42.67312 93.000
42.69307 72.000
42.71302 85.000
42.73296 94.000
42.75291 83.000
42.77286 94.000
42.79281 107.000
42.81275 85.000
42.83270 96.000
42.85265 94.000
42.87259 96.000
42.89254 95.000
42.91249 107.000
42.93243 108.000
42.95238 144.000
42.97233 131.000
42.99227 127.000
43.01222 177.000
43.03217 175.000
43.05212 203.000
43.07206 232.000
43.09201 250.000
43.11196 289.000
43.13190 373.000
43.15185 390.000
43.17180 424.000
43.19174 476.000
43.21169 456.000
43.23164 446.000
43.25159 469.000
43.27153 397.000
43.29148 372.000
43.31143 351.000
43.33137 300.000
43.35132 296.000
43.37127 270.000
43.39121 221.000
43.41116 185.000
43.43111 166.000
43.45105 120.000
43.47100 136.000
43.49095 111.000
43.51090 114.000
43.53084 92.000
43.55079 95.000
43.57074 103.000
43.59068 82.000
43.61063 94.000
43.63058 95.000
43.65052 77.000
43.67047 74.000
43.69042 51.000
43.71037 77.000
43.73031 79.000
43.75026 68.000
43.77021 83.000
43.79015 61.000
43.81010 73.000
43.83005 77.000
43.84999 81.000
43.86994 70.000
43.88989 69.000
43.90984 82.000
43.92978 77.000
43.94973 77.000
43.96968 67.000
43.98962 71.000
44.00957 80.000
44.02952 60.000
44.04946 48.000
44.06941 64.000
44.08936 69.000
44.10930 77.000
44.12925 70.000
44.14920 66.000
44.16915 70.000
44.18909 81.000
44.20904 87.000
44.22899 62.000
44.24893 68.000
44.26888 83.000
44.28883 75.000
44.30877 75.000
44.32872 82.000
44.34867 85.000
44.36862 74.000
44.38856 77.000
44.40851 72.000
44.42846 85.000
44.44840 80.000
44.46835 70.000
44.48830 91.000
44.50824 87.000
44.52819 73.000
44.54814 83.000
44.56808 93.000
44.58803 77.000
44.60798 84.000
44.62793 75.000
44.64787 85.000
44.66782 85.000
44.68777 98.000
44.70771 82.000
44.72766 83.000
44.74761 93.000
44.76755 91.000
44.78750 79.000
44.80745 79.000
44.82740 76.000
44.84734 86.000
44.86729 82.000
44.88724 80.000
44.90718 74.000
44.92713 73.000
44.94708 65.000
44.96702 73.000
44.98697 75.000
45.00692 67.000
45.02686 91.000
45.04681 71.000
45.06676 74.000
45.08671 72.000
45.10665 81.000
45.12660 62.000
45.14655 86.000
45.16649 83.000
45.18644 71.000
45.20639 78.000
45.22633 84.000
45.24628 72.000
45.26623 71.000
45.28618 66.000
45.30612 84.000
45.32607 66.000
45.34602 62.000
45.36596 71.000
45.38591 71.000
45.40586 75.000
45.42580 58.000
45.44575 84.000
45.46570 73.000
45.48565 51.000
45.50559 61.000
45.52554 67.000
45.54549 59.000
45.56543 65.000
45.58538 73.000
45.60533 75.000
45.62527 82.000
45.64522 47.000
45.66517 62.000
45.68511 56.000
45.70506 56.000
45.72501 73.000
45.74496 69.000
45.76490 83.000
45.78485 83.000
45.80480 79.000
45.82474 72.000
45.84469 65.000
45.86464 71.000
45.88458 65.000
45.90453 66.000
45.92448 66.000
45.94443 59.000
45.96437 74.000
45.98432 76.000
46.00427 59.000
46.02421 67.000
46.04416 64.000
46.06411 65.000
46.08405 62.000
46.10400 78.000
46.12395 80.000
46.14389 61.000
46.16384 78.000
46.18379 61.000
46.20374 69.000
46.22368 68.000
46.24363 84.000
46.26358 68.000
46.28352 67.000
46.30347 56.000
46.32342 75.000
46.34336 81.000
46.36331 71.000
46.38326 69.000
46.40321 87.000
46.42315 68.000
46.44310 84.000
46.46305 62.000
46.48299 50.000
46.50294 76.000
46.52289 74.000
46.54283 69.000
46.56278 65.000
46.58273 60.000
46.60267 59.000
46.62262 79.000
46.64257 68.000
46.66252 61.000
46.68246 73.000
46.70241 71.000
46.72236 65.000
46.74230 63.000
46.76225 86.000
46.78220 73.000
46.80214 74.000
46.82209 64.000
46.84204 76.000
46.86199 90.000
46.88193 67.000
46.90188 68.000
46.92183 70.000
46.94177 55.000
46.96172 63.000
46.98167 77.000
47.00161 75.000
47.02156 67.000
47.04151 62.000
47.06146 65.000
47.08140 70.000
47.10135 74.000
47.12130 70.000
47.14124 91.000
47.16119 73.000
47.18114 77.000
47.20108 54.000
47.22103 94.000
47.24098 77.000
47.26092 67.000
47.28087 78.000
47.30082 93.000
47.32077 78.000
47.34071 90.000
47.36066 73.000
47.38061 73.000
47.40055 74.000
47.42050 86.000
47.44045 77.000
47.46039 82.000
47.48034 71.000
47.50029 60.000
47.52024 66.000
47.54018 85.000
47.56013 75.000
47.58008 59.000
47.60002 74.000
47.61997 78.000
47.63992 57.000
47.65986 66.000
47.67981 65.000
47.69976 72.000
47.71970 63.000
47.73965 54.000
47.75960 61.000
47.77955 75.000
47.79949 59.000
47.81944 79.000
47.83939 77.000
47.85933 73.000
47.87928 62.000
47.89923 57.000
47.91917 57.000
47.93912 66.000
47.95907 71.000
47.97902 52.000
47.99896 62.000
48.01891 63.000
48.03886 61.000
48.05880 79.000
48.07875 71.000
48.09870 76.000
48.11864 67.000
48.13859 70.000
48.15854 69.000
48.17848 63.000
48.19843 65.000
48.21838 75.000
48.23833 57.000
48.25827 65.000
48.27822 76.000
48.29817 68.000
48.31811 75.000
48.33806 52.000
48.35801 75.000
48.37795 74.000
48.39790 71.000
48.41785 67.000
48.43780 52.000
48.45774 74.000
48.47769 78.000
48.49764 54.000
48.51758 72.000
48.53753 79.000
48.55748 78.000
48.57742 73.000
48.59737 82.000
48.61732 73.000
48.63726 73.000
48.65721 67.000
48.67716 65.000
48.69711 68.000
48.71705 57.000
48.73700 79.000
48.75695 92.000
48.77689 79.000
48.79684 68.000
48.81679 62.000
48.83673 58.000
48.85668 86.000
48.87663 84.000
48.89658 81.000
48.91652 73.000
48.93647 82.000
48.95642 83.000
48.97636 83.000
48.99631 71.000
49.01626 87.000
49.03620 74.000
49.05615 73.000
49.07610 94.000
49.09605 54.000
49.11599 72.000
49.13594 61.000
49.15589 72.000
49.17583 75.000
49.19578 72.000
49.21573 91.000
49.23567 67.000
49.25562 79.000
49.27557 73.000
49.29551 85.000
49.31546 72.000
49.33541 72.000
49.35536 72.000
49.37530 69.000
49.39525 78.000
49.41520 62.000
49.43514 57.000
49.45509 66.000
49.47504 68.000
49.49498 66.000
49.51493 74.000
49.53488 72.000
49.55483 79.000
49.57477 76.000
49.59472 61.000
49.61467 63.000
49.63461 62.000
49.65456 67.000
49.67451 77.000
49.69445 71.000
49.71440 68.000
49.73435 64.000
49.75429 78.000
49.77424 71.000
49.79419 72.000
49.81414 65.000
49.83408 78.000
49.85403 75.000
49.87398 67.000
49.89392 76.000
49.91387 56.000
49.93382 74.000
49.95376 63.000
49.97371 60.000
49.99366 64.000
50.01361 70.000
50.03355 69.000
50.05350 68.000
50.07345 62.000
50.09339 66.000
50.11334 80.000
50.13329 68.000
50.15323 63.000
50.17318 83.000
50.19313 63.000
50.21307 66.000
50.23302 69.000
50.25297 71.000
50.27292 77.000
50.29286 71.000
50.31281 78.000
50.33276 56.000
50.35270 64.000
50.37265 69.000
50.39260 71.000
50.41254 73.000
50.43249 65.000
50.45244 82.000
50.47239 72.000
50.49233 83.000
50.51228 73.000
50.53223 64.000
50.55217 81.000
50.57212 80.000
50.59207 58.000
50.61201 69.000
50.63196 89.000
50.65191 69.000
50.67186 54.000
50.69180 67.000
50.71175 70.000
50.73170 53.000
50.75164 52.000
50.77159 78.000
50.79154 83.000
50.81148 80.000
50.83143 70.000
50.85138 80.000
50.87132 72.000
50.89127 63.000
50.91122 64.000
50.93117 78.000
50.95111 77.000
50.97106 71.000
50.99101 67.000
51.01095 58.000
51.03090 65.000
51.05085 70.000
51.07079 75.000
51.09074 69.000
51.11069 52.000
51.13064 57.000
51.15058 84.000
51.17053 57.000
51.19048 68.000
51.21042 59.000
51.23037 68.000
51.25032 56.000
51.27026 64.000
51.29021 65.000
51.31016 71.000
51.33010 57.000
51.35005 69.000
51.37000 61.000
51.38995 69.000
51.40989 73.000
51.42984 69.000
51.44979 59.000
51.46973 69.000
51.48968 64.000
51.50963 74.000
51.52957 65.000
51.54952 74.000
51.56947 59.000
51.58942 58.000
51.60936 64.000
51.62931 74.000
51.64926 60.000
51.66920 79.000
51.68915 66.000
51.70910 76.000
51.72904 72.000
51.74899 80.000
51.76894 60.000
51.78888 67.000
51.80883 54.000
51.82878 67.000
51.84873 62.000
51.86867 51.000
51.88862 80.000
51.90857 51.000
51.92851 56.000
51.94846 57.000
51.96841 67.000
51.98835 62.000
52.00830 68.000
52.02825 54.000
52.04820 75.000
52.06814 62.000
52.08809 60.000
52.10804 82.000
52.12798 66.000
52.14793 68.000
52.16788 64.000
52.18782 49.000
52.20777 68.000
52.22772 74.000
52.24767 71.000
52.26761 71.000
52.28756 80.000
52.30751 61.000
52.32745 84.000
52.34740 79.000
52.36735 74.000
52.38729 75.000
52.40724 78.000
52.42719 82.000
52.44713 80.000
52.46708 84.000
52.48703 68.000
52.50698 79.000
52.52692 62.000
52.54687 80.000
52.56682 71.000
52.58676 90.000
52.60671 87.000
52.62666 94.000
52.64660 106.000
52.66655 109.000
52.68650 97.000
52.70645 90.000
52.72639 98.000
52.74634 138.000
52.76629 123.000
52.78623 122.000
52.80618 144.000
52.82613 145.000
52.84607 175.000
52.86602 193.000
52.88597 181.000
52.90591 167.000
52.92586 161.000
52.94581 162.000
52.96576 153.000
52.98570 154.000
53.00565 151.000
53.02560 135.000
53.04554 118.000
53.06549 118.000
53.08544 112.000
53.10538 92.000
53.12533 108.000
53.14528 78.000
53.16523 84.000
53.18517 85.000
53.20512 96.000
53.22507 69.000
53.24501 104.000
53.26496 79.000
53.28491 87.000
53.30485 82.000
53.32480 91.000
53.34475 92.000
53.36469 68.000
53.38464 102.000
53.40459 106.000
53.42454 126.000
53.44448 115.000
53.46443 140.000
53.48438 156.000
53.50432 138.000
53.52427 144.000
53.54422 191.000
53.56416 179.000
53.58411 200.000
53.60406 189.000
53.62401 221.000
53.64395 214.000
53.66390 213.000
53.68385 205.000
53.70379 162.000
53.72374 159.000
53.74369 179.000
53.76363 155.000
53.78358 153.000
53.80353 141.000
53.82348 113.000
53.84342 122.000
53.86337 102.000
53.88332 104.000
53.90326 90.000
53.92321 81.000
53.94316 81.000
53.96310 84.000
53.98305 84.000
54.00300 72.000
54.02294 80.000
54.04289 76.000
54.06284 92.000
54.08279 89.000
54.10273 75.000
54.12268 89.000
54.14263 68.000
54.16257 63.000
54.18252 61.000
54.20247 77.000
54.22241 85.000
54.24236 63.000
54.26231 71.000
54.28226 70.000
54.30220 73.000
54.32215 68.000
54.34210 73.000
54.36204 81.000
54.38199 67.000
54.40194 69.000
54.42188 82.000
54.44183 96.000
54.46178 65.000
54.48172 61.000
54.50167 77.000
54.52162 79.000
54.54157 78.000
54.56151 55.000
54.58146 66.000
54.60141 78.000
54.62135 77.000
54.64130 61.000
54.66125 66.000
54.68119 68.000
54.70114 64.000
54.72109 66.000
54.74104 64.000
54.76098 74.000
54.78093 71.000
54.80088 75.000
54.82082 72.000
54.84077 69.000
54.86072 76.000
54.88066 69.000
54.90061 80.000
54.92056 81.000
54.94050 73.000
54.96045 79.000
54.98040 76.000
55.00035 83.000
55.02029 81.000
55.04024 74.000
55.06019 77.000
55.08013 71.000
55.10008 70.000
55.12003 89.000
55.13997 74.000
55.15992 81.000
55.17987 76.000
55.19982 59.000
55.21976 70.000
55.23971 82.000
55.25966 81.000
55.27960 86.000
55.29955 91.000
55.31950 80.000
55.33944 67.000
55.35939 86.000
55.37934 66.000
55.39929 84.000
55.41923 80.000
55.43918 75.000
55.45913 80.000
55.47907 80.000
55.49902 66.000
55.51897 83.000
55.53891 79.000
55.55886 76.000
55.57881 75.000
55.59875 92.000
55.61870 63.000
55.63865 74.000
55.65860 78.000
55.67854 66.000
55.69849 80.000
55.71844 66.000
55.73838 71.000
55.75833 71.000
55.77828 61.000
55.79822 64.000
55.81817 71.000
55.83812 77.000
55.85807 65.000
55.87801 79.000
55.89796 65.000
55.91791 82.000
55.93785 77.000
55.95780 96.000
55.97775 81.000
55.99769 79.000
56.01764 84.000
56.03759 87.000
56.05753 71.000
56.07748 59.000
56.09743 66.000
56.11738 73.000
56.13732 87.000
56.15727 69.000
56.17722 56.000
56.19716 71.000
56.21711 83.000
56.23706 70.000
56.25700 75.000
56.27695 84.000
56.29690 80.000
56.31685 62.000
56.33679 72.000
56.35674 71.000
56.37669 74.000
56.39663 77.000
56.41658 90.000
56.43653 89.000
56.45647 88.000
56.47642 69.000
56.49637 81.000
56.51631 86.000
56.53626 75.000
56.55621 72.000
56.57616 72.000
56.59610 100.000
56.61605 89.000
56.63600 86.000
56.65594 91.000
56.67589 110.000
56.69584 85.000
56.71578 103.000
56.73573 95.000
56.75568 118.000
56.77563 100.000
56.79557 115.000
56.81552 114.000
56.83547 154.000
56.85541 146.000
56.87536 156.000
56.89531 165.000
56.91525 205.000
56.93520 213.000
56.95515 218.000
56.97510 252.000
56.99504 278.000
57.01499 310.000
57.03494 370.000
57.05488 407.000
57.07483 406.000
57.09478 455.000
57.11472 476.000
57.13467 481.000
57.15462 505.000
57.17456 518.000
57.19451 507.000
57.21446 492.000
57.23441 456.000
57.25435 433.000
57.27430 420.000
57.29425 395.000
57.31419 357.000
57.33414 329.000
57.35409 331.000
57.37403 311.000
57.39398 307.000
57.41393 249.000
57.43388 260.000
57.45382 269.000
57.47377 269.000
57.49372 256.000
57.51366 250.000
57.53361 255.000
57.55356 259.000
57.57350 280.000
57.59345 266.000
57.61340 249.000
57.63334 239.000
57.65329 212.000
57.67324 193.000
57.69319 191.000
57.71313 180.000
57.73308 175.000
57.75303 171.000
57.77297 163.000
57.79292 148.000
57.81287 125.000
57.83281 101.000
57.85276 98.000
57.87271 103.000
57.89266 106.000
57.91260 96.000
57.93255 100.000
57.95250 91.000
57.97244 89.000
57.99239 93.000
58.01234 94.000
58.03228 86.000
58.05223 74.000
58.07218 63.000
58.09212 93.000
58.11207 87.000
58.13202 92.000
58.15197 65.000
58.17191 73.000
58.19186 79.000
58.21181 99.000
58.23175 100.000
58.25170 73.000
58.27165 81.000
58.29159 88.000
58.31154 76.000
58.33149 71.000
58.35144 85.000
58.37138 71.000
58.39133 84.000
58.41128 91.000
58.43122 74.000
58.45117 71.000
58.47112 73.000
58.49106 69.000
58.51101 78.000
58.53096 70.000
58.55090 68.000
58.57085 64.000
58.59080 82.000
58.61075 78.000
58.63069 72.000
58.65064 77.000
58.67059 67.000
58.69053 70.000
58.71048 76.000
58.73043 66.000
58.75037 85.000
58.77032 70.000
58.79027 76.000
58.81022 68.000
58.83016 80.000
58.85011 62.000
58.87006 81.000
58.89000 70.000
58.90995 76.000
58.92990 68.000
58.94984 78.000
58.96979 78.000
58.98974 82.000
59.00969 76.000
59.02963 70.000
59.04958 78.000
59.06953 62.000
59.08947 76.000
59.10942 78.000
59.12937 68.000
59.14931 74.000
59.16926 79.000
59.18921 70.000
59.20915 63.000
59.22910 56.000
59.24905 72.000
59.26900 70.000
59.28894 67.000
59.30889 74.000
59.32884 88.000
59.34878 67.000
59.36873 87.000
59.38868 66.000
59.40862 68.000
59.42857 64.000
59.44852 70.000
59.46847 78.000
59.48841 69.000
59.50836 75.000
59.52831 108.000
59.54825 62.000
59.56820 58.000
59.58815 74.000
59.60809 83.000
59.62804 73.000
59.64799 71.000
59.66793 72.000
59.68788 71.000
59.70783 80.000
59.72778 76.000
59.74772 72.000
59.76767 76.000
59.78762 58.000
59.80756 81.000
59.82751 76.000
59.84746 70.000
59.86740 83.000
59.88735 86.000
59.90730 73.000
59.92725 82.000
59.94719 76.000
59.96714 87.000
59.98709 71.000
60.00703 92.000
60.02698 72.000
60.04693 70.000
60.06687 78.000
60.08682 86.000
60.10677 74.000
60.12671 83.000
60.14666 92.000
60.16661 77.000
60.18656 84.000
60.20650 70.000
60.22645 72.000
60.24640 72.000
60.26634 76.000
60.28629 74.000
60.30624 73.000
60.32618 93.000
60.34613 79.000
60.36608 70.000
60.38603 77.000
60.40597 62.000
60.42592 64.000
60.44587 64.000
60.46581 93.000
60.48576 79.000
60.50571 92.000
60.52565 91.000
60.54560 67.000
60.56555 62.000
60.58550 74.000
60.60544 64.000
60.62539 71.000
60.64534 77.000
60.66528 85.000
60.68523 86.000
60.70518 92.000
60.72512 93.000
60.74507 87.000
60.76502 82.000
60.78496 86.000
60.80491 78.000
60.82486 74.000
60.84481 83.000
60.86475 83.000
60.88470 74.000
60.90465 79.000
60.92459 73.000
60.94454 87.000
60.96449 93.000
60.98443 97.000
61.00438 78.000
61.02433 93.000
61.04428 85.000
61.06422 84.000
61.08417 77.000
61.10412 64.000
61.12406 92.000
61.14401 78.000
61.16396 90.000
61.18390 76.000
61.20385 71.000
61.22380 99.000
61.24374 92.000
61.26369 82.000
61.28364 82.000
61.30359 83.000
61.32353 78.000
61.34348 89.000
61.36343 86.000
61.38337 90.000
61.40332 79.000
61.42327 80.000
61.44321 84.000
61.46316 89.000
61.48311 94.000
61.50306 94.000
61.52300 95.000
61.54295 79.000
61.56290 100.000
61.58284 95.000
61.60279 93.000
61.62274 97.000
61.64268 86.000
61.66263 109.000
61.68258 104.000
61.70252 86.000
61.72247 87.000
61.74242 85.000
61.76237 91.000
61.78231 87.000
61.80226 85.000
61.82221 104.000
61.84215 100.000
61.86210 107.000
61.88205 118.000
61.90199 105.000
61.92194 118.000
61.94189 137.000
61.96184 124.000
61.98178 146.000
62.00173 155.000
62.02168 193.000
62.04162 173.000
62.06157 198.000
62.08152 225.000
62.10146 224.000
62.12141 228.000
62.14136 251.000
62.16131 256.000
62.18125 220.000
62.20120 215.000
62.22115 219.000
62.24109 220.000
62.26104 222.000
62.28099 205.000
62.30093 212.000
62.32088 192.000
62.34083 171.000
62.36077 181.000
62.38072 199.000
62.40067 203.000
62.42062 207.000
62.44056 213.000
62.46051 194.000
62.48046 256.000
62.50040 222.000
62.52035 232.000
62.54030 281.000
62.56024 307.000
62.58019 330.000
62.60014 342.000
62.62009 455.000
62.64003 447.000
62.65998 461.000
62.67993 557.000
62.69987 600.000
62.71982 630.000
62.73977 591.000
62.75971 692.000
62.77966 650.000
62.79961 650.000
62.81955 588.000
62.83950 560.000
62.85945 568.000
62.87940 497.000
62.89934 469.000
62.91929 472.000
62.93924 397.000
62.95918 393.000
62.97913 379.000
62.99908 282.000
63.01902 247.000
63.03897 210.000
63.05892 209.000
63.07887 176.000
63.09881 163.000
63.11876 128.000
63.13871 126.000
63.15865 109.000
63.17860 99.000
63.19855 91.000
63.21849 102.000
63.23844 93.000
63.25839 96.000
63.27833 100.000
63.29828 84.000
63.31823 89.000
63.33818 77.000
63.35812 90.000
63.37807 73.000
63.39802 66.000
63.41796 101.000
63.43791 77.000
63.45786 83.000
63.47780 87.000
63.49775 77.000
63.51770 69.000
63.53765 75.000
63.55759 87.000
63.57754 95.000
63.59749 71.000
63.61743 91.000
63.63738 66.000
63.65733 76.000
63.67727 103.000
63.69722 81.000
63.71717 63.000
63.73712 77.000
63.75706 86.000
63.77701 85.000
63.79696 50.000
63.81690 85.000
63.83685 67.000
63.85680 84.000
63.87674 70.000
63.89669 74.000
63.91664 77.000
63.93658 79.000
63.95653 83.000
63.97648 65.000
63.99643 79.000
64.01637 79.000
64.03632 77.000
64.05627 79.000
64.07621 81.000
64.09616 60.000
64.11611 68.000
64.13605 61.000
64.15600 64.000
64.17595 86.000
64.19590 61.000
64.21584 72.000
64.23579 75.000
64.25574 96.000
64.27568 77.000
64.29563 78.000
64.31558 74.000
64.33552 79.000
64.35547 71.000
64.37542 74.000
64.39536 83.000
64.41531 81.000
64.43526 67.000
64.45521 70.000
64.47515 91.000
64.49510 102.000
64.51505 80.000
64.53499 77.000
64.55494 91.000
64.57489 92.000
64.59483 112.000
64.61478 113.000
64.63473 119.000
64.65468 113.000
64.67462 121.000
64.69457 120.000
64.71452 121.000
64.73446 128.000
64.75441 129.000
64.77436 115.000
64.79430 109.000
64.81425 108.000
64.83420 135.000
64.85414 132.000
64.87409 117.000
64.89404 93.000
64.91399 125.000
64.93393 103.000
64.95388 110.000
64.97383 96.000
64.99377 101.000
65.01372 101.000
65.03367 87.000
65.05361 90.000
65.07356 86.000
65.09351 84.000
65.11346 86.000
65.13340 91.000
65.15335 75.000
65.17330 67.000
65.19324 78.000
65.21319 78.000
65.23314 81.000
65.25308 77.000
65.27303 78.000
65.29298 75.000
65.31293 80.000
65.33287 84.000
65.35282 76.000
65.37277 74.000
65.39271 58.000
65.41266 94.000
65.43261 73.000
65.45255 82.000
65.47250 90.000
65.49245 85.000
65.51239 92.000
65.53234 72.000
65.55229 82.000
65.57224 75.000
65.59218 81.000
65.61213 63.000
65.63208 85.000
65.65202 69.000
65.67197 77.000
65.69192 90.000
65.71186 88.000
65.73181 77.000
65.75176 104.000
65.77171 83.000
65.79165 85.000
65.81160 85.000
65.83155 74.000
65.85149 78.000
65.87144 81.000
65.89139 87.000
65.91133 88.000
65.93128 84.000
65.95123 95.000
65.97117 98.000
65.99112 81.000
66.01107 80.000
66.03102 94.000
66.05096 94.000
66.07091 102.000
66.09086 93.000
66.11080 81.000
66.13075 96.000
66.15070 90.000
66.17064 71.000
66.19059 96.000
66.21054 92.000
66.23049 90.000
66.25043 67.000
66.27038 67.000
66.29033 73.000
66.31027 98.000
66.33022 68.000
66.35017 60.000
66.37011 77.000
66.39006 77.000
66.41001 75.000
66.42995 79.000
66.44990 64.000
66.46985 80.000
66.48980 69.000
66.50974 74.000
66.52969 71.000
66.54964 63.000
66.56958 69.000
66.58953 63.000
66.60948 71.000
66.62942 67.000
66.64937 60.000
66.66932 56.000
66.68927 73.000
66.70921 78.000
66.72916 70.000
66.74911 72.000
66.76905 88.000
66.78900 70.000
66.80895 65.000
66.82889 72.000
66.84884 67.000
66.86879 79.000
66.88874 75.000
66.90868 81.000
66.92863 74.000
66.94858 57.000
66.96852 57.000
66.98847 67.000
67.00842 54.000
67.02836 68.000
67.04831 83.000
67.06826 73.000
67.08820 73.000
67.10815 68.000
67.12810 80.000
67.14805 75.000
67.16799 78.000
67.18794 70.000
67.20789 68.000
67.22783 71.000
67.24778 66.000
67.26773 76.000
67.28767 64.000
67.30762 81.000
67.32757 68.000
67.34752 62.000
67.36746 76.000
67.38741 101.000
67.40736 71.000
67.42730 87.000
67.44725 71.000
67.46720 52.000
67.48714 88.000
67.50709 78.000
67.52704 74.000
67.54698 94.000
67.56693 71.000
67.58688 80.000
67.60683 85.000
67.62677 77.000
67.64672 90.000
67.66667 96.000
67.68661 81.000
67.70656 81.000
67.72651 105.000
67.74645 93.000
67.76640 88.000
67.78635 94.000
67.80630 90.000
67.82624 118.000
67.84619 85.000
67.86614 99.000
67.88608 92.000
67.90603 78.000
67.92598 123.000
67.94592 110.000
67.96587 107.000
67.98582 133.000
68.00576 109.000
68.02571 112.000
68.04566 103.000
68.06561 105.000
68.08555 107.000
68.10550 100.000
68.12545 84.000
68.14539 87.000
68.16534 104.000
68.18529 87.000
68.20523 94.000
68.22518 94.000
68.24513 82.000
68.26508 87.000
68.28502 101.000
68.30497 79.000
68.32492 69.000
68.34486 89.000
68.36481 79.000
68.38476 69.000
68.40470 75.000
68.42465 97.000
68.44460 80.000
68.46455 86.000
68.48449 52.000
68.50444 73.000
68.52439 61.000
68.54433 95.000
68.56428 73.000
68.58423 83.000
68.60417 71.000
68.62412 72.000
68.64407 69.000
68.66401 92.000
68.68396 75.000
68.70391 59.000
68.72386 71.000
68.74380 83.000
68.76375 68.000
68.78370 97.000
68.80364 80.000
68.82359 77.000
68.84354 76.000
68.86348 75.000
68.88343 74.000
68.90338 62.000
68.92333 74.000
68.94327 73.000
68.96322 96.000
68.98317 91.000
69.00311 80.000
69.02306 86.000
69.04301 80.000
69.06295 87.000
69.08290 81.000
69.10285 77.000
69.12279 81.000
69.14274 98.000
69.16269 83.000
69.18264 79.000
69.20258 77.000
69.22253 73.000
69.24248 78.000
69.26242 67.000
69.28237 88.000
69.30232 83.000
69.32226 85.000
69.34221 93.000
69.36216 59.000
69.38211 67.000
69.40205 83.000
69.42200 72.000
69.44195 76.000
69.46189 85.000
69.48184 79.000
69.50179 62.000
69.52173 80.000
69.54168 77.000
69.56163 68.000
69.58157 83.000
69.60152 69.000
69.62147 58.000
69.64142 72.000
69.66136 81.000
69.68131 67.000
69.70126 66.000
69.72120 49.000
69.74115 67.000
69.76110 67.000
69.78104 63.000
69.80099 68.000
69.82094 79.000
69.84089 69.000
69.86083 69.000
69.88078 64.000
69.90073 71.000
69.92067 55.000
69.94062 69.000
69.96057 57.000
69.98051 62.000
70.00046 49.000
70.02041 63.000
70.04035 65.000
70.06030 69.000
70.08025 60.000
70.10020 69.000
70.12014 52.000
70.14009 64.000
70.16004 64.000
70.17998 67.000
70.19993 66.000
70.21988 70.000
70.23982 67.000
70.25977 79.000
70.27972 64.000
70.29967 74.000
70.31961 64.000
70.33956 72.000
70.35951 69.000
70.37945 74.000
70.39940 61.000
70.41935 54.000
70.43929 64.000
70.45924 71.000
70.47919 67.000
70.49914 75.000
70.51908 59.000
70.53903 67.000
70.55898 66.000
70.57892 75.000
70.59887 67.000
70.61882 72.000
70.63876 91.000
70.65871 80.000
70.67866 69.000
70.69860 73.000
70.71855 84.000
70.73850 65.000
70.75845 79.000
70.77839 98.000
70.79834 73.000
70.81829 81.000
70.83823 75.000
70.85818 71.000
70.87813 55.000
70.89807 75.000
70.91802 72.000
70.93797 79.000
70.95792 99.000
70.97786 103.000
70.99781 97.000
71.01776 80.000
71.03770 94.000
71.05765 89.000
71.07760 105.000
71.09754 88.000
71.11749 107.000
71.13744 102.000
71.15738 93.000
71.17733 103.000
71.19728 100.000
71.21723 105.000
71.23717 123.000
71.25712 103.000
71.27707 91.000
71.29701 90.000
71.31696 93.000
71.33691 95.000
71.35685 100.000
71.37680 91.000
71.39675 99.000
71.41670 97.000
71.43664 60.000
71.45659 88.000
71.47654 93.000
71.49648 77.000
71.51643 90.000
71.53638 95.000
71.55632 83.000
71.57627 81.000
71.59622 77.000
71.61616 72.000
71.63611 81.000
71.65606 62.000
71.67601 79.000
71.69595 73.000
71.71590 71.000
71.73585 73.000
71.75579 68.000
71.77574 73.000
71.79569 79.000
71.81563 69.000
71.83558 81.000
71.85553 76.000
71.87548 70.000
71.89542 63.000
71.91537 69.000
71.93532 79.000
71.95526 79.000
71.97521 66.000
71.99516 98.000
72.01510 89.000
72.03505 109.000
72.05500 104.000
72.07495 99.000
72.09489 103.000
72.11484 107.000
72.13479 106.000
72.15473 112.000
72.17468 113.000
72.19463 113.000
72.21457 100.000
72.23452 113.000
72.25447 105.000
72.27441 103.000
72.29436 112.000
72.31431 116.000
72.33426 115.000
72.35420 111.000
72.37415 91.000
72.39410 109.000
72.41404 82.000
72.43399 99.000
72.45394 103.000
72.47388 74.000
72.49383 87.000
72.51378 81.000
72.53373 74.000
72.55367 72.000
72.57362 84.000
72.59357 76.000
72.61351 91.000
72.63346 85.000
72.65341 90.000
72.67335 86.000
72.69330 64.000
72.71325 72.000
72.73319 72.000
72.75314 74.000
72.77309 72.000
72.79304 97.000
72.81298 68.000
72.83293 72.000
72.85288 71.000
72.87282 71.000
72.89277 73.000
72.91272 76.000
72.93266 72.000
72.95261 56.000
72.97256 65.000
72.99251 71.000
73.01245 57.000
73.03240 81.000
73.05235 86.000
73.07229 80.000
73.09224 61.000
73.11219 62.000
73.13213 82.000
73.15208 86.000
73.17203 71.000
73.19197 90.000
73.21192 89.000
73.23187 76.000
73.25182 92.000
73.27176 76.000
73.29171 56.000
73.31166 97.000
73.33160 88.000
73.35155 70.000
73.37150 85.000
73.39144 99.000
73.41139 90.000
73.43134 91.000
73.45129 92.000
73.47123 90.000
73.49118 91.000
73.51113 82.000
73.53107 93.000
73.55102 84.000
73.57097 101.000
73.59091 98.000
73.61086 102.000
73.63081 94.000
73.65076 117.000
73.67070 104.000
73.69065 103.000
73.71060 85.000
73.73054 96.000
73.75049 101.000
73.77044 105.000
73.79038 80.000
73.81033 106.000
73.83028 111.000
73.85022 102.000
73.87017 97.000
73.89012 103.000
73.91007 105.000
73.93001 90.000
73.94996 107.000
73.96991 127.000
73.98985 117.000
74.00980 99.000
74.02975 127.000
74.04969 150.000
74.06964 133.000
74.08959 157.000
74.10954 150.000
74.12948 163.000
74.14943 137.000
74.16938 155.000
74.18932 161.000
74.20927 168.000
74.22922 169.000
74.24916 159.000
74.26911 189.000
74.28906 202.000
74.30900 173.000
74.32895 207.000
74.34890 169.000
74.36885 174.000
74.38879 173.000
74.40874 162.000
74.42869 167.000
74.44863 131.000
74.46858 170.000
74.48853 121.000
74.50847 134.000
74.52842 138.000
74.54837 118.000
74.56832 130.000
74.58826 90.000
74.60821 103.000
74.62816 75.000
74.64810 83.000
74.66805 80.000
74.68800 95.000
74.70794 84.000
74.72789 91.000
74.74784 72.000
74.76778 72.000
74.78773 70.000
74.80768 94.000
74.82763 89.000
74.84757 68.000
74.86752 86.000
74.88747 75.000
74.90741 80.000
74.92736 73.000
74.94731 92.000
74.96725 79.000
74.98720 87.000
75.00715 95.000
75.02710 83.000
75.04704 113.000
75.06699 100.000
75.08694 96.000
75.10688 101.000
75.12683 101.000
75.14678 109.000
75.16672 113.000
75.18667 81.000
75.20662 107.000
75.22657 107.000
75.24651 119.000
75.26646 96.000
75.28641 125.000
75.30635 104.000
75.32630 114.000
75.34625 89.000
75.36619 129.000
75.38614 78.000
75.40609 108.000
75.42603 89.000
75.44598 115.000
75.46593 88.000
75.48588 88.000
75.50582 90.000
75.52577 115.000
75.54572 84.000
75.56566 104.000
75.58561 87.000
75.60556 78.000
75.62550 77.000
75.64545 79.000
75.66540 76.000
75.68535 75.000
75.70529 83.000
75.72524 69.000
75.74519 66.000
75.76513 74.000
75.78508 76.000
75.80503 59.000
75.82497 75.000
75.84492 64.000
75.86487 77.000
75.88481 83.000
75.90476 76.000
75.92471 78.000
75.94466 62.000
75.96460 82.000
75.98455 69.000
76.00450 72.000
76.02444 72.000
76.04439 73.000
76.06434 68.000
76.08428 85.000
76.10423 70.000
76.12418 51.000
76.14413 82.000
76.16407 67.000
76.18402 71.000
76.20397 66.000
76.22391 65.000
76.24386 52.000
76.26381 65.000
76.28375 66.000
76.30370 63.000
76.32365 78.000
76.34359 68.000
76.36354 69.000
76.38349 76.000
76.40344 69.000
76.42338 56.000
76.44333 62.000
76.46328 51.000
76.48322 68.000
76.50317 62.000
76.52312 77.000
76.54306 76.000
76.56301 59.000
76.58296 69.000
76.60291 61.000
76.62285 70.000
76.64280 83.000
76.66275 56.000
76.68269 54.000
76.70264 67.000
76.72259 71.000
76.74253 71.000
76.76248 81.000
76.78243 71.000
76.80238 74.000
76.82232 81.000
76.84227 62.000
76.86222 72.000
76.88216 68.000
76.90211 71.000
76.92206 83.000
76.94200 85.000
76.96195 73.000
76.98190 83.000
77.00184 75.000
77.02179 78.000
77.04174 69.000
77.06169 83.000
77.08163 63.000
77.10158 85.000
77.12153 76.000
77.14147 75.000
77.16142 83.000
77.18137 86.000
77.20131 89.000
77.22126 85.000
77.24121 90.000
77.26116 71.000
77.28110 108.000
77.30105 110.000
77.32100 96.000
77.34094 88.000
77.36089 115.000
77.38084 121.000
77.40078 111.000
77.42073 113.000
77.44068 121.000
77.46062 107.000
77.48057 134.000
77.50052 117.000
77.52047 127.000
77.54041 99.000
77.56036 106.000
77.58031 115.000
77.60025 100.000
77.62020 115.000
77.64015 99.000
77.66009 82.000
77.68004 96.000
77.69999 103.000
77.71994 81.000
77.73988 83.000
77.75983 77.000
77.77978 84.000
77.79972 81.000
77.81967 79.000
77.83962 72.000
77.85956 81.000
77.87951 85.000
77.89946 76.000
77.91940 60.000
77.93935 79.000
77.95930 69.000
77.97925 85.000
77.99919 73.000
78.01914 60.000
78.03909 80.000
78.05903 73.000
78.07898 72.000
78.09893 95.000
78.11887 75.000
78.13882 59.000
78.15877 86.000
78.17872 57.000
78.19866 77.000
78.21861 69.000
78.23856 71.000
78.25850 70.000
78.27845 75.000
78.29840 63.000
78.31834 70.000
78.33829 55.000
78.35824 78.000
78.37819 72.000
78.39813 75.000
78.41808 64.000
78.43803 78.000
78.45797 66.000
78.47792 62.000
78.49787 60.000
78.51781 87.000
78.53776 79.000
78.55771 52.000
78.57765 66.000
78.59760 70.000
78.61755 80.000
78.63750 79.000
78.65744 64.000
78.67739 69.000
78.69734 53.000
78.71728 64.000
78.73723 60.000
78.75718 60.000
78.77712 79.000
78.79707 71.000
78.81702 65.000
78.83697 89.000
78.85691 69.000
78.87686 55.000
78.89681 82.000
78.91675 64.000
78.93670 88.000
78.95665 73.000
78.97659 72.000
78.99654 83.000
79.01649 96.000
79.03643 83.000
79.05638 88.000
79.07633 90.000
79.09628 102.000
79.11622 97.000
79.13617 99.000
79.15612 104.000
79.17606 107.000
79.19601 95.000
79.21596 112.000
79.23590 111.000
79.25585 107.000
79.27580 102.000
79.29575 81.000
79.31569 94.000
79.33564 89.000
79.35559 84.000
79.37553 103.000
79.39548 72.000
79.41543 82.000
79.43537 98.000
79.45532 82.000
79.47527 90.000
79.49521 81.000
79.51516 72.000
79.53511 75.000
79.55506 95.000
79.57500 92.000
79.59495 96.000
79.61490 93.000
79.63484 91.000
79.65479 79.000
79.67474 62.000
79.69468 52.000
79.71463 84.000
79.73458 72.000
79.75453 66.000
79.77447 83.000
79.79442 69.000
79.81437 85.000
79.83431 58.000
79.85426 81.000
79.87421 76.000
79.89415 76.000
79.91410 73.000
79.93405 79.000
79.95399 69.000
79.97394 82.000
79.99389 73.000
80.01384 79.000
80.03378 63.000
80.05373 65.000
80.07368 75.000
80.09362 73.000
80.11357 71.000
80.13352 82.000
80.15346 77.000
80.17341 76.000
80.19336 61.000
80.21331 62.000
80.23325 60.000
80.25320 60.000
80.27315 72.000
80.29309 50.000
80.31304 72.000
80.33299 65.000
80.35293 74.000
80.37288 73.000
80.39283 65.000
80.41278 72.000
80.43272 76.000
80.45267 58.000
80.47262 52.000
80.49256 63.000
80.51251 59.000
80.53246 57.000
80.55240 80.000
80.57235 73.000
80.59230 60.000
80.61224 66.000
80.63219 58.000
80.65214 82.000
80.67209 72.000
80.69203 75.000
80.71198 75.000
80.73193 67.000
80.75187 70.000
80.77182 60.000
80.79177 64.000
80.81171 63.000
80.83166 72.000
80.85161 71.000
80.87156 80.000
80.89150 62.000
80.91145 80.000
80.93140 62.000
80.95134 65.000
80.97129 68.000
80.99124 61.000
81.01118 82.000
81.03113 68.000
81.05108 62.000
81.07102 60.000
81.09097 70.000
81.11092 73.000
81.13087 63.000
81.15081 64.000
81.17076 65.000
81.19071 67.000
81.21065 59.000
81.23060 75.000
81.25055 64.000
81.27049 61.000
81.29044 59.000
81.31039 92.000
81.33034 64.000
81.35028 80.000
81.37023 72.000
81.39018 87.000
81.41012 64.000
81.43007 78.000
81.45002 71.000
81.46996 76.000
81.48991 70.000
81.50986 58.000
81.52980 75.000
81.54975 58.000
81.56970 64.000
81.58965 52.000
81.60959 66.000
81.62954 70.000
81.64949 76.000
81.66943 66.000
81.68938 67.000
81.70933 59.000
81.72927 54.000
81.74922 66.000
81.76917 69.000
81.78912 69.000
81.80906 68.000
81.82901 81.000
81.84896 78.000
81.86890 75.000
81.88885 66.000
81.90880 69.000
81.92874 61.000
81.94869 75.000
81.96864 65.000
81.98859 74.000
82.00853 66.000
82.02848 63.000
82.04843 65.000
82.06837 77.000
82.08832 66.000
82.10827 67.000
82.12821 74.000
82.14816 90.000
82.16811 84.000
82.18805 63.000
82.20800 75.000
82.22795 80.000
82.24790 78.000
82.26784 77.000
82.28779 60.000
82.30774 74.000
82.32768 77.000
82.34763 76.000
82.36758 79.000
82.38752 85.000
82.40747 82.000
82.42742 91.000
82.44737 66.000
82.46731 54.000
82.48726 60.000
82.50721 71.000
82.52715 73.000
82.54710 63.000
82.56705 71.000
82.58699 65.000
82.60694 81.000
82.62689 66.000
82.64683 70.000
82.66678 57.000
82.68673 77.000
82.70668 60.000
82.72662 61.000
82.74657 61.000
82.76652 60.000
82.78646 80.000
82.80641 76.000
82.82636 76.000
82.84630 66.000
82.86625 67.000
82.88620 63.000
82.90615 72.000
82.92609 76.000
82.94604 64.000
82.96599 64.000
82.98593 74.000
83.00588 63.000
83.02583 86.000
83.04577 76.000
83.06572 63.000
83.08567 87.000
83.10561 85.000
83.12556 66.000
83.14551 59.000
83.16546 82.000
83.18540 68.000
83.20535 69.000
83.22530 56.000
83.24524 63.000
83.26519 72.000
83.28514 75.000
83.30508 63.000
83.32503 65.000
83.34498 70.000
83.36493 75.000
83.38487 61.000
83.40482 65.000
83.42477 77.000
83.44471 77.000
83.46466 72.000
83.48461 81.000
83.50455 70.000
83.52450 66.000
83.54445 70.000
83.56440 78.000
83.58434 51.000
83.60429 71.000
83.62424 91.000
83.64418 54.000
83.66413 58.000
83.68408 64.000
83.70402 64.000
83.72397 82.000
83.74392 76.000
83.76386 80.000
83.78381 69.000
83.80376 68.000
83.82371 86.000
83.84365 66.000
83.86360 77.000
83.88355 69.000
83.90349 63.000
83.92344 67.000
83.94339 78.000
83.96333 80.000
83.98328 81.000
84.00323 73.000
84.02318 68.000
84.04312 66.000
84.06307 71.000
84.08302 52.000
84.10296 74.000
84.12291 69.000
84.14286 79.000
84.16280 60.000
84.18275 67.000
84.20270 80.000
84.22264 65.000
84.24259 72.000
84.26254 68.000
84.28249 78.000
84.30243 74.000
84.32238 69.000
84.34233 70.000
84.36227 72.000
84.38222 77.000
84.40217 81.000
84.42211 80.000
84.44206 73.000
84.46201 74.000
84.48196 68.000
84.50190 70.000
84.52185 64.000
84.54180 70.000
84.56174 63.000
84.58169 58.000
84.60164 75.000
84.62158 62.000
84.64153 59.000
84.66148 73.000
84.68142 79.000
84.70137 58.000
84.72132 62.000
84.74127 66.000
84.76121 69.000
84.78116 67.000
84.80111 69.000
84.82105 71.000
84.84100 71.000
84.86095 78.000
84.88089 65.000
84.90084 49.000
84.92079 64.000
84.94074 80.000
84.96068 68.000
84.98063 72.000
85.00058 64.000
85.02052 62.000
85.04047 61.000
85.06042 80.000
85.08036 54.000
85.10031 64.000
85.12026 80.000
85.14021 50.000
85.16015 73.000
85.18010 66.000
85.20005 75.000
85.21999 72.000
85.23994 61.000
85.25989 69.000
85.27983 74.000
85.29978 71.000
85.31973 53.000
85.33967 56.000
85.35962 72.000
85.37957 75.000
85.39952 78.000
85.41946 70.000
85.43941 75.000
85.45936 58.000
85.47930 61.000
85.49925 76.000
85.51920 70.000
85.53914 65.000
85.55909 68.000
85.57904 74.000
85.59899 75.000
85.61893 80.000
85.63888 79.000
85.65883 60.000
85.67877 66.000
85.69872 68.000
85.71867 88.000
85.73861 70.000
85.75856 72.000
85.77851 74.000
85.79845 77.000
85.81840 81.000
85.83835 90.000
85.85830 77.000
85.87824 95.000
85.89819 86.000
85.91814 94.000
85.93808 92.000
85.95803 79.000
85.97798 70.000
85.99792 82.000
86.01787 80.000
86.03782 70.000
86.05777 82.000
86.07771 66.000
86.09766 62.000
86.11761 87.000
86.13755 80.000
86.15750 94.000
86.17745 79.000
86.19739 68.000
86.21734 77.000
86.23729 89.000
86.25723 69.000
86.27718 78.000
86.29713 81.000
86.31708 82.000
86.33702 78.000
86.35697 93.000
86.37692 63.000
86.39686 86.000
86.41681 69.000
86.43676 61.000
86.45670 56.000
86.47665 70.000
86.49660 75.000
86.51655 60.000
86.53649 72.000
86.55644 67.000
86.57639 65.000
86.59633 80.000
86.61628 74.000
86.63623 69.000
86.65617 74.000
86.67612 68.000
86.69607 89.000
86.71602 83.000
86.73596 79.000
86.75591 100.000
86.77586 65.000
86.79580 92.000
86.81575 76.000
86.83570 91.000
86.85564 90.000
86.87559 88.000
86.89554 95.000
86.91548 84.000
86.93543 105.000
86.95538 93.000
86.97533 99.000
86.99527 105.000
87.01522 112.000
87.03517 105.000
87.05511 106.000
87.07506 92.000
87.09501 98.000
87.11495 126.000
87.13490 104.000
87.15485 107.000
87.17480 99.000
87.19474 109.000
87.21469 101.000
87.23464 93.000
87.25458 82.000
87.27453 88.000
87.29448 81.000
87.31442 108.000
87.33437 84.000
87.35432 97.000
87.37426 88.000
87.39421 103.000
87.41416 99.000
87.43411 70.000
87.45405 70.000
87.47400 95.000
87.49395 85.000
87.51389 77.000
87.53384 76.000
87.55379 74.000
87.57373 64.000
87.59368 68.000
87.61363 58.000
87.63358 73.000
87.65352 67.000
87.67347 54.000
87.69342 54.000
87.71336 63.000
87.73331 56.000
87.75326 74.000
87.77320 63.000
87.79315 71.000
87.81310 76.000
87.83304 54.000
87.85299 56.000
87.87294 59.000
87.89289 94.000
87.91283 72.000
87.93278 68.000
87.95273 80.000
87.97267 50.000
87.99262 70.000
88.01257 66.000
88.03251 72.000
88.05246 64.000
88.07241 68.000
88.09236 56.000
88.11230 85.000
88.13225 85.000
88.15220 69.000
88.17214 84.000
88.19209 70.000
88.21204 77.000
88.23198 91.000
88.25193 82.000
88.27188 71.000
88.29183 64.000
88.31177 66.000
88.33172 69.000
88.35167 68.000
88.37161 70.000
88.39156 62.000
88.41151 66.000
88.43145 88.000
88.45140 73.000
88.47135 92.000
88.49129 68.000
88.51124 70.000
88.53119 61.000
88.55114 63.000
88.57108 69.000
88.59103 71.000
88.61098 71.000
88.63092 72.000
88.65087 62.000
88.67082 65.000
88.69076 66.000
88.71071 70.000
88.73066 76.000
88.75061 72.000
88.77055 76.000
88.79050 70.000
88.81045 79.000
88.83039 67.000
88.85034 80.000
88.87029 74.000
88.89023 70.000
88.91018 72.000
88.93013 57.000
88.95007 75.000
88.97002 75.000
88.98997 68.000
89.00992 68.000
89.02986 63.000
89.04981 67.000
89.06976 78.000
89.08970 72.000
89.10965 72.000
89.12960 77.000
89.14954 75.000
89.16949 69.000
89.18944 84.000
89.20939 66.000
89.22933 79.000
89.24928 66.000
89.26923 80.000
89.28917 69.000
89.30912 89.000
89.32907 85.000
89.34901 67.000
89.36896 82.000
89.38891 68.000
89.40885 102.000
89.42880 90.000
89.44875 81.000
89.46870 94.000
89.48864 82.000
89.50859 105.000
89.52854 93.000
89.54848 121.000
89.56843 95.000
89.58838 121.000
89.60832 116.000
89.62827 135.000
89.64822 117.000
89.66817 116.000
89.68811 137.000
89.70806 135.000
89.72801 148.000
89.74795 159.000
89.76790 163.000
89.78785 151.000
89.80779 135.000
89.82774 190.000
89.84769 193.000
89.86764 194.000
89.88758 203.000
89.90753 207.000
89.92748 196.000
89.94742 214.000
89.96737 196.000
89.98732 222.000
90.00726 200.000
