10.00000 168.000
10.01995 181.000
10.03989 168.000
10.05984 192.000
10.07979 177.000
10.09973 170.000
10.11968 172.000
10.13963 193.000
10.15958 188.000
10.17952 139.000
10.19947 186.000
10.21942 167.000
10.23936 191.000
10.25931 166.000
10.27926 162.000
10.29920 168.000
10.31915 179.000
10.33910 169.000
10.35905 179.000
10.37899 191.000
10.39894 173.000
10.41889 204.000
10.43883 177.000
10.45878 169.000
10.47873 165.000
10.49867 189.000
10.51862 196.000
10.53857 154.000
10.55851 165.000
10.57846 167.000
10.59841 179.000
10.61836 189.000
10.63830 165.000
10.65825 156.000
10.67820 166.000
10.69814 167.000
10.71809 208.000
10.73804 187.000
10.75798 189.000
10.77793 199.000
10.79788 168.000
10.81783 203.000
10.83777 170.000
10.85772 186.000
10.87767 208.000
10.89761 177.000
10.91756 182.000
10.93751 179.000
10.95745 188.000
10.97740 204.000
10.99735 193.000
11.01730 183.000
11.03724 187.000
11.05719 177.000
11.07714 179.000
11.09708 159.000
11.11703 195.000
11.13698 189.000
11.15692 179.000
11.17687 192.000
11.19682 166.000
11.21676 157.000
11.23671 201.000
11.25666 174.000
11.27661 200.000
11.29655 205.000
11.31650 176.000
11.33645 175.000
11.35639 187.000
11.37634 172.000
11.39629 172.000
11.41623 177.000
11.43618 172.000
11.45613 178.000
11.47608 171.000
11.49602 175.000
11.51597 198.000
11.53592 177.000
11.55586 197.000
11.57581 168.000
11.59576 178.000
11.61570 186.000
11.63565 213.000
11.65560 183.000
11.67554 181.000
11.69549 213.000
11.71544 199.000
11.73539 202.000
11.75533 198.000
11.77528 194.000
11.79523 187.000
11.81517 188.000
11.83512 199.000
11.85507 189.000
11.87501 146.000
11.89496 179.000
11.91491 184.000
11.93486 175.000
11.95480 206.000
11.97475 191.000
11.99470 188.000
12.01464 183.000
12.03459 195.000
12.05454 192.000
12.07448 199.000
12.09443 167.000
12.11438 198.000
12.13432 183.000
12.15427 188.000
12.17422 187.000
12.19417 186.000
12.21411 192.000
12.23406 167.000
12.25401 181.000
12.27395 165.000
12.29390 182.000
12.31385 178.000
12.33379 201.000
12.35374 174.000
12.37369 199.000
12.39364 197.000
12.41358 176.000
12.43353 194.000
12.45348 201.000
12.47342 193.000
12.49337 173.000
12.51332 196.000
12.53326 166.000
12.55321 174.000
12.57316 196.000
12.59311 185.000
12.61305 201.000
12.63300 193.000
12.65295 197.000
12.67289 199.000
12.69284 186.000
12.71279 215.000
12.73273 199.000
12.75268 183.000
12.77263 159.000
12.79257 204.000
12.81252 191.000
12.83247 198.000
12.85242 176.000
12.87236 193.000
12.89231 183.000
12.91226 191.000
12.93220 198.000
12.95215 182.000
12.97210 163.000
12.99204 171.000
13.01199 173.000
13.03194 192.000
13.05189 194.000
13.07183 195.000
13.09178 189.000
13.11173 218.000
13.13167 202.000
13.15162 186.000
13.17157 164.000
13.19151 184.000
13.21146 175.000
13.23141 187.000
13.25135 190.000
13.27130 208.000
13.29125 185.000
13.31120 192.000
13.33114 202.000
13.35109 192.000
13.37104 185.000
13.39098 192.000
13.41093 197.000
13.43088 179.000
13.45082 192.000
13.47077 178.000
13.49072 210.000
13.51067 176.000
13.53061 202.000
13.55056 201.000
13.57051 194.000
13.59045 203.000
13.61040 210.000
13.63035 200.000
13.65029 201.000
13.67024 201.000
13.69019 202.000
13.71013 182.000
13.73008 175.000
13.75003 180.000
13.76998 180.000
13.78992 178.000
13.80987 190.000
13.82982 184.000
13.84976 196.000
13.86971 184.000
13.88966 184.000
13.90960 204.000
13.92955 199.000
13.94950 185.000
13.96945 203.000
13.98939 199.000
14.00934 183.000
14.02929 179.000
14.04923 193.000
14.06918 179.000
14.08913 198.000
14.10907 187.000
14.12902 191.000
14.14897 219.000
14.16892 208.000
14.18886 183.000
14.20881 199.000
14.22876 191.000
14.24870 222.000
14.26865 199.000
14.28860 219.000
14.30854 180.000
14.32849 214.000
14.34844 194.000
14.36838 195.000
14.38833 183.000
14.40828 208.000
14.42823 224.000
14.44817 208.000
14.46812 208.000
14.48807 197.000
14.50801 194.000
14.52796 236.000
14.54791 184.000
14.56785 191.000
14.58780 180.000
14.60775 213.000
14.62770 201.000
14.64764 212.000
14.66759 199.000
14.68754 196.000
14.70748 190.000
14.72743 190.000
14.74738 194.000
14.76732 220.000
14.78727 219.000
14.80722 193.000
14.82716 215.000
14.84711 212.000
14.86706 197.000
14.88701 231.000
14.90695 234.000
14.92690 201.000
14.94685 200.000
14.96679 232.000
14.98674 199.000
15.00669 202.000
15.02663 215.000
15.04658 202.000
15.06653 213.000
15.08648 198.000
15.10642 223.000
15.12637 215.000
15.14632 220.000
15.16626 212.000
15.18621 201.000
15.20616 215.000
15.22610 212.000
15.24605 208.000
15.26600 187.000
15.28594 225.000
15.30589 210.000
15.32584 214.000
15.34579 218.000
15.36573 212.000
15.38568 202.000
15.40563 209.000
15.42557 222.000
15.44552 195.000
15.46547 210.000
15.48541 207.000
15.50536 216.000
15.52531 236.000
15.54526 216.000
15.56520 227.000
15.58515 237.000
15.60510 245.000
15.62504 238.000
15.64499 226.000
15.66494 251.000
15.68488 237.000
15.70483 295.000
15.72478 269.000
15.74472 293.000
15.76467 292.000
15.78462 345.000
15.80457 336.000
15.82451 385.000
15.84446 414.000
15.86441 483.000
15.88435 551.000
15.90430 707.000
15.92425 765.000
15.94419 775.000
15.96414 843.000
15.98409 687.000
16.00404 544.000
16.02398 442.000
16.04393 340.000
16.06388 297.000
16.08382 295.000
16.10377 276.000
16.12372 285.000
16.14366 288.000
16.16361 323.000
16.18356 340.000
16.20351 332.000
16.22345 388.000
16.24340 433.000
16.26335 516.000
16.28329 520.000
16.30324 603.000
16.32319 571.000
16.34313 647.000
16.36308 777.000
16.38303 869.000
16.40297 1020.000
16.42292 1135.000
16.44287 1278.000
16.46282 1229.000
16.48276 1088.000
16.50271 954.000
16.52266 747.000
16.54260 535.000
16.56255 407.000
16.58250 347.000
16.60244 280.000
16.62239 261.000
16.64234 255.000
16.66229 241.000
16.68223 253.000
16.70218 265.000
16.72213 219.000
16.74207 248.000
16.76202 215.000
16.78197 256.000
16.80191 209.000
16.82186 245.000
16.84181 260.000
16.86175 260.000
16.88170 258.000
16.90165 244.000
16.92160 266.000
16.94154 264.000
16.96149 245.000
16.98144 251.000
17.00138 219.000
17.02133 217.000
17.04128 233.000
17.06122 218.000
17.08117 213.000
17.10112 237.000
17.12107 240.000
17.14101 197.000
17.16096 195.000
17.18091 234.000
17.20085 234.000
17.22080 202.000
17.24075 197.000
17.26069 221.000
17.28064 188.000
17.30059 217.000
17.32053 239.000
17.34048 217.000
17.36043 229.000
17.38038 227.000
17.40032 221.000
17.42027 209.000
17.44022 195.000
17.46016 208.000
17.48011 220.000
17.50006 222.000
17.52000 202.000
17.53995 215.000
17.55990 224.000
17.57985 183.000
17.59979 212.000
17.61974 218.000
17.63969 202.000
17.65963 210.000
17.67958 202.000
17.69953 210.000
17.71947 213.000
17.73942 206.000
17.75937 196.000
17.77932 186.000
17.79926 203.000
17.81921 210.000
17.83916 208.000
17.85910 210.000
17.87905 215.000
17.89900 221.000
17.91894 185.000
17.93889 196.000
17.95884 210.000
17.97878 205.000
17.99873 208.000
18.01868 217.000
18.03863 204.000
18.05857 218.000
18.07852 244.000
18.09847 195.000
18.11841 195.000
18.13836 220.000
18.15831 235.000
18.17825 200.000
18.19820 229.000
18.21815 204.000
18.23810 209.000
18.25804 210.000
18.27799 215.000
18.29794 222.000
18.31788 224.000
18.33783 236.000
18.35778 220.000
18.37772 259.000
18.39767 231.000
18.41762 291.000
18.43756 307.000
18.45751 387.000
18.47746 432.000
18.49741 403.000
18.51735 327.000
18.53730 322.000
18.55725 255.000
18.57719 237.000
18.59714 202.000
18.61709 243.000
18.63703 221.000
18.65698 189.000
18.67693 216.000
18.69688 206.000
18.71682 216.000
18.73677 189.000
18.75672 195.000
18.77666 200.000
18.79661 234.000
18.81656 234.000
18.83650 186.000
18.85645 198.000
18.87640 195.000
18.89634 203.000
18.91629 213.000
18.93624 223.000
18.95619 216.000
18.97613 210.000
18.99608 196.000
19.01603 222.000
19.03597 206.000
19.05592 207.000
19.07587 209.000
19.09581 184.000
19.11576 189.000
19.13571 213.000
19.15566 220.000
19.17560 229.000
19.19555 205.000
19.21550 218.000
19.23544 214.000
19.25539 188.000
19.27534 208.000
19.29528 222.000
19.31523 218.000
19.33518 216.000
19.35513 213.000
19.37507 191.000
19.39502 235.000
19.41497 214.000
19.43491 210.000
19.45486 205.000
19.47481 195.000
19.49475 193.000
19.51470 224.000
19.53465 218.000
19.55459 224.000
19.57454 241.000
19.59449 228.000
19.61444 218.000
19.63438 234.000
19.65433 186.000
19.67428 205.000
19.69422 205.000
19.71417 216.000
19.73412 206.000
19.75406 213.000
19.77401 196.000
19.79396 184.000
19.81391 226.000
19.83385 189.000
19.85380 183.000
19.87375 195.000
19.89369 212.000
19.91364 234.000
19.93359 200.000
19.95353 240.000
19.97348 225.000
19.99343 230.000
20.01337 216.000
20.03332 232.000
20.05327 220.000
20.07322 193.000
20.09316 196.000
20.11311 230.000
20.13306 199.000
20.15300 197.000
20.17295 201.000
20.19290 207.000
20.21284 200.000
20.23279 202.000
20.25274 226.000
20.27269 208.000
20.29263 216.000
20.31258 205.000
20.33253 205.000
20.35247 222.000
20.37242 203.000
20.39237 187.000
20.41231 198.000
20.43226 245.000
20.45221 218.000
20.47215 193.000
20.49210 245.000
20.51205 216.000
20.53200 199.000
20.55194 212.000
20.57189 202.000
20.59184 202.000
20.61178 217.000
20.63173 239.000
20.65168 230.000
20.67162 229.000
20.69157 233.000
20.71152 277.000
20.73147 239.000
20.75141 256.000
20.77136 274.000
20.79131 300.000
20.81125 278.000
20.83120 290.000
20.85115 379.000
20.87109 421.000
20.89104 451.000
20.91099 479.000
20.93094 550.000
20.95088 532.000
20.97083 529.000
20.99078 511.000
21.01072 490.000
21.03067 429.000
21.05062 410.000
21.07056 417.000
21.09051 400.000
21.11046 395.000
21.13040 394.000
21.15035 392.000
21.17030 386.000
21.19025 335.000
21.21019 308.000
21.23014 303.000
21.25009 290.000
21.27003 248.000
21.28998 243.000
21.30993 222.000
21.32987 218.000
21.34982 237.000
21.36977 209.000
21.38972 228.000
21.40966 193.000
21.42961 216.000
21.44956 221.000
21.46950 220.000
21.48945 219.000
21.50940 227.000
21.52934 239.000
21.54929 220.000
21.56924 211.000
21.58918 207.000
21.60913 202.000
21.62908 211.000
21.64903 177.000
21.66897 224.000
21.68892 209.000
21.70887 223.000
21.72881 203.000
21.74876 225.000
21.76871 215.000
21.78865 217.000
21.80860 227.000
21.82855 200.000
21.84850 208.000
21.86844 230.000
21.88839 222.000
21.90834 205.000
21.92828 207.000
21.94823 191.000
21.96818 213.000
21.98812 205.000
22.00807 228.000
22.02802 223.000
22.04796 220.000
22.06791 203.000
22.08786 223.000
22.10781 223.000
22.12775 215.000
22.14770 227.000
22.16765 212.000
22.18759 223.000
22.20754 203.000
22.22749 215.000
22.24743 222.000
22.26738 219.000
22.28733 228.000
22.30728 195.000
22.32722 213.000
22.34717 237.000
22.36712 199.000
22.38706 213.000
22.40701 217.000
22.42696 232.000
22.44690 212.000
22.46685 233.000
22.48680 227.000
22.50675 199.000
22.52669 201.000
22.54664 246.000
22.56659 214.000
22.58653 215.000
22.60648 235.000
22.62643 240.000
22.64637 254.000
22.66632 214.000
22.68627 217.000
22.70621 196.000
22.72616 228.000
22.74611 215.000
22.76606 204.000
22.78600 234.000
22.80595 236.000
22.82590 215.000
22.84584 209.000
22.86579 250.000
22.88574 196.000
22.90568 239.000
22.92563 192.000
22.94558 221.000
22.96553 224.000
22.98547 221.000
23.00542 243.000
23.02537 200.000
23.04531 216.000
23.06526 237.000
23.08521 247.000
23.10515 231.000
23.12510 211.000
23.14505 215.000
23.16499 218.000
23.18494 236.000
23.20489 241.000
23.22484 215.000
23.24478 230.000
23.26473 219.000
23.28468 222.000
23.30462 224.000
23.32457 201.000
23.34452 214.000
23.36446 209.000
23.38441 246.000
23.40436 201.000
23.42431 192.000
23.44425 202.000
23.46420 204.000
23.48415 197.000
23.50409 234.000
23.52404 215.000
23.54399 222.000
23.56393 215.000
23.58388 215.000
23.60383 214.000
23.62377 221.000
23.64372 227.000
23.66367 214.000
23.68362 211.000
23.70356 241.000
23.72351 226.000
23.74346 217.000
23.76340 228.000
23.78335 233.000
23.80330 203.000
23.82324 215.000
23.84319 248.000
23.86314 219.000
23.88309 226.000
23.90303 204.000
23.92298 217.000
23.94293 213.000
23.96287 214.000
23.98282 231.000
24.00277 219.000
24.02271 220.000
24.04266 250.000
24.06261 200.000
24.08256 243.000
24.10250 205.000
24.12245 206.000
24.14240 251.000
24.16234 200.000
24.18229 214.000
24.20224 232.000
24.22218 230.000
24.24213 252.000
24.26208 255.000
24.28202 224.000
24.30197 229.000
24.32192 212.000
24.34187 250.000
24.36181 216.000
24.38176 236.000
24.40171 229.000
24.42165 199.000
24.44160 223.000
24.46155 229.000
24.48149 229.000
24.50144 240.000
24.52139 217.000
24.54134 242.000
24.56128 219.000
24.58123 214.000
24.60118 243.000
24.62112 219.000
24.64107 202.000
24.66102 214.000
24.68096 234.000
24.70091 221.000
24.72086 242.000
24.74080 216.000
24.76075 217.000
24.78070 220.000
24.80065 198.000
24.82059 230.000
24.84054 212.000
24.86049 232.000
24.88043 258.000
24.90038 214.000
24.92033 238.000
24.94027 227.000
24.96022 239.000
24.98017 232.000
25.00012 274.000
25.02006 278.000
25.04001 236.000
25.05996 256.000
25.07990 212.000
25.09985 250.000
25.11980 222.000
25.13974 227.000
25.15969 250.000
25.17964 197.000
25.19958 213.000
25.21953 244.000
25.23948 234.000
25.25943 249.000
25.27937 229.000
25.29932 231.000
25.31927 236.000
25.33921 208.000
25.35916 212.000
25.37911 245.000
25.39905 216.000
25.41900 216.000
25.43895 215.000
25.45890 204.000
25.47884 237.000
25.49879 232.000
25.51874 213.000
25.53868 211.000
25.55863 233.000
25.57858 212.000
25.59852 237.000
25.61847 240.000
25.63842 251.000
25.65837 242.000
25.67831 225.000
25.69826 232.000
25.71821 238.000
25.73815 227.000
25.75810 216.000
25.77805 228.000
25.79799 220.000
25.81794 240.000
25.83789 200.000
25.85783 223.000
25.87778 245.000
25.89773 234.000
25.91768 232.000
25.93762 250.000
25.95757 222.000
25.97752 210.000
25.99746 233.000
26.01741 215.000
26.03736 214.000
26.05730 261.000
26.07725 220.000
26.09720 220.000
26.11715 206.000
26.13709 217.000
26.15704 242.000
26.17699 224.000
26.19693 245.000
26.21688 232.000
26.23683 233.000
26.25677 249.000
26.27672 257.000
26.29667 246.000
26.31661 238.000
26.33656 239.000
26.35651 236.000
26.37646 229.000
26.39640 212.000
26.41635 223.000
26.43630 222.000
26.45624 233.000
26.47619 199.000
26.49614 244.000
26.51608 212.000
26.53603 219.000
26.55598 244.000
26.57593 275.000
26.59587 237.000
26.61582 230.000
26.63577 222.000
26.65571 252.000
26.67566 258.000
26.69561 237.000
26.71555 253.000
26.73550 236.000
26.75545 261.000
26.77539 235.000
26.79534 246.000
26.81529 224.000
26.83524 243.000
26.85518 214.000
26.87513 239.000
26.89508 237.000
26.91502 246.000
26.93497 250.000
26.95492 245.000
26.97486 235.000
26.99481 247.000
27.01476 234.000
27.03471 251.000
27.05465 234.000
27.07460 251.000
27.09455 248.000
27.11449 229.000
27.13444 253.000
27.15439 235.000
27.17433 222.000
27.19428 245.000
27.21423 219.000
27.23417 267.000
27.25412 236.000
27.27407 226.000
27.29402 225.000
27.31396 233.000
27.33391 253.000
27.35386 227.000
27.37380 246.000
27.39375 263.000
27.41370 239.000
27.43364 234.000
27.45359 227.000
27.47354 231.000
27.49349 232.000
27.51343 228.000
27.53338 224.000
27.55333 240.000
27.57327 219.000
27.59322 240.000
27.61317 255.000
27.63311 232.000
27.65306 234.000
27.67301 236.000
27.69296 252.000
27.71290 240.000
27.73285 239.000
27.75280 250.000
27.77274 260.000
27.79269 260.000
27.81264 248.000
27.83258 250.000
27.85253 253.000
27.87248 225.000
27.89242 231.000
27.91237 252.000
27.93232 227.000
27.95227 246.000
27.97221 238.000
27.99216 223.000
28.01211 231.000
28.03205 241.000
28.05200 207.000
28.07195 250.000
28.09189 218.000
28.11184 244.000
28.13179 235.000
28.15174 231.000
28.17168 256.000
28.19163 262.000
28.21158 239.000
28.23152 236.000
28.25147 224.000
28.27142 246.000
28.29136 244.000
28.31131 230.000
28.33126 244.000
28.35120 230.000
28.37115 243.000
28.39110 231.000
28.41105 248.000
28.43099 253.000
28.45094 252.000
28.47089 259.000
28.49083 257.000
28.51078 230.000
28.53073 245.000
28.55067 228.000
28.57062 249.000
28.59057 242.000
28.61052 231.000
28.63046 228.000
28.65041 233.000
28.67036 248.000
28.69030 238.000
28.71025 243.000
28.73020 232.000
28.75014 261.000
28.77009 220.000
28.79004 241.000
28.80998 250.000
28.82993 265.000
28.84988 249.000
28.86983 257.000
28.88977 245.000
28.90972 260.000
28.92967 221.000
28.94961 232.000
28.96956 251.000
28.98951 270.000
29.00945 267.000
29.02940 268.000
29.04935 216.000
29.06930 257.000
29.08924 235.000
29.10919 245.000
29.12914 242.000
29.14908 254.000
29.16903 239.000
29.18898 217.000
29.20892 252.000
29.22887 236.000
29.24882 255.000
29.26877 268.000
29.28871 262.000
29.30866 239.000
29.32861 274.000
29.34855 301.000
29.36850 275.000
29.38845 292.000
29.40839 330.000
29.42834 296.000
29.44829 319.000
29.46823 316.000
29.48818 292.000
29.50813 274.000
29.52808 309.000
29.54802 303.000
29.56797 284.000
29.58792 280.000
29.60786 246.000
29.62781 261.000
29.64776 262.000
29.66770 249.000
29.68765 254.000
29.70760 277.000
29.72755 236.000
29.74749 272.000
29.76744 256.000
29.78739 234.000
29.80733 233.000
29.82728 232.000
29.84723 244.000
29.86717 275.000
29.88712 222.000
29.90707 239.000
29.92701 262.000
29.94696 222.000
29.96691 295.000
29.98686 275.000
30.00680 265.000
30.02675 252.000
30.04670 277.000
30.06664 264.000
30.08659 273.000
30.10654 279.000
30.12648 266.000
30.14643 255.000
30.16638 303.000
30.18633 272.000
30.20627 338.000
30.22622 324.000
30.24617 335.000
30.26611 431.000
30.28606 448.000
30.30601 552.000
30.32595 734.000
30.34590 740.000
30.36585 767.000
30.38579 648.000
30.40574 617.000
30.42569 557.000
30.44564 474.000
30.46558 364.000
30.48553 326.000
30.50548 319.000
30.52542 284.000
30.54537 289.000
30.56532 281.000
30.58526 265.000
30.60521 262.000
30.62516 247.000
30.64511 266.000
30.66505 303.000
30.68500 256.000
30.70495 249.000
30.72489 254.000
30.74484 272.000
30.76479 260.000
30.78473 260.000
30.80468 237.000
30.82463 237.000
30.84458 231.000
30.86452 248.000
30.88447 252.000
30.90442 282.000
30.92436 256.000
30.94431 273.000
30.96426 216.000
30.98420 275.000
31.00415 243.000
31.02410 236.000
31.04404 248.000
31.06399 238.000
31.08394 236.000
31.10389 248.000
31.12383 262.000
31.14378 255.000
31.16373 254.000
31.18367 245.000
31.20362 220.000
31.22357 234.000
31.24351 250.000
31.26346 252.000
31.28341 286.000
31.30336 237.000
31.32330 291.000
31.34325 261.000
31.36320 264.000
31.38314 262.000
31.40309 241.000
31.42304 239.000
31.44298 237.000
31.46293 259.000
31.48288 235.000
31.50282 254.000
31.52277 229.000
31.54272 248.000
31.56267 235.000
31.58261 214.000
31.60256 245.000
31.62251 240.000
31.64245 225.000
31.66240 260.000
31.68235 247.000
31.70229 242.000
31.72224 267.000
31.74219 226.000
31.76214 264.000
31.78208 241.000
31.80203 257.000
31.82198 233.000
31.84192 241.000
31.86187 278.000
31.88182 268.000
31.90176 255.000
31.92171 259.000
31.94166 252.000
31.96160 249.000
31.98155 283.000
32.00150 261.000
32.02145 272.000
32.04139 279.000
32.06134 262.000
32.08129 307.000
32.10123 319.000
32.12118 283.000
32.14113 317.000
32.16107 288.000
32.18102 324.000
32.20097 280.000
32.22092 273.000
32.24086 317.000
32.26081 295.000
32.28076 273.000
32.30070 247.000
32.32065 249.000
32.34060 221.000
32.36054 237.000
32.38049 244.000
32.40044 275.000
32.42039 290.000
32.44033 249.000
32.46028 309.000
32.48023 291.000
32.50017 308.000
32.52012 291.000
32.54007 309.000
32.56001 317.000
32.57996 332.000
32.59991 295.000
32.61985 338.000
32.63980 325.000
32.65975 292.000
32.67970 333.000
32.69964 251.000
32.71959 328.000
32.73954 278.000
32.75948 299.000
32.77943 287.000
32.79938 287.000
32.81932 276.000
32.83927 279.000
32.85922 298.000
32.87917 286.000
32.89911 293.000
32.91906 287.000
32.93901 294.000
32.95895 260.000
32.97890 268.000
32.99885 282.000
33.01879 300.000
33.03874 292.000
33.05869 297.000
33.07863 298.000
33.09858 330.000
33.11853 331.000
33.13848 329.000
33.15842 339.000
33.17837 376.000
33.19832 345.000
33.21826 376.000
33.23821 364.000
33.25816 341.000
33.27810 349.000
33.29805 319.000
33.31800 303.000
33.33795 278.000
33.35789 270.000
33.37784 298.000
33.39779 269.000
33.41773 250.000
33.43768 243.000
33.45763 261.000
33.47757 267.000
33.49752 260.000
33.51747 254.000
33.53741 270.000
33.55736 268.000
33.57731 263.000
33.59726 257.000
33.61720 238.000
33.63715 256.000
33.65710 253.000
33.67704 279.000
33.69699 257.000
33.71694 239.000
33.73688 229.000
33.75683 264.000
33.77678 299.000
33.79673 282.000
33.81667 243.000
33.83662 256.000
33.85657 287.000
33.87651 272.000
33.89646 301.000
33.91641 253.000
33.93635 259.000
33.95630 285.000
33.97625 255.000
33.99620 277.000
34.01614 254.000
34.03609 259.000
34.05604 284.000
34.07598 290.000
34.09593 262.000
34.11588 282.000
34.13582 302.000
34.15577 315.000
34.17572 336.000
34.19566 324.000
34.21561 331.000
34.23556 354.000
34.25551 381.000
34.27545 366.000
34.29540 405.000
34.31535 430.000
34.33529 413.000
34.35524 468.000
34.37519 508.000
34.39513 471.000
34.41508 513.000
34.43503 589.000
34.45498 556.000
34.47492 520.000
34.49487 513.000
34.51482 547.000
34.53476 520.000
34.55471 448.000
34.57466 480.000
34.59460 441.000
34.61455 509.000
34.63450 397.000
34.65444 433.000
34.67439 408.000
34.69434 422.000
34.71429 420.000
34.73423 362.000
34.75418 369.000
34.77413 390.000
34.79407 388.000
34.81402 393.000
34.83397 346.000
34.85391 366.000
34.87386 350.000
34.89381 364.000
34.91376 353.000
34.93370 377.000
34.95365 336.000
34.97360 351.000
34.99354 333.000
35.01349 351.000
35.03344 328.000
35.05338 333.000
35.07333 328.000
35.09328 341.000
35.11322 333.000
35.13317 345.000
35.15312 333.000
35.17307 426.000
35.19301 402.000
35.21296 395.000
35.23291 448.000
35.25285 462.000
35.27280 476.000
35.29275 513.000
35.31269 534.000
35.33264 517.000
35.35259 523.000
35.37254 577.000
35.39248 611.000
35.41243 644.000
35.43238 701.000
35.45232 731.000
35.47227 828.000
35.49222 961.000
35.51216 1053.000
35.53211 1130.000
35.55206 1301.000
35.57201 1347.000
35.59195 1449.000
35.61190 1475.000
35.63185 1536.000
35.65179 1597.000
35.67174 1793.000
35.69169 2208.000
35.71163 2672.000
35.73158 2802.000
35.75153 2251.000
35.77147 2016.000
35.79142 1717.000
35.81137 1657.000
35.83132 1515.000
35.85126 1211.000
35.87121 940.000
35.89116 696.000
35.91110 610.000
35.93105 563.000
35.95100 561.000
35.97094 480.000
35.99089 380.000
36.01084 358.000
36.03079 370.000
36.05073 373.000
36.07068 357.000
36.09063 369.000
36.11057 346.000
36.13052 312.000
36.15047 309.000
36.17041 365.000
36.19036 346.000
36.21031 352.000
36.23025 335.000
36.25020 292.000
36.27015 310.000
36.29010 325.000
36.31004 330.000
36.32999 316.000
36.34994 320.000
36.36988 305.000
36.38983 346.000
36.40978 304.000
36.42972 341.000
36.44967 324.000
36.46962 353.000
36.48957 384.000
36.50951 350.000
36.52946 375.000
36.54941 431.000
36.56935 439.000
36.58930 467.000
36.60925 436.000
36.62919 460.000
36.64914 498.000
36.66909 483.000
36.68903 462.000
36.70898 461.000
36.72893 471.000
36.74888 434.000
36.76882 420.000
36.78877 407.000
36.80872 429.000
36.82866 426.000
36.84861 463.000
36.86856 504.000
36.88850 469.000
36.90845 441.000
36.92840 491.000
36.94835 521.000
36.96829 534.000
36.98824 600.000
37.00819 623.000
37.02813 688.000
37.04808 752.000
37.06803 816.000
37.08797 872.000
37.10792 968.000
37.12787 993.000
37.14781 1011.000
37.16776 1061.000
37.18771 1025.000
37.20766 1004.000
37.22760 892.000
37.24755 863.000
37.26750 723.000
37.28744 713.000
37.30739 667.000
37.32734 575.000
37.34728 553.000
37.36723 542.000
37.38718 489.000
37.40713 425.000
37.42707 413.000
37.44702 397.000
37.46697 370.000
37.48691 363.000
37.50686 338.000
37.52681 304.000
37.54675 300.000
37.56670 295.000
37.58665 325.000
37.60660 307.000
37.62654 291.000
37.64649 286.000
37.66644 282.000
37.68638 318.000
37.70633 287.000
37.72628 265.000
37.74622 271.000
37.76617 300.000
37.78612 289.000
37.80606 268.000
37.82601 249.000
37.84596 269.000
37.86591 266.000
37.88585 256.000
37.90580 260.000
37.92575 267.000
37.94569 284.000
37.96564 287.000
37.98559 268.000
38.00553 285.000
38.02548 284.000
38.04543 316.000
38.06538 281.000
38.08532 292.000
38.10527 261.000
38.12522 282.000
38.14516 308.000
38.16511 283.000
38.18506 309.000
38.20500 276.000
38.22495 290.000
38.24490 330.000
38.26484 279.000
38.28479 288.000
38.30474 303.000
38.32469 313.000
38.34463 273.000
38.36458 318.000
38.38453 318.000
38.40447 358.000
38.42442 330.000
38.44437 344.000
38.46431 349.000
38.48426 346.000
38.50421 377.000
38.52416 363.000
38.54410 437.000
38.56405 443.000
38.58400 434.000
38.60394 502.000
38.62389 570.000
38.64384 563.000
38.66378 668.000
38.68373 740.000
38.70368 849.000
38.72362 839.000
38.74357 895.000
38.76352 987.000
38.78347 972.000
38.80341 1006.000
38.82336 903.000
38.84331 908.000
38.86325 882.000
38.88320 825.000
38.90315 791.000
38.92309 774.000
38.94304 723.000
38.96299 696.000
38.98294 624.000
39.00288 674.000
39.02283 592.000
39.04278 627.000
39.06272 528.000
39.08267 521.000
39.10262 530.000
39.12256 524.000
39.14251 444.000
39.16246 445.000
39.18241 427.000
39.20235 419.000
39.22230 429.000
39.24225 387.000
39.26219 407.000
39.28214 389.000
39.30209 357.000
39.32203 381.000
39.34198 399.000
39.36193 388.000
39.38187 393.000
39.40182 393.000
39.42177 418.000
39.44172 379.000
39.46166 366.000
39.48161 329.000
39.50156 315.000
39.52150 317.000
39.54145 302.000
39.56140 281.000
39.58134 297.000
39.60129 309.000
39.62124 282.000
39.64119 268.000
39.66113 270.000
39.68108 267.000
39.70103 287.000
39.72097 259.000
39.74092 279.000
39.76087 294.000
39.78081 287.000
39.80076 292.000
39.82071 278.000
39.84065 274.000
39.86060 266.000
39.88055 286.000
39.90050 248.000
39.92044 283.000
39.94039 282.000
39.96034 276.000
39.98028 271.000
40.00023 303.000
40.02018 262.000
40.04012 269.000
40.06007 273.000
40.08002 272.000
40.09997 289.000
40.11991 258.000
40.13986 288.000
40.15981 266.000
40.17975 254.000
40.19970 252.000
40.21965 244.000
40.23959 225.000
40.25954 258.000
40.27949 269.000
40.29943 276.000
40.31938 266.000
40.33933 259.000
40.35928 261.000
40.37922 275.000
40.39917 249.000
40.41912 260.000
40.43906 249.000
40.45901 226.000
40.47896 227.000
40.49890 261.000
40.51885 257.000
40.53880 281.000
40.55875 256.000
40.57869 230.000
40.59864 264.000
40.61859 279.000
40.63853 263.000
40.65848 278.000
40.67843 251.000
40.69837 273.000
40.71832 278.000
40.73827 221.000
40.75822 241.000
40.77816 304.000
40.79811 263.000
40.81806 249.000
40.83800 282.000
40.85795 236.000
40.87790 252.000
40.89784 235.000
40.91779 259.000
40.93774 269.000
40.95768 254.000
40.97763 252.000
40.99758 282.000
41.01753 247.000
41.03747 276.000
41.05742 296.000
41.07737 299.000
41.09731 320.000
41.11726 276.000
41.13721 300.000
41.15715 306.000
41.17710 296.000
41.19705 287.000
41.21700 276.000
41.23694 298.000
41.25689 304.000
41.27684 329.000
41.29678 328.000
41.31673 351.000
41.33668 387.000
41.35662 354.000
41.37657 399.000
41.39652 415.000
41.41646 490.000
41.43641 555.000
41.45636 579.000
41.47631 705.000
41.49625 821.000
41.51620 901.000
41.53615 1002.000
41.55609 1090.000
41.57604 1067.000
41.59599 1089.000
41.61593 993.000
41.63588 1003.000
41.65583 954.000
41.67578 966.000
41.69572 862.000
41.71567 802.000
41.73562 705.000
41.75556 684.000
41.77551 584.000
41.79546 572.000
41.81540 542.000
41.83535 492.000
41.85530 475.000
41.87524 411.000
41.89519 392.000
41.91514 371.000
41.93509 361.000
41.95503 300.000
41.97498 307.000
41.99493 296.000
42.01487 314.000
42.03482 287.000
42.05477 310.000
42.07471 272.000
42.09466 307.000
42.11461 281.000
42.13456 300.000
42.15450 335.000
42.17445 295.000
42.19440 294.000
42.21434 286.000
42.23429 275.000
42.25424 318.000
42.27418 303.000
42.29413 302.000
42.31408 298.000
42.33403 301.000
42.35397 305.000
42.37392 264.000
42.39387 265.000
42.41381 279.000
42.43376 295.000
42.45371 297.000
42.47365 327.000
42.49360 297.000
42.51355 329.000
42.53349 351.000
42.55344 319.000
42.57339 347.000
42.59334 336.000
42.61328 337.000
42.63323 312.000
42.65318 342.000
42.67312 333.000
42.69307 328.000
42.71302 339.000
42.73296 359.000
42.75291 379.000
42.77286 401.000
42.79281 418.000
42.81275 451.000
42.83270 443.000
42.85265 476.000
42.87259 485.000
42.89254 518.000
42.91249 579.000
42.93243 554.000
42.95238 681.000
42.97233 688.000
42.99227 763.000
43.01222 801.000
43.03217 887.000
43.05212 830.000
43.07206 951.000
43.09201 1005.000
43.11196 970.000
43.13190 1020.000
43.15185 1068.000
43.17180 1094.000
43.19174 1131.000
43.21169 1177.000
43.23164 1038.000
43.25159 1018.000
43.27153 1003.000
43.29148 991.000
43.31143 915.000
43.33137 877.000
43.35132 866.000
43.37127 916.000
43.39121 943.000
43.41116 926.000
43.43111 836.000
43.45105 714.000
43.47100 661.000
43.49095 645.000
43.51090 610.000
43.53084 579.000
43.55079 520.000
43.57074 469.000
43.59068 434.000
43.61063 392.000
43.63058 326.000
43.65052 332.000
43.67047 325.000
43.69042 302.000
43.71037 292.000
43.73031 293.000
43.75026 308.000
43.77021 264.000
43.79015 269.000
43.81010 284.000
43.83005 272.000
43.84999 273.000
43.86994 271.000
43.88989 283.000
43.90984 286.000
43.92978 283.000
43.94973 278.000
43.96968 251.000
43.98962 280.000
44.00957 260.000
44.02952 257.000
44.04946 249.000
44.06941 283.000
44.08936 263.000
44.10930 264.000
44.12925 239.000
44.14920 277.000
44.16915 265.000
44.18909 243.000
44.20904 234.000
44.22899 264.000
44.24893 278.000
44.26888 238.000
44.28883 238.000
44.30877 250.000
44.32872 262.000
44.34867 265.000
44.36862 269.000
44.38856 251.000
44.40851 251.000
44.42846 292.000
44.44840 224.000
44.46835 248.000
44.48830 241.000
44.50824 260.000
44.52819 249.000
44.54814 235.000
44.56808 278.000
44.58803 275.000
44.60798 291.000
44.62793 244.000
44.64787 231.000
44.66782 267.000
44.68777 254.000
44.70771 248.000
44.72766 259.000
44.74761 235.000
44.76755 248.000
44.78750 250.000
44.80745 276.000
44.82740 270.000
44.84734 241.000
44.86729 220.000
44.88724 279.000
44.90718 241.000
44.92713 284.000
44.94708 264.000
44.96702 259.000
44.98697 273.000
45.00692 295.000
45.02686 291.000
45.04681 261.000
45.06676 273.000
45.08671 244.000
45.10665 286.000
45.12660 236.000
45.14655 244.000
45.16649 287.000
45.18644 244.000
45.20639 273.000
45.22633 287.000
45.24628 294.000
45.26623 264.000
45.28618 246.000
45.30612 238.000
45.32607 241.000
45.34602 275.000
45.36596 253.000
45.38591 261.000
45.40586 252.000
45.42580 257.000
45.44575 239.000
45.46570 266.000
45.48565 261.000
45.50559 278.000
45.52554 233.000
45.54549 249.000
45.56543 252.000
45.58538 265.000
45.60533 265.000
45.62527 248.000
45.64522 224.000
45.66517 296.000
45.68511 256.000
45.70506 253.000
45.72501 237.000
45.74496 257.000
45.76490 254.000
45.78485 241.000
45.80480 268.000
45.82474 253.000
45.84469 261.000
45.86464 236.000
45.88458 226.000
45.90453 249.000
45.92448 253.000
45.94443 217.000
45.96437 234.000
45.98432 223.000
46.00427 232.000
46.02421 248.000
46.04416 246.000
46.06411 250.000
46.08405 263.000
46.10400 250.000
46.12395 241.000
46.14389 233.000
46.16384 229.000
46.18379 265.000
46.20374 251.000
46.22368 251.000
46.24363 243.000
46.26358 245.000
46.28352 237.000
46.30347 241.000
46.32342 282.000
46.34336 254.000
46.36331 243.000
46.38326 271.000
46.40321 282.000
46.42315 251.000
46.44310 248.000
46.46305 247.000
46.48299 230.000
46.50294 251.000
46.52289 255.000
46.54283 248.000
46.56278 229.000
46.58273 247.000
46.60267 257.000
46.62262 238.000
46.64257 242.000
46.66252 257.000
46.68246 244.000
46.70241 264.000
46.72236 248.000
46.74230 256.000
46.76225 217.000
46.78220 232.000
46.80214 241.000
46.82209 243.000
46.84204 226.000
46.86199 231.000
46.88193 230.000
46.90188 246.000
46.92183 250.000
46.94177 235.000
46.96172 251.000
46.98167 247.000
47.00161 233.000
47.02156 224.000
47.04151 251.000
47.06146 224.000
47.08140 244.000
47.10135 264.000
47.12130 221.000
47.14124 246.000
47.16119 241.000
47.18114 262.000
47.20108 204.000
47.22103 264.000
47.24098 234.000
47.26092 255.000
47.28087 244.000
47.30082 245.000
47.32077 245.000
47.34071 256.000
47.36066 275.000
47.38061 224.000
47.40055 251.000
47.42050 253.000
47.44045 246.000
47.46039 259.000
47.48034 249.000
47.50029 253.000
47.52024 255.000
47.54018 250.000
47.56013 254.000
47.58008 268.000
47.60002 240.000
47.61997 237.000
47.63992 251.000
47.65986 254.000
47.67981 253.000
47.69976 264.000
47.71970 232.000
47.73965 229.000
47.75960 289.000
47.77955 235.000
47.79949 264.000
47.81944 264.000
47.83939 237.000
47.85933 251.000
47.87928 243.000
47.89923 253.000
47.91917 242.000
47.93912 233.000
47.95907 221.000
47.97902 252.000
47.99896 260.000
48.01891 236.000
48.03886 261.000
48.05880 242.000
48.07875 233.000
48.09870 257.000
48.11864 285.000
48.13859 252.000
48.15854 290.000
48.17848 244.000
48.19843 272.000
48.21838 239.000
48.23833 280.000
48.25827 236.000
48.27822 252.000
48.29817 248.000
48.31811 282.000
48.33806 266.000
48.35801 259.000
48.37795 259.000
48.39790 273.000
48.41785 274.000
48.43780 269.000
48.45774 253.000
48.47769 266.000
48.49764 259.000
48.51758 302.000
48.53753 274.000
48.55748 297.000
48.57742 314.000
48.59737 292.000
48.61732 305.000
48.63726 332.000
48.65721 319.000
48.67716 353.000
48.69711 362.000
48.71705 369.000
48.73700 446.000
48.75695 448.000
48.77689 429.000
48.79684 461.000
48.81679 470.000
48.83673 504.000
48.85668 508.000
48.87663 513.000
48.89658 533.000
48.91652 509.000
48.93647 487.000
48.95642 448.000
48.97636 476.000
48.99631 466.000
49.01626 426.000
49.03620 390.000
49.05615 403.000
49.07610 353.000
49.09605 359.000
49.11599 324.000
49.13594 324.000
49.15589 293.000
49.17583 321.000
49.19578 298.000
49.21573 328.000
49.23567 262.000
49.25562 289.000
49.27557 304.000
49.29551 250.000
49.31546 262.000
49.33541 265.000
49.35536 277.000
49.37530 244.000
49.39525 277.000
49.41520 249.000
49.43514 260.000
49.45509 273.000
49.47504 271.000
49.49498 286.000
49.51493 276.000
49.53488 289.000
49.55483 271.000
49.57477 283.000
49.59472 279.000
49.61467 268.000
49.63461 272.000
49.65456 239.000
49.67451 267.000
49.69445 248.000
49.71440 261.000
49.73435 280.000
49.75429 238.000
49.77424 258.000
49.79419 265.000
49.81414 280.000
49.83408 255.000
49.85403 242.000
49.87398 248.000
49.89392 259.000
49.91387 244.000
49.93382 250.000
49.95376 267.000
49.97371 245.000
49.99366 247.000
50.01361 232.000
50.03355 258.000
50.05350 251.000
50.07345 230.000
50.09339 223.000
50.11334 239.000
50.13329 241.000
50.15323 247.000
50.17318 247.000
50.19313 242.000
50.21307 231.000
50.23302 270.000
50.25297 252.000
50.27292 229.000
50.29286 245.000
50.31281 237.000
50.33276 246.000
50.35270 224.000
50.37265 249.000
50.39260 221.000
50.41254 237.000
50.43249 265.000
50.45244 224.000
50.47239 279.000
50.49233 255.000
50.51228 237.000
50.53223 267.000
50.55217 259.000
50.57212 247.000
50.59207 265.000
50.61201 273.000
50.63196 252.000
50.65191 233.000
50.67186 241.000
50.69180 204.000
50.71175 225.000
50.73170 216.000
50.75164 252.000
50.77159 230.000
50.79154 230.000
50.81148 228.000
50.83143 236.000
50.85138 227.000
50.87132 229.000
50.89127 244.000
50.91122 206.000
50.93117 230.000
50.95111 245.000
50.97106 229.000
50.99101 237.000
51.01095 266.000
51.03090 233.000
51.05085 231.000
51.07079 230.000
51.09074 253.000
51.11069 252.000
51.13064 251.000
51.15058 246.000
51.17053 244.000
51.19048 215.000
51.21042 220.000
51.23037 259.000
51.25032 234.000
51.27026 261.000
51.29021 223.000
51.31016 215.000
51.33010 236.000
51.35005 249.000
51.37000 267.000
51.38995 248.000
51.40989 226.000
51.42984 242.000
51.44979 275.000
51.46973 254.000
51.48968 245.000
51.50963 261.000
51.52957 262.000
51.54952 246.000
51.56947 232.000
51.58942 243.000
51.60936 253.000
51.62931 225.000
51.64926 289.000
51.66920 268.000
51.68915 230.000
51.70910 268.000
51.72904 252.000
51.74899 233.000
51.76894 235.000
51.78888 253.000
51.80883 222.000
51.82878 244.000
51.84873 265.000
51.86867 251.000
51.88862 232.000
51.90857 253.000
51.92851 258.000
51.94846 253.000
51.96841 251.000
51.98835 236.000
52.00830 222.000
52.02825 265.000
52.04820 250.000
52.06814 250.000
52.08809 254.000
52.10804 251.000
52.12798 227.000
52.14793 272.000
52.16788 249.000
52.18782 233.000
52.20777 249.000
52.22772 265.000
52.24767 238.000
52.26761 250.000
52.28756 269.000
52.30751 258.000
52.32745 260.000
52.34740 249.000
52.36735 278.000
52.38729 236.000
52.40724 242.000
52.42719 256.000
52.44713 244.000
52.46708 226.000
52.48703 228.000
52.50698 226.000
52.52692 250.000
52.54687 235.000
52.56682 254.000
52.58676 227.000
52.60671 244.000
52.62666 276.000
52.64660 267.000
52.66655 233.000
52.68650 237.000
52.70645 261.000
52.72639 235.000
52.74634 255.000
52.76629 267.000
52.78623 250.000
52.80618 253.000
52.82613 262.000
52.84607 286.000
52.86602 253.000
52.88597 272.000
52.90591 281.000
52.92586 288.000
52.94581 255.000
52.96576 256.000
52.98570 296.000
53.00565 280.000
53.02560 307.000
53.04554 295.000
53.06549 285.000
53.08544 311.000
53.10538 315.000
53.12533 384.000
53.14528 393.000
53.16523 394.000
53.18517 359.000
53.20512 368.000
53.22507 346.000
53.24501 370.000
53.26496 355.000
53.28491 359.000
53.30485 336.000
53.32480 343.000
53.34475 327.000
53.36469 336.000
53.38464 295.000
53.40459 292.000
53.42454 302.000
53.44448 317.000
53.46443 298.000
53.48438 308.000
53.50432 276.000
53.52427 275.000
53.54422 300.000
53.56416 302.000
53.58411 267.000
53.60406 302.000
53.62401 312.000
53.64395 299.000
53.66390 267.000
53.68385 276.000
53.70379 326.000
53.72374 287.000
53.74369 305.000
53.76363 337.000
53.78358 359.000
53.80353 362.000
53.82348 361.000
53.84342 384.000
53.86337 415.000
53.88332 353.000
53.90326 346.000
53.92321 324.000
53.94316 289.000
53.96310 313.000
53.98305 335.000
54.00300 340.000
54.02294 300.000
54.04289 295.000
54.06284 254.000
54.08279 278.000
54.10273 243.000
54.12268 271.000
54.14263 262.000
54.16257 256.000
54.18252 256.000
54.20247 263.000
54.22241 230.000
54.24236 250.000
54.26231 279.000
54.28226 242.000
54.30220 247.000
54.32215 265.000
54.34210 235.000
54.36204 247.000
54.38199 250.000
54.40194 224.000
54.42188 226.000
54.44183 237.000
54.46178 233.000
54.48172 268.000
54.50167 263.000
54.52162 282.000
54.54157 251.000
54.56151 250.000
54.58146 225.000
54.60141 239.000
54.62135 245.000
54.64130 232.000
54.66125 233.000
54.68119 254.000
54.70114 218.000
54.72109 224.000
54.74104 236.000
54.76098 253.000
54.78093 241.000
54.80088 250.000
54.82082 251.000
54.84077 259.000
54.86072 267.000
54.88066 219.000
54.90061 225.000
54.92056 238.000
54.94050 233.000
54.96045 229.000
54.98040 235.000
55.00035 265.000
55.02029 238.000
55.04024 248.000
55.06019 254.000
55.08013 239.000
55.10008 241.000
55.12003 247.000
55.13997 248.000
55.15992 271.000
55.17987 232.000
55.19982 232.000
55.21976 241.000
55.23971 220.000
55.25966 234.000
55.27960 221.000
55.29955 242.000
55.31950 234.000
55.33944 258.000
55.35939 232.000
55.37934 245.000
55.39929 250.000
55.41923 260.000
55.43918 269.000
55.45913 229.000
55.47907 232.000
55.49902 234.000
55.51897 226.000
55.53891 241.000
55.55886 208.000
55.57881 239.000
55.59875 240.000
55.61870 230.000
55.63865 256.000
55.65860 256.000
55.67854 270.000
55.69849 243.000
55.71844 256.000
55.73838 231.000
55.75833 230.000
55.77828 243.000
55.79822 215.000
55.81817 267.000
55.83812 225.000
55.85807 214.000
55.87801 230.000
55.89796 230.000
55.91791 254.000
55.93785 224.000
55.95780 268.000
55.97775 241.000
55.99769 245.000
56.01764 233.000
56.03759 243.000
56.05753 256.000
56.07748 229.000
56.09743 270.000
56.11738 252.000
56.13732 215.000
56.15727 243.000
56.17722 224.000
56.19716 256.000
56.21711 236.000
56.23706 253.000
56.25700 217.000
56.27695 244.000
56.29690 220.000
56.31685 235.000
56.33679 265.000
56.35674 257.000
56.37669 229.000
56.39663 253.000
56.41658 257.000
56.43653 257.000
56.45647 237.000
56.47642 250.000
56.49637 253.000
56.51631 256.000
56.53626 239.000
56.55621 244.000
56.57616 270.000
56.59610 243.000
56.61605 246.000
56.63600 248.000
56.65594 273.000
56.67589 253.000
56.69584 267.000
56.71578 272.000
56.73573 267.000
56.75568 265.000
56.77563 229.000
56.79557 228.000
56.81552 271.000
56.83547 246.000
56.85541 271.000
56.87536 273.000
56.89531 239.000
56.91525 248.000
56.93520 242.000
56.95515 237.000
56.97510 267.000
56.99504 249.000
57.01499 240.000
57.03494 302.000
57.05488 257.000
57.07483 260.000
57.09478 266.000
57.11472 237.000
57.13467 272.000
57.15462 274.000
57.17456 283.000
57.19451 279.000
57.21446 314.000
57.23441 344.000
57.25435 318.000
57.27430 339.000
57.29425 353.000
57.31419 423.000
57.33414 466.000
57.35409 529.000
57.37403 595.000
57.39398 617.000
57.41393 570.000
57.43388 569.000
57.45382 479.000
57.47377 444.000
57.49372 478.000
57.51366 474.000
57.53361 474.000
57.55356 490.000
57.57350 458.000
57.59345 412.000
57.61340 355.000
57.63334 339.000
57.65329 347.000
57.67324 334.000
57.69319 361.000
57.71313 343.000
57.73308 356.000
57.75303 346.000
57.77297 375.000
57.79292 399.000
57.81287 425.000
57.83281 394.000
57.85276 420.000
57.87271 436.000
57.89266 480.000
57.91260 461.000
57.93255 463.000
57.95250 411.000
57.97244 399.000
57.99239 427.000
58.01234 395.000
58.03228 407.000
58.05223 399.000
58.07218 356.000
58.09212 373.000
58.11207 372.000
58.13202 331.000
58.15197 296.000
58.17191 331.000
58.19186 329.000
58.21181 305.000
58.23175 310.000
58.25170 323.000
58.27165 358.000
58.29159 329.000
58.31154 337.000
58.33149 333.000
58.35144 340.000
58.37138 335.000
58.39133 346.000
58.41128 312.000
58.43122 317.000
58.45117 307.000
58.47112 294.000
58.49106 306.000
58.51101 328.000
58.53096 293.000
58.55090 324.000
58.57085 283.000
58.59080 314.000
58.61075 293.000
58.63069 264.000
58.65064 301.000
58.67059 278.000
58.69053 251.000
58.71048 242.000
58.73043 284.000
58.75037 236.000
58.77032 244.000
58.79027 246.000
58.81022 238.000
58.83016 262.000
58.85011 242.000
58.87006 263.000
58.89000 246.000
58.90995 247.000
58.92990 228.000
58.94984 250.000
58.96979 247.000
58.98974 264.000
59.00969 216.000
59.02963 240.000
59.04958 258.000
59.06953 260.000
59.08947 250.000
59.10942 259.000
59.12937 240.000
59.14931 225.000
59.16926 240.000
59.18921 240.000
59.20915 252.000
59.22910 246.000
59.24905 279.000
59.26900 268.000
59.28894 243.000
59.30889 246.000
59.32884 234.000
59.34878 250.000
59.36873 265.000
59.38868 236.000
59.40862 247.000
59.42857 224.000
59.44852 247.000
59.46847 246.000
59.48841 274.000
59.50836 221.000
59.52831 250.000
59.54825 239.000
59.56820 233.000
59.58815 232.000
59.60809 261.000
59.62804 259.000
59.64799 260.000
59.66793 235.000
59.68788 259.000
59.70783 240.000
59.72778 232.000
59.74772 261.000
59.76767 250.000
59.78762 235.000
59.80756 253.000
59.82751 272.000
59.84746 271.000
59.86740 243.000
59.88735 237.000
59.90730 264.000
59.92725 260.000
59.94719 251.000
59.96714 219.000
59.98709 242.000
60.00703 210.000
60.02698 265.000
60.04693 280.000
60.06687 269.000
60.08682 264.000
60.10677 227.000
60.12671 247.000
60.14666 277.000
60.16661 263.000
60.18656 247.000
60.20650 251.000
60.22645 236.000
60.24640 272.000
60.26634 265.000
60.28629 267.000
60.30624 241.000
60.32618 223.000
60.34613 248.000
60.36608 216.000
60.38603 241.000
60.40597 245.000
60.42592 244.000
60.44587 255.000
60.46581 241.000
60.48576 242.000
60.50571 264.000
60.52565 275.000
60.54560 233.000
60.56555 269.000
60.58550 245.000
60.60544 250.000
60.62539 243.000
60.64534 269.000
60.66528 256.000
60.68523 244.000
60.70518 267.000
60.72512 244.000
60.74507 247.000
60.76502 253.000
60.78496 238.000
60.80491 263.000
60.82486 298.000
60.84481 269.000
60.86475 243.000
60.88470 270.000
60.90465 279.000
60.92459 236.000
60.94454 263.000
60.96449 260.000
60.98443 255.000
61.00438 245.000
61.02433 266.000
61.04428 279.000
61.06422 254.000
61.08417 235.000
61.10412 269.000
61.12406 235.000
61.14401 263.000
61.16396 267.000
61.18390 283.000
61.20385 273.000
61.22380 287.000
61.24374 283.000
61.26369 281.000
61.28364 291.000
61.30359 270.000
61.32353 281.000
61.34348 301.000
61.36343 287.000
61.38337 302.000
61.40332 331.000
61.42327 335.000
61.44321 353.000
61.46316 345.000
61.48311 352.000
61.50306 324.000
61.52300 374.000
61.54295 353.000
61.56290 402.000
61.58284 384.000
61.60279 382.000
61.62274 399.000
61.64268 409.000
61.66263 436.000
61.68258 433.000
61.70252 367.000
61.72247 417.000
61.74242 407.000
61.76237 408.000
61.78231 409.000
61.80226 404.000
61.82221 437.000
61.84215 370.000
61.86210 366.000
61.88205 360.000
61.90199 384.000
61.92194 391.000
61.94189 390.000
61.96184 327.000
61.98178 388.000
62.00173 390.000
62.02168 391.000
62.04162 353.000
62.06157 365.000
62.08152 360.000
62.10146 379.000
62.12141 363.000
62.14136 409.000
62.16131 439.000
62.18125 414.000
62.20120 432.000
62.22115 404.000
62.24109 430.000
62.26104 399.000
62.28099 448.000
62.30093 470.000
62.32088 451.000
62.34083 512.000
62.36077 526.000
62.38072 564.000
62.40067 566.000
62.42062 579.000
62.44056 588.000
62.46051 617.000
62.48046 663.000
62.50040 634.000
62.52035 644.000
62.54030 709.000
62.56024 688.000
62.58019 683.000
62.60014 696.000
62.62009 689.000
62.64003 702.000
62.65998 722.000
62.67993 730.000
62.69987 687.000
62.71982 689.000
62.73977 683.000
62.75971 638.000
62.77966 659.000
62.79961 645.000
62.81955 626.000
62.83950 551.000
62.85945 620.000
62.87940 544.000
62.89934 598.000
62.91929 568.000
62.93924 610.000
62.95918 674.000
62.97913 707.000
62.99908 774.000
63.01902 856.000
63.03897 874.000
63.05892 763.000
63.07887 656.000
63.09881 569.000
63.11876 557.000
63.13871 541.000
63.15865 538.000
63.17860 585.000
63.19855 571.000
63.21849 542.000
63.23844 491.000
63.25839 429.000
63.27833 415.000
63.29828 368.000
63.31823 373.000
63.33818 314.000
63.35812 335.000
63.37807 345.000
63.39802 310.000
63.41796 314.000
63.43791 268.000
63.45786 268.000
63.47780 258.000
63.49775 261.000
63.51770 294.000
63.53765 302.000
63.55759 268.000
63.57754 280.000
63.59749 283.000
63.61743 268.000
63.63738 288.000
63.65733 280.000
63.67727 246.000
63.69722 302.000
63.71717 273.000
63.73712 242.000
63.75706 241.000
63.77701 249.000
63.79696 261.000
63.81690 255.000
63.83685 269.000
63.85680 260.000
63.87674 245.000
63.89669 254.000
63.91664 263.000
63.93658 253.000
63.95653 281.000
63.97648 291.000
63.99643 240.000
64.01637 302.000
64.03632 257.000
64.05627 266.000
64.07621 311.000
64.09616 255.000
64.11611 287.000
64.13605 284.000
64.15600 273.000
64.17595 273.000
64.19590 269.000
64.21584 272.000
64.23579 263.000
64.25574 279.000
64.27568 295.000
64.29563 262.000
64.31558 287.000
64.33552 253.000
64.35547 282.000
64.37542 267.000
64.39536 275.000
64.41531 263.000
64.43526 262.000
64.45521 247.000
64.47515 249.000
64.49510 277.000
64.51505 284.000
64.53499 277.000
64.55494 266.000
64.57489 279.000
64.59483 278.000
64.61478 288.000
64.63473 247.000
64.65468 279.000
64.67462 269.000
64.69457 256.000
64.71452 255.000
64.73446 269.000
64.75441 280.000
64.77436 271.000
64.79430 241.000
64.81425 277.000
64.83420 257.000
64.85414 259.000
64.87409 294.000
64.89404 303.000
64.91399 288.000
64.93393 291.000
64.95388 271.000
64.97383 295.000
64.99377 282.000
65.01372 287.000
65.03367 288.000
65.05361 285.000
65.07356 297.000
65.09351 296.000
65.11346 301.000
65.13340 273.000
65.15335 265.000
65.17330 266.000
65.19324 283.000
65.21319 298.000
65.23314 312.000
65.25308 294.000
65.27303 276.000
65.29298 323.000
65.31293 320.000
65.33287 332.000
65.35282 306.000
65.37277 319.000
65.39271 286.000
65.41266 295.000
65.43261 250.000
65.45255 294.000
65.47250 273.000
65.49245 290.000
65.51239 286.000
65.53234 279.000
65.55229 295.000
65.57224 316.000
65.59218 274.000
65.61213 295.000
65.63208 308.000
65.65202 323.000
65.67197 301.000
65.69192 292.000
65.71186 320.000
65.73181 341.000
65.75176 319.000
65.77171 329.000
65.79165 305.000
65.81160 285.000
65.83155 297.000
65.85149 317.000
65.87144 309.000
65.89139 342.000
65.91133 333.000
65.93128 318.000
65.95123 316.000
65.97117 313.000
65.99112 301.000
66.01107 316.000
66.03102 294.000
66.05096 296.000
66.07091 294.000
66.09086 314.000
66.11080 318.000
66.13075 322.000
66.15070 296.000
66.17064 297.000
66.19059 333.000
66.21054 340.000
66.23049 322.000
66.25043 357.000
66.27038 373.000
66.29033 354.000
66.31027 374.000
66.33022 371.000
66.35017 371.000
66.37011 383.000
66.39006 366.000
66.41001 384.000
66.42995 373.000
66.44990 391.000
66.46985 353.000
66.48980 362.000
66.50974 333.000
66.52969 353.000
66.54964 370.000
66.56958 326.000
66.58953 368.000
66.60948 310.000
66.62942 321.000
66.64937 328.000
66.66932 299.000
66.68927 333.000
66.70921 283.000
66.72916 280.000
66.74911 292.000
66.76905 321.000
66.78900 274.000
66.80895 265.000
66.82889 253.000
66.84884 237.000
66.86879 273.000
66.88874 277.000
66.90868 263.000
66.92863 265.000
66.94858 272.000
66.96852 279.000
66.98847 268.000
67.00842 243.000
67.02836 256.000
67.04831 287.000
67.06826 248.000
67.08820 259.000
67.10815 254.000
67.12810 253.000
67.14805 248.000
67.16799 246.000
67.18794 261.000
67.20789 246.000
67.22783 283.000
67.24778 272.000
67.26773 256.000
67.28767 249.000
67.30762 257.000
67.32757 254.000
67.34752 296.000
67.36746 242.000
67.38741 261.000
67.40736 249.000
67.42730 258.000
67.44725 246.000
67.46720 242.000
67.48714 261.000
67.50709 274.000
67.52704 272.000
67.54698 263.000
67.56693 256.000
67.58688 243.000
67.60683 276.000
67.62677 234.000
67.64672 257.000
67.66667 284.000
67.68661 277.000
67.70656 261.000
67.72651 251.000
67.74645 282.000
67.76640 303.000
67.78635 298.000
67.80630 294.000
67.82624 301.000
67.84619 294.000
67.86614 293.000
67.88608 302.000
67.90603 327.000
67.92598 340.000
67.94592 313.000
67.96587 316.000
67.98582 379.000
68.00576 276.000
68.02571 311.000
68.04566 362.000
68.06561 312.000
68.08555 350.000
68.10550 332.000
68.12545 328.000
68.14539 359.000
68.16534 364.000
68.18529 375.000
68.20523 368.000
68.22518 393.000
68.24513 368.000
68.26508 353.000
68.28502 361.000
68.30497 387.000
68.32492 369.000
68.34486 334.000
68.36481 376.000
68.38476 342.000
68.40470 309.000
68.42465 299.000
68.44460 309.000
68.46455 348.000
68.48449 317.000
68.50444 295.000
68.52439 313.000
68.54433 264.000
68.56428 254.000
68.58423 293.000
68.60417 269.000
68.62412 318.000
68.64407 276.000
68.66401 262.000
68.68396 252.000
68.70391 243.000
68.72386 268.000
68.74380 273.000
68.76375 237.000
68.78370 252.000
68.80364 245.000
68.82359 256.000
68.84354 238.000
68.86348 298.000
68.88343 257.000
68.90338 253.000
68.92333 231.000
68.94327 251.000
68.96322 246.000
68.98317 247.000
69.00311 227.000
69.02306 253.000
69.04301 265.000
69.06295 253.000
69.08290 259.000
69.10285 243.000
69.12279 231.000
69.14274 230.000
69.16269 250.000
69.18264 238.000
69.20258 229.000
69.22253 244.000
69.24248 262.000
69.26242 224.000
69.28237 253.000
69.30232 248.000
69.32226 263.000
69.34221 243.000
69.36216 231.000
69.38211 279.000
69.40205 293.000
69.42200 284.000
69.44195 280.000
69.46189 235.000
69.48184 270.000
69.50179 262.000
69.52173 217.000
69.54168 275.000
69.56163 219.000
69.58157 238.000
69.60152 235.000
69.62147 226.000
69.64142 234.000
69.66136 254.000
69.68131 219.000
69.70126 244.000
69.72120 247.000
69.74115 227.000
69.76110 269.000
69.78104 243.000
69.80099 241.000
69.82094 236.000
69.84089 245.000
69.86083 256.000
69.88078 265.000
69.90073 230.000
69.92067 246.000
69.94062 232.000
69.96057 249.000
69.98051 249.000
70.00046 254.000
70.02041 237.000
70.04035 246.000
70.06030 224.000
70.08025 244.000
70.10020 247.000
70.12014 225.000
70.14009 245.000
70.16004 226.000
70.17998 258.000
70.19993 254.000
70.21988 255.000
70.23982 237.000
70.25977 241.000
70.27972 232.000
70.29967 208.000
70.31961 246.000
70.33956 231.000
70.35951 250.000
70.37945 251.000
70.39940 225.000
70.41935 229.000
70.43929 249.000
70.45924 222.000
70.47919 252.000
70.49914 222.000
70.51908 226.000
70.53903 250.000
70.55898 249.000
70.57892 234.000
70.59887 235.000
70.61882 243.000
70.63876 257.000
70.65871 259.000
70.67866 258.000
70.69860 247.000
70.71855 240.000
70.73850 240.000
70.75845 225.000
70.77839 264.000
70.79834 239.000
70.81829 224.000
70.83823 223.000
70.85818 235.000
70.87813 262.000
70.89807 236.000
70.91802 225.000
70.93797 239.000
70.95792 246.000
70.97786 214.000
70.99781 261.000
71.01776 244.000
71.03770 257.000
71.05765 254.000
71.07760 257.000
71.09754 256.000
71.11749 224.000
71.13744 235.000
71.15738 245.000
71.17733 237.000
71.19728 243.000
71.21723 250.000
71.23717 234.000
71.25712 262.000
71.27707 237.000
71.29701 258.000
71.31696 251.000
71.33691 262.000
71.35685 243.000
71.37680 255.000
71.39675 250.000
71.41670 255.000
71.43664 247.000
71.45659 244.000
71.47654 249.000
71.49648 296.000
71.51643 293.000
71.53638 272.000
71.55632 277.000
71.57627 276.000
71.59622 257.000
71.61616 251.000
71.63611 253.000
71.65606 290.000
71.67601 254.000
71.69595 256.000
71.71590 252.000
71.73585 251.000
71.75579 258.000
71.77574 260.000
71.79569 238.000
71.81563 248.000
71.83558 262.000
71.85553 235.000
71.87548 249.000
71.89542 245.000
71.91537 213.000
71.93532 261.000
71.95526 271.000
71.97521 250.000
71.99516 253.000
72.01510 237.000
72.03505 241.000
72.05500 248.000
72.07495 286.000
72.09489 237.000
72.11484 243.000
72.13479 238.000
72.15473 253.000
72.17468 266.000
72.19463 270.000
72.21457 251.000
72.23452 264.000
72.25447 290.000
72.27441 275.000
72.29436 262.000
72.31431 294.000
72.33426 302.000
72.35420 301.000
72.37415 289.000
72.39410 330.000
72.41404 278.000
72.43399 286.000
72.45394 314.000
72.47388 286.000
72.49383 328.000
72.51378 326.000
72.53373 345.000
72.55367 316.000
72.57362 311.000
72.59357 357.000
72.61351 319.000
72.63346 300.000
72.65341 287.000
72.67335 294.000
72.69330 322.000
72.71325 295.000
72.73319 303.000
72.75314 287.000
72.77309 258.000
72.79304 288.000
72.81298 283.000
72.83293 279.000
72.85288 271.000
72.87282 249.000
72.89277 257.000
72.91272 238.000
72.93266 279.000
72.95261 251.000
72.97256 288.000
72.99251 256.000
73.01245 281.000
73.03240 295.000
73.05235 238.000
73.07229 283.000
73.09224 282.000
73.11219 244.000
73.13213 241.000
73.15208 270.000
73.17203 237.000
73.19197 238.000
73.21192 264.000
73.23187 264.000
73.25182 277.000
73.27176 245.000
73.29171 248.000
73.31166 250.000
73.33160 239.000
73.35155 255.000
73.37150 256.000
73.39144 251.000
73.41139 238.000
73.43134 227.000
73.45129 263.000
73.47123 228.000
73.49118 270.000
73.51113 275.000
73.53107 289.000
73.55102 237.000
73.57097 235.000
73.59091 252.000
73.61086 279.000
73.63081 277.000
73.65076 285.000
73.67070 287.000
73.69065 268.000
73.71060 264.000
73.73054 271.000
73.75049 269.000
73.77044 249.000
73.79038 247.000
73.81033 259.000
73.83028 247.000
73.85022 284.000
73.87017 276.000
73.89012 274.000
73.91007 255.000
73.93001 267.000
73.94996 257.000
73.96991 262.000
73.98985 276.000
74.00980 285.000
74.02975 300.000
74.04969 311.000
74.06964 270.000
74.08959 290.000
74.10954 267.000
74.12948 291.000
74.14943 305.000
74.16938 307.000
74.18932 279.000
74.20927 288.000
74.22922 250.000
74.24916 287.000
74.26911 273.000
74.28906 257.000
74.30900 266.000
74.32895 263.000
74.34890 280.000
74.36885 259.000
74.38879 292.000
74.40874 303.000
74.42869 296.000
74.44863 287.000
74.46858 291.000
74.48853 359.000
74.50847 327.000
74.52842 359.000
74.54837 375.000
74.56832 375.000
74.58826 361.000
74.60821 355.000
74.62816 342.000
74.64810 321.000
74.66805 348.000
74.68800 321.000
74.70794 316.000
74.72789 377.000
74.74784 370.000
74.76778 365.000
74.78773 361.000
74.80768 381.000
74.82763 369.000
74.84757 339.000
74.86752 354.000
74.88747 330.000
74.90741 322.000
74.92736 394.000
74.94731 379.000
74.96725 384.000
74.98720 404.000
75.00715 397.000
75.02710 348.000
75.04704 339.000
75.06699 392.000
75.08694 378.000
75.10688 366.000
75.12683 404.000
75.14678 395.000
75.16672 363.000
75.18667 401.000
75.20662 405.000
75.22657 426.000
75.24651 436.000
75.26646 372.000
75.28641 391.000
75.30635 335.000
75.32630 399.000
75.34625 356.000
75.36619 352.000
75.38614 363.000
75.40609 353.000
75.42603 392.000
75.44598 339.000
75.46593 332.000
75.48588 332.000
75.50582 325.000
75.52577 340.000
75.54572 326.000
75.56566 337.000
75.58561 316.000
75.60556 319.000
75.62550 297.000
75.64545 317.000
75.66540 279.000
75.68535 314.000
75.70529 297.000
75.72524 293.000
75.74519 325.000
75.76513 286.000
75.78508 268.000
75.80503 251.000
75.82497 286.000
75.84492 289.000
75.86487 258.000
75.88481 257.000
75.90476 272.000
75.92471 247.000
75.94466 260.000
75.96460 279.000
75.98455 251.000
76.00450 268.000
76.02444 233.000
76.04439 250.000
76.06434 276.000
76.08428 236.000
76.10423 252.000
76.12418 244.000
76.14413 253.000
76.16407 237.000
76.18402 244.000
76.20397 245.000
76.22391 242.000
76.24386 222.000
76.26381 220.000
76.28375 273.000
76.30370 250.000
76.32365 221.000
76.34359 266.000
76.36354 227.000
76.38349 226.000
76.40344 214.000
76.42338 239.000
76.44333 234.000
76.46328 252.000
76.48322 264.000
76.50317 245.000
76.52312 219.000
76.54306 240.000
76.56301 228.000
76.58296 234.000
76.60291 252.000
76.62285 250.000
76.64280 229.000
76.66275 229.000
76.68269 255.000
76.70264 246.000
76.72259 253.000
76.74253 244.000
76.76248 234.000
76.78243 243.000
76.80238 222.000
76.82232 243.000
76.84227 243.000
76.86222 263.000
76.88216 235.000
76.90211 229.000
76.92206 250.000
76.94200 250.000
76.96195 248.000
76.98190 222.000
77.00184 253.000
77.02179 240.000
77.04174 242.000
77.06169 261.000
77.08163 259.000
77.10158 206.000
77.12153 229.000
77.14147 240.000
77.16142 213.000
77.18137 255.000
77.20131 267.000
77.22126 242.000
77.24121 244.000
77.26116 268.000
77.28110 227.000
77.30105 265.000
77.32100 243.000
77.34094 268.000
77.36089 248.000
77.38084 248.000
77.40078 233.000
77.42073 242.000
77.44068 246.000
77.46062 274.000
77.48057 268.000
77.50052 255.000
77.52047 256.000
77.54041 264.000
77.56036 263.000
77.58031 250.000
77.60025 233.000
77.62020 275.000
77.64015 247.000
77.66009 276.000
77.68004 252.000
77.69999 262.000
77.71994 264.000
77.73988 241.000
77.75983 266.000
77.77978 321.000
77.79972 264.000
77.81967 275.000
77.83962 264.000
77.85956 266.000
77.87951 259.000
77.89946 301.000
77.91940 295.000
77.93935 284.000
77.95930 270.000
77.97925 256.000
77.99919 273.000
78.01914 282.000
78.03909 273.000
78.05903 270.000
78.07898 276.000
78.09893 298.000
78.11887 261.000
78.13882 260.000
78.15877 241.000
78.17872 290.000
78.19866 264.000
78.21861 270.000
78.23856 276.000
78.25850 264.000
78.27845 268.000
78.29840 256.000
78.31834 283.000
78.33829 236.000
78.35824 303.000
78.37819 292.000
78.39813 295.000
78.41808 272.000
78.43803 245.000
78.45797 278.000
78.47792 251.000
78.49787 267.000
78.51781 259.000
78.53776 242.000
78.55771 278.000
78.57765 283.000
78.59760 240.000
78.61755 302.000
78.63750 247.000
78.65744 257.000
78.67739 270.000
78.69734 264.000
78.71728 270.000
78.73723 272.000
78.75718 269.000
78.77712 292.000
78.79707 301.000
78.81702 282.000
78.83697 306.000
78.85691 306.000
78.87686 319.000
78.89681 275.000
78.91675 319.000
78.93670 343.000
78.95665 318.000
78.97659 302.000
78.99654 308.000
79.01649 291.000
79.03643 321.000
79.05638 326.000
79.07633 324.000
79.09628 327.000
79.11622 314.000
79.13617 328.000
79.15612 327.000
79.17606 326.000
79.19601 275.000
79.21596 306.000
79.23590 276.000
79.25585 298.000
79.27580 302.000
79.29575 313.000
79.31569 272.000
79.33564 311.000
79.35559 321.000
79.37553 297.000
79.39548 268.000
79.41543 290.000
79.43537 264.000
79.45532 279.000
79.47527 297.000
79.49521 250.000
79.51516 250.000
79.53511 279.000
79.55506 252.000
79.57500 267.000
79.59495 314.000
79.61490 256.000
79.63484 254.000
79.65479 243.000
79.67474 278.000
79.69468 281.000
79.71463 267.000
79.73458 257.000
79.75453 244.000
79.77447 249.000
79.79442 251.000
79.81437 258.000
79.83431 278.000
79.85426 248.000
79.87421 239.000
79.89415 263.000
79.91410 232.000
79.93405 258.000
79.95399 208.000
79.97394 254.000
79.99389 245.000
80.01384 210.000
80.03378 246.000
80.05373 231.000
80.07368 256.000
80.09362 208.000
80.11357 280.000
80.13352 217.000
80.15346 274.000
80.17341 280.000
80.19336 254.000
80.21331 260.000
80.23325 254.000
80.25320 264.000
80.27315 247.000
80.29309 262.000
80.31304 256.000
80.33299 241.000
80.35293 272.000
80.37288 250.000
80.39283 243.000
80.41278 260.000
80.43272 248.000
80.45267 255.000
80.47262 235.000
80.49256 238.000
80.51251 241.000
80.53246 254.000
80.55240 230.000
80.57235 246.000
80.59230 267.000
80.61224 243.000
80.63219 240.000
80.65214 235.000
80.67209 274.000
80.69203 241.000
80.71198 245.000
80.73193 228.000
80.75187 216.000
80.77182 205.000
80.79177 244.000
80.81171 260.000
80.83166 250.000
80.85161 239.000
80.87156 246.000
80.89150 260.000
80.91145 216.000
80.93140 234.000
80.95134 228.000
80.97129 242.000
80.99124 263.000
81.01118 222.000
81.03113 250.000
81.05108 251.000
81.07102 238.000
81.09097 224.000
81.11092 231.000
81.13087 250.000
81.15081 216.000
81.17076 218.000
81.19071 208.000
81.21065 230.000
81.23060 257.000
81.25055 212.000
81.27049 209.000
81.29044 235.000
81.31039 255.000
81.33034 242.000
81.35028 239.000
81.37023 248.000
81.39018 235.000
81.41012 226.000
81.43007 237.000
81.45002 247.000
81.46996 225.000
81.48991 233.000
81.50986 232.000
81.52980 243.000
81.54975 254.000
81.56970 227.000
81.58965 240.000
81.60959 251.000
81.62954 247.000
81.64949 253.000
81.66943 230.000
81.68938 233.000
81.70933 243.000
81.72927 291.000
81.74922 222.000
81.76917 234.000
81.78912 257.000
81.80906 253.000
81.82901 234.000
81.84896 241.000
81.86890 233.000
81.88885 226.000
81.90880 203.000
81.92874 231.000
81.94869 241.000
81.96864 230.000
81.98859 241.000
82.00853 218.000
82.02848 200.000
82.04843 263.000
82.06837 215.000
82.08832 245.000
82.10827 250.000
82.12821 267.000
82.14816 243.000
82.16811 214.000
82.18805 246.000
82.20800 229.000
82.22795 263.000
82.24790 251.000
82.26784 234.000
82.28779 196.000
82.30774 254.000
82.32768 236.000
82.34763 249.000
82.36758 273.000
82.38752 266.000
82.40747 253.000
82.42742 285.000
82.44737 209.000
82.46731 260.000
82.48726 274.000
82.50721 233.000
82.52715 271.000
82.54710 267.000
82.56705 257.000
82.58699 253.000
82.60694 281.000
82.62689 271.000
82.64683 292.000
82.66678 257.000
82.68673 293.000
82.70668 244.000
82.72662 260.000
82.74657 281.000
82.76652 266.000
82.78646 250.000
82.80641 274.000
82.82636 261.000
82.84630 288.000
82.86625 305.000
82.88620 260.000
82.90615 280.000
82.92609 261.000
82.94604 268.000
82.96599 280.000
82.98593 260.000
83.00588 260.000
83.02583 266.000
83.04577 258.000
83.06572 262.000
83.08567 262.000
83.10561 259.000
83.12556 243.000
83.14551 280.000
83.16546 257.000
83.18540 234.000
83.20535 265.000
83.22530 256.000
83.24524 254.000
83.26519 257.000
83.28514 267.000
83.30508 248.000
83.32503 256.000
83.34498 223.000
83.36493 222.000
83.38487 259.000
83.40482 233.000
83.42477 270.000
83.44471 245.000
83.46466 251.000
83.48461 249.000
83.50455 257.000
83.52450 238.000
83.54445 272.000
83.56440 260.000
83.58434 290.000
83.60429 270.000
83.62424 266.000
83.64418 258.000
83.66413 241.000
83.68408 254.000
83.70402 268.000
83.72397 256.000
83.74392 248.000
83.76386 249.000
83.78381 256.000
83.80376 269.000
83.82371 243.000
83.84365 241.000
83.86360 247.000
83.88355 242.000
83.90349 248.000
83.92344 250.000
83.94339 272.000
83.96333 245.000
83.98328 239.000
84.00323 272.000
84.02318 228.000
84.04312 246.000
84.06307 256.000
84.08302 228.000
84.10296 262.000
84.12291 265.000
84.14286 236.000
84.16280 247.000
84.18275 241.000
84.20270 264.000
84.22264 260.000
84.24259 258.000
84.26254 242.000
84.28249 231.000
84.30243 238.000
84.32238 239.000
84.34233 250.000
84.36227 241.000
84.38222 219.000
84.40217 220.000
84.42211 232.000
84.44206 258.000
84.46201 238.000
84.48196 233.000
84.50190 258.000
84.52185 254.000
84.54180 222.000
84.56174 246.000
84.58169 252.000
84.60164 237.000
84.62158 253.000
84.64153 261.000
84.66148 246.000
84.68142 242.000
84.70137 238.000
84.72132 266.000
84.74127 258.000
84.76121 253.000
84.78116 233.000
84.80111 248.000
84.82105 262.000
84.84100 265.000
84.86095 240.000
84.88089 236.000
84.90084 255.000
84.92079 236.000
84.94074 262.000
84.96068 245.000
84.98063 245.000
85.00058 265.000
85.02052 223.000
85.04047 238.000
85.06042 227.000
85.08036 255.000
85.10031 246.000
85.12026 234.000
85.14021 232.000
85.16015 252.000
85.18010 259.000
85.20005 263.000
85.21999 258.000
85.23994 240.000
85.25989 237.000
85.27983 221.000
85.29978 244.000
85.31973 244.000
85.33967 269.000
85.35962 277.000
85.37957 216.000
85.39952 256.000
85.41946 232.000
85.43941 242.000
85.45936 226.000
85.47930 254.000
85.49925 250.000
85.51920 248.000
85.53914 212.000
85.55909 218.000
85.57904 249.000
85.59899 228.000
85.61893 256.000
85.63888 224.000
85.65883 238.000
85.67877 217.000
85.69872 230.000
85.71867 248.000
85.73861 212.000
85.75856 232.000
85.77851 243.000
85.79845 223.000
85.81840 253.000
85.83835 252.000
85.85830 223.000
85.87824 225.000
85.89819 247.000
85.91814 246.000
85.93808 214.000
85.95803 240.000
85.97798 247.000
85.99792 255.000
86.01787 264.000
86.03782 204.000
86.05777 220.000
86.07771 232.000
86.09766 244.000
86.11761 259.000
86.13755 225.000
86.15750 215.000
86.17745 222.000
86.19739 237.000
86.21734 302.000
86.23729 214.000
86.25723 274.000
86.27718 229.000
86.29713 232.000
86.31708 237.000
86.33702 263.000
86.35697 260.000
86.37692 265.000
86.39686 278.000
86.41681 279.000
86.43676 247.000
86.45670 251.000
86.47665 251.000
86.49660 244.000
86.51655 268.000
86.53649 224.000
86.55644 253.000
86.57639 232.000
86.59633 247.000
86.61628 274.000
86.63623 256.000
86.65617 233.000
86.67612 225.000
86.69607 241.000
86.71602 249.000
86.73596 248.000
86.75591 258.000
86.77586 242.000
86.79580 268.000
86.81575 255.000
86.83570 245.000
86.85564 234.000
86.87559 219.000
86.89554 250.000
86.91548 240.000
86.93543 281.000
86.95538 248.000
86.97533 257.000
86.99527 250.000
87.01522 253.000
87.03517 243.000
87.05511 262.000
87.07506 289.000
87.09501 253.000
87.11495 250.000
87.13490 268.000
87.15485 253.000
87.17480 247.000
87.19474 264.000
87.21469 265.000
87.23464 273.000
87.25458 265.000
87.27453 266.000
87.29448 273.000
87.31442 263.000
87.33437 250.000
87.35432 251.000
87.37426 269.000
87.39421 249.000
87.41416 282.000
87.43411 271.000
87.45405 257.000
87.47400 277.000
87.49395 248.000
87.51389 256.000
87.53384 258.000
87.55379 270.000
87.57373 258.000
87.59368 245.000
87.61363 249.000
87.63358 280.000
87.65352 260.000
87.67347 251.000
87.69342 264.000
87.71336 244.000
87.73331 247.000
87.75326 267.000
87.77320 244.000
87.79315 277.000
87.81310 234.000
87.83304 227.000
87.85299 241.000
87.87294 248.000
87.89289 247.000
87.91283 247.000
87.93278 233.000
87.95273 237.000
87.97267 252.000
87.99262 253.000
88.01257 253.000
88.03251 251.000
88.05246 240.000
88.07241 256.000
88.09236 234.000
88.11230 239.000
88.13225 251.000
88.15220 244.000
88.17214 227.000
88.19209 229.000
88.21204 263.000
88.23198 236.000
88.25193 265.000
88.27188 221.000
88.29183 228.000
88.31177 225.000
88.33172 243.000
88.35167 258.000
88.37161 244.000
88.39156 237.000
88.41151 227.000
88.43145 237.000
88.45140 209.000
88.47135 245.000
88.49129 244.000
88.51124 214.000
88.53119 241.000
88.55114 233.000
88.57108 249.000
88.59103 235.000
88.61098 204.000
88.63092 220.000
88.65087 228.000
88.67082 224.000
88.69076 237.000
88.71071 243.000
88.73066 253.000
88.75061 228.000
88.77055 237.000
88.79050 235.000
88.81045 241.000
88.83039 235.000
88.85034 215.000
88.87029 257.000
88.89023 257.000
88.91018 233.000
88.93013 257.000
88.95007 240.000
88.97002 266.000
88.98997 238.000
89.00992 218.000
89.02986 249.000
89.04981 229.000
89.06976 249.000
89.08970 230.000
89.10965 217.000
89.12960 261.000
89.14954 237.000
89.16949 219.000
89.18944 252.000
89.20939 238.000
89.22933 258.000
89.24928 269.000
89.26923 259.000
89.28917 223.000
89.30912 256.000
89.32907 223.000
89.34901 228.000
89.36896 227.000
89.38891 250.000
89.40885 246.000
89.42880 234.000
89.44875 256.000
89.46870 264.000
89.48864 279.000
89.50859 236.000
89.52854 249.000
89.54848 263.000
89.56843 293.000
89.58838 259.000
89.60832 262.000
89.62827 250.000
89.64822 237.000
89.66817 246.000
89.68811 233.000
89.70806 258.000
89.72801 251.000
89.74795 254.000
89.76790 240.000
89.78785 251.000
89.80779 240.000
89.82774 262.000
89.84769 251.000
89.86764 250.000
89.88758 279.000
89.90753 248.000
89.92748 230.000
89.94742 249.000
89.96737 228.000
89.98732 236.000
90.00726 262.000
