10.00000 9.000
10.01995 6.000
10.03989 7.000
10.05984 6.000
10.07979 5.000
10.09973 6.000
10.11968 11.000
10.13963 5.000
10.15958 7.000
10.17952 9.000
10.19947 8.000
10.21942 6.000
10.23936 6.000
10.25931 10.000
10.27926 10.000
10.29920 10.000
10.31915 9.000
10.33910 9.000
10.35905 6.000
10.37899 8.000
10.39894 6.000
10.41889 9.000
10.43883 4.000
10.45878 16.000
10.47873 7.000
10.49867 8.000
10.51862 6.000
10.53857 6.000
10.55851 8.000
10.57846 7.000
10.59841 11.000
10.61836 12.000
10.63830 9.000
10.65825 7.000
10.67820 11.000
10.69814 5.000
10.71809 5.000
10.73804 6.000
10.75798 9.000
10.77793 11.000
10.79788 9.000
10.81783 7.000
10.83777 3.000
10.85772 10.000
10.87767 7.000
10.89761 10.000
10.91756 7.000
10.93751 6.000
10.95745 8.000
10.97740 7.000
10.99735 8.000
11.01730 6.000
11.03724 7.000
11.05719 9.000
11.07714 5.000
11.09708 10.000
11.11703 9.000
11.13698 12.000
11.15692 8.000
11.17687 5.000
11.19682 8.000
11.21676 7.000
11.23671 8.000
11.25666 5.000
11.27661 7.000
11.29655 11.000
11.31650 1.000
11.33645 3.000
11.35639 14.000
11.37634 11.000
11.39629 8.000
11.41623 5.000
11.43618 6.000
11.45613 11.000
11.47608 15.000
11.49602 9.000
11.51597 6.000
11.53592 16.000
11.55586 8.000
11.57581 7.000
11.59576 8.000
11.61570 9.000
11.63565 7.000
11.65560 9.000
11.67554 4.000
11.69549 7.000
11.71544 8.000
11.73539 12.000
11.75533 6.000
11.77528 7.000
11.79523 7.000
11.81517 4.000
11.83512 10.000
11.85507 10.000
11.87501 10.000
11.89496 14.000
11.91491 10.000
11.93486 12.000
11.95480 8.000
11.97475 9.000
11.99470 10.000
12.01464 14.000
12.03459 9.000
12.05454 5.000
12.07448 14.000
12.09443 11.000
12.11438 6.000
12.13432 7.000
12.15427 4.000
12.17422 9.000
12.19417 14.000
12.21411 11.000
12.23406 5.000
12.25401 5.000
12.27395 8.000
12.29390 6.000
12.31385 11.000
12.33379 9.000
12.35374 12.000
12.37369 5.000
12.39364 4.000
12.41358 7.000
12.43353 12.000
12.45348 5.000
12.47342 10.000
12.49337 10.000
12.51332 9.000
12.53326 15.000
12.55321 14.000
12.57316 12.000
12.59311 4.000
12.61305 12.000
12.63300 6.000
12.65295 5.000
12.67289 11.000
12.69284 12.000
12.71279 8.000
12.73273 15.000
12.75268 8.000
12.77263 9.000
12.79257 10.000
12.81252 14.000
12.83247 7.000
12.85242 11.000
12.87236 4.000
12.89231 13.000
12.91226 15.000
12.93220 11.000
12.95215 10.000
12.97210 9.000
12.99204 11.000
13.01199 8.000
13.03194 9.000
13.05189 12.000
13.07183 9.000
13.09178 13.000
13.11173 14.000
13.13167 4.000
13.15162 6.000
13.17157 14.000
13.19151 10.000
13.21146 6.000
13.23141 6.000
13.25135 8.000
13.27130 8.000
13.29125 8.000
13.31120 6.000
13.33114 11.000
13.35109 10.000
13.37104 15.000
13.39098 9.000
13.41093 10.000
13.43088 9.000
13.45082 14.000
13.47077 6.000
13.49072 9.000
13.51067 7.000
13.53061 8.000
13.55056 14.000
13.57051 17.000
13.59045 19.000
13.61040 7.000
13.63035 9.000
13.65029 7.000
13.67024 9.000
13.69019 10.000
13.71013 8.000
13.73008 14.000
13.75003 13.000
13.76998 12.000
13.78992 10.000
13.80987 10.000
13.82982 13.000
13.84976 7.000
13.86971 17.000
13.88966 14.000
13.90960 10.000
13.92955 15.000
13.94950 10.000
13.96945 15.000
13.98939 12.000
14.00934 12.000
14.02929 13.000
14.04923 9.000
14.06918 16.000
14.08913 10.000
14.10907 9.000
14.12902 6.000
14.14897 10.000
14.16892 16.000
14.18886 13.000
14.20881 11.000
14.22876 12.000
14.24870 14.000
14.26865 7.000
14.28860 10.000
14.30854 13.000
14.32849 9.000
14.34844 15.000
14.36838 7.000
14.38833 23.000
14.40828 13.000
14.42823 13.000
14.44817 24.000
14.46812 10.000
14.48807 15.000
14.50801 12.000
14.52796 17.000
14.54791 7.000
14.56785 8.000
14.58780 18.000
14.60775 17.000
14.62770 13.000
14.64764 16.000
14.66759 20.000
14.68754 15.000
14.70748 17.000
14.72743 12.000
14.74738 19.000
14.76732 13.000
14.78727 11.000
14.80722 13.000
14.82716 6.000
14.84711 13.000
14.86706 17.000
14.88701 20.000
14.90695 20.000
14.92690 12.000
14.94685 10.000
14.96679 14.000
14.98674 19.000
15.00669 22.000
15.02663 20.000
15.04658 19.000
15.06653 10.000
15.08648 32.000
15.10642 19.000
15.12637 16.000
15.14632 28.000
15.16626 16.000
15.18621 24.000
15.20616 25.000
15.22610 22.000
15.24605 26.000
15.26600 41.000
15.28594 26.000
15.30589 24.000
15.32584 24.000
15.34579 30.000
15.36573 29.000
15.38568 22.000
15.40563 33.000
15.42557 33.000
15.44552 28.000
15.46547 27.000
15.48541 48.000
15.50536 41.000
15.52531 52.000
15.54526 43.000
15.56520 75.000
15.58515 84.000
15.60510 102.000
15.62504 141.000
15.64499 215.000
15.66494 248.000
15.68488 358.000
15.70483 380.000
15.72478 378.000
15.74472 410.000
15.76467 463.000
15.78462 530.000
15.80457 674.000
15.82451 928.000
15.84446 1187.000
15.86441 1434.000
15.88435 1695.000
15.90430 1627.000
15.92425 1514.000
15.94419 1210.000
15.96414 912.000
15.98409 615.000
16.00404 390.000
16.02398 261.000
16.04393 167.000
16.06388 105.000
16.08382 60.000
16.10377 71.000
16.12372 62.000
16.14366 46.000
16.16361 33.000
16.18356 28.000
16.20351 33.000
16.22345 32.000
16.24340 24.000
16.26335 22.000
16.28329 31.000
16.30324 20.000
16.32319 27.000
16.34313 26.000
16.36308 22.000
16.38303 27.000
16.40297 15.000
16.42292 23.000
16.44287 12.000
16.46282 14.000
16.48276 19.000
16.50271 17.000
16.52266 14.000
16.54260 18.000
16.56255 18.000
16.58250 17.000
16.60244 18.000
16.62239 18.000
16.64234 21.000
16.66229 14.000
16.68223 13.000
16.70218 16.000
16.72213 17.000
16.74207 14.000
16.76202 15.000
16.78197 18.000
16.80191 17.000
16.82186 16.000
16.84181 16.000
16.86175 20.000
16.88170 21.000
16.90165 11.000
16.92160 14.000
16.94154 16.000
16.96149 24.000
16.98144 10.000
17.00138 17.000
17.02133 16.000
17.04128 13.000
17.06122 10.000
17.08117 21.000
17.10112 20.000
17.12107 9.000
17.14101 10.000
17.16096 11.000
17.18091 19.000
17.20085 20.000
17.22080 12.000
17.24075 12.000
17.26069 14.000
17.28064 7.000
17.30059 21.000
17.32053 11.000
17.34048 18.000
17.36043 22.000
17.38038 17.000
17.40032 13.000
17.42027 12.000
17.44022 12.000
17.46016 14.000
17.48011 22.000
17.50006 12.000
17.52000 17.000
17.53995 16.000
17.55990 14.000
17.57985 15.000
17.59979 12.000
17.61974 13.000
17.63969 15.000
17.65963 12.000
17.67958 12.000
17.69953 13.000
17.71947 13.000
17.73942 8.000
17.75937 14.000
17.77932 22.000
17.79926 12.000
17.81921 16.000
17.83916 17.000
17.85910 12.000
17.87905 13.000
17.89900 9.000
17.91894 11.000
17.93889 16.000
17.95884 9.000
17.97878 11.000
17.99873 11.000
18.01868 14.000
18.03863 5.000
18.05857 10.000
18.07852 18.000
18.09847 20.000
18.11841 13.000
18.13836 19.000
18.15831 22.000
18.17825 13.000
18.19820 11.000
18.21815 10.000
18.23810 25.000
18.25804 19.000
18.27799 21.000
18.29794 34.000
18.31788 34.000
18.33783 29.000
18.35778 32.000
18.37772 29.000
18.39767 29.000
18.41762 24.000
18.43756 20.000
18.45751 28.000
18.47746 16.000
18.49741 18.000
18.51735 15.000
18.53730 18.000
18.55725 14.000
18.57719 21.000
18.59714 11.000
18.61709 11.000
18.63703 18.000
18.65698 14.000
18.67693 16.000
18.69688 13.000
18.71682 16.000
18.73677 21.000
18.75672 18.000
18.77666 12.000
18.79661 8.000
18.81656 12.000
18.83650 13.000
18.85645 15.000
18.87640 18.000
18.89634 17.000
18.91629 14.000
18.93624 13.000
18.95619 16.000
18.97613 16.000
18.99608 15.000
19.01603 17.000
19.03597 15.000
19.05592 9.000
19.07587 13.000
19.09581 11.000
19.11576 14.000
19.13571 8.000
19.15566 17.000
19.17560 11.000
19.19555 17.000
19.21550 9.000
19.23544 13.000
19.25539 11.000
19.27534 14.000
19.29528 15.000
19.31523 6.000
19.33518 20.000
19.35513 13.000
19.37507 12.000
19.39502 9.000
19.41497 15.000
19.43491 16.000
19.45486 6.000
19.47481 14.000
19.49475 14.000
19.51470 13.000
19.53465 12.000
19.55459 23.000
19.57454 8.000
19.59449 15.000
19.61444 13.000
19.63438 10.000
19.65433 18.000
19.67428 14.000
19.69422 11.000
19.71417 15.000
19.73412 29.000
19.75406 14.000
19.77401 18.000
19.79396 17.000
19.81391 15.000
19.83385 16.000
19.85380 13.000
19.87375 15.000
19.89369 11.000
19.91364 21.000
19.93359 15.000
19.95353 8.000
19.97348 9.000
19.99343 13.000
20.01337 15.000
20.03332 19.000
20.05327 14.000
20.07322 23.000
20.09316 15.000
20.11311 16.000
20.13306 20.000
20.15300 14.000
20.17295 17.000
20.19290 19.000
20.21284 18.000
20.23279 11.000
20.25274 14.000
20.27269 14.000
20.29263 14.000
20.31258 21.000
20.33253 13.000
20.35247 13.000
20.37242 14.000
20.39237 18.000
20.41231 13.000
20.43226 18.000
20.45221 15.000
20.47215 24.000
20.49210 15.000
20.51205 11.000
20.53200 20.000
20.55194 11.000
20.57189 20.000
20.59184 11.000
20.61178 18.000
20.63173 20.000
20.65168 13.000
20.67162 19.000
20.69157 11.000
20.71152 18.000
20.73147 18.000
20.75141 14.000
20.77136 14.000
20.79131 11.000
20.81125 18.000
20.83120 13.000
20.85115 18.000
20.87109 27.000
20.89104 14.000
20.91099 17.000
20.93094 14.000
20.95088 16.000
20.97083 16.000
20.99078 18.000
21.01072 20.000
21.03067 28.000
21.05062 23.000
21.07056 21.000
21.09051 27.000
21.11046 23.000
21.13040 22.000
21.15035 25.000
21.17030 24.000
21.19025 28.000
21.21019 23.000
21.23014 22.000
21.25009 20.000
21.27003 21.000
21.28998 16.000
21.30993 16.000
21.32987 18.000
21.34982 27.000
21.36977 19.000
21.38972 23.000
21.40966 21.000
21.42961 22.000
21.44956 11.000
21.46950 13.000
21.48945 22.000
21.50940 15.000
21.52934 16.000
21.54929 15.000
21.56924 20.000
21.58918 20.000
21.60913 20.000
21.62908 14.000
21.64903 24.000
21.66897 15.000
21.68892 23.000
21.70887 17.000
21.72881 13.000
21.74876 22.000
21.76871 20.000
21.78865 25.000
21.80860 14.000
21.82855 18.000
21.84850 16.000
21.86844 23.000
21.88839 17.000
21.90834 12.000
21.92828 25.000
21.94823 12.000
21.96818 10.000
21.98812 17.000
22.00807 27.000
22.02802 19.000
22.04796 13.000
22.06791 19.000
22.08786 19.000
22.10781 15.000
22.12775 19.000
22.14770 11.000
22.16765 20.000
22.18759 20.000
22.20754 17.000
22.22749 16.000
22.24743 14.000
22.26738 20.000
22.28733 21.000
22.30728 8.000
22.32722 15.000
22.34717 16.000
22.36712 19.000
22.38706 23.000
22.40701 21.000
22.42696 19.000
22.44690 19.000
22.46685 11.000
22.48680 25.000
22.50675 25.000
22.52669 11.000
22.54664 20.000
22.56659 14.000
22.58653 22.000
22.60648 20.000
22.62643 19.000
22.64637 21.000
22.66632 20.000
22.68627 22.000
22.70621 21.000
22.72616 15.000
22.74611 13.000
22.76606 28.000
22.78600 15.000
22.80595 23.000
22.82590 16.000
22.84584 16.000
22.86579 25.000
22.88574 21.000
22.90568 14.000
22.92563 23.000
22.94558 14.000
22.96553 29.000
22.98547 18.000
23.00542 13.000
23.02537 27.000
23.04531 15.000
23.06526 22.000
23.08521 9.000
23.10515 18.000
23.12510 18.000
23.14505 19.000
23.16499 10.000
23.18494 21.000
23.20489 19.000
23.22484 20.000
23.24478 19.000
23.26473 16.000
23.28468 21.000
23.30462 27.000
23.32457 18.000
23.34452 22.000
23.36446 25.000
23.38441 14.000
23.40436 21.000
23.42431 10.000
23.44425 24.000
23.46420 15.000
23.48415 27.000
23.50409 20.000
23.52404 28.000
23.54399 13.000
23.56393 32.000
23.58388 15.000
23.60383 22.000
23.62377 19.000
23.64372 21.000
23.66367 22.000
23.68362 23.000
23.70356 18.000
23.72351 18.000
23.74346 20.000
23.76340 16.000
23.78335 16.000
23.80330 29.000
23.82324 17.000
23.84319 30.000
23.86314 17.000
23.88309 25.000
23.90303 15.000
23.92298 19.000
23.94293 25.000
23.96287 12.000
23.98282 19.000
24.00277 20.000
24.02271 18.000
24.04266 27.000
24.06261 20.000
24.08256 16.000
24.10250 13.000
24.12245 17.000
24.14240 31.000
24.16234 26.000
24.18229 14.000
24.20224 23.000
24.22218 22.000
24.24213 18.000
24.26208 21.000
24.28202 18.000
24.30197 15.000
24.32192 28.000
24.34187 22.000
24.36181 17.000
24.38176 25.000
24.40171 15.000
24.42165 20.000
24.44160 18.000
24.46155 27.000
24.48149 29.000
24.50144 25.000
24.52139 20.000
24.54134 19.000
24.56128 19.000
24.58123 18.000
24.60118 16.000
24.62112 24.000
24.64107 16.000
24.66102 22.000
24.68096 21.000
24.70091 17.000
24.72086 23.000
24.74080 19.000
24.76075 11.000
24.78070 21.000
24.80065 17.000
24.82059 28.000
24.84054 23.000
24.86049 22.000
24.88043 31.000
24.90038 13.000
24.92033 17.000
24.94027 24.000
24.96022 26.000
24.98017 25.000
25.00012 24.000
25.02006 20.000
25.04001 27.000
25.05996 27.000
25.07990 32.000
25.09985 31.000
25.11980 33.000
25.13974 16.000
25.15969 32.000
25.17964 27.000
25.19958 28.000
25.21953 20.000
25.23948 21.000
25.25943 19.000
25.27937 23.000
25.29932 30.000
25.31927 31.000
25.33921 34.000
25.35916 22.000
25.37911 25.000
25.39905 12.000
25.41900 26.000
25.43895 22.000
25.45890 18.000
25.47884 22.000
25.49879 13.000
25.51874 25.000
25.53868 28.000
25.55863 31.000
25.57858 30.000
25.59852 29.000
25.61847 19.000
25.63842 23.000
25.65837 26.000
25.67831 25.000
25.69826 29.000
25.71821 17.000
25.73815 18.000
25.75810 29.000
25.77805 33.000
25.79799 29.000
25.81794 30.000
25.83789 29.000
25.85783 28.000
25.87778 26.000
25.89773 32.000
25.91768 27.000
25.93762 26.000
25.95757 28.000
25.97752 22.000
25.99746 33.000
26.01741 27.000
26.03736 26.000
26.05730 19.000
26.07725 31.000
26.09720 24.000
26.11715 21.000
26.13709 25.000
26.15704 22.000
26.17699 31.000
26.19693 30.000
26.21688 31.000
26.23683 27.000
26.25677 19.000
26.27672 27.000
26.29667 31.000
26.31661 36.000
26.33656 36.000
26.35651 27.000
26.37646 31.000
26.39640 27.000
26.41635 17.000
26.43630 26.000
26.45624 27.000
26.47619 33.000
26.49614 32.000
26.51608 29.000
26.53603 27.000
26.55598 26.000
26.57593 20.000
26.59587 30.000
26.61582 29.000
26.63577 33.000
26.65571 29.000
26.67566 37.000
26.69561 28.000
26.71555 23.000
26.73550 27.000
26.75545 21.000
26.77539 31.000
26.79534 23.000
26.81529 31.000
26.83524 21.000
26.85518 28.000
26.87513 37.000
26.89508 24.000
26.91502 24.000
26.93497 23.000
26.95492 32.000
26.97486 25.000
26.99481 23.000
27.01476 28.000
27.03471 27.000
27.05465 27.000
27.07460 34.000
27.09455 14.000
27.11449 24.000
27.13444 31.000
27.15439 25.000
27.17433 26.000
27.19428 23.000
27.21423 28.000
27.23417 19.000
27.25412 25.000
27.27407 31.000
27.29402 28.000
27.31396 20.000
27.33391 19.000
27.35386 28.000
27.37380 20.000
27.39375 25.000
27.41370 32.000
27.43364 28.000
27.45359 24.000
27.47354 27.000
27.49349 39.000
27.51343 26.000
27.53338 32.000
27.55333 30.000
27.57327 31.000
27.59322 30.000
27.61317 27.000
27.63311 24.000
27.65306 31.000
27.67301 37.000
27.69296 29.000
27.71290 20.000
27.73285 25.000
27.75280 30.000
27.77274 28.000
27.79269 27.000
27.81264 22.000
27.83258 28.000
27.85253 33.000
27.87248 25.000
27.89242 29.000
27.91237 31.000
27.93232 32.000
27.95227 34.000
27.97221 20.000
27.99216 29.000
28.01211 24.000
28.03205 32.000
28.05200 27.000
28.07195 30.000
28.09189 30.000
28.11184 28.000
28.13179 25.000
28.15174 15.000
28.17168 25.000
28.19163 24.000
28.21158 31.000
28.23152 27.000
28.25147 28.000
28.27142 26.000
28.29136 29.000
28.31131 29.000
28.33126 33.000
28.35120 25.000
28.37115 24.000
28.39110 22.000
28.41105 34.000
28.43099 22.000
28.45094 31.000
28.47089 30.000
28.49083 30.000
28.51078 25.000
28.53073 33.000
28.55067 30.000
28.57062 23.000
28.59057 29.000
28.61052 36.000
28.63046 34.000
28.65041 28.000
28.67036 31.000
28.69030 27.000
28.71025 32.000
28.73020 23.000
28.75014 43.000
28.77009 24.000
28.79004 44.000
28.80998 22.000
28.82993 32.000
28.84988 25.000
28.86983 28.000
28.88977 19.000
28.90972 32.000
28.92967 35.000
28.94961 30.000
28.96956 37.000
28.98951 23.000
29.00945 37.000
29.02940 27.000
29.04935 27.000
29.06930 32.000
29.08924 32.000
29.10919 26.000
29.12914 22.000
29.14908 22.000
29.16903 30.000
29.18898 32.000
29.20892 34.000
29.22887 32.000
29.24882 39.000
29.26877 27.000
29.28871 37.000
29.30866 21.000
29.32861 36.000
29.34855 37.000
29.36850 33.000
29.38845 38.000
29.40839 34.000
29.42834 37.000
29.44829 43.000
29.46823 42.000
29.48818 47.000
29.50813 39.000
29.52808 60.000
29.54802 71.000
29.56797 56.000
29.58792 62.000
29.60786 55.000
29.62781 56.000
29.64776 44.000
29.66770 52.000
29.68765 39.000
29.70760 51.000
29.72755 35.000
29.74749 33.000
29.76744 30.000
29.78739 33.000
29.80733 30.000
29.82728 37.000
29.84723 45.000
29.86717 35.000
29.88712 33.000
29.90707 44.000
29.92701 42.000
29.94696 47.000
29.96691 55.000
29.98686 46.000
30.00680 43.000
30.02675 53.000
30.04670 77.000
30.06664 61.000
30.08659 69.000
30.10654 66.000
30.12648 66.000
30.14643 60.000
30.16638 60.000
30.18633 53.000
30.20627 70.000
30.22622 54.000
30.24617 58.000
30.26611 55.000
30.28606 51.000
30.30601 51.000
30.32595 50.000
30.34590 57.000
30.36585 57.000
30.38579 43.000
30.40574 49.000
30.42569 50.000
30.44564 47.000
30.46558 43.000
30.48553 37.000
30.50548 44.000
30.52542 28.000
30.54537 28.000
30.56532 32.000
30.58526 33.000
30.60521 36.000
30.62516 31.000
30.64511 28.000
30.66505 29.000
30.68500 30.000
30.70495 25.000
30.72489 23.000
30.74484 31.000
30.76479 36.000
30.78473 30.000
30.80468 34.000
30.82463 28.000
30.84458 35.000
30.86452 28.000
30.88447 32.000
30.90442 40.000
30.92436 28.000
30.94431 33.000
30.96426 34.000
30.98420 29.000
31.00415 33.000
31.02410 34.000
31.04404 27.000
31.06399 24.000
31.08394 33.000
31.10389 34.000
31.12383 39.000
31.14378 39.000
31.16373 34.000
31.18367 41.000
31.20362 28.000
31.22357 31.000
31.24351 41.000
31.26346 37.000
31.28341 51.000
31.30336 25.000
31.32330 36.000
31.34325 38.000
31.36320 35.000
31.38314 35.000
31.40309 41.000
31.42304 31.000
31.44298 33.000
31.46293 42.000
31.48288 39.000
31.50282 37.000
31.52277 54.000
31.54272 40.000
31.56267 37.000
31.58261 50.000
31.60256 45.000
31.62251 68.000
31.64245 47.000
31.66240 71.000
31.68235 66.000
31.70229 87.000
31.72224 83.000
31.74219 99.000
31.76214 99.000
31.78208 134.000
31.80203 165.000
31.82198 187.000
31.84192 222.000
31.86187 239.000
31.88182 304.000
31.90176 332.000
31.92171 344.000
31.94166 295.000
31.96160 294.000
31.98155 287.000
32.00150 280.000
32.02145 248.000
32.04139 223.000
32.06134 170.000
32.08129 167.000
32.10123 147.000
32.12118 128.000
32.14113 94.000
32.16107 70.000
32.18102 58.000
32.20097 78.000
32.22092 42.000
32.24086 50.000
32.26081 54.000
32.28076 33.000
32.30070 49.000
32.32065 44.000
32.34060 43.000
32.36054 44.000
32.38049 34.000
32.40044 36.000
32.42039 43.000
32.44033 40.000
32.46028 45.000
32.48023 30.000
32.50017 39.000
32.52012 39.000
32.54007 38.000
32.56001 23.000
32.57996 29.000
32.59991 40.000
32.61985 29.000
32.63980 31.000
32.65975 32.000
32.67970 43.000
32.69964 31.000
32.71959 27.000
32.73954 33.000
32.75948 30.000
32.77943 33.000
32.79938 36.000
32.81932 36.000
32.83927 34.000
32.85922 40.000
32.87917 40.000
32.89911 27.000
32.91906 31.000
32.93901 33.000
32.95895 35.000
32.97890 37.000
32.99885 41.000
33.01879 47.000
33.03874 33.000
33.05869 51.000
33.07863 36.000
33.09858 32.000
33.11853 32.000
33.13848 40.000
33.15842 37.000
33.17837 37.000
33.19832 45.000
33.21826 28.000
33.23821 27.000
33.25816 34.000
33.27810 45.000
33.29805 32.000
33.31800 41.000
33.33795 28.000
33.35789 29.000
33.37784 37.000
33.39779 38.000
33.41773 41.000
33.43768 36.000
33.45763 34.000
33.47757 33.000
33.49752 27.000
33.51747 35.000
33.53741 38.000
33.55736 28.000
33.57731 37.000
33.59726 35.000
33.61720 38.000
33.63715 36.000
33.65710 37.000
33.67704 39.000
33.69699 36.000
33.71694 31.000
33.73688 25.000
33.75683 27.000
33.77678 33.000
33.79673 39.000
33.81667 38.000
33.83662 37.000
33.85657 41.000
33.87651 29.000
33.89646 45.000
33.91641 41.000
33.93635 37.000
33.95630 26.000
33.97625 43.000
33.99620 25.000
34.01614 40.000
34.03609 28.000
34.05604 32.000
34.07598 39.000
34.09593 33.000
34.11588 35.000
34.13582 36.000
34.15577 35.000
34.17572 26.000
34.19566 49.000
34.21561 26.000
34.23556 45.000
34.25551 46.000
34.27545 49.000
34.29540 31.000
34.31535 45.000
34.33529 49.000
34.35524 51.000
34.37519 45.000
34.39513 42.000
34.41508 43.000
34.43503 57.000
34.45498 65.000
34.47492 46.000
34.49487 57.000
34.51482 47.000
34.53476 45.000
34.55471 40.000
34.57466 44.000
34.59460 48.000
34.61455 52.000
34.63450 59.000
34.65444 43.000
34.67439 75.000
34.69434 49.000
34.71429 65.000
34.73423 53.000
34.75418 71.000
34.77413 44.000
34.79407 54.000
34.81402 50.000
34.83397 46.000
34.85391 55.000
34.87386 47.000
34.89381 44.000
34.91376 53.000
34.93370 52.000
34.95365 47.000
34.97360 57.000
34.99354 60.000
35.01349 53.000
35.03344 52.000
35.05338 65.000
35.07333 49.000
35.09328 72.000
35.11322 56.000
35.13317 43.000
35.15312 69.000
35.17307 59.000
35.19301 65.000
35.21296 78.000
35.23291 68.000
35.25285 99.000
35.27280 97.000
35.29275 119.000
35.31269 125.000
35.33264 131.000
35.35259 158.000
35.37254 174.000
35.39248 166.000
35.41243 183.000
35.43238 170.000
35.45232 153.000
35.47227 140.000
35.49222 125.000
35.51216 126.000
35.53211 132.000
35.55206 101.000
35.57201 107.000
35.59195 107.000
35.61190 109.000
35.63185 88.000
35.65179 94.000
35.67174 86.000
35.69169 100.000
35.71163 113.000
35.73158 126.000
35.75153 131.000
35.77147 150.000
35.79142 161.000
35.81137 167.000
35.83132 193.000
35.85126 221.000
35.87121 238.000
35.89116 267.000
35.91110 381.000
35.93105 441.000
35.95100 534.000
35.97094 570.000
35.99089 618.000
36.01084 656.000
36.03079 647.000
36.05073 552.000
36.07068 511.000
36.09063 428.000
36.11057 405.000
36.13052 284.000
36.15047 234.000
36.17041 205.000
36.19036 149.000
36.21031 111.000
36.23025 103.000
36.25020 84.000
36.27015 77.000
36.29010 66.000
36.31004 64.000
36.32999 66.000
36.34994 53.000
36.36988 47.000
36.38983 48.000
36.40978 59.000
36.42972 50.000
36.44967 48.000
36.46962 48.000
36.48957 48.000
36.50951 35.000
36.52946 40.000
36.54941 52.000
36.56935 39.000
36.58930 28.000
36.60925 53.000
36.62919 54.000
36.64914 42.000
36.66909 63.000
36.68903 44.000
36.70898 44.000
36.72893 57.000
36.74888 53.000
36.76882 49.000
36.78877 58.000
36.80872 60.000
36.82866 56.000
36.84861 88.000
36.86856 104.000
36.88850 92.000
36.90845 119.000
36.92840 120.000
36.94835 101.000
36.96829 94.000
36.98824 102.000
37.00819 90.000
37.02813 103.000
37.04808 70.000
37.06803 62.000
37.08797 69.000
37.10792 42.000
37.12787 66.000
37.14781 44.000
37.16776 63.000
37.18771 63.000
37.20766 50.000
37.22760 51.000
37.24755 60.000
37.26750 54.000
37.28744 56.000
37.30739 60.000
37.32734 70.000
37.34728 63.000
37.36723 40.000
37.38718 55.000
37.40713 54.000
37.42707 52.000
37.44702 55.000
37.46697 60.000
37.48691 61.000
37.50686 67.000
37.52681 63.000
37.54675 36.000
37.56670 56.000
37.58665 35.000
37.60660 47.000
37.62654 61.000
37.64649 47.000
37.66644 40.000
37.68638 40.000
37.70633 45.000
37.72628 61.000
37.74622 46.000
37.76617 51.000
37.78612 51.000
37.80606 46.000
37.82601 68.000
37.84596 48.000
37.86591 52.000
37.88585 59.000
37.90580 47.000
37.92575 48.000
37.94569 60.000
37.96564 43.000
37.98559 44.000
38.00553 43.000
38.02548 44.000
38.04543 54.000
38.06538 55.000
38.08532 51.000
38.10527 53.000
38.12522 56.000
38.14516 63.000
38.16511 54.000
38.18506 62.000
38.20500 51.000
38.22495 45.000
38.24490 55.000
38.26484 60.000
38.28479 62.000
38.30474 55.000
38.32469 51.000
38.34463 35.000
38.36458 46.000
38.38453 49.000
38.40447 56.000
38.42442 41.000
38.44437 62.000
38.46431 29.000
38.48426 35.000
38.50421 44.000
38.52416 52.000
38.54410 52.000
38.56405 49.000
38.58400 55.000
38.60394 39.000
38.62389 45.000
38.64384 50.000
38.66378 52.000
38.68373 49.000
38.70368 39.000
38.72362 49.000
38.74357 48.000
38.76352 46.000
38.78347 58.000
38.80341 57.000
38.82336 48.000
38.84331 69.000
38.86325 50.000
38.88320 47.000
38.90315 58.000
38.92309 67.000
38.94304 55.000
38.96299 78.000
38.98294 63.000
39.00288 56.000
39.02283 77.000
39.04278 66.000
39.06272 67.000
39.08267 72.000
39.10262 81.000
39.12256 83.000
39.14251 86.000
39.16246 104.000
39.18241 94.000
39.20235 124.000
39.22230 113.000
39.24225 135.000
39.26219 176.000
39.28214 218.000
39.30209 221.000
39.32203 269.000
39.34198 321.000
39.36193 365.000
39.38187 453.000
39.40182 562.000
39.42177 625.000
39.44172 815.000
39.46166 972.000
39.48161 1105.000
39.50156 1163.000
39.52150 1174.000
39.54145 1171.000
39.56140 1064.000
39.58134 1013.000
39.60129 904.000
39.62124 811.000
39.64119 728.000
39.66113 538.000
39.68108 429.000
39.70103 373.000
39.72097 265.000
39.74092 222.000
39.76087 178.000
39.78081 154.000
39.80076 143.000
39.82071 129.000
39.84065 112.000
39.86060 104.000
39.88055 97.000
39.90050 74.000
39.92044 73.000
39.94039 66.000
39.96034 68.000
39.98028 65.000
40.00023 61.000
40.02018 64.000
40.04012 60.000
40.06007 60.000
40.08002 61.000
40.09997 59.000
40.11991 50.000
40.13986 69.000
40.15981 55.000
40.17975 60.000
40.19970 61.000
40.21965 50.000
40.23959 53.000
40.25954 47.000
40.27949 51.000
40.29943 62.000
40.31938 50.000
40.33933 42.000
40.35928 42.000
40.37922 33.000
40.39917 51.000
40.41912 55.000
40.43906 47.000
40.45901 44.000
40.47896 37.000
40.49890 49.000
40.51885 41.000
40.53880 43.000
40.55875 33.000
40.57869 46.000
40.59864 42.000
40.61859 47.000
40.63853 33.000
40.65848 42.000
40.67843 44.000
40.69837 50.000
40.71832 39.000
40.73827 36.000
40.75822 36.000
40.77816 31.000
40.79811 34.000
40.81806 27.000
40.83800 42.000
40.85795 51.000
40.87790 53.000
40.89784 35.000
40.91779 35.000
40.93774 34.000
40.95768 58.000
40.97763 42.000
40.99758 43.000
41.01753 28.000
41.03747 35.000
41.05742 19.000
41.07737 44.000
41.09731 46.000
41.11726 35.000
41.13721 44.000
41.15715 38.000
41.17710 37.000
41.19705 33.000
41.21700 39.000
41.23694 36.000
41.25689 32.000
41.27684 43.000
41.29678 54.000
41.31673 52.000
41.33668 47.000
41.35662 45.000
41.37657 46.000
41.39652 34.000
41.41646 38.000
41.43641 35.000
41.45636 38.000
41.47631 34.000
41.49625 33.000
41.51620 46.000
41.53615 52.000
41.55609 56.000
41.57604 37.000
41.59599 45.000
41.61593 35.000
41.63588 43.000
41.65583 44.000
41.67578 42.000
41.69572 55.000
41.71567 48.000
41.73562 48.000
41.75556 48.000
41.77551 40.000
41.79546 52.000
41.81540 43.000
41.83535 45.000
41.85530 43.000
41.87524 29.000
41.89519 47.000
41.91514 42.000
41.93509 40.000
41.95503 25.000
41.97498 44.000
41.99493 48.000
42.01487 34.000
42.03482 32.000
42.05477 34.000
42.07471 44.000
42.09466 35.000
42.11461 36.000
42.13456 40.000
42.15450 36.000
42.17445 34.000
42.19440 37.000
42.21434 36.000
42.23429 37.000
42.25424 44.000
42.27418 36.000
42.29413 35.000
42.31408 37.000
42.33403 33.000
42.35397 38.000
42.37392 37.000
42.39387 34.000
42.41381 37.000
42.43376 45.000
42.45371 39.000
42.47365 39.000
42.49360 37.000
42.51355 44.000
42.53349 47.000
42.55344 44.000
42.57339 41.000
42.59334 60.000
42.61328 43.000
42.63323 44.000
42.65318 33.000
42.67312 50.000
42.69307 47.000
42.71302 44.000
42.73296 41.000
42.75291 49.000
42.77286 44.000
42.79281 60.000
42.81275 43.000
42.83270 41.000
42.85265 63.000
42.87259 61.000
42.89254 61.000
42.91249 66.000
42.93243 70.000
42.95238 60.000
42.97233 84.000
42.99227 76.000
43.01222 70.000
43.03217 70.000
43.05212 63.000
43.07206 62.000
43.09201 61.000
43.11196 46.000
43.13190 67.000
43.15185 70.000
43.17180 59.000
43.19174 67.000
43.21169 64.000
43.23164 78.000
43.25159 75.000
43.27153 75.000
43.29148 70.000
43.31143 90.000
43.33137 94.000
43.35132 118.000
43.37127 133.000
43.39121 130.000
43.41116 160.000
43.43111 202.000
43.45105 233.000
43.47100 288.000
43.49095 324.000
43.51090 374.000
43.53084 457.000
43.55079 441.000
43.57074 496.000
43.59068 495.000
43.61063 502.000
43.63058 439.000
43.65052 426.000
43.67047 360.000
43.69042 327.000
43.71037 312.000
43.73031 258.000
43.75026 240.000
43.77021 191.000
43.79015 136.000
43.81010 125.000
43.83005 114.000
43.84999 99.000
43.86994 73.000
43.88989 88.000
43.90984 72.000
43.92978 66.000
43.94973 69.000
43.96968 50.000
43.98962 49.000
44.00957 54.000
44.02952 62.000
44.04946 45.000
44.06941 52.000
44.08936 34.000
44.10930 57.000
44.12925 39.000
44.14920 49.000
44.16915 56.000
44.18909 48.000
44.20904 40.000
44.22899 36.000
44.24893 44.000
44.26888 35.000
44.28883 54.000
44.30877 25.000
44.32872 43.000
44.34867 54.000
44.36862 43.000
44.38856 51.000
44.40851 43.000
44.42846 38.000
44.44840 40.000
44.46835 40.000
44.48830 34.000
44.50824 41.000
44.52819 52.000
44.54814 33.000
44.56808 37.000
44.58803 56.000
44.60798 30.000
44.62793 43.000
44.64787 39.000
44.66782 38.000
44.68777 43.000
44.70771 33.000
44.72766 34.000
44.74761 39.000
44.76755 45.000
44.78750 41.000
44.80745 42.000
44.82740 41.000
44.84734 37.000
44.86729 43.000
44.88724 46.000
44.90718 57.000
44.92713 41.000
44.94708 40.000
44.96702 31.000
44.98697 37.000
45.00692 42.000
45.02686 47.000
45.04681 46.000
45.06676 47.000
45.08671 53.000
45.10665 44.000
45.12660 52.000
45.14655 42.000
45.16649 39.000
45.18644 40.000
45.20639 32.000
45.22633 42.000
45.24628 46.000
45.26623 40.000
45.28618 46.000
45.30612 38.000
45.32607 39.000
45.34602 29.000
45.36596 39.000
45.38591 47.000
45.40586 36.000
45.42580 39.000
45.44575 33.000
45.46570 46.000
45.48565 36.000
45.50559 48.000
45.52554 33.000
45.54549 32.000
45.56543 39.000
45.58538 40.000
45.60533 37.000
45.62527 43.000
45.64522 49.000
45.66517 40.000
45.68511 33.000
45.70506 43.000
45.72501 36.000
45.74496 44.000
45.76490 54.000
45.78485 33.000
45.80480 38.000
45.82474 37.000
45.84469 40.000
45.86464 29.000
45.88458 46.000
45.90453 29.000
45.92448 46.000
45.94443 37.000
45.96437 41.000
45.98432 44.000
46.00427 33.000
46.02421 27.000
46.04416 45.000
46.06411 32.000
46.08405 25.000
46.10400 38.000
46.12395 33.000
46.14389 30.000
46.16384 34.000
46.18379 32.000
46.20374 30.000
46.22368 31.000
46.24363 40.000
46.26358 54.000
46.28352 34.000
46.30347 34.000
46.32342 35.000
46.34336 35.000
46.36331 28.000
46.38326 33.000
46.40321 47.000
46.42315 28.000
46.44310 50.000
46.46305 43.000
46.48299 48.000
46.50294 45.000
46.52289 45.000
46.54283 51.000
46.56278 42.000
46.58273 45.000
46.60267 50.000
46.62262 50.000
46.64257 43.000
46.66252 55.000
46.68246 49.000
46.70241 52.000
46.72236 48.000
46.74230 50.000
46.76225 53.000
46.78220 45.000
46.80214 46.000
46.82209 44.000
46.84204 41.000
46.86199 37.000
46.88193 44.000
46.90188 34.000
46.92183 37.000
46.94177 40.000
46.96172 43.000
46.98167 42.000
47.00161 53.000
47.02156 41.000
47.04151 37.000
47.06146 38.000
47.08140 49.000
47.10135 38.000
47.12130 45.000
47.14124 37.000
47.16119 43.000
47.18114 43.000
47.20108 47.000
47.22103 45.000
47.24098 48.000
47.26092 42.000
47.28087 40.000
47.30082 43.000
47.32077 42.000
47.34071 47.000
47.36066 56.000
47.38061 32.000
47.40055 44.000
47.42050 52.000
47.44045 53.000
47.46039 44.000
47.48034 46.000
47.50029 46.000
47.52024 36.000
47.54018 42.000
47.56013 48.000
47.58008 38.000
47.60002 37.000
47.61997 41.000
47.63992 41.000
47.65986 47.000
47.67981 53.000
47.69976 38.000
47.71970 53.000
47.73965 54.000
47.75960 43.000
47.77955 59.000
47.79949 41.000
47.81944 49.000
47.83939 51.000
47.85933 60.000
47.87928 46.000
47.89923 55.000
47.91917 52.000
47.93912 38.000
47.95907 57.000
47.97902 58.000
47.99896 58.000
48.01891 66.000
48.03886 65.000
48.05880 76.000
48.07875 71.000
48.09870 65.000
48.11864 67.000
48.13859 73.000
48.15854 61.000
48.17848 67.000
48.19843 71.000
48.21838 83.000
48.23833 71.000
48.25827 76.000
48.27822 81.000
48.29817 97.000
48.31811 84.000
48.33806 106.000
48.35801 112.000
48.37795 110.000
48.39790 94.000
48.41785 120.000
48.43780 117.000
48.45774 128.000
48.47769 133.000
48.49764 177.000
48.51758 146.000
48.53753 196.000
48.55748 215.000
48.57742 226.000
48.59737 282.000
48.61732 323.000
48.63726 393.000
48.65721 458.000
48.67716 557.000
48.69711 664.000
48.71705 732.000
48.73700 893.000
48.75695 912.000
48.77689 967.000
48.79684 989.000
48.81679 1005.000
48.83673 977.000
48.85668 956.000
48.87663 844.000
48.89658 770.000
48.91652 732.000
48.93647 661.000
48.95642 572.000
48.97636 504.000
48.99631 399.000
49.01626 350.000
49.03620 297.000
49.05615 242.000
49.07610 201.000
49.09605 196.000
49.11599 160.000
49.13594 138.000
49.15589 126.000
49.17583 132.000
49.19578 105.000
49.21573 97.000
49.23567 100.000
49.25562 85.000
49.27557 72.000
49.29551 84.000
49.31546 71.000
49.33541 72.000
49.35536 73.000
49.37530 62.000
49.39525 63.000
49.41520 73.000
49.43514 84.000
49.45509 51.000
49.47504 57.000
49.49498 58.000
49.51493 45.000
49.53488 64.000
49.55483 67.000
49.57477 51.000
49.59472 46.000
49.61467 51.000
49.63461 49.000
49.65456 62.000
49.67451 35.000
49.69445 55.000
49.71440 49.000
49.73435 45.000
49.75429 49.000
49.77424 45.000
49.79419 33.000
49.81414 51.000
49.83408 56.000
49.85403 48.000
49.87398 30.000
49.89392 43.000
49.91387 55.000
49.93382 34.000
49.95376 48.000
49.97371 36.000
49.99366 33.000
50.01361 47.000
50.03355 38.000
50.05350 43.000
50.07345 50.000
50.09339 44.000
50.11334 41.000
50.13329 45.000
50.15323 30.000
50.17318 35.000
50.19313 35.000
50.21307 29.000
50.23302 35.000
50.25297 46.000
50.27292 43.000
50.29286 46.000
50.31281 49.000
50.33276 43.000
50.35270 42.000
50.37265 33.000
50.39260 53.000
50.41254 34.000
50.43249 37.000
50.45244 34.000
50.47239 35.000
50.49233 32.000
50.51228 34.000
50.53223 26.000
50.55217 37.000
50.57212 42.000
50.59207 36.000
50.61201 37.000
50.63196 49.000
50.65191 49.000
50.67186 33.000
50.69180 36.000
50.71175 38.000
50.73170 37.000
50.75164 42.000
50.77159 30.000
50.79154 42.000
50.81148 32.000
50.83143 29.000
50.85138 30.000
50.87132 30.000
50.89127 33.000
50.91122 32.000
50.93117 45.000
50.95111 45.000
50.97106 36.000
50.99101 37.000
51.01095 38.000
51.03090 43.000
51.05085 46.000
51.07079 42.000
51.09074 37.000
51.11069 27.000
51.13064 32.000
51.15058 45.000
51.17053 40.000
51.19048 44.000
51.21042 41.000
51.23037 46.000
51.25032 42.000
51.27026 35.000
51.29021 40.000
51.31016 28.000
51.33010 36.000
51.35005 42.000
51.37000 36.000
51.38995 42.000
51.40989 41.000
51.42984 45.000
51.44979 40.000
51.46973 30.000
51.48968 30.000
51.50963 35.000
51.52957 39.000
51.54952 43.000
51.56947 46.000
51.58942 29.000
51.60936 35.000
51.62931 48.000
51.64926 35.000
51.66920 46.000
51.68915 43.000
51.70910 32.000
51.72904 33.000
51.74899 37.000
51.76894 28.000
51.78888 33.000
51.80883 33.000
51.82878 37.000
51.84873 43.000
51.86867 41.000
51.88862 35.000
51.90857 33.000
51.92851 25.000
51.94846 37.000
51.96841 30.000
51.98835 39.000
52.00830 31.000
52.02825 35.000
52.04820 41.000
52.06814 40.000
52.08809 27.000
52.10804 43.000
52.12798 46.000
52.14793 45.000
52.16788 46.000
52.18782 41.000
52.20777 53.000
52.22772 50.000
52.24767 47.000
52.26761 46.000
52.28756 43.000
52.30751 40.000
52.32745 46.000
52.34740 49.000
52.36735 49.000
52.38729 44.000
52.40724 28.000
52.42719 37.000
52.44713 34.000
52.46708 43.000
52.48703 28.000
52.50698 46.000
52.52692 36.000
52.54687 34.000
52.56682 32.000
52.58676 39.000
52.60671 28.000
52.62666 41.000
52.64660 41.000
52.66655 33.000
52.68650 42.000
52.70645 35.000
52.72639 47.000
52.74634 41.000
52.76629 34.000
52.78623 32.000
52.80618 32.000
52.82613 39.000
52.84607 32.000
52.86602 43.000
52.88597 41.000
52.90591 33.000
52.92586 36.000
52.94581 53.000
52.96576 27.000
52.98570 41.000
53.00565 37.000
53.02560 42.000
53.04554 48.000
53.06549 45.000
53.08544 51.000
53.10538 31.000
53.12533 42.000
53.14528 46.000
53.16523 45.000
53.18517 46.000
53.20512 38.000
53.22507 51.000
53.24501 36.000
53.26496 44.000
53.28491 47.000
53.30485 44.000
53.32480 49.000
53.34475 44.000
53.36469 29.000
53.38464 48.000
53.40459 46.000
53.42454 44.000
53.44448 51.000
53.46443 30.000
53.48438 39.000
53.50432 39.000
53.52427 32.000
53.54422 35.000
53.56416 52.000
53.58411 34.000
53.60406 36.000
53.62401 35.000
53.64395 28.000
53.66390 34.000
53.68385 42.000
53.70379 48.000
53.72374 43.000
53.74369 43.000
53.76363 47.000
53.78358 44.000
53.80353 36.000
53.82348 41.000
53.84342 33.000
53.86337 47.000
53.88332 49.000
53.90326 41.000
53.92321 36.000
53.94316 43.000
53.96310 49.000
53.98305 43.000
54.00300 39.000
54.02294 36.000
54.04289 31.000
54.06284 36.000
54.08279 31.000
54.10273 29.000
54.12268 28.000
54.14263 33.000
54.16257 34.000
54.18252 38.000
54.20247 36.000
54.22241 34.000
54.24236 32.000
54.26231 38.000
54.28226 43.000
54.30220 41.000
54.32215 39.000
54.34210 29.000
54.36204 35.000
54.38199 40.000
54.40194 38.000
54.42188 33.000
54.44183 37.000
54.46178 34.000
54.48172 40.000
54.50167 27.000
54.52162 33.000
54.54157 27.000
54.56151 32.000
54.58146 40.000
54.60141 38.000
54.62135 31.000
54.64130 40.000
54.66125 31.000
54.68119 39.000
54.70114 31.000
54.72109 28.000
54.74104 54.000
54.76098 32.000
54.78093 35.000
54.80088 39.000
54.82082 32.000
54.84077 40.000
54.86072 42.000
54.88066 38.000
54.90061 39.000
54.92056 44.000
54.94050 41.000
54.96045 32.000
54.98040 42.000
55.00035 44.000
55.02029 35.000
55.04024 46.000
55.06019 34.000
55.08013 28.000
55.10008 26.000
55.12003 43.000
55.13997 40.000
55.15992 40.000
55.17987 26.000
55.19982 39.000
55.21976 35.000
55.23971 37.000
55.25966 36.000
55.27960 36.000
55.29955 31.000
55.31950 34.000
55.33944 34.000
55.35939 28.000
55.37934 35.000
55.39929 43.000
55.41923 45.000
55.43918 43.000
55.45913 45.000
55.47907 35.000
55.49902 33.000
55.51897 43.000
55.53891 29.000
55.55886 41.000
55.57881 30.000
55.59875 34.000
55.61870 35.000
55.63865 29.000
55.65860 35.000
55.67854 22.000
55.69849 30.000
55.71844 32.000
55.73838 46.000
55.75833 41.000
55.77828 46.000
55.79822 42.000
55.81817 33.000
55.83812 34.000
55.85807 30.000
55.87801 33.000
55.89796 26.000
55.91791 39.000
55.93785 34.000
55.95780 34.000
55.97775 35.000
55.99769 21.000
56.01764 36.000
56.03759 36.000
56.05753 32.000
56.07748 31.000
56.09743 33.000
56.11738 32.000
56.13732 41.000
56.15727 30.000
56.17722 31.000
56.19716 39.000
56.21711 27.000
56.23706 37.000
56.25700 38.000
56.27695 35.000
56.29690 29.000
56.31685 46.000
56.33679 38.000
56.35674 35.000
56.37669 43.000
56.39663 25.000
56.41658 43.000
56.43653 39.000
56.45647 46.000
56.47642 51.000
56.49637 42.000
56.51631 38.000
56.53626 59.000
56.55621 46.000
56.57616 59.000
56.59610 57.000
56.61605 75.000
56.63600 65.000
56.65594 57.000
56.67589 67.000
56.69584 55.000
56.71578 68.000
56.73573 54.000
56.75568 69.000
56.77563 64.000
56.79557 61.000
56.81552 54.000
56.83547 57.000
56.85541 58.000
56.87536 59.000
56.89531 61.000
56.91525 57.000
56.93520 50.000
56.95515 54.000
56.97510 48.000
56.99504 46.000
57.01499 58.000
57.03494 45.000
57.05488 44.000
57.07483 55.000
57.09478 41.000
57.11472 51.000
57.13467 48.000
57.15462 41.000
57.17456 44.000
57.19451 51.000
57.21446 50.000
57.23441 43.000
57.25435 42.000
57.27430 45.000
57.29425 51.000
57.31419 41.000
57.33414 39.000
57.35409 49.000
57.37403 45.000
57.39398 50.000
57.41393 51.000
57.43388 50.000
57.45382 58.000
57.47377 43.000
57.49372 40.000
57.51366 48.000
57.53361 38.000
57.55356 41.000
57.57350 43.000
57.59345 31.000
57.61340 46.000
57.63334 43.000
57.65329 36.000
57.67324 33.000
57.69319 43.000
57.71313 38.000
57.73308 35.000
57.75303 48.000
57.77297 35.000
57.79292 37.000
57.81287 44.000
57.83281 21.000
57.85276 39.000
57.87271 25.000
57.89266 44.000
57.91260 39.000
57.93255 31.000
57.95250 33.000
57.97244 42.000
57.99239 38.000
58.01234 25.000
58.03228 34.000
58.05223 36.000
58.07218 41.000
58.09212 32.000
58.11207 34.000
58.13202 42.000
58.15197 37.000
58.17191 33.000
58.19186 39.000
58.21181 27.000
58.23175 43.000
58.25170 36.000
58.27165 30.000
58.29159 42.000
58.31154 35.000
58.33149 43.000
58.35144 42.000
58.37138 34.000
58.39133 25.000
58.41128 26.000
58.43122 43.000
58.45117 41.000
58.47112 31.000
58.49106 45.000
58.51101 41.000
58.53096 46.000
58.55090 30.000
58.57085 30.000
58.59080 32.000
58.61075 35.000
58.63069 43.000
58.65064 36.000
58.67059 37.000
58.69053 43.000
58.71048 36.000
58.73043 36.000
58.75037 38.000
58.77032 35.000
58.79027 34.000
58.81022 49.000
58.83016 35.000
58.85011 32.000
58.87006 41.000
58.89000 32.000
58.90995 42.000
58.92990 24.000
58.94984 27.000
58.96979 37.000
58.98974 38.000
59.00969 39.000
59.02963 40.000
59.04958 30.000
59.06953 44.000
59.08947 46.000
59.10942 35.000
59.12937 40.000
59.14931 35.000
59.16926 47.000
59.18921 29.000
59.20915 56.000
59.22910 27.000
59.24905 46.000
59.26900 35.000
59.28894 46.000
59.30889 31.000
59.32884 31.000
59.34878 36.000
59.36873 47.000
59.38868 31.000
59.40862 45.000
59.42857 41.000
59.44852 39.000
59.46847 35.000
59.48841 33.000
59.50836 46.000
59.52831 35.000
59.54825 39.000
59.56820 41.000
59.58815 41.000
59.60809 37.000
59.62804 46.000
59.64799 50.000
59.66793 38.000
59.68788 43.000
59.70783 48.000
59.72778 28.000
59.74772 25.000
59.76767 42.000
59.78762 49.000
59.80756 35.000
59.82751 45.000
59.84746 33.000
59.86740 35.000
59.88735 41.000
59.90730 33.000
59.92725 37.000
59.94719 32.000
59.96714 48.000
59.98709 45.000
60.00703 45.000
60.02698 25.000
60.04693 52.000
60.06687 43.000
60.08682 23.000
60.10677 31.000
60.12671 34.000
60.14666 28.000
60.16661 33.000
60.18656 30.000
60.20650 38.000
60.22645 37.000
60.24640 48.000
60.26634 38.000
60.28629 38.000
60.30624 40.000
60.32618 33.000
60.34613 39.000
60.36608 45.000
60.38603 47.000
60.40597 37.000
60.42592 45.000
60.44587 32.000
60.46581 36.000
60.48576 51.000
60.50571 39.000
60.52565 37.000
60.54560 53.000
60.56555 40.000
60.58550 36.000
60.60544 46.000
60.62539 33.000
60.64534 36.000
60.66528 39.000
60.68523 38.000
60.70518 34.000
60.72512 45.000
60.74507 57.000
60.76502 35.000
60.78496 38.000
60.80491 24.000
60.82486 37.000
60.84481 35.000
60.86475 56.000
60.88470 54.000
60.90465 47.000
60.92459 44.000
60.94454 45.000
60.96449 39.000
60.98443 50.000
61.00438 47.000
61.02433 42.000
61.04428 53.000
61.06422 40.000
61.08417 53.000
61.10412 44.000
61.12406 42.000
61.14401 52.000
61.16396 41.000
61.18390 57.000
61.20385 43.000
61.22380 48.000
61.24374 48.000
61.26369 57.000
61.28364 46.000
61.30359 59.000
61.32353 59.000
61.34348 46.000
61.36343 62.000
61.38337 64.000
61.40332 62.000
61.42327 69.000
61.44321 69.000
61.46316 60.000
61.48311 78.000
61.50306 67.000
61.52300 82.000
61.54295 76.000
61.56290 94.000
61.58284 105.000
61.60279 117.000
61.62274 111.000
61.64268 137.000
61.66263 160.000
61.68258 158.000
61.70252 176.000
61.72247 206.000
61.74242 215.000
61.76237 271.000
61.78231 286.000
61.80226 281.000
61.82221 338.000
61.84215 360.000
61.86210 367.000
61.88205 374.000
61.90199 399.000
61.92194 372.000
61.94189 366.000
61.96184 373.000
61.98178 361.000
62.00173 333.000
62.02168 330.000
62.04162 319.000
62.06157 285.000
62.08152 301.000
62.10146 252.000
62.12141 256.000
62.14136 211.000
62.16131 209.000
62.18125 187.000
62.20120 200.000
62.22115 177.000
62.24109 175.000
62.26104 144.000
62.28099 147.000
62.30093 143.000
62.32088 106.000
62.34083 114.000
62.36077 101.000
62.38072 110.000
62.40067 89.000
62.42062 83.000
62.44056 90.000
62.46051 88.000
62.48046 101.000
62.50040 72.000
62.52035 80.000
62.54030 71.000
62.56024 73.000
62.58019 75.000
62.60014 72.000
62.62009 78.000
62.64003 58.000
62.65998 69.000
62.67993 61.000
62.69987 69.000
62.71982 68.000
62.73977 58.000
62.75971 53.000
62.77966 53.000
62.79961 58.000
62.81955 66.000
62.83950 70.000
62.85945 70.000
62.87940 49.000
62.89934 62.000
62.91929 46.000
62.93924 60.000
62.95918 71.000
62.97913 59.000
62.99908 68.000
63.01902 62.000
63.03897 52.000
63.05892 71.000
63.07887 50.000
63.09881 65.000
63.11876 71.000
63.13871 58.000
63.15865 46.000
63.17860 56.000
63.19855 55.000
63.21849 39.000
63.23844 47.000
63.25839 57.000
63.27833 58.000
63.29828 44.000
63.31823 42.000
63.33818 48.000
63.35812 32.000
63.37807 49.000
63.39802 51.000
63.41796 36.000
63.43791 42.000
63.45786 49.000
63.47780 39.000
63.49775 39.000
63.51770 43.000
63.53765 35.000
63.55759 44.000
63.57754 50.000
63.59749 46.000
63.61743 44.000
63.63738 40.000
63.65733 44.000
63.67727 43.000
63.69722 43.000
63.71717 37.000
63.73712 49.000
63.75706 64.000
63.77701 47.000
63.79696 43.000
63.81690 46.000
63.83685 55.000
63.85680 46.000
63.87674 39.000
63.89669 48.000
63.91664 46.000
63.93658 51.000
63.95653 44.000
63.97648 55.000
63.99643 42.000
64.01637 51.000
64.03632 60.000
64.05627 47.000
64.07621 49.000
64.09616 70.000
64.11611 61.000
64.13605 54.000
64.15600 76.000
64.17595 84.000
64.19590 68.000
64.21584 81.000
64.23579 82.000
64.25574 100.000
64.27568 94.000
64.29563 125.000
64.31558 107.000
64.33552 161.000
64.35547 160.000
64.37542 198.000
64.39536 194.000
64.41531 227.000
64.43526 242.000
64.45521 304.000
64.47515 306.000
64.49510 317.000
64.51505 321.000
64.53499 335.000
64.55494 370.000
64.57489 399.000
64.59483 323.000
64.61478 348.000
64.63473 345.000
64.65468 331.000
64.67462 274.000
64.69457 300.000
64.71452 279.000
64.73446 265.000
64.75441 252.000
64.77436 220.000
64.79430 207.000
64.81425 174.000
64.83420 140.000
64.85414 140.000
64.87409 121.000
64.89404 89.000
64.91399 97.000
64.93393 83.000
64.95388 77.000
64.97383 75.000
64.99377 59.000
65.01372 75.000
65.03367 58.000
65.05361 51.000
65.07356 53.000
65.09351 47.000
65.11346 31.000
65.13340 52.000
65.15335 43.000
65.17330 45.000
65.19324 42.000
65.21319 59.000
65.23314 53.000
65.25308 43.000
65.27303 44.000
65.29298 47.000
65.31293 41.000
65.33287 45.000
65.35282 43.000
65.37277 30.000
65.39271 37.000
65.41266 52.000
65.43261 43.000
65.45255 37.000
65.47250 41.000
65.49245 44.000
65.51239 45.000
65.53234 42.000
65.55229 43.000
65.57224 27.000
65.59218 39.000
65.61213 54.000
65.63208 46.000
65.65202 38.000
65.67197 46.000
65.69192 45.000
65.71186 38.000
65.73181 44.000
65.75176 35.000
65.77171 34.000
65.79165 44.000
65.81160 37.000
65.83155 47.000
65.85149 42.000
65.87144 52.000
65.89139 44.000
65.91133 45.000
65.93128 52.000
65.95123 40.000
65.97117 48.000
65.99112 48.000
66.01107 54.000
66.03102 41.000
66.05096 41.000
66.07091 50.000
66.09086 51.000
66.11080 56.000
66.13075 57.000
66.15070 56.000
66.17064 55.000
66.19059 56.000
66.21054 44.000
66.23049 38.000
66.25043 53.000
66.27038 45.000
66.29033 73.000
66.31027 65.000
66.33022 64.000
66.35017 69.000
66.37011 59.000
66.39006 78.000
66.41001 74.000
66.42995 71.000
66.44990 88.000
66.46985 91.000
66.48980 95.000
66.50974 103.000
66.52969 90.000
66.54964 114.000
66.56958 119.000
66.58953 106.000
66.60948 95.000
66.62942 119.000
66.64937 102.000
66.66932 148.000
66.68927 134.000
66.70921 147.000
66.72916 145.000
66.74911 163.000
66.76905 181.000
66.78900 200.000
66.80895 216.000
66.82889 227.000
66.84884 256.000
66.86879 248.000
66.88874 282.000
66.90868 270.000
66.92863 266.000
66.94858 272.000
66.96852 242.000
66.98847 256.000
67.00842 237.000
67.02836 222.000
67.04831 210.000
67.06826 194.000
67.08820 197.000
67.10815 165.000
67.12810 178.000
67.14805 169.000
67.16799 133.000
67.18794 135.000
67.20789 115.000
67.22783 114.000
67.24778 94.000
67.26773 74.000
67.28767 97.000
67.30762 79.000
67.32757 51.000
67.34752 67.000
67.36746 59.000
67.38741 49.000
67.40736 43.000
67.42730 44.000
67.44725 38.000
67.46720 57.000
67.48714 48.000
67.50709 50.000
67.52704 37.000
67.54698 44.000
67.56693 32.000
67.58688 39.000
67.60683 45.000
67.62677 46.000
67.64672 47.000
67.66667 38.000
67.68661 49.000
67.70656 37.000
67.72651 36.000
67.74645 46.000
67.76640 38.000
67.78635 46.000
67.80630 39.000
67.82624 43.000
67.84619 32.000
67.86614 30.000
67.88608 38.000
67.90603 41.000
67.92598 46.000
67.94592 40.000
67.96587 34.000
67.98582 31.000
68.00576 31.000
68.02571 28.000
68.04566 38.000
68.06561 35.000
68.08555 31.000
68.10550 34.000
68.12545 44.000
68.14539 33.000
68.16534 37.000
68.18529 41.000
68.20523 37.000
68.22518 32.000
68.24513 32.000
68.26508 32.000
68.28502 29.000
68.30497 41.000
68.32492 39.000
68.34486 40.000
68.36481 45.000
68.38476 26.000
68.40470 36.000
68.42465 38.000
68.44460 36.000
68.46455 31.000
68.48449 36.000
68.50444 25.000
68.52439 33.000
68.54433 30.000
68.56428 34.000
68.58423 26.000
68.60417 44.000
68.62412 37.000
68.64407 30.000
68.66401 32.000
68.68396 35.000
68.70391 38.000
68.72386 34.000
68.74380 24.000
68.76375 29.000
68.78370 40.000
68.80364 37.000
68.82359 52.000
68.84354 47.000
68.86348 40.000
68.88343 38.000
68.90338 44.000
68.92333 47.000
68.94327 33.000
68.96322 39.000
68.98317 33.000
69.00311 36.000
69.02306 40.000
69.04301 41.000
69.06295 36.000
69.08290 36.000
69.10285 26.000
69.12279 36.000
69.14274 27.000
69.16269 37.000
69.18264 29.000
69.20258 34.000
69.22253 34.000
69.24248 31.000
69.26242 36.000
69.28237 33.000
69.30232 41.000
69.32226 29.000
69.34221 48.000
69.36216 39.000
69.38211 31.000
69.40205 36.000
69.42200 31.000
69.44195 41.000
69.46189 35.000
69.48184 41.000
69.50179 33.000
69.52173 44.000
69.54168 41.000
69.56163 42.000
69.58157 45.000
69.60152 43.000
69.62147 43.000
69.64142 38.000
69.66136 36.000
69.68131 51.000
69.70126 32.000
69.72120 47.000
69.74115 36.000
69.76110 32.000
69.78104 34.000
69.80099 32.000
69.82094 43.000
69.84089 39.000
69.86083 38.000
69.88078 40.000
69.90073 41.000
69.92067 32.000
69.94062 24.000
69.96057 31.000
69.98051 32.000
70.00046 38.000
70.02041 37.000
70.04035 34.000
70.06030 36.000
70.08025 27.000
70.10020 28.000
70.12014 25.000
70.14009 41.000
70.16004 26.000
70.17998 44.000
70.19993 26.000
70.21988 43.000
70.23982 27.000
70.25977 32.000
70.27972 35.000
70.29967 38.000
70.31961 40.000
70.33956 44.000
70.35951 44.000
70.37945 46.000
70.39940 33.000
70.41935 41.000
70.43929 39.000
70.45924 23.000
70.47919 28.000
70.49914 32.000
70.51908 30.000
70.53903 26.000
70.55898 42.000
70.57892 39.000
70.59887 37.000
70.61882 41.000
70.63876 26.000
70.65871 34.000
70.67866 29.000
70.69860 41.000
70.71855 31.000
70.73850 38.000
70.75845 32.000
70.77839 25.000
70.79834 33.000
70.81829 31.000
70.83823 34.000
70.85818 35.000
70.87813 37.000
70.89807 34.000
70.91802 43.000
70.93797 36.000
70.95792 32.000
70.97786 35.000
70.99781 28.000
71.01776 31.000
71.03770 34.000
71.05765 34.000
71.07760 38.000
71.09754 32.000
71.11749 29.000
71.13744 38.000
71.15738 21.000
71.17733 37.000
71.19728 37.000
71.21723 35.000
71.23717 23.000
71.25712 32.000
71.27707 39.000
71.29701 43.000
71.31696 36.000
71.33691 30.000
71.35685 40.000
71.37680 27.000
71.39675 41.000
71.41670 33.000
71.43664 40.000
71.45659 29.000
71.47654 39.000
71.49648 34.000
71.51643 27.000
71.53638 36.000
71.55632 34.000
71.57627 35.000
71.59622 43.000
71.61616 27.000
71.63611 47.000
71.65606 32.000
71.67601 36.000
71.69595 35.000
71.71590 36.000
71.73585 28.000
71.75579 31.000
71.77574 29.000
71.79569 31.000
71.81563 34.000
71.83558 39.000
71.85553 36.000
71.87548 35.000
71.89542 34.000
71.91537 25.000
71.93532 43.000
71.95526 31.000
71.97521 36.000
71.99516 34.000
72.01510 37.000
72.03505 35.000
72.05500 29.000
72.07495 42.000
72.09489 38.000
72.11484 31.000
72.13479 36.000
72.15473 39.000
72.17468 27.000
72.19463 30.000
72.21457 36.000
72.23452 28.000
72.25447 37.000
72.27441 47.000
72.29436 32.000
72.31431 33.000
72.33426 33.000
72.35420 34.000
72.37415 37.000
72.39410 37.000
72.41404 40.000
72.43399 37.000
72.45394 50.000
72.47388 42.000
72.49383 33.000
72.51378 36.000
72.53373 35.000
72.55367 31.000
72.57362 42.000
72.59357 34.000
72.61351 42.000
72.63346 34.000
72.65341 38.000
72.67335 35.000
72.69330 37.000
72.71325 34.000
72.73319 33.000
72.75314 28.000
72.77309 28.000
72.79304 32.000
72.81298 32.000
72.83293 39.000
72.85288 26.000
72.87282 47.000
72.89277 34.000
72.91272 30.000
72.93266 42.000
72.95261 30.000
72.97256 37.000
72.99251 35.000
73.01245 40.000
73.03240 49.000
73.05235 24.000
73.07229 37.000
73.09224 41.000
73.11219 33.000
73.13213 41.000
73.15208 29.000
73.17203 37.000
73.19197 48.000
73.21192 40.000
73.23187 45.000
73.25182 33.000
73.27176 46.000
73.29171 45.000
73.31166 43.000
73.33160 43.000
73.35155 48.000
73.37150 52.000
73.39144 33.000
73.41139 65.000
73.43134 51.000
73.45129 58.000
73.47123 56.000
73.49118 56.000
73.51113 62.000
73.53107 61.000
73.55102 80.000
73.57097 74.000
73.59091 81.000
73.61086 99.000
73.63081 110.000
73.65076 91.000
73.67070 121.000
73.69065 136.000
73.71060 133.000
73.73054 132.000
73.75049 134.000
73.77044 158.000
73.79038 140.000
73.81033 118.000
73.83028 130.000
73.85022 132.000
73.87017 109.000
73.89012 123.000
73.91007 106.000
73.93001 100.000
73.94996 118.000
73.96991 96.000
73.98985 101.000
74.00980 103.000
74.02975 75.000
74.04969 85.000
74.06964 78.000
74.08959 84.000
74.10954 75.000
74.12948 63.000
74.14943 58.000
74.16938 59.000
74.18932 41.000
74.20927 57.000
74.22922 60.000
74.24916 49.000
74.26911 44.000
74.28906 49.000
74.30900 38.000
74.32895 35.000
74.34890 42.000
74.36885 53.000
74.38879 43.000
74.40874 34.000
74.42869 56.000
74.44863 50.000
74.46858 43.000
74.48853 38.000
74.50847 29.000
74.52842 40.000
74.54837 48.000
74.56832 37.000
74.58826 52.000
74.60821 44.000
74.62816 39.000
74.64810 48.000
74.66805 34.000
74.68800 34.000
74.70794 43.000
74.72789 33.000
74.74784 36.000
74.76778 38.000
74.78773 46.000
74.80768 39.000
74.82763 45.000
74.84757 36.000
74.86752 36.000
74.88747 40.000
74.90741 44.000
74.92736 34.000
74.94731 35.000
74.96725 40.000
74.98720 31.000
75.00715 36.000
75.02710 54.000
75.04704 32.000
75.06699 39.000
75.08694 43.000
75.10688 26.000
75.12683 34.000
75.14678 29.000
75.16672 35.000
75.18667 36.000
75.20662 37.000
75.22657 35.000
75.24651 48.000
75.26646 27.000
75.28641 29.000
75.30635 36.000
75.32630 35.000
75.34625 35.000
75.36619 46.000
75.38614 37.000
75.40609 39.000
75.42603 34.000
75.44598 36.000
75.46593 42.000
75.48588 35.000
75.50582 37.000
75.52577 40.000
75.54572 41.000
75.56566 42.000
75.58561 30.000
75.60556 29.000
75.62550 40.000
75.64545 40.000
75.66540 43.000
75.68535 35.000
75.70529 45.000
75.72524 32.000
75.74519 40.000
75.76513 48.000
75.78508 36.000
75.80503 36.000
75.82497 40.000
75.84492 44.000
75.86487 39.000
75.88481 49.000
75.90476 64.000
75.92471 59.000
75.94466 50.000
75.96460 56.000
75.98455 74.000
76.00450 72.000
76.02444 65.000
76.04439 57.000
76.06434 79.000
76.08428 70.000
76.10423 70.000
76.12418 68.000
76.14413 80.000
76.16407 69.000
76.18402 76.000
76.20397 68.000
76.22391 67.000
76.24386 83.000
76.26381 75.000
76.28375 61.000
76.30370 53.000
76.32365 51.000
76.34359 57.000
76.36354 60.000
76.38349 67.000
76.40344 52.000
76.42338 55.000
76.44333 34.000
76.46328 53.000
76.48322 51.000
76.50317 32.000
76.52312 44.000
76.54306 35.000
76.56301 48.000
76.58296 41.000
76.60291 53.000
76.62285 48.000
76.64280 46.000
76.66275 36.000
76.68269 32.000
76.70264 41.000
76.72259 31.000
76.74253 40.000
76.76248 40.000
76.78243 43.000
76.80238 30.000
76.82232 46.000
76.84227 36.000
76.86222 36.000
76.88216 39.000
76.90211 40.000
76.92206 48.000
76.94200 42.000
76.96195 34.000
76.98190 44.000
77.00184 40.000
77.02179 35.000
77.04174 37.000
77.06169 41.000
77.08163 31.000
77.10158 30.000
77.12153 49.000
77.14147 41.000
77.16142 47.000
77.18137 35.000
77.20131 45.000
77.22126 32.000
77.24121 35.000
77.26116 36.000
77.28110 41.000
77.30105 41.000
77.32100 38.000
77.34094 40.000
77.36089 34.000
77.38084 49.000
77.40078 48.000
77.42073 43.000
77.44068 56.000
77.46062 44.000
77.48057 37.000
77.50052 48.000
77.52047 49.000
77.54041 63.000
77.56036 68.000
77.58031 69.000
77.60025 60.000
77.62020 71.000
77.64015 56.000
77.66009 60.000
77.68004 82.000
77.69999 68.000
77.71994 64.000
77.73988 90.000
77.75983 81.000
77.77978 99.000
77.79972 86.000
77.81967 113.000
77.83962 105.000
77.85956 100.000
77.87951 121.000
77.89946 109.000
77.91940 124.000
77.93935 132.000
77.95930 138.000
77.97925 145.000
77.99919 145.000
78.01914 147.000
78.03909 128.000
78.05903 153.000
78.07898 149.000
78.09893 145.000
78.11887 138.000
78.13882 133.000
78.15877 165.000
78.17872 171.000
78.19866 172.000
78.21861 162.000
78.23856 161.000
78.25850 183.000
78.27845 156.000
78.29840 153.000
78.31834 158.000
78.33829 159.000
78.35824 141.000
78.37819 161.000
78.39813 129.000
78.41808 137.000
78.43803 130.000
78.45797 126.000
78.47792 110.000
78.49787 111.000
78.51781 103.000
78.53776 96.000
78.55771 90.000
78.57765 79.000
78.59760 84.000
78.61755 80.000
78.63750 79.000
78.65744 65.000
78.67739 69.000
78.69734 71.000
78.71728 71.000
78.73723 71.000
78.75718 54.000
78.77712 58.000
78.79707 48.000
78.81702 53.000
78.83697 59.000
78.85691 54.000
78.87686 42.000
78.89681 43.000
78.91675 46.000
78.93670 43.000
78.95665 35.000
78.97659 40.000
78.99654 35.000
79.01649 37.000
79.03643 26.000
79.05638 52.000
79.07633 33.000
79.09628 35.000
79.11622 30.000
79.13617 37.000
79.15612 28.000
79.17606 47.000
79.19601 36.000
79.21596 42.000
79.23590 32.000
79.25585 23.000
79.27580 47.000
79.29575 39.000
79.31569 38.000
79.33564 40.000
79.35559 48.000
79.37553 35.000
79.39548 30.000
79.41543 36.000
79.43537 41.000
79.45532 36.000
79.47527 45.000
79.49521 40.000
79.51516 32.000
79.53511 31.000
79.55506 31.000
79.57500 43.000
79.59495 33.000
79.61490 34.000
79.63484 36.000
79.65479 26.000
79.67474 39.000
79.69468 35.000
79.71463 35.000
79.73458 35.000
79.75453 31.000
79.77447 31.000
79.79442 48.000
79.81437 32.000
79.83431 25.000
79.85426 32.000
79.87421 33.000
79.89415 37.000
79.91410 39.000
79.93405 37.000
79.95399 36.000
79.97394 30.000
79.99389 33.000
80.01384 38.000
80.03378 32.000
80.05373 29.000
80.07368 40.000
80.09362 32.000
80.11357 43.000
80.13352 33.000
80.15346 38.000
80.17341 36.000
80.19336 29.000
80.21331 32.000
80.23325 45.000
80.25320 36.000
80.27315 34.000
80.29309 24.000
80.31304 46.000
80.33299 46.000
80.35293 28.000
80.37288 30.000
80.39283 44.000
80.41278 27.000
80.43272 26.000
80.45267 21.000
80.47262 31.000
80.49256 47.000
80.51251 50.000
80.53246 42.000
80.55240 33.000
80.57235 33.000
80.59230 35.000
80.61224 37.000
80.63219 42.000
80.65214 38.000
80.67209 32.000
80.69203 37.000
80.71198 37.000
80.73193 43.000
80.75187 38.000
80.77182 42.000
80.79177 44.000
80.81171 27.000
80.83166 46.000
80.85161 36.000
80.87156 43.000
80.89150 36.000
80.91145 44.000
80.93140 50.000
80.95134 51.000
80.97129 48.000
80.99124 33.000
81.01118 54.000
81.03113 64.000
81.05108 50.000
81.07102 48.000
81.09097 53.000
81.11092 55.000
81.13087 44.000
81.15081 45.000
81.17076 55.000
81.19071 48.000
81.21065 56.000
81.23060 46.000
81.25055 38.000
81.27049 31.000
81.29044 50.000
81.31039 41.000
81.33034 41.000
81.35028 40.000
81.37023 36.000
81.39018 28.000
81.41012 46.000
81.43007 38.000
81.45002 38.000
81.46996 39.000
81.48991 42.000
81.50986 33.000
81.52980 30.000
81.54975 35.000
81.56970 28.000
81.58965 33.000
81.60959 39.000
81.62954 36.000
81.64949 35.000
81.66943 26.000
81.68938 31.000
81.70933 37.000
81.72927 37.000
81.74922 35.000
81.76917 31.000
81.78912 44.000
81.80906 35.000
81.82901 47.000
81.84896 31.000
81.86890 43.000
81.88885 30.000
81.90880 26.000
81.92874 32.000
81.94869 45.000
81.96864 41.000
81.98859 35.000
82.00853 23.000
82.02848 25.000
82.04843 37.000
82.06837 29.000
82.08832 45.000
82.10827 32.000
82.12821 42.000
82.14816 27.000
82.16811 32.000
82.18805 34.000
82.20800 26.000
82.22795 32.000
82.24790 36.000
82.26784 24.000
82.28779 31.000
82.30774 29.000
82.32768 47.000
82.34763 38.000
82.36758 37.000
82.38752 36.000
82.40747 42.000
82.42742 37.000
82.44737 38.000
82.46731 40.000
82.48726 32.000
82.50721 31.000
82.52715 27.000
82.54710 30.000
82.56705 35.000
82.58699 27.000
82.60694 41.000
82.62689 32.000
82.64683 35.000
82.66678 32.000
82.68673 43.000
82.70668 37.000
82.72662 27.000
82.74657 31.000
82.76652 37.000
82.78646 31.000
82.80641 30.000
82.82636 28.000
82.84630 39.000
82.86625 22.000
82.88620 33.000
82.90615 29.000
82.92609 32.000
82.94604 34.000
82.96599 45.000
82.98593 32.000
83.00588 21.000
83.02583 27.000
83.04577 29.000
83.06572 37.000
83.08567 36.000
83.10561 31.000
83.12556 23.000
83.14551 48.000
83.16546 25.000
83.18540 42.000
83.20535 36.000
83.22530 30.000
83.24524 23.000
83.26519 39.000
83.28514 42.000
83.30508 24.000
83.32503 34.000
83.34498 30.000
83.36493 47.000
83.38487 31.000
83.40482 36.000
83.42477 30.000
83.44471 36.000
83.46466 30.000
83.48461 41.000
83.50455 39.000
83.52450 36.000
83.54445 45.000
83.56440 21.000
83.58434 45.000
83.60429 32.000
83.62424 22.000
83.64418 29.000
83.66413 40.000
83.68408 27.000
83.70402 46.000
83.72397 40.000
83.74392 23.000
83.76386 29.000
83.78381 30.000
83.80376 36.000
83.82371 34.000
83.84365 30.000
83.86360 43.000
83.88355 43.000
83.90349 40.000
83.92344 42.000
83.94339 26.000
83.96333 35.000
83.98328 29.000
84.00323 32.000
84.02318 49.000
84.04312 39.000
84.06307 38.000
84.08302 35.000
84.10296 41.000
84.12291 37.000
84.14286 46.000
84.16280 40.000
84.18275 28.000
84.20270 49.000
84.22264 30.000
84.24259 31.000
84.26254 37.000
84.28249 45.000
84.30243 40.000
84.32238 49.000
84.34233 51.000
84.36227 46.000
84.38222 67.000
84.40217 66.000
84.42211 52.000
84.44206 64.000
84.46201 63.000
84.48196 66.000
84.50190 60.000
84.52185 72.000
84.54180 70.000
84.56174 65.000
84.58169 80.000
84.60164 82.000
84.62158 101.000
84.64153 111.000
84.66148 108.000
84.68142 115.000
84.70137 117.000
84.72132 140.000
84.74127 144.000
84.76121 132.000
84.78116 155.000
84.80111 150.000
84.82105 151.000
84.84100 141.000
84.86095 139.000
84.88089 138.000
84.90084 138.000
84.92079 118.000
84.94074 116.000
84.96068 107.000
84.98063 104.000
85.00058 102.000
85.02052 104.000
85.04047 102.000
85.06042 110.000
85.08036 88.000
85.10031 77.000
85.12026 88.000
85.14021 75.000
85.16015 69.000
85.18010 78.000
85.20005 70.000
85.21999 65.000
85.23994 60.000
85.25989 53.000
85.27983 56.000
85.29978 49.000
85.31973 50.000
85.33967 48.000
85.35962 47.000
85.37957 43.000
85.39952 43.000
85.41946 45.000
85.43941 42.000
85.45936 45.000
85.47930 49.000
85.49925 49.000
85.51920 42.000
85.53914 37.000
85.55909 43.000
85.57904 38.000
85.59899 35.000
85.61893 45.000
85.63888 32.000
85.65883 39.000
85.67877 38.000
85.69872 39.000
85.71867 41.000
85.73861 32.000
85.75856 40.000
85.77851 46.000
85.79845 36.000
85.81840 38.000
85.83835 38.000
85.85830 36.000
85.87824 42.000
85.89819 31.000
85.91814 46.000
85.93808 36.000
85.95803 34.000
85.97798 44.000
85.99792 38.000
86.01787 36.000
86.03782 38.000
86.05777 40.000
86.07771 43.000
86.09766 50.000
86.11761 37.000
86.13755 33.000
86.15750 41.000
86.17745 41.000
86.19739 38.000
86.21734 38.000
86.23729 34.000
86.25723 45.000
86.27718 46.000
86.29713 54.000
86.31708 57.000
86.33702 38.000
86.35697 51.000
86.37692 36.000
86.39686 53.000
86.41681 34.000
86.43676 51.000
86.45670 63.000
86.47665 48.000
86.49660 44.000
86.51655 46.000
86.53649 47.000
86.55644 38.000
86.57639 32.000
86.59633 40.000
86.61628 49.000
86.63623 44.000
86.65617 52.000
86.67612 47.000
86.69607 48.000
86.71602 42.000
86.73596 58.000
86.75591 49.000
86.77586 49.000
86.79580 48.000
86.81575 43.000
86.83570 47.000
86.85564 67.000
86.87559 39.000
86.89554 28.000
86.91548 47.000
86.93543 46.000
86.95538 41.000
86.97533 41.000
86.99527 43.000
87.01522 57.000
87.03517 58.000
87.05511 45.000
87.07506 48.000
87.09501 42.000
87.11495 44.000
87.13490 57.000
87.15485 46.000
87.17480 42.000
87.19474 54.000
87.21469 61.000
87.23464 50.000
87.25458 46.000
87.27453 55.000
87.29448 42.000
87.31442 45.000
87.33437 51.000
87.35432 62.000
87.37426 45.000
87.39421 41.000
87.41416 41.000
87.43411 46.000
87.45405 34.000
87.47400 39.000
87.49395 44.000
87.51389 43.000
87.53384 38.000
87.55379 44.000
87.57373 47.000
87.59368 49.000
87.61363 48.000
87.63358 34.000
87.65352 27.000
87.67347 42.000
87.69342 27.000
87.71336 43.000
87.73331 43.000
87.75326 49.000
87.77320 35.000
87.79315 33.000
87.81310 39.000
87.83304 31.000
87.85299 48.000
87.87294 36.000
87.89289 36.000
87.91283 32.000
87.93278 35.000
87.95273 39.000
87.97267 38.000
87.99262 26.000
88.01257 33.000
88.03251 29.000
88.05246 28.000
88.07241 37.000
88.09236 32.000
88.11230 47.000
88.13225 35.000
88.15220 36.000
88.17214 29.000
88.19209 47.000
88.21204 34.000
88.23198 31.000
88.25193 46.000
88.27188 40.000
88.29183 30.000
88.31177 45.000
88.33172 34.000
88.35167 33.000
88.37161 27.000
88.39156 25.000
88.41151 49.000
88.43145 33.000
88.45140 39.000
88.47135 38.000
88.49129 41.000
88.51124 41.000
88.53119 27.000
88.55114 33.000
88.57108 38.000
88.59103 44.000
88.61098 33.000
88.63092 30.000
88.65087 35.000
88.67082 37.000
88.69076 38.000
88.71071 40.000
88.73066 36.000
88.75061 44.000
88.77055 48.000
88.79050 40.000
88.81045 42.000
88.83039 46.000
88.85034 30.000
88.87029 36.000
88.89023 38.000
88.91018 40.000
88.93013 44.000
88.95007 27.000
88.97002 48.000
88.98997 36.000
89.00992 40.000
89.02986 41.000
89.04981 46.000
89.06976 41.000
89.08970 31.000
89.10965 35.000
89.12960 51.000
89.14954 36.000
89.16949 40.000
89.18944 28.000
89.20939 40.000
89.22933 34.000
89.24928 38.000
89.26923 35.000
89.28917 29.000
89.30912 33.000
89.32907 42.000
89.34901 41.000
89.36896 29.000
89.38891 46.000
89.40885 41.000
89.42880 34.000
89.44875 32.000
89.46870 43.000
89.48864 26.000
89.50859 50.000
89.52854 34.000
89.54848 31.000
89.56843 37.000
89.58838 29.000
89.60832 36.000
89.62827 50.000
89.64822 30.000
89.66817 30.000
89.68811 41.000
89.70806 29.000
89.72801 40.000
89.74795 36.000
89.76790 32.000
89.78785 36.000
89.80779 36.000
89.82774 28.000
89.84769 38.000
89.86764 36.000
89.88758 35.000
89.90753 29.000
89.92748 32.000
89.94742 39.000
89.96737 35.000
89.98732 36.000
90.00726 30.000
