10.00000 171.000
10.01995 173.000
10.03989 183.000
10.05984 154.000
10.07979 196.000
10.09973 159.000
10.11968 173.000
10.13963 153.000
10.15958 187.000
10.17952 162.000
10.19947 166.000
10.21942 162.000
10.23936 179.000
10.25931 184.000
10.27926 159.000
10.29920 161.000
10.31915 179.000
10.33910 167.000
10.35905 154.000
10.37899 156.000
10.39894 148.000
10.41889 172.000
10.43883 155.000
10.45878 176.000
10.47873 165.000
10.49867 172.000
10.51862 159.000
10.53857 162.000
10.55851 167.000
10.57846 178.000
10.59841 161.000
10.61836 169.000
10.63830 178.000
10.65825 170.000
10.67820 185.000
10.69814 173.000
10.71809 189.000
10.73804 184.000
10.75798 181.000
10.77793 180.000
10.79788 172.000
10.81783 172.000
10.83777 168.000
10.85772 187.000
10.87767 191.000
10.89761 159.000
10.91756 191.000
10.93751 165.000
10.95745 176.000
10.97740 174.000
10.99735 173.000
11.01730 147.000
11.03724 166.000
11.05719 174.000
11.07714 174.000
11.09708 184.000
11.11703 172.000
11.13698 180.000
11.15692 158.000
11.17687 173.000
11.19682 172.000
11.21676 156.000
11.23671 161.000
11.25666 191.000
11.27661 154.000
11.29655 189.000
11.31650 171.000
11.33645 158.000
11.35639 184.000
11.37634 162.000
11.39629 174.000
11.41623 171.000
11.43618 169.000
11.45613 178.000
11.47608 175.000
11.49602 154.000
11.51597 141.000
11.53592 147.000
11.55586 175.000
11.57581 168.000
11.59576 193.000
11.61570 189.000
11.63565 162.000
11.65560 178.000
11.67554 174.000
11.69549 165.000
11.71544 173.000
11.73539 166.000
11.75533 168.000
11.77528 186.000
11.79523 167.000
11.81517 164.000
11.83512 172.000
11.85507 176.000
11.87501 178.000
11.89496 168.000
11.91491 162.000
11.93486 163.000
11.95480 196.000
11.97475 200.000
11.99470 181.000
12.01464 162.000
12.03459 170.000
12.05454 179.000
12.07448 192.000
12.09443 151.000
12.11438 179.000
12.13432 190.000
12.15427 147.000
12.17422 189.000
12.19417 170.000
12.21411 148.000
12.23406 173.000
12.25401 172.000
12.27395 174.000
12.29390 170.000
12.31385 174.000
12.33379 193.000
12.35374 138.000
12.37369 179.000
12.39364 167.000
12.41358 161.000
12.43353 169.000
12.45348 148.000
12.47342 195.000
12.49337 193.000
12.51332 195.000
12.53326 179.000
12.55321 175.000
12.57316 183.000
12.59311 188.000
12.61305 167.000
12.63300 166.000
12.65295 200.000
12.67289 195.000
12.69284 172.000
12.71279 173.000
12.73273 181.000
12.75268 149.000
12.77263 194.000
12.79257 192.000
12.81252 166.000
12.83247 174.000
12.85242 178.000
12.87236 190.000
12.89231 187.000
12.91226 164.000
12.93220 198.000
12.95215 171.000
12.97210 156.000
12.99204 162.000
13.01199 187.000
13.03194 166.000
13.05189 161.000
13.07183 186.000
13.09178 205.000
13.11173 156.000
13.13167 177.000
13.15162 179.000
13.17157 179.000
13.19151 179.000
13.21146 166.000
13.23141 167.000
13.25135 183.000
13.27130 187.000
13.29125 156.000
13.31120 152.000
13.33114 166.000
13.35109 171.000
13.37104 184.000
13.39098 181.000
13.41093 157.000
13.43088 172.000
13.45082 146.000
13.47077 191.000
13.49072 181.000
13.51067 184.000
13.53061 176.000
13.55056 186.000
13.57051 178.000
13.59045 190.000
13.61040 177.000
13.63035 159.000
13.65029 200.000
13.67024 182.000
13.69019 187.000
13.71013 161.000
13.73008 161.000
13.75003 188.000
13.76998 201.000
13.78992 172.000
13.80987 171.000
13.82982 163.000
13.84976 185.000
13.86971 173.000
13.88966 177.000
13.90960 183.000
13.92955 184.000
13.94950 172.000
13.96945 190.000
13.98939 194.000
14.00934 179.000
14.02929 167.000
14.04923 171.000
14.06918 195.000
14.08913 165.000
14.10907 179.000
14.12902 198.000
14.14897 190.000
14.16892 183.000
14.18886 158.000
14.20881 172.000
14.22876 170.000
14.24870 194.000
14.26865 196.000
14.28860 182.000
14.30854 179.000
14.32849 183.000
14.34844 185.000
14.36838 184.000
14.38833 183.000
14.40828 175.000
14.42823 188.000
14.44817 210.000
14.46812 175.000
14.48807 180.000
14.50801 189.000
14.52796 182.000
14.54791 193.000
14.56785 175.000
14.58780 176.000
14.60775 190.000
14.62770 191.000
14.64764 175.000
14.66759 203.000
14.68754 206.000
14.70748 179.000
14.72743 205.000
14.74738 169.000
14.76732 174.000
14.78727 193.000
14.80722 191.000
14.82716 190.000
14.84711 179.000
14.86706 195.000
14.88701 214.000
14.90695 196.000
14.92690 190.000
14.94685 186.000
14.96679 225.000
14.98674 221.000
15.00669 174.000
15.02663 218.000
15.04658 192.000
15.06653 208.000
15.08648 199.000
15.10642 192.000
15.12637 215.000
15.14632 214.000
15.16626 203.000
15.18621 230.000
15.20616 242.000
15.22610 229.000
15.24605 221.000
15.26600 234.000
15.28594 243.000
15.30589 242.000
15.32584 255.000
15.34579 247.000
15.36573 260.000
15.38568 265.000
15.40563 303.000
15.42557 294.000
15.44552 286.000
15.46547 284.000
15.48541 321.000
15.50536 315.000
15.52531 367.000
15.54526 333.000
15.56520 370.000
15.58515 384.000
15.60510 393.000
15.62504 461.000
15.64499 512.000
15.66494 587.000
15.68488 685.000
15.70483 905.000
15.72478 1069.000
15.74472 1464.000
15.76467 2118.000
15.78462 3317.000
15.80457 5074.000
15.82451 7494.000
15.84446 9602.000
15.86441 9616.000
15.88435 7849.000
15.90430 5317.000
15.92425 3105.000
15.94419 1609.000
15.96414 1047.000
15.98409 773.000
16.00404 655.000
16.02398 532.000
16.04393 444.000
16.06388 432.000
16.08382 399.000
16.10377 386.000
16.12372 358.000
16.14366 326.000
16.16361 311.000
16.18356 294.000
16.20351 278.000
16.22345 272.000
16.24340 276.000
16.26335 258.000
16.28329 277.000
16.30324 268.000
16.32319 266.000
16.34313 227.000
16.36308 251.000
16.38303 225.000
16.40297 236.000
16.42292 220.000
16.44287 245.000
16.46282 217.000
16.48276 191.000
16.50271 222.000
16.52266 218.000
16.54260 211.000
16.56255 214.000
16.58250 220.000
16.60244 199.000
16.62239 191.000
16.64234 189.000
16.66229 185.000
16.68223 193.000
16.70218 206.000
16.72213 217.000
16.74207 199.000
16.76202 179.000
16.78197 166.000
16.80191 188.000
16.82186 176.000
16.84181 197.000
16.86175 202.000
16.88170 185.000
16.90165 217.000
16.92160 203.000
16.94154 164.000
16.96149 194.000
16.98144 211.000
17.00138 191.000
17.02133 186.000
17.04128 202.000
17.06122 195.000
17.08117 184.000
17.10112 181.000
17.12107 198.000
17.14101 191.000
17.16096 169.000
17.18091 180.000
17.20085 188.000
17.22080 178.000
17.24075 191.000
17.26069 208.000
17.28064 152.000
17.30059 165.000
17.32053 192.000
17.34048 168.000
17.36043 169.000
17.38038 149.000
17.40032 186.000
17.42027 176.000
17.44022 171.000
17.46016 165.000
17.48011 177.000
17.50006 181.000
17.52000 184.000
17.53995 189.000
17.55990 200.000
17.57985 183.000
17.59979 174.000
17.61974 178.000
17.63969 162.000
17.65963 175.000
17.67958 170.000
17.69953 172.000
17.71947 163.000
17.73942 174.000
17.75937 171.000
17.77932 164.000
17.79926 180.000
17.81921 189.000
17.83916 179.000
17.85910 161.000
17.87905 176.000
17.89900 155.000
17.91894 185.000
17.93889 175.000
17.95884 168.000
17.97878 174.000
17.99873 190.000
18.01868 158.000
18.03863 156.000
18.05857 192.000
18.07852 196.000
18.09847 165.000
18.11841 171.000
18.13836 169.000
18.15831 174.000
18.17825 182.000
18.19820 157.000
18.21815 169.000
18.23810 174.000
18.25804 188.000
18.27799 188.000
18.29794 196.000
18.31788 205.000
18.33783 227.000
18.35778 238.000
18.37772 293.000
18.39767 325.000
18.41762 352.000
18.43756 386.000
18.45751 353.000
18.47746 320.000
18.49741 281.000
18.51735 241.000
18.53730 237.000
18.55725 190.000
18.57719 167.000
18.59714 165.000
18.61709 188.000
18.63703 181.000
18.65698 176.000
18.67693 184.000
18.69688 146.000
18.71682 181.000
18.73677 198.000
18.75672 175.000
18.77666 167.000
18.79661 180.000
18.81656 159.000
18.83650 171.000
18.85645 158.000
18.87640 171.000
18.89634 155.000
18.91629 152.000
18.93624 183.000
18.95619 172.000
18.97613 170.000
18.99608 155.000
19.01603 180.000
19.03597 184.000
19.05592 194.000
19.07587 165.000
19.09581 176.000
19.11576 160.000
19.13571 162.000
19.15566 186.000
19.17560 168.000
19.19555 174.000
19.21550 185.000
19.23544 185.000
19.25539 170.000
19.27534 178.000
19.29528 187.000
19.31523 192.000
19.33518 188.000
19.35513 184.000
19.37507 161.000
19.39502 167.000
19.41497 159.000
19.43491 163.000
19.45486 183.000
19.47481 179.000
19.49475 167.000
19.51470 163.000
19.53465 196.000
19.55459 162.000
19.57454 185.000
19.59449 150.000
19.61444 166.000
19.63438 187.000
19.65433 158.000
19.67428 160.000
19.69422 180.000
19.71417 171.000
19.73412 151.000
19.75406 196.000
19.77401 162.000
19.79396 172.000
19.81391 167.000
19.83385 160.000
19.85380 163.000
19.87375 180.000
19.89369 155.000
19.91364 164.000
19.93359 194.000
19.95353 145.000
19.97348 163.000
19.99343 179.000
20.01337 156.000
20.03332 183.000
20.05327 180.000
20.07322 154.000
20.09316 146.000
20.11311 171.000
20.13306 158.000
20.15300 156.000
20.17295 165.000
20.19290 142.000
20.21284 158.000
20.23279 183.000
20.25274 176.000
20.27269 133.000
20.29263 167.000
20.31258 165.000
20.33253 166.000
20.35247 189.000
20.37242 179.000
20.39237 144.000
20.41231 194.000
20.43226 179.000
20.45221 193.000
20.47215 163.000
20.49210 190.000
20.51205 173.000
20.53200 170.000
20.55194 154.000
20.57189 162.000
20.59184 168.000
20.61178 183.000
20.63173 187.000
20.65168 191.000
20.67162 151.000
20.69157 158.000
20.71152 155.000
20.73147 150.000
20.75141 180.000
20.77136 162.000
20.79131 179.000
20.81125 150.000
20.83120 165.000
20.85115 185.000
20.87109 172.000
20.89104 177.000
20.91099 177.000
20.93094 178.000
20.95088 172.000
20.97083 177.000
20.99078 194.000
21.01072 172.000
21.03067 184.000
21.05062 206.000
21.07056 171.000
21.09051 199.000
21.11046 195.000
21.13040 175.000
21.15035 181.000
21.17030 192.000
21.19025 172.000
21.21019 177.000
21.23014 199.000
21.25009 154.000
21.27003 159.000
21.28998 157.000
21.30993 170.000
21.32987 167.000
21.34982 192.000
21.36977 170.000
21.38972 182.000
21.40966 174.000
21.42961 178.000
21.44956 177.000
21.46950 154.000
21.48945 175.000
21.50940 174.000
21.52934 150.000
21.54929 177.000
21.56924 191.000
21.58918 187.000
21.60913 178.000
21.62908 165.000
21.64903 169.000
21.66897 183.000
21.68892 175.000
21.70887 170.000
21.72881 160.000
21.74876 156.000
21.76871 172.000
21.78865 175.000
21.80860 193.000
21.82855 164.000
21.84850 165.000
21.86844 174.000
21.88839 156.000
21.90834 196.000
21.92828 155.000
21.94823 197.000
21.96818 179.000
21.98812 186.000
22.00807 178.000
22.02802 198.000
22.04796 180.000
22.06791 174.000
22.08786 198.000
22.10781 188.000
22.12775 165.000
22.14770 172.000
22.16765 177.000
22.18759 175.000
22.20754 145.000
22.22749 166.000
22.24743 177.000
22.26738 170.000
22.28733 154.000
22.30728 168.000
22.32722 177.000
22.34717 153.000
22.36712 179.000
22.38706 171.000
22.40701 176.000
22.42696 171.000
22.44690 163.000
22.46685 164.000
22.48680 195.000
22.50675 200.000
22.52669 170.000
22.54664 132.000
22.56659 171.000
22.58653 170.000
22.60648 161.000
22.62643 169.000
22.64637 162.000
22.66632 176.000
22.68627 179.000
22.70621 155.000
22.72616 156.000
22.74611 168.000
22.76606 169.000
22.78600 165.000
22.80595 153.000
22.82590 177.000
22.84584 159.000
22.86579 155.000
22.88574 155.000
22.90568 158.000
22.92563 182.000
22.94558 148.000
22.96553 153.000
22.98547 172.000
23.00542 170.000
23.02537 179.000
23.04531 172.000
23.06526 167.000
23.08521 165.000
23.10515 164.000
23.12510 179.000
23.14505 160.000
23.16499 162.000
23.18494 151.000
23.20489 178.000
23.22484 168.000
23.24478 154.000
23.26473 190.000
23.28468 150.000
23.30462 189.000
23.32457 165.000
23.34452 174.000
23.36446 153.000
23.38441 160.000
23.40436 170.000
23.42431 158.000
23.44425 165.000
23.46420 171.000
23.48415 176.000
23.50409 165.000
23.52404 160.000
23.54399 163.000
23.56393 170.000
23.58388 167.000
23.60383 164.000
23.62377 156.000
23.64372 179.000
23.66367 176.000
23.68362 162.000
23.70356 185.000
23.72351 173.000
23.74346 173.000
23.76340 184.000
23.78335 169.000
23.80330 174.000
23.82324 180.000
23.84319 158.000
23.86314 164.000
23.88309 163.000
23.90303 163.000
23.92298 169.000
23.94293 168.000
23.96287 179.000
23.98282 182.000
24.00277 160.000
24.02271 170.000
24.04266 175.000
24.06261 165.000
24.08256 159.000
24.10250 157.000
24.12245 161.000
24.14240 162.000
24.16234 165.000
24.18229 188.000
24.20224 171.000
24.22218 173.000
24.24213 175.000
24.26208 207.000
24.28202 171.000
24.30197 161.000
24.32192 188.000
24.34187 164.000
24.36181 159.000
24.38176 155.000
24.40171 166.000
24.42165 171.000
24.44160 157.000
24.46155 154.000
24.48149 157.000
24.50144 165.000
24.52139 155.000
24.54134 152.000
24.56128 155.000
24.58123 155.000
24.60118 174.000
24.62112 173.000
24.64107 184.000
24.66102 192.000
24.68096 177.000
24.70091 162.000
24.72086 146.000
24.74080 177.000
24.76075 179.000
24.78070 182.000
24.80065 197.000
24.82059 148.000
24.84054 188.000
24.86049 164.000
24.88043 167.000
24.90038 146.000
24.92033 171.000
24.94027 155.000
24.96022 178.000
24.98017 157.000
25.00012 184.000
25.02006 176.000
25.04001 160.000
25.05996 152.000
25.07990 169.000
25.09985 162.000
25.11980 190.000
25.13974 168.000
25.15969 183.000
25.17964 171.000
25.19958 157.000
25.21953 158.000
25.23948 185.000
25.25943 150.000
25.27937 156.000
25.29932 175.000
25.31927 182.000
25.33921 168.000
25.35916 166.000
25.37911 184.000
25.39905 177.000
25.41900 160.000
25.43895 147.000
25.45890 168.000
25.47884 204.000
25.49879 167.000
25.51874 170.000
25.53868 187.000
25.55863 151.000
25.57858 166.000
25.59852 154.000
25.61847 165.000
25.63842 169.000
25.65837 186.000
25.67831 174.000
25.69826 168.000
25.71821 163.000
25.73815 147.000
25.75810 173.000
25.77805 185.000
25.79799 197.000
25.81794 165.000
25.83789 158.000
25.85783 166.000
25.87778 156.000
25.89773 194.000
25.91768 174.000
25.93762 179.000
25.95757 170.000
25.97752 176.000
25.99746 158.000
26.01741 166.000
26.03736 183.000
26.05730 172.000
26.07725 182.000
26.09720 162.000
26.11715 170.000
26.13709 162.000
26.15704 155.000
26.17699 175.000
26.19693 176.000
26.21688 188.000
26.23683 190.000
26.25677 184.000
26.27672 156.000
26.29667 182.000
26.31661 172.000
26.33656 170.000
26.35651 177.000
26.37646 177.000
26.39640 175.000
26.41635 171.000
26.43630 172.000
26.45624 178.000
26.47619 171.000
26.49614 155.000
26.51608 208.000
26.53603 195.000
26.55598 225.000
26.57593 198.000
26.59587 189.000
26.61582 178.000
26.63577 169.000
26.65571 176.000
26.67566 187.000
26.69561 191.000
26.71555 189.000
26.73550 182.000
26.75545 176.000
26.77539 153.000
26.79534 156.000
26.81529 154.000
26.83524 200.000
26.85518 148.000
26.87513 177.000
26.89508 189.000
26.91502 169.000
26.93497 189.000
26.95492 158.000
26.97486 195.000
26.99481 170.000
27.01476 171.000
27.03471 174.000
27.05465 180.000
27.07460 180.000
27.09455 188.000
27.11449 184.000
27.13444 207.000
27.15439 204.000
27.17433 198.000
27.19428 188.000
27.21423 196.000
27.23417 161.000
27.25412 178.000
27.27407 201.000
27.29402 183.000
27.31396 186.000
27.33391 192.000
27.35386 193.000
27.37380 169.000
27.39375 184.000
27.41370 200.000
27.43364 175.000
27.45359 193.000
27.47354 184.000
27.49349 193.000
27.51343 166.000
27.53338 161.000
27.55333 196.000
27.57327 175.000
27.59322 165.000
27.61317 155.000
27.63311 177.000
27.65306 185.000
27.67301 185.000
27.69296 205.000
27.71290 183.000
27.73285 190.000
27.75280 162.000
27.77274 181.000
27.79269 165.000
27.81264 179.000
27.83258 182.000
27.85253 187.000
27.87248 176.000
27.89242 186.000
27.91237 181.000
27.93232 187.000
27.95227 170.000
27.97221 158.000
27.99216 199.000
28.01211 170.000
28.03205 180.000
28.05200 166.000
28.07195 200.000
28.09189 167.000
28.11184 178.000
28.13179 156.000
28.15174 172.000
28.17168 196.000
28.19163 187.000
28.21158 176.000
28.23152 196.000
28.25147 202.000
28.27142 215.000
28.29136 199.000
28.31131 196.000
28.33126 182.000
28.35120 206.000
28.37115 213.000
28.39110 187.000
28.41105 197.000
28.43099 179.000
28.45094 199.000
28.47089 197.000
28.49083 214.000
28.51078 183.000
28.53073 197.000
28.55067 197.000
28.57062 180.000
28.59057 176.000
28.61052 186.000
28.63046 148.000
28.65041 190.000
28.67036 190.000
28.69030 185.000
28.71025 171.000
28.73020 185.000
28.75014 159.000
28.77009 195.000
28.79004 195.000
28.80998 175.000
28.82993 202.000
28.84988 167.000
28.86983 193.000
28.88977 195.000
28.90972 175.000
28.92967 188.000
28.94961 182.000
28.96956 162.000
28.98951 188.000
29.00945 221.000
29.02940 208.000
29.04935 183.000
29.06930 180.000
29.08924 190.000
29.10919 192.000
29.12914 180.000
29.14908 173.000
29.16903 166.000
29.18898 197.000
29.20892 178.000
29.22887 170.000
29.24882 192.000
29.26877 188.000
29.28871 159.000
29.30866 162.000
29.32861 198.000
29.34855 178.000
29.36850 194.000
29.38845 196.000
29.40839 186.000
29.42834 194.000
29.44829 183.000
29.46823 187.000
29.48818 185.000
29.50813 195.000
29.52808 178.000
29.54802 184.000
29.56797 189.000
29.58792 193.000
29.60786 155.000
29.62781 190.000
29.64776 161.000
29.66770 187.000
29.68765 176.000
29.70760 163.000
29.72755 193.000
29.74749 173.000
29.76744 191.000
29.78739 199.000
29.80733 200.000
29.82728 196.000
29.84723 198.000
29.86717 173.000
29.88712 205.000
29.90707 180.000
29.92701 182.000
29.94696 184.000
29.96691 190.000
29.98686 177.000
30.00680 202.000
30.02675 197.000
30.04670 191.000
30.06664 201.000
30.08659 186.000
30.10654 178.000
30.12648 217.000
30.14643 208.000
30.16638 204.000
30.18633 241.000
30.20627 271.000
30.22622 282.000
30.24617 348.000
30.26611 409.000
30.28606 538.000
30.30601 526.000
30.32595 524.000
30.34590 529.000
30.36585 558.000
30.38579 416.000
30.40574 393.000
30.42569 359.000
30.44564 312.000
30.46558 273.000
30.48553 270.000
30.50548 232.000
30.52542 186.000
30.54537 207.000
30.56532 187.000
30.58526 190.000
30.60521 200.000
30.62516 190.000
30.64511 220.000
30.66505 191.000
30.68500 192.000
30.70495 189.000
30.72489 208.000
30.74484 172.000
30.76479 208.000
30.78473 180.000
30.80468 173.000
30.82463 178.000
30.84458 205.000
30.86452 176.000
30.88447 207.000
30.90442 201.000
30.92436 189.000
30.94431 208.000
30.96426 193.000
30.98420 189.000
31.00415 200.000
31.02410 171.000
31.04404 190.000
31.06399 193.000
31.08394 198.000
31.10389 179.000
31.12383 196.000
31.14378 204.000
31.16373 176.000
31.18367 202.000
31.20362 185.000
31.22357 172.000
31.24351 187.000
31.26346 213.000
31.28341 189.000
31.30336 184.000
31.32330 192.000
31.34325 170.000
31.36320 210.000
31.38314 182.000
31.40309 182.000
31.42304 200.000
31.44298 210.000
31.46293 201.000
31.48288 212.000
31.50282 215.000
31.52277 217.000
31.54272 218.000
31.56267 215.000
31.58261 213.000
31.60256 192.000
31.62251 202.000
31.64245 209.000
31.66240 218.000
31.68235 194.000
31.70229 215.000
31.72224 207.000
31.74219 241.000
31.76214 228.000
31.78208 211.000
31.80203 216.000
31.82198 240.000
31.84192 272.000
31.86187 278.000
31.88182 301.000
31.90176 336.000
31.92171 391.000
31.94166 478.000
31.96160 583.000
31.98155 799.000
32.00150 923.000
32.02145 943.000
32.04139 883.000
32.06134 803.000
32.08129 735.000
32.10123 671.000
32.12118 573.000
32.14113 429.000
32.16107 343.000
32.18102 272.000
32.20097 233.000
32.22092 235.000
32.24086 209.000
32.26081 223.000
32.28076 227.000
32.30070 239.000
32.32065 234.000
32.34060 202.000
32.36054 181.000
32.38049 205.000
32.40044 199.000
32.42039 203.000
32.44033 191.000
32.46028 209.000
32.48023 206.000
32.50017 191.000
32.52012 214.000
32.54007 199.000
32.56001 215.000
32.57996 213.000
32.59991 200.000
32.61985 208.000
32.63980 193.000
32.65975 220.000
32.67970 181.000
32.69964 197.000
32.71959 165.000
32.73954 170.000
32.75948 189.000
32.77943 165.000
32.79938 173.000
32.81932 195.000
32.83927 185.000
32.85922 161.000
32.87917 180.000
32.89911 194.000
32.91906 206.000
32.93901 202.000
32.95895 167.000
32.97890 178.000
32.99885 180.000
33.01879 188.000
33.03874 187.000
33.05869 188.000
33.07863 183.000
33.09858 171.000
33.11853 173.000
33.13848 157.000
33.15842 180.000
33.17837 199.000
33.19832 171.000
33.21826 166.000
33.23821 183.000
33.25816 194.000
33.27810 196.000
33.29805 178.000
33.31800 171.000
33.33795 175.000
33.35789 173.000
33.37784 178.000
33.39779 189.000
33.41773 170.000
33.43768 172.000
33.45763 185.000
33.47757 183.000
33.49752 195.000
33.51747 186.000
33.53741 182.000
33.55736 165.000
33.57731 189.000
33.59726 189.000
33.61720 173.000
33.63715 217.000
33.65710 166.000
33.67704 201.000
33.69699 181.000
33.71694 145.000
33.73688 184.000
33.75683 167.000
33.77678 211.000
33.79673 165.000
33.81667 167.000
33.83662 174.000
33.85657 179.000
33.87651 166.000
33.89646 196.000
33.91641 178.000
33.93635 183.000
33.95630 178.000
33.97625 181.000
33.99620 180.000
34.01614 177.000
34.03609 186.000
34.05604 186.000
34.07598 167.000
34.09593 189.000
34.11588 188.000
34.13582 191.000
34.15577 192.000
34.17572 196.000
34.19566 194.000
34.21561 180.000
34.23556 210.000
34.25551 202.000
34.27545 186.000
34.29540 186.000
34.31535 201.000
34.33529 198.000
34.35524 202.000
34.37519 188.000
34.39513 172.000
34.41508 190.000
34.43503 184.000
34.45498 193.000
34.47492 208.000
34.49487 181.000
34.51482 191.000
34.53476 196.000
34.55471 188.000
34.57466 193.000
34.59460 185.000
34.61455 193.000
34.63450 214.000
34.65444 175.000
34.67439 192.000
34.69434 214.000
34.71429 174.000
34.73423 200.000
34.75418 180.000
34.77413 208.000
34.79407 186.000
34.81402 207.000
34.83397 199.000
34.85391 226.000
34.87386 211.000
34.89381 223.000
34.91376 185.000
34.93370 180.000
34.95365 189.000
34.97360 199.000
34.99354 221.000
35.01349 180.000
35.03344 228.000
35.05338 195.000
35.07333 203.000
35.09328 212.000
35.11322 248.000
35.13317 222.000
35.15312 229.000
35.17307 242.000
35.19301 218.000
35.21296 224.000
35.23291 234.000
35.25285 222.000
35.27280 200.000
35.29275 262.000
35.31269 250.000
35.33264 259.000
35.35259 294.000
35.37254 314.000
35.39248 321.000
35.41243 343.000
35.43238 390.000
35.45232 402.000
35.47227 407.000
35.49222 446.000
35.51216 524.000
35.53211 503.000
35.55206 570.000
35.57201 677.000
35.59195 708.000
35.61190 788.000
35.63185 977.000
35.65179 1154.000
35.67174 1420.000
35.69169 1508.000
35.71163 1570.000
35.73158 1573.000
35.75153 1661.000
35.77147 1622.000
35.79142 1565.000
35.81137 1582.000
35.83132 1566.000
35.85126 1402.000
35.87121 1248.000
35.89116 1139.000
35.91110 1004.000
35.93105 830.000
35.95100 714.000
35.97094 624.000
35.99089 565.000
36.01084 378.000
36.03079 392.000
36.05073 344.000
36.07068 284.000
36.09063 293.000
36.11057 258.000
36.13052 276.000
36.15047 308.000
36.17041 251.000
36.19036 259.000
36.21031 266.000
36.23025 254.000
36.25020 232.000
36.27015 207.000
36.29010 233.000
36.31004 204.000
36.32999 238.000
36.34994 224.000
36.36988 241.000
36.38983 235.000
36.40978 243.000
36.42972 212.000
36.44967 231.000
36.46962 222.000
36.48957 226.000
36.50951 217.000
36.52946 223.000
36.54941 199.000
36.56935 237.000
36.58930 223.000
36.60925 286.000
36.62919 212.000
36.64914 267.000
36.66909 226.000
36.68903 263.000
36.70898 273.000
36.72893 279.000
36.74888 280.000
36.76882 278.000
36.78877 297.000
36.80872 293.000
36.82866 277.000
36.84861 304.000
36.86856 286.000
36.88850 290.000
36.90845 271.000
36.92840 263.000
36.94835 274.000
36.96829 311.000
36.98824 343.000
37.00819 411.000
37.02813 487.000
37.04808 664.000
37.06803 839.000
37.08797 1108.000
37.10792 1337.000
37.12787 1594.000
37.14781 1528.000
37.16776 1506.000
37.18771 1439.000
37.20766 1270.000
37.22760 1216.000
37.24755 1005.000
37.26750 894.000
37.28744 738.000
37.30739 602.000
37.32734 514.000
37.34728 439.000
37.36723 377.000
37.38718 348.000
37.40713 313.000
37.42707 339.000
37.44702 346.000
37.46697 265.000
37.48691 273.000
37.50686 269.000
37.52681 227.000
37.54675 212.000
37.56670 219.000
37.58665 243.000
37.60660 202.000
37.62654 213.000
37.64649 203.000
37.66644 223.000
37.68638 213.000
37.70633 220.000
37.72628 218.000
37.74622 210.000
37.76617 186.000
37.78612 214.000
37.80606 208.000
37.82601 222.000
37.84596 201.000
37.86591 215.000
37.88585 209.000
37.90580 187.000
37.92575 191.000
37.94569 215.000
37.96564 213.000
37.98559 205.000
38.00553 200.000
38.02548 202.000
38.04543 204.000
38.06538 197.000
38.08532 224.000
38.10527 193.000
38.12522 215.000
38.14516 210.000
38.16511 236.000
38.18506 212.000
38.20500 206.000
38.22495 221.000
38.24490 215.000
38.26484 223.000
38.28479 213.000
38.30474 222.000
38.32469 213.000
38.34463 208.000
38.36458 195.000
38.38453 249.000
38.40447 221.000
38.42442 224.000
38.44437 223.000
38.46431 251.000
38.48426 245.000
38.50421 257.000
38.52416 256.000
38.54410 275.000
38.56405 278.000
38.58400 327.000
38.60394 336.000
38.62389 345.000
38.64384 380.000
38.66378 382.000
38.68373 348.000
38.70368 368.000
38.72362 359.000
38.74357 393.000
38.76352 403.000
38.78347 367.000
38.80341 355.000
38.82336 367.000
38.84331 363.000
38.86325 346.000
38.88320 344.000
38.90315 359.000
38.92309 319.000
38.94304 334.000
38.96299 344.000
38.98294 337.000
39.00288 308.000
39.02283 291.000
39.04278 344.000
39.06272 331.000
39.08267 295.000
39.10262 371.000
39.12256 344.000
39.14251 363.000
39.16246 387.000
39.18241 435.000
39.20235 453.000
39.22230 484.000
39.24225 562.000
39.26219 657.000
39.28214 790.000
39.30209 958.000
39.32203 1049.000
39.34198 1320.000
39.36193 1416.000
39.38187 1619.000
39.40182 1651.000
39.42177 1616.000
39.44172 1597.000
39.46166 1389.000
39.48161 1330.000
39.50156 1240.000
39.52150 1064.000
39.54145 866.000
39.56140 730.000
39.58134 612.000
39.60129 537.000
39.62124 489.000
39.64119 390.000
39.66113 366.000
39.68108 351.000
39.70103 295.000
39.72097 264.000
39.74092 273.000
39.76087 279.000
39.78081 275.000
39.80076 227.000
39.82071 253.000
39.84065 251.000
39.86060 227.000
39.88055 244.000
39.90050 214.000
39.92044 232.000
39.94039 222.000
39.96034 230.000
39.98028 232.000
40.00023 215.000
40.02018 228.000
40.04012 204.000
40.06007 219.000
40.08002 192.000
40.09997 202.000
40.11991 213.000
40.13986 201.000
40.15981 201.000
40.17975 211.000
40.19970 208.000
40.21965 193.000
40.23959 194.000
40.25954 222.000
40.27949 196.000
40.29943 218.000
40.31938 184.000
40.33933 204.000
40.35928 192.000
40.37922 193.000
40.39917 177.000
40.41912 199.000
40.43906 171.000
40.45901 196.000
40.47896 172.000
40.49890 222.000
40.51885 189.000
40.53880 197.000
40.55875 204.000
40.57869 189.000
40.59864 186.000
40.61859 197.000
40.63853 192.000
40.65848 201.000
40.67843 201.000
40.69837 194.000
40.71832 184.000
40.73827 182.000
40.75822 187.000
40.77816 201.000
40.79811 182.000
40.81806 186.000
40.83800 199.000
40.85795 196.000
40.87790 178.000
40.89784 177.000
40.91779 191.000
40.93774 179.000
40.95768 206.000
40.97763 212.000
40.99758 176.000
41.01753 182.000
41.03747 190.000
41.05742 193.000
41.07737 188.000
41.09731 197.000
41.11726 197.000
41.13721 197.000
41.15715 206.000
41.17710 193.000
41.19705 191.000
41.21700 201.000
41.23694 180.000
41.25689 206.000
41.27684 192.000
41.29678 173.000
41.31673 198.000
41.33668 201.000
41.35662 185.000
41.37657 179.000
41.39652 172.000
41.41646 178.000
41.43641 190.000
41.45636 205.000
41.47631 172.000
41.49625 164.000
41.51620 199.000
41.53615 179.000
41.55609 198.000
41.57604 194.000
41.59599 193.000
41.61593 187.000
41.63588 192.000
41.65583 187.000
41.67578 181.000
41.69572 171.000
41.71567 176.000
41.73562 187.000
41.75556 191.000
41.77551 188.000
41.79546 195.000
41.81540 211.000
41.83535 206.000
41.85530 169.000
41.87524 185.000
41.89519 189.000
41.91514 176.000
41.93509 207.000
41.95503 194.000
41.97498 188.000
41.99493 197.000
42.01487 190.000
42.03482 210.000
42.05477 170.000
42.07471 177.000
42.09466 166.000
42.11461 177.000
42.13456 185.000
42.15450 191.000
42.17445 195.000
42.19440 182.000
42.21434 178.000
42.23429 168.000
42.25424 212.000
42.27418 193.000
42.29413 202.000
42.31408 213.000
42.33403 195.000
42.35397 213.000
42.37392 184.000
42.39387 212.000
42.41381 190.000
42.43376 222.000
42.45371 217.000
42.47365 238.000
42.49360 223.000
42.51355 210.000
42.53349 207.000
42.55344 206.000
42.57339 226.000
42.59334 226.000
42.61328 220.000
42.63323 233.000
42.65318 242.000
42.67312 252.000
42.69307 233.000
42.71302 229.000
42.73296 275.000
42.75291 252.000
42.77286 262.000
42.79281 261.000
42.81275 303.000
42.83270 314.000
42.85265 329.000
42.87259 316.000
42.89254 321.000
42.91249 437.000
42.93243 417.000
42.95238 496.000
42.97233 571.000
42.99227 595.000
43.01222 717.000
43.03217 834.000
43.05212 900.000
43.07206 1073.000
43.09201 1181.000
43.11196 1350.000
43.13190 1539.000
43.15185 1486.000
43.17180 1653.000
43.19174 1586.000
43.21169 1717.000
43.23164 1529.000
43.25159 1451.000
43.27153 1397.000
43.29148 1326.000
43.31143 1277.000
43.33137 1174.000
43.35132 1091.000
43.37127 1036.000
43.39121 982.000
43.41116 949.000
43.43111 968.000
43.45105 960.000
43.47100 976.000
43.49095 1024.000
43.51090 967.000
43.53084 948.000
43.55079 856.000
43.57074 780.000
43.59068 797.000
43.61063 628.000
43.63058 588.000
43.65052 566.000
43.67047 510.000
43.69042 471.000
43.71037 371.000
43.73031 304.000
43.75026 353.000
43.77021 280.000
43.79015 292.000
43.81010 286.000
43.83005 286.000
43.84999 258.000
43.86994 259.000
43.88989 243.000
43.90984 236.000
43.92978 237.000
43.94973 234.000
43.96968 246.000
43.98962 214.000
44.00957 199.000
44.02952 237.000
44.04946 207.000
44.06941 241.000
44.08936 213.000
44.10930 217.000
44.12925 191.000
44.14920 214.000
44.16915 202.000
44.18909 207.000
44.20904 209.000
44.22899 202.000
44.24893 188.000
44.26888 205.000
44.28883 213.000
44.30877 195.000
44.32872 199.000
44.34867 191.000
44.36862 186.000
44.38856 202.000
44.40851 194.000
44.42846 178.000
44.44840 189.000
44.46835 202.000
44.48830 205.000
44.50824 216.000
44.52819 166.000
44.54814 190.000
44.56808 182.000
44.58803 206.000
44.60798 199.000
44.62793 187.000
44.64787 204.000
44.66782 181.000
44.68777 189.000
44.70771 204.000
44.72766 191.000
44.74761 181.000
44.76755 224.000
44.78750 203.000
44.80745 159.000
44.82740 187.000
44.84734 216.000
44.86729 182.000
44.88724 219.000
44.90718 183.000
44.92713 189.000
44.94708 190.000
44.96702 175.000
44.98697 187.000
45.00692 188.000
45.02686 165.000
45.04681 170.000
45.06676 182.000
45.08671 194.000
45.10665 187.000
45.12660 199.000
45.14655 190.000
45.16649 198.000
45.18644 196.000
45.20639 183.000
45.22633 171.000
45.24628 178.000
45.26623 180.000
45.28618 186.000
45.30612 192.000
45.32607 196.000
45.34602 168.000
45.36596 188.000
45.38591 196.000
45.40586 172.000
45.42580 186.000
45.44575 176.000
45.46570 181.000
45.48565 202.000
45.50559 193.000
45.52554 172.000
45.54549 192.000
45.56543 156.000
45.58538 188.000
45.60533 174.000
45.62527 191.000
45.64522 174.000
45.66517 194.000
45.68511 193.000
45.70506 186.000
45.72501 166.000
45.74496 202.000
45.76490 171.000
45.78485 184.000
45.80480 149.000
45.82474 189.000
45.84469 195.000
45.86464 216.000
45.88458 176.000
45.90453 176.000
45.92448 194.000
45.94443 205.000
45.96437 175.000
45.98432 188.000
46.00427 202.000
46.02421 185.000
46.04416 168.000
46.06411 183.000
46.08405 170.000
46.10400 193.000
46.12395 161.000
46.14389 175.000
46.16384 188.000
46.18379 178.000
46.20374 190.000
46.22368 160.000
46.24363 194.000
46.26358 173.000
46.28352 176.000
46.30347 180.000
46.32342 157.000
46.34336 198.000
46.36331 169.000
46.38326 187.000
46.40321 201.000
46.42315 185.000
46.44310 169.000
46.46305 200.000
46.48299 199.000
46.50294 163.000
46.52289 176.000
46.54283 180.000
46.56278 187.000
46.58273 186.000
46.60267 160.000
46.62262 184.000
46.64257 189.000
46.66252 174.000
46.68246 195.000
46.70241 178.000
46.72236 185.000
46.74230 176.000
46.76225 188.000
46.78220 165.000
46.80214 171.000
46.82209 197.000
46.84204 191.000
46.86199 188.000
46.88193 178.000
46.90188 208.000
46.92183 194.000
46.94177 201.000
46.96172 206.000
46.98167 187.000
47.00161 200.000
47.02156 209.000
47.04151 178.000
47.06146 171.000
47.08140 182.000
47.10135 184.000
47.12130 178.000
47.14124 185.000
47.16119 174.000
47.18114 183.000
47.20108 163.000
47.22103 167.000
47.24098 183.000
47.26092 185.000
47.28087 181.000
47.30082 190.000
47.32077 178.000
47.34071 182.000
47.36066 196.000
47.38061 184.000
47.40055 176.000
47.42050 193.000
47.44045 180.000
47.46039 204.000
47.48034 183.000
47.50029 179.000
47.52024 194.000
47.54018 197.000
47.56013 203.000
47.58008 180.000
47.60002 183.000
47.61997 165.000
47.63992 169.000
47.65986 199.000
47.67981 200.000
47.69976 196.000
47.71970 209.000
47.73965 201.000
47.75960 177.000
47.77955 201.000
47.79949 225.000
47.81944 178.000
47.83939 151.000
47.85933 197.000
47.87928 192.000
47.89923 198.000
47.91917 212.000
47.93912 183.000
47.95907 183.000
47.97902 191.000
47.99896 192.000
48.01891 225.000
48.03886 198.000
48.05880 225.000
48.07875 226.000
48.09870 208.000
48.11864 222.000
48.13859 199.000
48.15854 196.000
48.17848 204.000
48.19843 186.000
48.21838 252.000
48.23833 228.000
48.25827 245.000
48.27822 249.000
48.29817 228.000
48.31811 232.000
48.33806 229.000
48.35801 255.000
48.37795 268.000
48.39790 260.000
48.41785 259.000
48.43780 294.000
48.45774 268.000
48.47769 258.000
48.49764 325.000
48.51758 354.000
48.53753 351.000
48.55748 396.000
48.57742 380.000
48.59737 413.000
48.61732 476.000
48.63726 541.000
48.65721 600.000
48.67716 693.000
48.69711 831.000
48.71705 985.000
48.73700 1139.000
48.75695 1294.000
48.77689 1387.000
48.79684 1424.000
48.81679 1406.000
48.83673 1284.000
48.85668 1258.000
48.87663 1171.000
48.89658 1138.000
48.91652 1055.000
48.93647 935.000
48.95642 796.000
48.97636 775.000
48.99631 683.000
49.01626 565.000
49.03620 574.000
49.05615 473.000
49.07610 394.000
49.09605 349.000
49.11599 305.000
49.13594 320.000
49.15589 328.000
49.17583 282.000
49.19578 273.000
49.21573 270.000
49.23567 319.000
49.25562 257.000
49.27557 250.000
49.29551 245.000
49.31546 217.000
49.33541 229.000
49.35536 227.000
49.37530 205.000
49.39525 237.000
49.41520 218.000
49.43514 221.000
49.45509 220.000
49.47504 200.000
49.49498 199.000
49.51493 202.000
49.53488 208.000
49.55483 208.000
49.57477 219.000
49.59472 198.000
49.61467 207.000
49.63461 178.000
49.65456 202.000
49.67451 201.000
49.69445 175.000
49.71440 220.000
49.73435 187.000
49.75429 196.000
49.77424 184.000
49.79419 185.000
49.81414 192.000
49.83408 182.000
49.85403 210.000
49.87398 202.000
49.89392 211.000
49.91387 207.000
49.93382 170.000
49.95376 192.000
49.97371 189.000
49.99366 191.000
50.01361 188.000
50.03355 189.000
50.05350 165.000
50.07345 183.000
50.09339 190.000
50.11334 192.000
50.13329 174.000
50.15323 193.000
50.17318 199.000
50.19313 199.000
50.21307 174.000
50.23302 197.000
50.25297 180.000
50.27292 167.000
50.29286 179.000
50.31281 160.000
50.33276 186.000
50.35270 172.000
50.37265 185.000
50.39260 164.000
50.41254 187.000
50.43249 180.000
50.45244 207.000
50.47239 180.000
50.49233 178.000
50.51228 177.000
50.53223 207.000
50.55217 193.000
50.57212 201.000
50.59207 181.000
50.61201 185.000
50.63196 165.000
50.65191 186.000
50.67186 178.000
50.69180 190.000
50.71175 186.000
50.73170 173.000
50.75164 180.000
50.77159 178.000
50.79154 201.000
50.81148 199.000
50.83143 178.000
50.85138 181.000
50.87132 195.000
50.89127 170.000
50.91122 177.000
50.93117 166.000
50.95111 162.000
50.97106 184.000
50.99101 185.000
51.01095 164.000
51.03090 202.000
51.05085 163.000
51.07079 194.000
51.09074 165.000
51.11069 175.000
51.13064 155.000
51.15058 194.000
51.17053 185.000
51.19048 174.000
51.21042 202.000
51.23037 163.000
51.25032 181.000
51.27026 165.000
51.29021 178.000
51.31016 201.000
51.33010 181.000
51.35005 181.000
51.37000 191.000
51.38995 192.000
51.40989 180.000
51.42984 168.000
51.44979 175.000
51.46973 178.000
51.48968 164.000
51.50963 187.000
51.52957 164.000
51.54952 182.000
51.56947 175.000
51.58942 162.000
51.60936 152.000
51.62931 165.000
51.64926 185.000
51.66920 177.000
51.68915 161.000
51.70910 184.000
51.72904 189.000
51.74899 172.000
51.76894 174.000
51.78888 176.000
51.80883 185.000
51.82878 174.000
51.84873 201.000
51.86867 173.000
51.88862 196.000
51.90857 165.000
51.92851 188.000
51.94846 180.000
51.96841 202.000
51.98835 176.000
52.00830 164.000
52.02825 185.000
52.04820 188.000
52.06814 195.000
52.08809 169.000
52.10804 189.000
52.12798 168.000
52.14793 163.000
52.16788 163.000
52.18782 207.000
52.20777 164.000
52.22772 178.000
52.24767 190.000
52.26761 183.000
52.28756 184.000
52.30751 188.000
52.32745 186.000
52.34740 174.000
52.36735 178.000
52.38729 143.000
52.40724 199.000
52.42719 145.000
52.44713 172.000
52.46708 160.000
52.48703 178.000
52.50698 165.000
52.52692 186.000
52.54687 189.000
52.56682 164.000
52.58676 195.000
52.60671 160.000
52.62666 186.000
52.64660 178.000
52.66655 169.000
52.68650 205.000
52.70645 176.000
52.72639 170.000
52.74634 208.000
52.76629 170.000
52.78623 201.000
52.80618 171.000
52.82613 184.000
52.84607 199.000
52.86602 185.000
52.88597 181.000
52.90591 173.000
52.92586 180.000
52.94581 165.000
52.96576 196.000
52.98570 165.000
53.00565 149.000
53.02560 188.000
53.04554 154.000
53.06549 165.000
53.08544 200.000
53.10538 195.000
53.12533 183.000
53.14528 188.000
53.16523 182.000
53.18517 206.000
53.20512 163.000
53.22507 193.000
53.24501 194.000
53.26496 157.000
53.28491 172.000
53.30485 196.000
53.32480 187.000
53.34475 181.000
53.36469 193.000
53.38464 199.000
53.40459 214.000
53.42454 209.000
53.44448 190.000
53.46443 186.000
53.48438 174.000
53.50432 201.000
53.52427 193.000
53.54422 205.000
53.56416 189.000
53.58411 175.000
53.60406 168.000
53.62401 184.000
53.64395 212.000
53.66390 205.000
53.68385 169.000
53.70379 204.000
53.72374 208.000
53.74369 225.000
53.76363 245.000
53.78358 235.000
53.80353 257.000
53.82348 205.000
53.84342 256.000
53.86337 226.000
53.88332 238.000
53.90326 253.000
53.92321 240.000
53.94316 246.000
53.96310 227.000
53.98305 249.000
54.00300 241.000
54.02294 196.000
54.04289 195.000
54.06284 197.000
54.08279 225.000
54.10273 192.000
54.12268 208.000
54.14263 166.000
54.16257 202.000
54.18252 203.000
54.20247 189.000
54.22241 178.000
54.24236 178.000
54.26231 185.000
54.28226 196.000
54.30220 188.000
54.32215 176.000
54.34210 169.000
54.36204 189.000
54.38199 159.000
54.40194 171.000
54.42188 186.000
54.44183 191.000
54.46178 157.000
54.48172 190.000
54.50167 178.000
54.52162 202.000
54.54157 171.000
54.56151 161.000
54.58146 205.000
54.60141 161.000
54.62135 186.000
54.64130 166.000
54.66125 168.000
54.68119 174.000
54.70114 188.000
54.72109 176.000
54.74104 165.000
54.76098 165.000
54.78093 170.000
54.80088 154.000
54.82082 167.000
54.84077 176.000
54.86072 167.000
54.88066 163.000
54.90061 185.000
54.92056 167.000
54.94050 161.000
54.96045 192.000
54.98040 178.000
55.00035 182.000
55.02029 176.000
55.04024 198.000
55.06019 172.000
55.08013 180.000
55.10008 169.000
55.12003 143.000
55.13997 178.000
55.15992 150.000
55.17987 172.000
55.19982 197.000
55.21976 181.000
55.23971 188.000
55.25966 180.000
55.27960 145.000
55.29955 163.000
55.31950 176.000
55.33944 161.000
55.35939 141.000
55.37934 165.000
55.39929 171.000
55.41923 188.000
55.43918 182.000
55.45913 187.000
55.47907 165.000
55.49902 190.000
55.51897 193.000
55.53891 162.000
55.55886 189.000
55.57881 180.000
55.59875 180.000
55.61870 195.000
55.63865 168.000
55.65860 160.000
55.67854 159.000
55.69849 148.000
55.71844 182.000
55.73838 188.000
55.75833 164.000
55.77828 179.000
55.79822 167.000
55.81817 158.000
55.83812 169.000
55.85807 180.000
55.87801 184.000
55.89796 187.000
55.91791 184.000
55.93785 176.000
55.95780 179.000
55.97775 190.000
55.99769 153.000
56.01764 154.000
56.03759 191.000
56.05753 174.000
56.07748 155.000
56.09743 168.000
56.11738 163.000
56.13732 170.000
56.15727 173.000
56.17722 182.000
56.19716 177.000
56.21711 194.000
56.23706 184.000
56.25700 207.000
56.27695 202.000
56.29690 185.000
56.31685 176.000
56.33679 189.000
56.35674 179.000
56.37669 172.000
56.39663 188.000
56.41658 166.000
56.43653 173.000
56.45647 168.000
56.47642 158.000
56.49637 197.000
56.51631 184.000
56.53626 146.000
56.55621 187.000
56.57616 184.000
56.59610 202.000
56.61605 185.000
56.63600 158.000
56.65594 183.000
56.67589 159.000
56.69584 194.000
56.71578 170.000
56.73573 183.000
56.75568 185.000
56.77563 173.000
56.79557 184.000
56.81552 155.000
56.83547 175.000
56.85541 197.000
56.87536 176.000
56.89531 172.000
56.91525 188.000
56.93520 186.000
56.95515 210.000
56.97510 172.000
56.99504 184.000
57.01499 188.000
57.03494 209.000
57.05488 191.000
57.07483 191.000
57.09478 185.000
57.11472 178.000
57.13467 203.000
57.15462 206.000
57.17456 200.000
57.19451 216.000
57.21446 236.000
57.23441 226.000
57.25435 262.000
57.27430 259.000
57.29425 324.000
57.31419 329.000
57.33414 359.000
57.35409 318.000
57.37403 379.000
57.39398 395.000
57.41393 368.000
57.43388 382.000
57.45382 407.000
57.47377 404.000
57.49372 381.000
57.51366 386.000
57.53361 357.000
57.55356 355.000
57.57350 307.000
57.59345 307.000
57.61340 293.000
57.63334 284.000
57.65329 284.000
57.67324 268.000
57.69319 247.000
57.71313 237.000
57.73308 203.000
57.75303 222.000
57.77297 228.000
57.79292 198.000
57.81287 187.000
57.83281 211.000
57.85276 188.000
57.87271 240.000
57.89266 188.000
57.91260 208.000
57.93255 183.000
57.95250 176.000
57.97244 191.000
57.99239 185.000
58.01234 187.000
58.03228 178.000
58.05223 196.000
58.07218 210.000
58.09212 201.000
58.11207 183.000
58.13202 182.000
58.15197 176.000
58.17191 178.000
58.19186 237.000
58.21181 190.000
58.23175 227.000
58.25170 183.000
58.27165 210.000
58.29159 205.000
58.31154 182.000
58.33149 188.000
58.35144 197.000
58.37138 196.000
58.39133 197.000
58.41128 181.000
58.43122 174.000
58.45117 209.000
58.47112 189.000
58.49106 195.000
58.51101 185.000
58.53096 160.000
58.55090 183.000
58.57085 180.000
58.59080 184.000
58.61075 185.000
58.63069 168.000
58.65064 136.000
58.67059 206.000
58.69053 152.000
58.71048 176.000
58.73043 170.000
58.75037 174.000
58.77032 151.000
58.79027 189.000
58.81022 190.000
58.83016 187.000
58.85011 204.000
58.87006 181.000
58.89000 164.000
58.90995 181.000
58.92990 189.000
58.94984 172.000
58.96979 181.000
58.98974 177.000
59.00969 171.000
59.02963 166.000
59.04958 175.000
59.06953 172.000
59.08947 197.000
59.10942 195.000
59.12937 181.000
59.14931 178.000
59.16926 159.000
59.18921 172.000
59.20915 172.000
59.22910 166.000
59.24905 196.000
59.26900 189.000
59.28894 168.000
59.30889 178.000
59.32884 176.000
59.34878 198.000
59.36873 181.000
59.38868 172.000
59.40862 179.000
59.42857 188.000
59.44852 177.000
59.46847 188.000
59.48841 180.000
59.50836 216.000
59.52831 166.000
59.54825 194.000
59.56820 173.000
59.58815 180.000
59.60809 178.000
59.62804 195.000
59.64799 142.000
59.66793 171.000
59.68788 180.000
59.70783 156.000
59.72778 202.000
59.74772 176.000
59.76767 194.000
59.78762 167.000
59.80756 189.000
59.82751 197.000
59.84746 153.000
59.86740 202.000
59.88735 215.000
59.90730 181.000
59.92725 174.000
59.94719 191.000
59.96714 194.000
59.98709 173.000
60.00703 205.000
60.02698 184.000
60.04693 187.000
60.06687 174.000
60.08682 180.000
60.10677 182.000
60.12671 173.000
60.14666 181.000
60.16661 174.000
60.18656 186.000
60.20650 159.000
60.22645 190.000
60.24640 178.000
60.26634 184.000
60.28629 168.000
60.30624 186.000
60.32618 186.000
60.34613 164.000
60.36608 180.000
60.38603 195.000
60.40597 209.000
60.42592 183.000
60.44587 181.000
60.46581 178.000
60.48576 193.000
60.50571 211.000
60.52565 176.000
60.54560 178.000
60.56555 178.000
60.58550 186.000
60.60544 181.000
60.62539 189.000
60.64534 181.000
60.66528 176.000
60.68523 185.000
60.70518 192.000
60.72512 194.000
60.74507 190.000
60.76502 188.000
60.78496 195.000
60.80491 193.000
60.82486 179.000
60.84481 190.000
60.86475 214.000
60.88470 175.000
60.90465 190.000
60.92459 194.000
60.94454 172.000
60.96449 188.000
60.98443 185.000
61.00438 166.000
61.02433 192.000
61.04428 192.000
61.06422 182.000
61.08417 201.000
61.10412 198.000
61.12406 208.000
61.14401 204.000
61.16396 217.000
61.18390 197.000
61.20385 199.000
61.22380 220.000
61.24374 209.000
61.26369 194.000
61.28364 181.000
61.30359 186.000
61.32353 204.000
61.34348 210.000
61.36343 214.000
61.38337 216.000
61.40332 211.000
61.42327 219.000
61.44321 214.000
61.46316 237.000
61.48311 193.000
61.50306 230.000
61.52300 245.000
61.54295 245.000
61.56290 231.000
61.58284 271.000
61.60279 287.000
61.62274 227.000
61.64268 257.000
61.66263 233.000
61.68258 260.000
61.70252 248.000
61.72247 236.000
61.74242 263.000
61.76237 289.000
61.78231 299.000
61.80226 257.000
61.82221 309.000
61.84215 283.000
61.86210 357.000
61.88205 340.000
61.90199 348.000
61.92194 400.000
61.94189 406.000
61.96184 521.000
61.98178 490.000
62.00173 603.000
62.02168 576.000
62.04162 685.000
62.06157 663.000
62.08152 612.000
62.10146 624.000
62.12141 598.000
62.14136 544.000
62.16131 551.000
62.18125 504.000
62.20120 506.000
62.22115 498.000
62.24109 500.000
62.26104 457.000
62.28099 425.000
62.30093 430.000
62.32088 400.000
62.34083 363.000
62.36077 319.000
62.38072 383.000
62.40067 391.000
62.42062 369.000
62.44056 352.000
62.46051 382.000
62.48046 406.000
62.50040 456.000
62.52035 473.000
62.54030 512.000
62.56024 597.000
62.58019 649.000
62.60014 684.000
62.62009 713.000
62.64003 785.000
62.65998 815.000
62.67993 809.000
62.69987 804.000
62.71982 783.000
62.73977 760.000
62.75971 815.000
62.77966 718.000
62.79961 708.000
62.81955 686.000
62.83950 754.000
62.85945 635.000
62.87940 639.000
62.89934 637.000
62.91929 612.000
62.93924 573.000
62.95918 590.000
62.97913 625.000
62.99908 605.000
63.01902 603.000
63.03897 534.000
63.05892 519.000
63.07887 485.000
63.09881 476.000
63.11876 520.000
63.13871 464.000
63.15865 451.000
63.17860 466.000
63.19855 437.000
63.21849 407.000
63.23844 426.000
63.25839 342.000
63.27833 321.000
63.29828 346.000
63.31823 313.000
63.33818 342.000
63.35812 285.000
63.37807 288.000
63.39802 268.000
63.41796 239.000
63.43791 243.000
63.45786 225.000
63.47780 218.000
63.49775 233.000
63.51770 212.000
63.53765 230.000
63.55759 208.000
63.57754 216.000
63.59749 183.000
63.61743 205.000
63.63738 204.000
63.65733 204.000
63.67727 210.000
63.69722 204.000
63.71717 219.000
63.73712 210.000
63.75706 177.000
63.77701 221.000
63.79696 216.000
63.81690 214.000
63.83685 195.000
63.85680 200.000
63.87674 238.000
63.89669 210.000
63.91664 227.000
63.93658 222.000
63.95653 211.000
63.97648 233.000
63.99643 200.000
64.01637 243.000
64.03632 228.000
64.05627 233.000
64.07621 264.000
64.09616 249.000
64.11611 252.000
64.13605 270.000
64.15600 301.000
64.17595 298.000
64.19590 342.000
64.21584 356.000
64.23579 336.000
64.25574 391.000
64.27568 412.000
64.29563 409.000
64.31558 430.000
64.33552 413.000
64.35547 468.000
64.37542 510.000
64.39536 523.000
64.41531 522.000
64.43526 510.000
64.45521 500.000
64.47515 468.000
64.49510 516.000
64.51505 433.000
64.53499 426.000
64.55494 409.000
64.57489 419.000
64.59483 399.000
64.61478 396.000
64.63473 377.000
64.65468 300.000
64.67462 354.000
64.69457 306.000
64.71452 268.000
64.73446 281.000
64.75441 232.000
64.77436 286.000
64.79430 230.000
64.81425 214.000
64.83420 234.000
64.85414 218.000
64.87409 236.000
64.89404 211.000
64.91399 209.000
64.93393 206.000
64.95388 226.000
64.97383 209.000
64.99377 239.000
65.01372 216.000
65.03367 187.000
65.05361 174.000
65.07356 213.000
65.09351 188.000
65.11346 206.000
65.13340 213.000
65.15335 192.000
65.17330 181.000
65.19324 192.000
65.21319 199.000
65.23314 200.000
65.25308 191.000
65.27303 196.000
65.29298 207.000
65.31293 184.000
65.33287 213.000
65.35282 194.000
65.37277 207.000
65.39271 195.000
65.41266 192.000
65.43261 205.000
65.45255 189.000
65.47250 192.000
65.49245 195.000
65.51239 209.000
65.53234 222.000
65.55229 203.000
65.57224 212.000
65.59218 198.000
65.61213 213.000
65.63208 173.000
65.65202 199.000
65.67197 198.000
65.69192 207.000
65.71186 188.000
65.73181 180.000
65.75176 192.000
65.77171 210.000
65.79165 204.000
65.81160 188.000
65.83155 195.000
65.85149 193.000
65.87144 205.000
65.89139 226.000
65.91133 206.000
65.93128 193.000
65.95123 167.000
65.97117 195.000
65.99112 199.000
66.01107 207.000
66.03102 175.000
66.05096 211.000
66.07091 200.000
66.09086 223.000
66.11080 186.000
66.13075 211.000
66.15070 225.000
66.17064 203.000
66.19059 223.000
66.21054 194.000
66.23049 218.000
66.25043 215.000
66.27038 238.000
66.29033 257.000
66.31027 242.000
66.33022 224.000
66.35017 231.000
66.37011 244.000
66.39006 232.000
66.41001 263.000
66.42995 257.000
66.44990 262.000
66.46985 284.000
66.48980 260.000
66.50974 238.000
66.52969 270.000
66.54964 269.000
66.56958 288.000
66.58953 304.000
66.60948 311.000
66.62942 313.000
66.64937 310.000
66.66932 340.000
66.68927 325.000
66.70921 363.000
66.72916 385.000
66.74911 399.000
66.76905 425.000
66.78900 424.000
66.80895 427.000
66.82889 431.000
66.84884 442.000
66.86879 384.000
66.88874 401.000
66.90868 411.000
66.92863 387.000
66.94858 409.000
66.96852 393.000
66.98847 358.000
67.00842 396.000
67.02836 349.000
67.04831 359.000
67.06826 320.000
67.08820 273.000
67.10815 267.000
67.12810 298.000
67.14805 285.000
67.16799 272.000
67.18794 239.000
67.20789 227.000
67.22783 232.000
67.24778 234.000
67.26773 196.000
67.28767 207.000
67.30762 216.000
67.32757 207.000
67.34752 206.000
67.36746 203.000
67.38741 192.000
67.40736 208.000
67.42730 184.000
67.44725 174.000
67.46720 188.000
67.48714 189.000
67.50709 208.000
67.52704 168.000
67.54698 187.000
67.56693 195.000
67.58688 173.000
67.60683 199.000
67.62677 182.000
67.64672 182.000
67.66667 196.000
67.68661 200.000
67.70656 182.000
67.72651 218.000
67.74645 176.000
67.76640 165.000
67.78635 195.000
67.80630 193.000
67.82624 209.000
67.84619 181.000
67.86614 183.000
67.88608 202.000
67.90603 203.000
67.92598 200.000
67.94592 204.000
67.96587 194.000
67.98582 199.000
68.00576 203.000
68.02571 205.000
68.04566 201.000
68.06561 211.000
68.08555 187.000
68.10550 231.000
68.12545 201.000
68.14539 206.000
68.16534 198.000
68.18529 187.000
68.20523 186.000
68.22518 195.000
68.24513 205.000
68.26508 182.000
68.28502 206.000
68.30497 191.000
68.32492 213.000
68.34486 188.000
68.36481 224.000
68.38476 195.000
68.40470 211.000
68.42465 185.000
68.44460 176.000
68.46455 193.000
68.48449 160.000
68.50444 166.000
68.52439 206.000
68.54433 171.000
68.56428 187.000
68.58423 194.000
68.60417 177.000
68.62412 195.000
68.64407 175.000
68.66401 173.000
68.68396 188.000
68.70391 187.000
68.72386 166.000
68.74380 186.000
68.76375 175.000
68.78370 174.000
68.80364 186.000
68.82359 184.000
68.84354 170.000
68.86348 176.000
68.88343 186.000
68.90338 194.000
68.92333 174.000
68.94327 171.000
68.96322 160.000
68.98317 197.000
69.00311 200.000
69.02306 169.000
69.04301 167.000
69.06295 190.000
69.08290 169.000
69.10285 188.000
69.12279 178.000
69.14274 178.000
69.16269 165.000
69.18264 177.000
69.20258 168.000
69.22253 183.000
69.24248 181.000
69.26242 180.000
69.28237 176.000
69.30232 185.000
69.32226 159.000
69.34221 187.000
69.36216 202.000
69.38211 156.000
69.40205 179.000
69.42200 181.000
69.44195 175.000
69.46189 163.000
69.48184 148.000
69.50179 193.000
69.52173 174.000
69.54168 168.000
69.56163 168.000
69.58157 189.000
69.60152 191.000
69.62147 182.000
69.64142 190.000
69.66136 211.000
69.68131 182.000
69.70126 179.000
69.72120 164.000
69.74115 176.000
69.76110 149.000
69.78104 162.000
69.80099 185.000
69.82094 191.000
69.84089 183.000
69.86083 186.000
69.88078 182.000
69.90073 198.000
69.92067 171.000
69.94062 192.000
69.96057 185.000
69.98051 171.000
70.00046 185.000
70.02041 190.000
70.04035 190.000
70.06030 203.000
70.08025 185.000
70.10020 184.000
70.12014 172.000
70.14009 184.000
70.16004 164.000
70.17998 180.000
70.19993 168.000
70.21988 177.000
70.23982 164.000
70.25977 174.000
70.27972 173.000
70.29967 178.000
70.31961 181.000
70.33956 167.000
70.35951 170.000
70.37945 199.000
70.39940 186.000
70.41935 179.000
70.43929 170.000
70.45924 197.000
70.47919 168.000
70.49914 161.000
70.51908 180.000
70.53903 182.000
70.55898 197.000
70.57892 184.000
70.59887 192.000
70.61882 198.000
70.63876 149.000
70.65871 146.000
70.67866 179.000
70.69860 169.000
70.71855 180.000
70.73850 159.000
70.75845 174.000
70.77839 172.000
70.79834 154.000
70.81829 182.000
70.83823 197.000
70.85818 165.000
70.87813 143.000
70.89807 188.000
70.91802 180.000
70.93797 161.000
70.95792 172.000
70.97786 194.000
70.99781 171.000
71.01776 189.000
71.03770 174.000
71.05765 171.000
71.07760 197.000
71.09754 183.000
71.11749 193.000
71.13744 147.000
71.15738 175.000
71.17733 178.000
71.19728 148.000
71.21723 183.000
71.23717 185.000
71.25712 174.000
71.27707 176.000
71.29701 170.000
71.31696 176.000
71.33691 173.000
71.35685 180.000
71.37680 200.000
71.39675 198.000
71.41670 172.000
71.43664 207.000
71.45659 192.000
71.47654 205.000
71.49648 178.000
71.51643 189.000
71.53638 190.000
71.55632 193.000
71.57627 196.000
71.59622 183.000
71.61616 201.000
71.63611 177.000
71.65606 190.000
71.67601 196.000
71.69595 177.000
71.71590 201.000
71.73585 188.000
71.75579 198.000
71.77574 158.000
71.79569 194.000
71.81563 180.000
71.83558 224.000
71.85553 168.000
71.87548 167.000
71.89542 160.000
71.91537 198.000
71.93532 164.000
71.95526 186.000
71.97521 185.000
71.99516 176.000
72.01510 177.000
72.03505 171.000
72.05500 184.000
72.07495 187.000
72.09489 154.000
72.11484 174.000
72.13479 188.000
72.15473 187.000
72.17468 162.000
72.19463 146.000
72.21457 165.000
72.23452 188.000
72.25447 173.000
72.27441 176.000
72.29436 191.000
72.31431 167.000
72.33426 198.000
72.35420 205.000
72.37415 179.000
72.39410 176.000
72.41404 185.000
72.43399 193.000
72.45394 161.000
72.47388 198.000
72.49383 185.000
72.51378 169.000
72.53373 189.000
72.55367 181.000
72.57362 195.000
72.59357 184.000
72.61351 207.000
72.63346 211.000
72.65341 154.000
72.67335 169.000
72.69330 197.000
72.71325 197.000
72.73319 182.000
72.75314 186.000
72.77309 176.000
72.79304 175.000
72.81298 189.000
72.83293 177.000
72.85288 184.000
72.87282 175.000
72.89277 200.000
72.91272 165.000
72.93266 189.000
72.95261 184.000
72.97256 165.000
72.99251 178.000
73.01245 167.000
73.03240 184.000
73.05235 191.000
73.07229 178.000
73.09224 168.000
73.11219 201.000
73.13213 191.000
73.15208 162.000
73.17203 180.000
73.19197 177.000
73.21192 153.000
73.23187 215.000
73.25182 188.000
73.27176 188.000
73.29171 177.000
73.31166 194.000
73.33160 187.000
73.35155 219.000
73.37150 221.000
73.39144 182.000
73.41139 182.000
73.43134 182.000
73.45129 199.000
73.47123 226.000
73.49118 198.000
73.51113 212.000
73.53107 217.000
73.55102 223.000
73.57097 234.000
73.59091 251.000
73.61086 231.000
73.63081 240.000
73.65076 265.000
73.67070 256.000
73.69065 263.000
73.71060 273.000
73.73054 260.000
73.75049 258.000
73.77044 257.000
73.79038 275.000
73.81033 264.000
73.83028 254.000
73.85022 245.000
73.87017 259.000
73.89012 238.000
73.91007 242.000
73.93001 259.000
73.94996 237.000
73.96991 223.000
73.98985 218.000
74.00980 226.000
74.02975 219.000
74.04969 206.000
74.06964 189.000
74.08959 223.000
74.10954 185.000
74.12948 217.000
74.14943 183.000
74.16938 197.000
74.18932 231.000
74.20927 214.000
74.22922 211.000
74.24916 179.000
74.26911 201.000
74.28906 197.000
74.30900 193.000
74.32895 189.000
74.34890 201.000
74.36885 156.000
74.38879 177.000
74.40874 165.000
74.42869 189.000
74.44863 200.000
74.46858 193.000
74.48853 201.000
74.50847 244.000
74.52842 216.000
74.54837 233.000
74.56832 231.000
74.58826 239.000
74.60821 233.000
74.62816 227.000
74.64810 254.000
74.66805 224.000
74.68800 245.000
74.70794 244.000
74.72789 271.000
74.74784 246.000
74.76778 250.000
74.78773 241.000
74.80768 276.000
74.82763 229.000
74.84757 241.000
74.86752 270.000
74.88747 273.000
74.90741 236.000
74.92736 285.000
74.94731 262.000
74.96725 293.000
74.98720 291.000
75.00715 313.000
75.02710 317.000
75.04704 332.000
75.06699 333.000
75.08694 348.000
75.10688 396.000
75.12683 343.000
75.14678 375.000
75.16672 382.000
75.18667 385.000
75.20662 353.000
75.22657 361.000
75.24651 340.000
75.26646 343.000
75.28641 342.000
75.30635 350.000
75.32630 353.000
75.34625 323.000
75.36619 363.000
75.38614 303.000
75.40609 331.000
75.42603 315.000
75.44598 284.000
75.46593 326.000
75.48588 259.000
75.50582 281.000
75.52577 287.000
75.54572 277.000
75.56566 283.000
75.58561 281.000
75.60556 236.000
75.62550 246.000
75.64545 242.000
75.66540 230.000
75.68535 231.000
75.70529 214.000
75.72524 257.000
75.74519 235.000
75.76513 215.000
75.78508 213.000
75.80503 238.000
75.82497 245.000
75.84492 224.000
75.86487 209.000
75.88481 225.000
75.90476 238.000
75.92471 229.000
75.94466 229.000
75.96460 225.000
75.98455 192.000
76.00450 213.000
76.02444 221.000
76.04439 231.000
76.06434 228.000
76.08428 225.000
76.10423 207.000
76.12418 233.000
76.14413 208.000
76.16407 169.000
76.18402 197.000
76.20397 193.000
76.22391 196.000
76.24386 212.000
76.26381 173.000
76.28375 200.000
76.30370 190.000
76.32365 197.000
76.34359 185.000
76.36354 170.000
76.38349 178.000
76.40344 195.000
76.42338 191.000
76.44333 171.000
76.46328 184.000
76.48322 195.000
76.50317 183.000
76.52312 203.000
76.54306 186.000
76.56301 172.000
76.58296 177.000
76.60291 192.000
76.62285 170.000
76.64280 170.000
76.66275 169.000
76.68269 183.000
76.70264 194.000
76.72259 194.000
76.74253 171.000
76.76248 183.000
76.78243 185.000
76.80238 192.000
76.82232 152.000
76.84227 185.000
76.86222 179.000
76.88216 167.000
76.90211 183.000
76.92206 192.000
76.94200 184.000
76.96195 188.000
76.98190 192.000
77.00184 203.000
77.02179 170.000
77.04174 192.000
77.06169 183.000
77.08163 190.000
77.10158 187.000
77.12153 174.000
77.14147 163.000
77.16142 189.000
77.18137 175.000
77.20131 162.000
77.22126 187.000
77.24121 195.000
77.26116 187.000
77.28110 179.000
77.30105 168.000
77.32100 166.000
77.34094 203.000
77.36089 180.000
77.38084 197.000
77.40078 169.000
77.42073 181.000
77.44068 170.000
77.46062 204.000
77.48057 188.000
77.50052 175.000
77.52047 177.000
77.54041 200.000
77.56036 183.000
77.58031 202.000
77.60025 196.000
77.62020 183.000
77.64015 225.000
77.66009 183.000
77.68004 189.000
77.69999 183.000
77.71994 210.000
77.73988 217.000
77.75983 196.000
77.77978 196.000
77.79972 205.000
77.81967 211.000
77.83962 215.000
77.85956 241.000
77.87951 211.000
77.89946 185.000
77.91940 210.000
77.93935 240.000
77.95930 230.000
77.97925 235.000
77.99919 245.000
78.01914 254.000
78.03909 228.000
78.05903 274.000
78.07898 277.000
78.09893 294.000
78.11887 292.000
78.13882 272.000
78.15877 294.000
78.17872 324.000
78.19866 323.000
78.21861 325.000
78.23856 337.000
78.25850 389.000
78.27845 349.000
78.29840 342.000
78.31834 364.000
78.33829 330.000
78.35824 318.000
78.37819 349.000
78.39813 345.000
78.41808 319.000
78.43803 334.000
78.45797 308.000
78.47792 287.000
78.49787 284.000
78.51781 289.000
78.53776 268.000
78.55771 304.000
78.57765 299.000
78.59760 292.000
78.61755 222.000
78.63750 258.000
78.65744 218.000
78.67739 273.000
78.69734 253.000
78.71728 238.000
78.73723 213.000
78.75718 239.000
78.77712 208.000
78.79707 222.000
78.81702 224.000
78.83697 221.000
78.85691 221.000
78.87686 212.000
78.89681 215.000
78.91675 219.000
78.93670 229.000
78.95665 254.000
78.97659 256.000
78.99654 286.000
79.01649 288.000
79.03643 272.000
79.05638 294.000
79.07633 329.000
79.09628 333.000
79.11622 319.000
79.13617 304.000
79.15612 339.000
79.17606 319.000
79.19601 312.000
79.21596 324.000
79.23590 320.000
79.25585 296.000
79.27580 265.000
79.29575 288.000
79.31569 282.000
79.33564 283.000
79.35559 244.000
79.37553 286.000
79.39548 279.000
79.41543 293.000
79.43537 262.000
79.45532 262.000
79.47527 252.000
79.49521 232.000
79.51516 240.000
79.53511 212.000
79.55506 205.000
79.57500 221.000
79.59495 206.000
79.61490 226.000
79.63484 219.000
79.65479 210.000
79.67474 203.000
79.69468 212.000
79.71463 205.000
79.73458 188.000
79.75453 165.000
79.77447 212.000
79.79442 173.000
79.81437 191.000
79.83431 190.000
79.85426 170.000
79.87421 193.000
79.89415 173.000
79.91410 184.000
79.93405 172.000
79.95399 192.000
79.97394 186.000
79.99389 169.000
80.01384 205.000
80.03378 163.000
80.05373 205.000
80.07368 174.000
80.09362 180.000
80.11357 187.000
80.13352 188.000
80.15346 158.000
80.17341 174.000
80.19336 178.000
80.21331 177.000
80.23325 169.000
80.25320 178.000
80.27315 183.000
80.29309 173.000
80.31304 181.000
80.33299 190.000
80.35293 173.000
80.37288 195.000
80.39283 162.000
80.41278 174.000
80.43272 171.000
80.45267 176.000
80.47262 183.000
80.49256 193.000
80.51251 186.000
80.53246 195.000
80.55240 175.000
80.57235 183.000
80.59230 185.000
80.61224 180.000
80.63219 177.000
80.65214 190.000
80.67209 171.000
80.69203 188.000
80.71198 191.000
80.73193 173.000
80.75187 194.000
80.77182 187.000
80.79177 193.000
80.81171 177.000
80.83166 196.000
80.85161 191.000
80.87156 209.000
80.89150 168.000
80.91145 183.000
80.93140 179.000
80.95134 162.000
80.97129 200.000
80.99124 193.000
81.01118 190.000
81.03113 169.000
81.05108 189.000
81.07102 190.000
81.09097 218.000
81.11092 204.000
81.13087 178.000
81.15081 197.000
81.17076 203.000
81.19071 190.000
81.21065 199.000
81.23060 196.000
81.25055 167.000
81.27049 193.000
81.29044 189.000
81.31039 168.000
81.33034 182.000
81.35028 164.000
81.37023 198.000
81.39018 185.000
81.41012 179.000
81.43007 179.000
81.45002 170.000
81.46996 163.000
81.48991 151.000
81.50986 173.000
81.52980 181.000
81.54975 187.000
81.56970 167.000
81.58965 185.000
81.60959 160.000
81.62954 171.000
81.64949 184.000
81.66943 197.000
81.68938 183.000
81.70933 174.000
81.72927 163.000
81.74922 170.000
81.76917 170.000
81.78912 183.000
81.80906 168.000
81.82901 187.000
81.84896 179.000
81.86890 161.000
81.88885 170.000
81.90880 180.000
81.92874 198.000
81.94869 159.000
81.96864 165.000
81.98859 180.000
82.00853 158.000
82.02848 139.000
82.04843 173.000
82.06837 171.000
82.08832 173.000
82.10827 140.000
82.12821 192.000
82.14816 185.000
82.16811 161.000
82.18805 178.000
82.20800 161.000
82.22795 168.000
82.24790 193.000
82.26784 172.000
82.28779 179.000
82.30774 188.000
82.32768 175.000
82.34763 157.000
82.36758 170.000
82.38752 192.000
82.40747 160.000
82.42742 142.000
82.44737 166.000
82.46731 182.000
82.48726 172.000
82.50721 194.000
82.52715 178.000
82.54710 191.000
82.56705 185.000
82.58699 191.000
82.60694 189.000
82.62689 188.000
82.64683 179.000
82.66678 180.000
82.68673 169.000
82.70668 188.000
82.72662 191.000
82.74657 165.000
82.76652 160.000
82.78646 174.000
82.80641 190.000
82.82636 197.000
82.84630 172.000
82.86625 171.000
82.88620 197.000
82.90615 181.000
82.92609 171.000
82.94604 182.000
82.96599 186.000
82.98593 178.000
83.00588 194.000
83.02583 191.000
83.04577 175.000
83.06572 161.000
83.08567 184.000
83.10561 181.000
83.12556 197.000
83.14551 189.000
83.16546 175.000
83.18540 175.000
83.20535 158.000
83.22530 178.000
83.24524 160.000
83.26519 173.000
83.28514 193.000
83.30508 167.000
83.32503 171.000
83.34498 191.000
83.36493 194.000
83.38487 170.000
83.40482 183.000
83.42477 176.000
83.44471 200.000
83.46466 174.000
83.48461 205.000
83.50455 170.000
83.52450 184.000
83.54445 160.000
83.56440 177.000
83.58434 171.000
83.60429 185.000
83.62424 164.000
83.64418 148.000
83.66413 195.000
83.68408 180.000
83.70402 167.000
83.72397 181.000
83.74392 172.000
83.76386 179.000
83.78381 179.000
83.80376 198.000
83.82371 199.000
83.84365 196.000
83.86360 176.000
83.88355 196.000
83.90349 183.000
83.92344 157.000
83.94339 193.000
83.96333 195.000
83.98328 161.000
84.00323 174.000
84.02318 179.000
84.04312 196.000
84.06307 208.000
84.08302 166.000
84.10296 172.000
84.12291 169.000
84.14286 196.000
84.16280 200.000
84.18275 191.000
84.20270 193.000
84.22264 160.000
84.24259 200.000
84.26254 180.000
84.28249 179.000
84.30243 192.000
84.32238 179.000
84.34233 176.000
84.36227 193.000
84.38222 204.000
84.40217 205.000
84.42211 200.000
84.44206 202.000
84.46201 197.000
84.48196 198.000
84.50190 218.000
84.52185 208.000
84.54180 223.000
84.56174 215.000
84.58169 212.000
84.60164 248.000
84.62158 236.000
84.64153 243.000
84.66148 259.000
84.68142 261.000
84.70137 260.000
84.72132 276.000
84.74127 256.000
84.76121 256.000
84.78116 281.000
84.80111 282.000
84.82105 280.000
84.84100 245.000
84.86095 273.000
84.88089 282.000
84.90084 253.000
84.92079 265.000
84.94074 264.000
84.96068 254.000
84.98063 285.000
85.00058 249.000
85.02052 269.000
85.04047 250.000
85.06042 225.000
85.08036 221.000
85.10031 207.000
85.12026 217.000
85.14021 239.000
85.16015 226.000
85.18010 164.000
85.20005 204.000
85.21999 197.000
85.23994 186.000
85.25989 192.000
85.27983 220.000
85.29978 207.000
85.31973 204.000
85.33967 175.000
85.35962 184.000
85.37957 171.000
85.39952 160.000
85.41946 187.000
85.43941 179.000
85.45936 175.000
85.47930 184.000
85.49925 160.000
85.51920 193.000
85.53914 167.000
85.55909 208.000
85.57904 202.000
85.59899 176.000
85.61893 178.000
85.63888 150.000
85.65883 168.000
85.67877 163.000
85.69872 196.000
85.71867 181.000
85.73861 212.000
85.75856 185.000
85.77851 182.000
85.79845 183.000
85.81840 183.000
85.83835 175.000
85.85830 141.000
85.87824 165.000
85.89819 172.000
85.91814 147.000
85.93808 168.000
85.95803 199.000
85.97798 166.000
85.99792 178.000
86.01787 171.000
86.03782 189.000
86.05777 176.000
86.07771 176.000
86.09766 155.000
86.11761 159.000
86.13755 190.000
86.15750 181.000
86.17745 162.000
86.19739 176.000
86.21734 160.000
86.23729 177.000
86.25723 184.000
86.27718 170.000
86.29713 195.000
86.31708 158.000
86.33702 174.000
86.35697 156.000
86.37692 177.000
86.39686 171.000
86.41681 161.000
86.43676 177.000
86.45670 169.000
86.47665 166.000
86.49660 173.000
86.51655 166.000
86.53649 170.000
86.55644 167.000
86.57639 187.000
86.59633 182.000
86.61628 166.000
86.63623 180.000
86.65617 177.000
86.67612 183.000
86.69607 170.000
86.71602 154.000
86.73596 193.000
86.75591 188.000
86.77586 209.000
86.79580 181.000
86.81575 193.000
86.83570 175.000
86.85564 176.000
86.87559 172.000
86.89554 185.000
86.91548 183.000
86.93543 166.000
86.95538 178.000
86.97533 204.000
86.99527 169.000
87.01522 180.000
87.03517 180.000
87.05511 168.000
87.07506 192.000
87.09501 174.000
87.11495 201.000
87.13490 204.000
87.15485 176.000
87.17480 183.000
87.19474 203.000
87.21469 205.000
87.23464 180.000
87.25458 184.000
87.27453 188.000
87.29448 190.000
87.31442 175.000
87.33437 196.000
87.35432 186.000
87.37426 199.000
87.39421 177.000
87.41416 187.000
87.43411 202.000
87.45405 222.000
87.47400 237.000
87.49395 186.000
87.51389 180.000
87.53384 211.000
87.55379 205.000
87.57373 195.000
87.59368 178.000
87.61363 197.000
87.63358 212.000
87.65352 203.000
87.67347 196.000
87.69342 200.000
87.71336 225.000
87.73331 204.000
87.75326 197.000
87.77320 199.000
87.79315 193.000
87.81310 195.000
87.83304 184.000
87.85299 191.000
87.87294 186.000
87.89289 180.000
87.91283 194.000
87.93278 179.000
87.95273 183.000
87.97267 181.000
87.99262 193.000
88.01257 194.000
88.03251 183.000
88.05246 208.000
88.07241 185.000
88.09236 166.000
88.11230 177.000
88.13225 209.000
88.15220 180.000
88.17214 182.000
88.19209 183.000
88.21204 167.000
88.23198 186.000
88.25193 174.000
88.27188 158.000
88.29183 174.000
88.31177 165.000
88.33172 187.000
88.35167 164.000
88.37161 169.000
88.39156 156.000
88.41151 189.000
88.43145 188.000
88.45140 173.000
88.47135 172.000
88.49129 178.000
88.51124 175.000
88.53119 152.000
88.55114 191.000
88.57108 177.000
88.59103 181.000
88.61098 189.000
88.63092 160.000
88.65087 175.000
88.67082 163.000
88.69076 181.000
88.71071 174.000
88.73066 171.000
88.75061 163.000
88.77055 184.000
88.79050 172.000
88.81045 156.000
88.83039 157.000
88.85034 155.000
88.87029 170.000
88.89023 181.000
88.91018 170.000
88.93013 138.000
88.95007 181.000
88.97002 187.000
88.98997 186.000
89.00992 159.000
89.02986 190.000
89.04981 175.000
89.06976 157.000
89.08970 165.000
89.10965 173.000
89.12960 162.000
89.14954 180.000
89.16949 177.000
89.18944 170.000
89.20939 204.000
89.22933 201.000
89.24928 171.000
89.26923 169.000
89.28917 146.000
89.30912 188.000
89.32907 161.000
89.34901 172.000
89.36896 182.000
89.38891 191.000
89.40885 168.000
89.42880 158.000
89.44875 168.000
89.46870 176.000
89.48864 158.000
89.50859 174.000
89.52854 171.000
89.54848 181.000
89.56843 150.000
89.58838 194.000
89.60832 183.000
89.62827 183.000
89.64822 188.000
89.66817 175.000
89.68811 167.000
89.70806 179.000
89.72801 161.000
89.74795 174.000
89.76790 168.000
89.78785 167.000
89.80779 181.000
89.82774 201.000
89.84769 168.000
89.86764 163.000
89.88758 161.000
89.90753 168.000
89.92748 151.000
89.94742 163.000
89.96737 153.000
89.98732 183.000
90.00726 173.000
