10.00000 116.000
10.01995 141.000
10.03989 136.000
10.05984 134.000
10.07979 133.000
10.09973 143.000
10.11968 149.000
10.13963 142.000
10.15958 140.000
10.17952 141.000
10.19947 135.000
10.21942 152.000
10.23936 137.000
10.25931 136.000
10.27926 146.000
10.29920 139.000
10.31915 148.000
10.33910 152.000
10.35905 127.000
10.37899 131.000
10.39894 143.000
10.41889 136.000
10.43883 146.000
10.45878 154.000
10.47873 153.000
10.49867 137.000
10.51862 153.000
10.53857 145.000
10.55851 163.000
10.57846 146.000
10.59841 161.000
10.61836 178.000
10.63830 157.000
10.65825 135.000
10.67820 155.000
10.69814 149.000
10.71809 165.000
10.73804 161.000
10.75798 169.000
10.77793 139.000
10.79788 131.000
10.81783 146.000
10.83777 140.000
10.85772 149.000
10.87767 164.000
10.89761 151.000
10.91756 138.000
10.93751 117.000
10.95745 168.000
10.97740 155.000
10.99735 156.000
11.01730 153.000
11.03724 164.000
11.05719 152.000
11.07714 136.000
11.09708 137.000
11.11703 146.000
11.13698 142.000
11.15692 164.000
11.17687 152.000
11.19682 133.000
11.21676 154.000
11.23671 161.000
11.25666 156.000
11.27661 157.000
11.29655 167.000
11.31650 149.000
11.33645 139.000
11.35639 135.000
11.37634 135.000
11.39629 155.000
11.41623 152.000
11.43618 165.000
11.45613 147.000
11.47608 169.000
11.49602 165.000
11.51597 192.000
11.53592 147.000
11.55586 149.000
11.57581 160.000
11.59576 152.000
11.61570 169.000
11.63565 147.000
11.65560 165.000
11.67554 183.000
11.69549 158.000
11.71544 144.000
11.73539 130.000
11.75533 180.000
11.77528 161.000
11.79523 141.000
11.81517 161.000
11.83512 164.000
11.85507 190.000
11.87501 163.000
11.89496 153.000
11.91491 141.000
11.93486 151.000
11.95480 131.000
11.97475 154.000
11.99470 164.000
12.01464 171.000
12.03459 165.000
12.05454 155.000
12.07448 149.000
12.09443 148.000
12.11438 165.000
12.13432 157.000
12.15427 155.000
12.17422 165.000
12.19417 161.000
12.21411 153.000
12.23406 168.000
12.25401 156.000
12.27395 161.000
12.29390 170.000
12.31385 149.000
12.33379 172.000
12.35374 156.000
12.37369 191.000
12.39364 173.000
12.41358 168.000
12.43353 168.000
12.45348 167.000
12.47342 163.000
12.49337 155.000
12.51332 167.000
12.53326 157.000
12.55321 157.000
12.57316 163.000
12.59311 160.000
12.61305 172.000
12.63300 167.000
12.65295 168.000
12.67289 176.000
12.69284 160.000
12.71279 155.000
12.73273 160.000
12.75268 173.000
12.77263 179.000
12.79257 165.000
12.81252 154.000
12.83247 176.000
12.85242 188.000
12.87236 157.000
12.89231 179.000
12.91226 168.000
12.93220 197.000
12.95215 188.000
12.97210 171.000
12.99204 175.000
13.01199 154.000
13.03194 169.000
13.05189 149.000
13.07183 158.000
13.09178 164.000
13.11173 154.000
13.13167 167.000
13.15162 174.000
13.17157 170.000
13.19151 194.000
13.21146 177.000
13.23141 171.000
13.25135 173.000
13.27130 163.000
13.29125 166.000
13.31120 152.000
13.33114 169.000
13.35109 180.000
13.37104 168.000
13.39098 177.000
13.41093 161.000
13.43088 177.000
13.45082 178.000
13.47077 170.000
13.49072 163.000
13.51067 155.000
13.53061 170.000
13.55056 177.000
13.57051 163.000
13.59045 184.000
13.61040 178.000
13.63035 157.000
13.65029 177.000
13.67024 185.000
13.69019 165.000
13.71013 196.000
13.73008 184.000
13.75003 156.000
13.76998 180.000
13.78992 184.000
13.80987 195.000
13.82982 185.000
13.84976 180.000
13.86971 214.000
13.88966 177.000
13.90960 165.000
13.92955 176.000
13.94950 181.000
13.96945 201.000
13.98939 171.000
14.00934 159.000
14.02929 208.000
14.04923 207.000
14.06918 194.000
14.08913 191.000
14.10907 181.000
14.12902 168.000
14.14897 201.000
14.16892 188.000
14.18886 238.000
14.20881 187.000
14.22876 199.000
14.24870 172.000
14.26865 187.000
14.28860 186.000
14.30854 179.000
14.32849 190.000
14.34844 176.000
14.36838 169.000
14.38833 170.000
14.40828 172.000
14.42823 191.000
14.44817 194.000
14.46812 179.000
14.48807 171.000
14.50801 183.000
14.52796 186.000
14.54791 185.000
14.56785 200.000
14.58780 183.000
14.60775 184.000
14.62770 222.000
14.64764 188.000
14.66759 181.000
14.68754 174.000
14.70748 199.000
14.72743 197.000
14.74738 177.000
14.76732 183.000
14.78727 180.000
14.80722 203.000
14.82716 200.000
14.84711 204.000
14.86706 191.000
14.88701 195.000
14.90695 191.000
14.92690 185.000
14.94685 208.000
14.96679 185.000
14.98674 182.000
15.00669 185.000
15.02663 184.000
15.04658 177.000
15.06653 177.000
15.08648 183.000
15.10642 183.000
15.12637 201.000
15.14632 158.000
15.16626 191.000
15.18621 191.000
15.20616 221.000
15.22610 201.000
15.24605 189.000
15.26600 180.000
15.28594 192.000
15.30589 198.000
15.32584 210.000
15.34579 202.000
15.36573 197.000
15.38568 184.000
15.40563 201.000
15.42557 213.000
15.44552 215.000
15.46547 203.000
15.48541 199.000
15.50536 195.000
15.52531 183.000
15.54526 192.000
15.56520 215.000
15.58515 207.000
15.60510 190.000
15.62504 179.000
15.64499 201.000
15.66494 228.000
15.68488 221.000
15.70483 186.000
15.72478 221.000
15.74472 198.000
15.76467 201.000
15.78462 209.000
15.80457 203.000
15.82451 176.000
15.84446 187.000
15.86441 175.000
15.88435 188.000
15.90430 182.000
15.92425 214.000
15.94419 179.000
15.96414 228.000
15.98409 187.000
16.00404 190.000
16.02398 208.000
16.04393 193.000
16.06388 224.000
16.08382 192.000
16.10377 189.000
16.12372 201.000
16.14366 185.000
16.16361 162.000
16.18356 182.000
16.20351 201.000
16.22345 211.000
16.24340 219.000
16.26335 178.000
16.28329 195.000
16.30324 193.000
16.32319 183.000
16.34313 233.000
16.36308 209.000
16.38303 209.000
16.40297 227.000
16.42292 198.000
16.44287 218.000
16.46282 199.000
16.48276 192.000
16.50271 236.000
16.52266 191.000
16.54260 241.000
16.56255 204.000
16.58250 224.000
16.60244 192.000
16.62239 219.000
16.64234 225.000
16.66229 237.000
16.68223 223.000
16.70218 214.000
16.72213 231.000
16.74207 185.000
16.76202 226.000
16.78197 196.000
16.80191 252.000
16.82186 227.000
16.84181 231.000
16.86175 227.000
16.88170 222.000
16.90165 235.000
16.92160 238.000
16.94154 208.000
16.96149 248.000
16.98144 211.000
17.00138 225.000
17.02133 217.000
17.04128 217.000
17.06122 227.000
17.08117 203.000
17.10112 233.000
17.12107 257.000
17.14101 214.000
17.16096 243.000
17.18091 226.000
17.20085 226.000
17.22080 226.000
17.24075 252.000
17.26069 274.000
17.28064 263.000
17.30059 231.000
17.32053 253.000
17.34048 253.000
17.36043 242.000
17.38038 235.000
17.40032 217.000
17.42027 240.000
17.44022 217.000
17.46016 224.000
17.48011 242.000
17.50006 229.000
17.52000 235.000
17.53995 204.000
17.55990 225.000
17.57985 221.000
17.59979 197.000
17.61974 195.000
17.63969 212.000
17.65963 202.000
17.67958 218.000
17.69953 229.000
17.71947 217.000
17.73942 228.000
17.75937 191.000
17.77932 220.000
17.79926 243.000
17.81921 180.000
17.83916 199.000
17.85910 211.000
17.87905 215.000
17.89900 246.000
17.91894 224.000
17.93889 215.000
17.95884 199.000
17.97878 234.000
17.99873 214.000
18.01868 209.000
18.03863 222.000
18.05857 230.000
18.07852 228.000
18.09847 208.000
18.11841 225.000
18.13836 198.000
18.15831 221.000
18.17825 228.000
18.19820 226.000
18.21815 206.000
18.23810 234.000
18.25804 229.000
18.27799 237.000
18.29794 237.000
18.31788 277.000
18.33783 207.000
18.35778 222.000
18.37772 248.000
18.39767 237.000
18.41762 259.000
18.43756 231.000
18.45751 279.000
18.47746 262.000
18.49741 219.000
18.51735 231.000
18.53730 237.000
18.55725 234.000
18.57719 232.000
18.59714 207.000
18.61709 218.000
18.63703 211.000
18.65698 253.000
18.67693 207.000
18.69688 217.000
18.71682 215.000
18.73677 228.000
18.75672 204.000
18.77666 210.000
18.79661 233.000
18.81656 194.000
18.83650 239.000
18.85645 218.000
18.87640 202.000
18.89634 254.000
18.91629 248.000
18.93624 214.000
18.95619 219.000
18.97613 211.000
18.99608 237.000
19.01603 228.000
19.03597 227.000
19.05592 221.000
19.07587 227.000
19.09581 240.000
19.11576 197.000
19.13571 234.000
19.15566 195.000
19.17560 213.000
19.19555 218.000
19.21550 244.000
19.23544 221.000
19.25539 240.000
19.27534 239.000
19.29528 243.000
19.31523 218.000
19.33518 226.000
19.35513 242.000
19.37507 231.000
19.39502 241.000
19.41497 261.000
19.43491 242.000
19.45486 236.000
19.47481 255.000
19.49475 227.000
19.51470 230.000
19.53465 242.000
19.55459 235.000
19.57454 233.000
19.59449 245.000
19.61444 227.000
19.63438 204.000
19.65433 215.000
19.67428 255.000
19.69422 206.000
19.71417 224.000
19.73412 254.000
19.75406 225.000
19.77401 241.000
19.79396 257.000
19.81391 222.000
19.83385 222.000
19.85380 240.000
19.87375 204.000
19.89369 228.000
19.91364 232.000
19.93359 255.000
19.95353 226.000
19.97348 247.000
19.99343 232.000
20.01337 269.000
20.03332 232.000
20.05327 247.000
20.07322 266.000
20.09316 246.000
20.11311 244.000
20.13306 253.000
20.15300 238.000
20.17295 226.000
20.19290 250.000
20.21284 258.000
20.23279 231.000
20.25274 253.000
20.27269 262.000
20.29263 258.000
20.31258 266.000
20.33253 275.000
20.35247 264.000
20.37242 261.000
20.39237 245.000
20.41231 263.000
20.43226 266.000
20.45221 272.000
20.47215 303.000
20.49210 273.000
20.51205 261.000
20.53200 297.000
20.55194 314.000
20.57189 308.000
20.59184 308.000
20.61178 288.000
20.63173 326.000
20.65168 335.000
20.67162 366.000
20.69157 364.000
20.71152 371.000
20.73147 388.000
20.75141 405.000
20.77136 389.000
20.79131 385.000
20.81125 410.000
20.83120 409.000
20.85115 388.000
20.87109 384.000
20.89104 391.000
20.91099 362.000
20.93094 369.000
20.95088 369.000
20.97083 371.000
20.99078 362.000
21.01072 388.000
21.03067 357.000
21.05062 337.000
21.07056 357.000
21.09051 310.000
21.11046 280.000
21.13040 321.000
21.15035 262.000
21.17030 286.000
21.19025 287.000
21.21019 291.000
21.23014 301.000
21.25009 306.000
21.27003 286.000
21.28998 276.000
21.30993 261.000
21.32987 276.000
21.34982 290.000
21.36977 262.000
21.38972 267.000
21.40966 261.000
21.42961 282.000
21.44956 255.000
21.46950 254.000
21.48945 283.000
21.50940 270.000
21.52934 262.000
21.54929 287.000
21.56924 267.000
21.58918 270.000
21.60913 256.000
21.62908 236.000
21.64903 269.000
21.66897 263.000
21.68892 252.000
21.70887 281.000
21.72881 270.000
21.74876 261.000
21.76871 246.000
21.78865 252.000
21.80860 266.000
21.82855 265.000
21.84850 267.000
21.86844 288.000
21.88839 236.000
21.90834 230.000
21.92828 256.000
21.94823 263.000
21.96818 270.000
21.98812 280.000
22.00807 271.000
22.02802 275.000
22.04796 273.000
22.06791 286.000
22.08786 276.000
22.10781 283.000
22.12775 250.000
22.14770 289.000
22.16765 264.000
22.18759 294.000
22.20754 309.000
22.22749 256.000
22.24743 258.000
22.26738 297.000
22.28733 274.000
22.30728 265.000
22.32722 250.000
22.34717 260.000
22.36712 281.000
22.38706 267.000
22.40701 267.000
22.42696 291.000
22.44690 258.000
22.46685 276.000
22.48680 256.000
22.50675 302.000
22.52669 268.000
22.54664 261.000
22.56659 260.000
22.58653 257.000
22.60648 275.000
22.62643 256.000
22.64637 272.000
22.66632 270.000
22.68627 260.000
22.70621 263.000
22.72616 287.000
22.74611 254.000
22.76606 269.000
22.78600 298.000
22.80595 247.000
22.82590 298.000
22.84584 286.000
22.86579 264.000
22.88574 268.000
22.90568 275.000
22.92563 276.000
22.94558 285.000
22.96553 273.000
22.98547 260.000
23.00542 274.000
23.02537 288.000
23.04531 279.000
23.06526 275.000
23.08521 285.000
23.10515 280.000
23.12510 259.000
23.14505 260.000
23.16499 257.000
23.18494 280.000
23.20489 279.000
23.22484 286.000
23.24478 258.000
23.26473 285.000
23.28468 236.000
23.30462 299.000
23.32457 291.000
23.34452 275.000
23.36446 280.000
23.38441 314.000
23.40436 282.000
23.42431 313.000
23.44425 276.000
23.46420 274.000
23.48415 277.000
23.50409 288.000
23.52404 253.000
23.54399 276.000
23.56393 281.000
23.58388 273.000
23.60383 267.000
23.62377 286.000
23.64372 280.000
23.66367 285.000
23.68362 286.000
23.70356 262.000
23.72351 277.000
23.74346 274.000
23.76340 304.000
23.78335 277.000
23.80330 279.000
23.82324 300.000
23.84319 272.000
23.86314 256.000
23.88309 272.000
23.90303 273.000
23.92298 283.000
23.94293 301.000
23.96287 292.000
23.98282 288.000
24.00277 313.000
24.02271 291.000
24.04266 268.000
24.06261 306.000
24.08256 317.000
24.10250 284.000
24.12245 301.000
24.14240 317.000
24.16234 279.000
24.18229 293.000
24.20224 291.000
24.22218 277.000
24.24213 279.000
24.26208 286.000
24.28202 329.000
24.30197 292.000
24.32192 285.000
24.34187 287.000
24.36181 306.000
24.38176 299.000
24.40171 313.000
24.42165 315.000
24.44160 346.000
24.46155 313.000
24.48149 314.000
24.50144 304.000
24.52139 289.000
24.54134 308.000
24.56128 339.000
24.58123 316.000
24.60118 306.000
24.62112 294.000
24.64107 300.000
24.66102 314.000
24.68096 327.000
24.70091 302.000
24.72086 309.000
24.74080 302.000
24.76075 334.000
24.78070 327.000
24.80065 330.000
24.82059 343.000
24.84054 281.000
24.86049 304.000
24.88043 350.000
24.90038 309.000
24.92033 304.000
24.94027 319.000
24.96022 327.000
24.98017 339.000
25.00012 326.000
25.02006 345.000
25.04001 316.000
25.05996 352.000
25.07990 329.000
25.09985 318.000
25.11980 332.000
25.13974 328.000
25.15969 353.000
25.17964 302.000
25.19958 319.000
25.21953 348.000
25.23948 286.000
25.25943 350.000
25.27937 334.000
25.29932 323.000
25.31927 308.000
25.33921 329.000
25.35916 350.000
25.37911 325.000
25.39905 336.000
25.41900 319.000
25.43895 336.000
25.45890 341.000
25.47884 287.000
25.49879 323.000
25.51874 309.000
25.53868 364.000
25.55863 386.000
25.57858 348.000
25.59852 333.000
25.61847 330.000
25.63842 340.000
25.65837 366.000
25.67831 317.000
25.69826 347.000
25.71821 329.000
25.73815 355.000
25.75810 336.000
25.77805 318.000
25.79799 351.000
25.81794 339.000
25.83789 346.000
25.85783 353.000
25.87778 366.000
25.89773 329.000
25.91768 364.000
25.93762 356.000
25.95757 337.000
25.97752 377.000
25.99746 381.000
26.01741 350.000
26.03736 353.000
26.05730 353.000
26.07725 340.000
26.09720 347.000
26.11715 349.000
26.13709 344.000
26.15704 334.000
26.17699 353.000
26.19693 350.000
26.21688 356.000
26.23683 370.000
26.25677 357.000
26.27672 360.000
26.29667 382.000
26.31661 341.000
26.33656 325.000
26.35651 345.000
26.37646 373.000
26.39640 351.000
26.41635 355.000
26.43630 387.000
26.45624 361.000
26.47619 338.000
26.49614 386.000
26.51608 347.000
26.53603 337.000
26.55598 338.000
26.57593 369.000
26.59587 360.000
26.61582 386.000
26.63577 362.000
26.65571 371.000
26.67566 348.000
26.69561 400.000
26.71555 354.000
26.73550 361.000
26.75545 356.000
26.77539 333.000
26.79534 376.000
26.81529 333.000
26.83524 353.000
26.85518 367.000
26.87513 354.000
26.89508 370.000
26.91502 342.000
26.93497 373.000
26.95492 363.000
26.97486 364.000
26.99481 351.000
27.01476 350.000
27.03471 380.000
27.05465 370.000
27.07460 358.000
27.09455 417.000
27.11449 377.000
27.13444 363.000
27.15439 373.000
27.17433 382.000
27.19428 348.000
27.21423 380.000
27.23417 399.000
27.25412 372.000
27.27407 379.000
27.29402 364.000
27.31396 360.000
27.33391 392.000
27.35386 382.000
27.37380 380.000
27.39375 417.000
27.41370 396.000
27.43364 403.000
27.45359 403.000
27.47354 391.000
27.49349 367.000
27.51343 388.000
27.53338 393.000
27.55333 392.000
27.57327 400.000
27.59322 391.000
27.61317 406.000
27.63311 419.000
27.65306 382.000
27.67301 393.000
27.69296 374.000
27.71290 379.000
27.73285 365.000
27.75280 371.000
27.77274 385.000
27.79269 405.000
27.81264 418.000
27.83258 403.000
27.85253 398.000
27.87248 407.000
27.89242 384.000
27.91237 389.000
27.93232 411.000
27.95227 421.000
27.97221 377.000
27.99216 390.000
28.01211 394.000
28.03205 424.000
28.05200 415.000
28.07195 409.000
28.09189 373.000
28.11184 401.000
28.13179 447.000
28.15174 377.000
28.17168 395.000
28.19163 447.000
28.21158 422.000
28.23152 386.000
28.25147 403.000
28.27142 453.000
28.29136 394.000
28.31131 415.000
28.33126 403.000
28.35120 401.000
28.37115 428.000
28.39110 386.000
28.41105 414.000
28.43099 415.000
28.45094 428.000
28.47089 401.000
28.49083 421.000
28.51078 425.000
28.53073 400.000
28.55067 391.000
28.57062 379.000
28.59057 395.000
28.61052 426.000
28.63046 387.000
28.65041 399.000
28.67036 404.000
28.69030 427.000
28.71025 409.000
28.73020 396.000
28.75014 425.000
28.77009 377.000
28.79004 451.000
28.80998 463.000
28.82993 438.000
28.84988 418.000
28.86983 383.000
28.88977 439.000
28.90972 414.000
28.92967 421.000
28.94961 437.000
28.96956 438.000
28.98951 464.000
29.00945 400.000
29.02940 429.000
29.04935 448.000
29.06930 395.000
29.08924 429.000
29.10919 457.000
29.12914 466.000
29.14908 415.000
29.16903 461.000
29.18898 429.000
29.20892 436.000
29.22887 464.000
29.24882 447.000
29.26877 466.000
29.28871 474.000
29.30866 481.000
29.32861 481.000
29.34855 511.000
29.36850 485.000
29.38845 510.000
29.40839 529.000
29.42834 492.000
29.44829 492.000
29.46823 505.000
29.48818 512.000
29.50813 478.000
29.52808 479.000
29.54802 453.000
29.56797 431.000
29.58792 498.000
29.60786 464.000
29.62781 431.000
29.64776 441.000
29.66770 428.000
29.68765 438.000
29.70760 396.000
29.72755 398.000
29.74749 431.000
29.76744 455.000
29.78739 444.000
29.80733 439.000
29.82728 442.000
29.84723 447.000
29.86717 415.000
29.88712 436.000
29.90707 456.000
29.92701 452.000
29.94696 447.000
29.96691 461.000
29.98686 451.000
30.00680 443.000
30.02675 454.000
30.04670 420.000
30.06664 476.000
30.08659 439.000
30.10654 481.000
30.12648 476.000
30.14643 510.000
30.16638 475.000
30.18633 454.000
30.20627 466.000
30.22622 487.000
30.24617 534.000
30.26611 531.000
30.28606 512.000
30.30601 517.000
30.32595 503.000
30.34590 483.000
30.36585 467.000
30.38579 465.000
30.40574 442.000
30.42569 480.000
30.44564 435.000
30.46558 436.000
30.48553 408.000
30.50548 413.000
30.52542 434.000
30.54537 454.000
30.56532 420.000
30.58526 415.000
30.60521 405.000
30.62516 446.000
30.64511 451.000
30.66505 463.000
30.68500 443.000
30.70495 436.000
30.72489 386.000
30.74484 423.000
30.76479 447.000
30.78473 451.000
30.80468 415.000
30.82463 380.000
30.84458 433.000
30.86452 436.000
30.88447 448.000
30.90442 471.000
30.92436 411.000
30.94431 442.000
30.96426 415.000
30.98420 430.000
31.00415 419.000
31.02410 415.000
31.04404 458.000
31.06399 392.000
31.08394 429.000
31.10389 412.000
31.12383 462.000
31.14378 408.000
31.16373 439.000
31.18367 410.000
31.20362 440.000
31.22357 425.000
31.24351 412.000
31.26346 439.000
31.28341 467.000
31.30336 429.000
31.32330 414.000
31.34325 423.000
31.36320 431.000
31.38314 438.000
31.40309 419.000
31.42304 443.000
31.44298 442.000
31.46293 414.000
31.48288 446.000
31.50282 387.000
31.52277 442.000
31.54272 452.000
31.56267 397.000
31.58261 448.000
31.60256 351.000
31.62251 409.000
31.64245 406.000
31.66240 420.000
31.68235 421.000
31.70229 405.000
31.72224 445.000
31.74219 453.000
31.76214 444.000
31.78208 407.000
31.80203 414.000
31.82198 428.000
31.84192 408.000
31.86187 405.000
31.88182 420.000
31.90176 420.000
31.92171 415.000
31.94166 419.000
31.96160 434.000
31.98155 441.000
32.00150 467.000
32.02145 405.000
32.04139 399.000
32.06134 392.000
32.08129 430.000
32.10123 464.000
32.12118 405.000
32.14113 376.000
32.16107 411.000
32.18102 409.000
32.20097 388.000
32.22092 411.000
32.24086 382.000
32.26081 385.000
32.28076 422.000
32.30070 426.000
32.32065 406.000
32.34060 386.000
32.36054 398.000
32.38049 429.000
32.40044 406.000
32.42039 430.000
32.44033 390.000
32.46028 411.000
32.48023 426.000
32.50017 394.000
32.52012 415.000
32.54007 344.000
32.56001 424.000
32.57996 399.000
32.59991 421.000
32.61985 381.000
32.63980 399.000
32.65975 428.000
32.67970 423.000
32.69964 385.000
32.71959 411.000
32.73954 398.000
32.75948 410.000
32.77943 385.000
32.79938 403.000
32.81932 405.000
32.83927 444.000
32.85922 408.000
32.87917 409.000
32.89911 420.000
32.91906 382.000
32.93901 426.000
32.95895 401.000
32.97890 384.000
32.99885 385.000
33.01879 393.000
33.03874 384.000
33.05869 409.000
33.07863 432.000
33.09858 438.000
33.11853 356.000
33.13848 397.000
33.15842 368.000
33.17837 374.000
33.19832 429.000
33.21826 430.000
33.23821 394.000
33.25816 402.000
33.27810 404.000
33.29805 397.000
33.31800 412.000
33.33795 421.000
33.35789 402.000
33.37784 402.000
33.39779 369.000
33.41773 407.000
33.43768 424.000
33.45763 404.000
33.47757 385.000
33.49752 374.000
33.51747 394.000
33.53741 418.000
33.55736 408.000
33.57731 418.000
33.59726 396.000
33.61720 421.000
33.63715 389.000
33.65710 407.000
33.67704 438.000
33.69699 433.000
33.71694 424.000
33.73688 417.000
33.75683 415.000
33.77678 438.000
33.79673 451.000
33.81667 410.000
33.83662 401.000
33.85657 415.000
33.87651 437.000
33.89646 466.000
33.91641 433.000
33.93635 466.000
33.95630 425.000
33.97625 431.000
33.99620 501.000
34.01614 436.000
34.03609 437.000
34.05604 508.000
34.07598 499.000
34.09593 512.000
34.11588 498.000
34.13582 476.000
34.15577 522.000
34.17572 542.000
34.19566 544.000
34.21561 548.000
34.23556 592.000
34.25551 581.000
34.27545 651.000
34.29540 608.000
34.31535 651.000
34.33529 638.000
34.35524 584.000
34.37519 628.000
34.39513 593.000
34.41508 557.000
34.43503 605.000
34.45498 548.000
34.47492 575.000
34.49487 557.000
34.51482 533.000
34.53476 531.000
34.55471 580.000
34.57466 552.000
34.59460 574.000
34.61455 558.000
34.63450 562.000
34.65444 535.000
34.67439 517.000
34.69434 502.000
34.71429 520.000
34.73423 546.000
34.75418 509.000
34.77413 437.000
34.79407 485.000
34.81402 508.000
34.83397 484.000
34.85391 456.000
34.87386 501.000
34.89381 469.000
34.91376 456.000
34.93370 477.000
34.95365 489.000
34.97360 488.000
34.99354 489.000
35.01349 488.000
35.03344 538.000
35.05338 494.000
35.07333 500.000
35.09328 475.000
35.11322 470.000
35.13317 467.000
35.15312 508.000
35.17307 444.000
35.19301 456.000
35.21296 475.000
35.23291 441.000
35.25285 481.000
35.27280 435.000
35.29275 431.000
35.31269 469.000
35.33264 420.000
35.35259 440.000
35.37254 439.000
35.39248 450.000
35.41243 480.000
35.43238 482.000
35.45232 453.000
35.47227 472.000
35.49222 539.000
35.51216 514.000
35.53211 467.000
35.55206 521.000
35.57201 525.000
35.59195 545.000
35.61190 595.000
35.63185 605.000
35.65179 686.000
35.67174 648.000
35.69169 697.000
35.71163 666.000
35.73158 669.000
35.75153 660.000
35.77147 577.000
35.79142 558.000
35.81137 501.000
35.83132 497.000
35.85126 514.000
35.87121 464.000
35.89116 449.000
35.91110 414.000
35.93105 453.000
35.95100 434.000
35.97094 469.000
35.99089 413.000
36.01084 445.000
36.03079 464.000
36.05073 447.000
36.07068 401.000
36.09063 443.000
36.11057 466.000
36.13052 475.000
36.15047 442.000
36.17041 456.000
36.19036 474.000
36.21031 496.000
36.23025 460.000
36.25020 497.000
36.27015 508.000
36.29010 520.000
36.31004 549.000
36.32999 648.000
36.34994 615.000
36.36988 616.000
36.38983 678.000
36.40978 680.000
36.42972 693.000
36.44967 703.000
36.46962 670.000
36.48957 651.000
36.50951 670.000
36.52946 696.000
36.54941 699.000
36.56935 686.000
36.58930 704.000
36.60925 781.000
36.62919 757.000
36.64914 778.000
36.66909 788.000
36.68903 780.000
36.70898 826.000
36.72893 839.000
36.74888 893.000
36.76882 907.000
36.78877 1020.000
36.80872 1049.000
36.82866 1154.000
36.84861 1215.000
36.86856 1386.000
36.88850 1551.000
36.90845 1687.000
36.92840 1967.000
36.94835 2125.000
36.96829 2354.000
36.98824 2472.000
37.00819 2575.000
37.02813 2424.000
37.04808 2389.000
37.06803 2229.000
37.08797 2178.000
37.10792 1959.000
37.12787 1830.000
37.14781 1656.000
37.16776 1550.000
37.18771 1395.000
37.20766 1215.000
37.22760 1179.000
37.24755 973.000
37.26750 853.000
37.28744 799.000
37.30739 704.000
37.32734 636.000
37.34728 554.000
37.36723 540.000
37.38718 462.000
37.40713 439.000
37.42707 449.000
37.44702 480.000
37.46697 418.000
37.48691 425.000
37.50686 393.000
37.52681 399.000
37.54675 385.000
37.56670 366.000
37.58665 413.000
37.60660 384.000
37.62654 391.000
37.64649 388.000
37.66644 390.000
37.68638 401.000
37.70633 359.000
37.72628 387.000
37.74622 384.000
37.76617 374.000
37.78612 396.000
37.80606 349.000
37.82601 354.000
37.84596 379.000
37.86591 349.000
37.88585 370.000
37.90580 355.000
37.92575 365.000
37.94569 389.000
37.96564 341.000
37.98559 350.000
38.00553 364.000
38.02548 365.000
38.04543 372.000
38.06538 362.000
38.08532 394.000
38.10527 399.000
38.12522 352.000
38.14516 364.000
38.16511 329.000
38.18506 380.000
38.20500 381.000
38.22495 352.000
38.24490 331.000
38.26484 383.000
38.28479 402.000
38.30474 351.000
38.32469 323.000
38.34463 365.000
38.36458 350.000
38.38453 353.000
38.40447 339.000
38.42442 358.000
38.44437 368.000
38.46431 333.000
38.48426 367.000
38.50421 357.000
38.52416 369.000
38.54410 372.000
38.56405 355.000
38.58400 351.000
38.60394 428.000
38.62389 335.000
38.64384 378.000
38.66378 362.000
38.68373 362.000
38.70368 363.000
38.72362 384.000
38.74357 340.000
38.76352 405.000
38.78347 361.000
38.80341 373.000
38.82336 365.000
38.84331 355.000
38.86325 369.000
38.88320 363.000
38.90315 361.000
38.92309 331.000
38.94304 357.000
38.96299 345.000
38.98294 392.000
39.00288 386.000
39.02283 336.000
39.04278 339.000
39.06272 358.000
39.08267 357.000
39.10262 328.000
39.12256 353.000
39.14251 342.000
39.16246 364.000
39.18241 361.000
39.20235 317.000
39.22230 375.000
39.24225 338.000
39.26219 393.000
39.28214 351.000
39.30209 390.000
39.32203 362.000
39.34198 328.000
39.36193 327.000
39.38187 348.000
39.40182 367.000
39.42177 375.000
39.44172 366.000
39.46166 369.000
39.48161 377.000
39.50156 346.000
39.52150 375.000
39.54145 356.000
39.56140 348.000
39.58134 377.000
39.60129 363.000
39.62124 363.000
39.64119 359.000
39.66113 377.000
39.68108 340.000
39.70103 363.000
39.72097 332.000
39.74092 356.000
39.76087 340.000
39.78081 380.000
39.80076 379.000
39.82071 361.000
39.84065 342.000
39.86060 363.000
39.88055 350.000
39.90050 377.000
39.92044 358.000
39.94039 371.000
39.96034 360.000
39.98028 371.000
40.00023 347.000
40.02018 316.000
40.04012 348.000
40.06007 343.000
40.08002 341.000
40.09997 365.000
40.11991 352.000
40.13986 349.000
40.15981 395.000
40.17975 337.000
40.19970 354.000
40.21965 339.000
40.23959 375.000
40.25954 373.000
40.27949 345.000
40.29943 351.000
40.31938 375.000
40.33933 357.000
40.35928 376.000
40.37922 367.000
40.39917 373.000
40.41912 343.000
40.43906 332.000
40.45901 358.000
40.47896 343.000
40.49890 371.000
40.51885 329.000
40.53880 393.000
40.55875 357.000
40.57869 337.000
40.59864 376.000
40.61859 336.000
40.63853 361.000
40.65848 343.000
40.67843 316.000
40.69837 367.000
40.71832 346.000
40.73827 371.000
40.75822 358.000
40.77816 368.000
40.79811 361.000
40.81806 331.000
40.83800 370.000
40.85795 341.000
40.87790 360.000
40.89784 369.000
40.91779 366.000
40.93774 378.000
40.95768 402.000
40.97763 382.000
40.99758 364.000
41.01753 380.000
41.03747 389.000
41.05742 376.000
41.07737 386.000
41.09731 406.000
41.11726 398.000
41.13721 369.000
41.15715 380.000
41.17710 412.000
41.19705 386.000
41.21700 396.000
41.23694 424.000
41.25689 425.000
41.27684 412.000
41.29678 442.000
41.31673 415.000
41.33668 417.000
41.35662 406.000
41.37657 426.000
41.39652 430.000
41.41646 434.000
41.43641 457.000
41.45636 456.000
41.47631 451.000
41.49625 494.000
41.51620 483.000
41.53615 483.000
41.55609 467.000
41.57604 448.000
41.59599 516.000
41.61593 486.000
41.63588 481.000
41.65583 501.000
41.67578 512.000
41.69572 539.000
41.71567 540.000
41.73562 554.000
41.75556 593.000
41.77551 612.000
41.79546 655.000
41.81540 740.000
41.83535 798.000
41.85530 793.000
41.87524 854.000
41.89519 882.000
41.91514 830.000
41.93509 790.000
41.95503 788.000
41.97498 760.000
41.99493 781.000
42.01487 684.000
42.03482 636.000
42.05477 619.000
42.07471 650.000
42.09466 565.000
42.11461 523.000
42.13456 534.000
42.15450 555.000
42.17445 535.000
42.19440 523.000
42.21434 518.000
42.23429 526.000
42.25424 566.000
42.27418 573.000
42.29413 584.000
42.31408 584.000
42.33403 585.000
42.35397 576.000
42.37392 615.000
42.39387 614.000
42.41381 644.000
42.43376 679.000
42.45371 712.000
42.47365 732.000
42.49360 721.000
42.51355 724.000
42.53349 807.000
42.55344 843.000
42.57339 892.000
42.59334 903.000
42.61328 941.000
42.63323 1000.000
42.65318 1067.000
42.67312 1137.000
42.69307 1145.000
42.71302 1218.000
42.73296 1282.000
42.75291 1367.000
42.77286 1446.000
42.79281 1601.000
42.81275 1734.000
42.83270 1931.000
42.85265 2103.000
42.87259 2326.000
42.89254 2585.000
42.91249 2756.000
42.93243 2951.000
42.95238 3165.000
42.97233 3174.000
42.99227 3176.000
43.01222 3140.000
43.03217 3099.000
43.05212 2952.000
43.07206 2882.000
43.09201 2754.000
43.11196 2632.000
43.13190 2388.000
43.15185 2356.000
43.17180 2254.000
43.19174 2012.000
43.21169 1839.000
43.23164 1727.000
43.25159 1549.000
43.27153 1323.000
43.29148 1246.000
43.31143 1076.000
43.33137 1042.000
43.35132 938.000
43.37127 837.000
43.39121 744.000
43.41116 689.000
43.43111 644.000
43.45105 564.000
43.47100 511.000
43.49095 478.000
43.51090 474.000
43.53084 432.000
43.55079 445.000
43.57074 439.000
43.59068 439.000
43.61063 428.000
43.63058 430.000
43.65052 415.000
43.67047 397.000
43.69042 373.000
43.71037 369.000
43.73031 417.000
43.75026 400.000
43.77021 384.000
43.79015 365.000
43.81010 354.000
43.83005 354.000
43.84999 329.000
43.86994 352.000
43.88989 354.000
43.90984 361.000
43.92978 358.000
43.94973 366.000
43.96968 362.000
43.98962 356.000
44.00957 370.000
44.02952 345.000
44.04946 349.000
44.06941 385.000
44.08936 348.000
44.10930 344.000
44.12925 372.000
44.14920 346.000
44.16915 361.000
44.18909 366.000
44.20904 362.000
44.22899 355.000
44.24893 335.000
44.26888 333.000
44.28883 306.000
44.30877 319.000
44.32872 338.000
44.34867 311.000
44.36862 328.000
44.38856 360.000
44.40851 308.000
44.42846 321.000
44.44840 350.000
44.46835 348.000
44.48830 345.000
44.50824 308.000
44.52819 288.000
44.54814 339.000
44.56808 349.000
44.58803 331.000
44.60798 329.000
44.62793 315.000
44.64787 312.000
44.66782 349.000
44.68777 316.000
44.70771 313.000
44.72766 323.000
44.74761 312.000
44.76755 320.000
44.78750 312.000
44.80745 352.000
44.82740 304.000
44.84734 361.000
44.86729 323.000
44.88724 302.000
44.90718 340.000
44.92713 323.000
44.94708 318.000
44.96702 315.000
44.98697 348.000
45.00692 339.000
45.02686 332.000
45.04681 297.000
45.06676 355.000
45.08671 324.000
45.10665 335.000
45.12660 317.000
45.14655 321.000
45.16649 314.000
45.18644 330.000
45.20639 309.000
45.22633 307.000
45.24628 304.000
45.26623 332.000
45.28618 303.000
45.30612 319.000
45.32607 297.000
45.34602 316.000
45.36596 350.000
45.38591 264.000
45.40586 326.000
45.42580 313.000
45.44575 313.000
45.46570 344.000
45.48565 313.000
45.50559 319.000
45.52554 348.000
45.54549 329.000
45.56543 341.000
45.58538 299.000
45.60533 324.000
45.62527 322.000
45.64522 319.000
45.66517 317.000
45.68511 299.000
45.70506 310.000
45.72501 321.000
45.74496 331.000
45.76490 305.000
45.78485 323.000
45.80480 318.000
45.82474 328.000
45.84469 308.000
45.86464 331.000
45.88458 291.000
45.90453 309.000
45.92448 309.000
45.94443 342.000
45.96437 358.000
45.98432 356.000
46.00427 274.000
46.02421 323.000
46.04416 331.000
46.06411 334.000
46.08405 309.000
46.10400 333.000
46.12395 300.000
46.14389 348.000
46.16384 289.000
46.18379 304.000
46.20374 304.000
46.22368 288.000
46.24363 307.000
46.26358 295.000
46.28352 322.000
46.30347 317.000
46.32342 309.000
46.34336 318.000
46.36331 295.000
46.38326 338.000
46.40321 303.000
46.42315 315.000
46.44310 299.000
46.46305 294.000
46.48299 328.000
46.50294 299.000
46.52289 302.000
46.54283 296.000
46.56278 296.000
46.58273 299.000
46.60267 302.000
46.62262 316.000
46.64257 290.000
46.66252 293.000
46.68246 329.000
46.70241 312.000
46.72236 297.000
46.74230 292.000
46.76225 295.000
46.78220 274.000
46.80214 282.000
46.82209 277.000
46.84204 290.000
46.86199 284.000
46.88193 278.000
46.90188 303.000
46.92183 336.000
46.94177 316.000
46.96172 309.000
46.98167 315.000
47.00161 269.000
47.02156 301.000
47.04151 296.000
47.06146 295.000
47.08140 315.000
47.10135 306.000
47.12130 291.000
47.14124 293.000
47.16119 276.000
47.18114 314.000
47.20108 315.000
47.22103 297.000
47.24098 295.000
47.26092 320.000
47.28087 325.000
47.30082 279.000
47.32077 291.000
47.34071 299.000
47.36066 339.000
47.38061 291.000
47.40055 325.000
47.42050 278.000
47.44045 267.000
47.46039 313.000
47.48034 317.000
47.50029 278.000
47.52024 312.000
47.54018 328.000
47.56013 321.000
47.58008 308.000
47.60002 321.000
47.61997 318.000
47.63992 315.000
47.65986 300.000
47.67981 304.000
47.69976 294.000
47.71970 298.000
47.73965 296.000
47.75960 325.000
47.77955 318.000
47.79949 307.000
47.81944 271.000
47.83939 309.000
47.85933 316.000
47.87928 286.000
47.89923 321.000
47.91917 290.000
47.93912 316.000
47.95907 295.000
47.97902 279.000
47.99896 295.000
48.01891 305.000
48.03886 295.000
48.05880 289.000
48.07875 320.000
48.09870 308.000
48.11864 302.000
48.13859 315.000
48.15854 313.000
48.17848 277.000
48.19843 301.000
48.21838 320.000
48.23833 289.000
48.25827 278.000
48.27822 265.000
48.29817 310.000
48.31811 296.000
48.33806 270.000
48.35801 285.000
48.37795 311.000
48.39790 301.000
48.41785 337.000
48.43780 331.000
48.45774 294.000
48.47769 312.000
48.49764 301.000
48.51758 288.000
48.53753 287.000
48.55748 260.000
48.57742 289.000
48.59737 277.000
48.61732 287.000
48.63726 279.000
48.65721 297.000
48.67716 322.000
48.69711 263.000
48.71705 297.000
48.73700 277.000
48.75695 312.000
48.77689 265.000
48.79684 280.000
48.81679 321.000
48.83673 316.000
48.85668 312.000
48.87663 293.000
48.89658 319.000
48.91652 315.000
48.93647 305.000
48.95642 284.000
48.97636 279.000
48.99631 289.000
49.01626 327.000
49.03620 293.000
49.05615 288.000
49.07610 300.000
49.09605 268.000
49.11599 278.000
49.13594 304.000
49.15589 301.000
49.17583 307.000
49.19578 294.000
49.21573 282.000
49.23567 300.000
49.25562 305.000
49.27557 330.000
49.29551 298.000
49.31546 311.000
49.33541 307.000
49.35536 313.000
49.37530 311.000
49.39525 328.000
49.41520 279.000
49.43514 292.000
49.45509 348.000
49.47504 280.000
49.49498 300.000
49.51493 306.000
49.53488 272.000
49.55483 276.000
49.57477 296.000
49.59472 307.000
49.61467 272.000
49.63461 343.000
49.65456 275.000
49.67451 290.000
49.69445 284.000
49.71440 277.000
49.73435 282.000
49.75429 272.000
49.77424 308.000
49.79419 296.000
49.81414 321.000
49.83408 297.000
49.85403 279.000
49.87398 266.000
49.89392 294.000
49.91387 272.000
49.93382 273.000
49.95376 270.000
49.97371 280.000
49.99366 259.000
50.01361 284.000
50.03355 287.000
50.05350 294.000
50.07345 270.000
50.09339 273.000
50.11334 269.000
50.13329 302.000
50.15323 260.000
50.17318 266.000
50.19313 265.000
50.21307 304.000
50.23302 292.000
50.25297 281.000
50.27292 270.000
50.29286 287.000
50.31281 288.000
50.33276 264.000
50.35270 281.000
50.37265 245.000
50.39260 261.000
50.41254 306.000
50.43249 286.000
50.45244 228.000
50.47239 295.000
50.49233 273.000
50.51228 281.000
50.53223 266.000
50.55217 269.000
50.57212 275.000
50.59207 273.000
50.61201 272.000
50.63196 299.000
50.65191 311.000
50.67186 300.000
50.69180 299.000
50.71175 263.000
50.73170 301.000
50.75164 244.000
50.77159 273.000
50.79154 234.000
50.81148 241.000
50.83143 268.000
50.85138 271.000
50.87132 270.000
50.89127 277.000
50.91122 289.000
50.93117 295.000
50.95111 281.000
50.97106 295.000
50.99101 258.000
51.01095 291.000
51.03090 275.000
51.05085 261.000
51.07079 267.000
51.09074 258.000
51.11069 313.000
51.13064 268.000
51.15058 298.000
51.17053 270.000
51.19048 277.000
51.21042 295.000
51.23037 293.000
51.25032 281.000
51.27026 284.000
51.29021 293.000
51.31016 258.000
51.33010 256.000
51.35005 271.000
51.37000 241.000
51.38995 258.000
51.40989 291.000
51.42984 275.000
51.44979 258.000
51.46973 300.000
51.48968 273.000
51.50963 268.000
51.52957 260.000
51.54952 306.000
51.56947 254.000
51.58942 266.000
51.60936 272.000
51.62931 262.000
51.64926 279.000
51.66920 283.000
51.68915 274.000
51.70910 295.000
51.72904 237.000
51.74899 267.000
51.76894 283.000
51.78888 261.000
51.80883 292.000
51.82878 276.000
51.84873 275.000
51.86867 286.000
51.88862 267.000
51.90857 300.000
51.92851 282.000
51.94846 275.000
51.96841 314.000
51.98835 275.000
52.00830 282.000
52.02825 326.000
52.04820 293.000
52.06814 284.000
52.08809 279.000
52.10804 301.000
52.12798 250.000
52.14793 283.000
52.16788 280.000
52.18782 261.000
52.20777 285.000
52.22772 293.000
52.24767 309.000
52.26761 278.000
52.28756 280.000
52.30751 274.000
52.32745 265.000
52.34740 285.000
52.36735 264.000
52.38729 321.000
52.40724 271.000
52.42719 289.000
52.44713 262.000
52.46708 284.000
52.48703 275.000
52.50698 281.000
52.52692 260.000
52.54687 296.000
52.56682 282.000
52.58676 256.000
52.60671 241.000
52.62666 259.000
52.64660 277.000
52.66655 259.000
52.68650 270.000
52.70645 291.000
52.72639 298.000
52.74634 275.000
52.76629 268.000
52.78623 263.000
52.80618 258.000
52.82613 281.000
52.84607 280.000
52.86602 299.000
52.88597 253.000
52.90591 262.000
52.92586 266.000
52.94581 289.000
52.96576 253.000
52.98570 281.000
53.00565 250.000
53.02560 290.000
53.04554 267.000
53.06549 250.000
53.08544 250.000
53.10538 283.000
53.12533 260.000
53.14528 281.000
53.16523 280.000
53.18517 256.000
53.20512 305.000
53.22507 240.000
53.24501 276.000
53.26496 262.000
53.28491 281.000
53.30485 256.000
53.32480 294.000
53.34475 302.000
53.36469 282.000
53.38464 274.000
53.40459 247.000
53.42454 276.000
53.44448 282.000
53.46443 274.000
53.48438 267.000
53.50432 306.000
53.52427 291.000
53.54422 263.000
53.56416 287.000
53.58411 270.000
53.60406 298.000
53.62401 285.000
53.64395 268.000
53.66390 264.000
53.68385 288.000
53.70379 309.000
53.72374 286.000
53.74369 304.000
53.76363 285.000
53.78358 283.000
53.80353 290.000
53.82348 294.000
53.84342 295.000
53.86337 311.000
53.88332 291.000
53.90326 275.000
53.92321 257.000
53.94316 261.000
53.96310 292.000
53.98305 289.000
54.00300 254.000
54.02294 265.000
54.04289 278.000
54.06284 282.000
54.08279 260.000
54.10273 268.000
54.12268 277.000
54.14263 279.000
54.16257 272.000
54.18252 288.000
54.20247 264.000
54.22241 283.000
54.24236 298.000
54.26231 291.000
54.28226 250.000
54.30220 288.000
54.32215 277.000
54.34210 271.000
54.36204 274.000
54.38199 264.000
54.40194 250.000
54.42188 279.000
54.44183 290.000
54.46178 267.000
54.48172 269.000
54.50167 301.000
54.52162 276.000
54.54157 272.000
54.56151 277.000
54.58146 281.000
54.60141 279.000
54.62135 267.000
54.64130 256.000
54.66125 293.000
54.68119 290.000
54.70114 249.000
54.72109 287.000
54.74104 283.000
54.76098 271.000
54.78093 251.000
54.80088 278.000
54.82082 276.000
54.84077 273.000
54.86072 290.000
54.88066 245.000
54.90061 276.000
54.92056 287.000
54.94050 291.000
54.96045 250.000
54.98040 246.000
55.00035 260.000
55.02029 292.000
55.04024 280.000
55.06019 256.000
55.08013 275.000
55.10008 253.000
55.12003 255.000
55.13997 293.000
55.15992 235.000
55.17987 281.000
55.19982 276.000
55.21976 287.000
55.23971 267.000
55.25966 277.000
55.27960 268.000
55.29955 277.000
55.31950 254.000
55.33944 273.000
55.35939 267.000
55.37934 282.000
55.39929 249.000
55.41923 259.000
55.43918 290.000
55.45913 291.000
55.47907 285.000
55.49902 247.000
55.51897 288.000
55.53891 278.000
55.55886 264.000
55.57881 242.000
55.59875 258.000
55.61870 266.000
55.63865 266.000
55.65860 253.000
55.67854 284.000
55.69849 267.000
55.71844 268.000
55.73838 262.000
55.75833 267.000
55.77828 271.000
55.79822 255.000
55.81817 261.000
55.83812 264.000
55.85807 254.000
55.87801 257.000
55.89796 256.000
55.91791 248.000
55.93785 273.000
55.95780 280.000
55.97775 298.000
55.99769 264.000
56.01764 280.000
56.03759 262.000
56.05753 291.000
56.07748 273.000
56.09743 261.000
56.11738 257.000
56.13732 289.000
56.15727 277.000
56.17722 276.000
56.19716 277.000
56.21711 303.000
56.23706 251.000
56.25700 262.000
56.27695 288.000
56.29690 271.000
56.31685 289.000
56.33679 260.000
56.35674 260.000
56.37669 260.000
56.39663 256.000
56.41658 274.000
56.43653 288.000
56.45647 269.000
56.47642 269.000
56.49637 271.000
56.51631 266.000
56.53626 278.000
56.55621 266.000
56.57616 290.000
56.59610 268.000
56.61605 254.000
56.63600 272.000
56.65594 279.000
56.67589 278.000
56.69584 279.000
56.71578 275.000
56.73573 268.000
56.75568 287.000
56.77563 290.000
56.79557 303.000
56.81552 245.000
56.83547 265.000
56.85541 260.000
56.87536 253.000
56.89531 296.000
56.91525 276.000
56.93520 316.000
56.95515 317.000
56.97510 284.000
56.99504 285.000
57.01499 290.000
57.03494 315.000
57.05488 287.000
57.07483 275.000
57.09478 233.000
57.11472 283.000
57.13467 277.000
57.15462 290.000
57.17456 295.000
57.19451 315.000
57.21446 298.000
57.23441 302.000
57.25435 305.000
57.27430 313.000
57.29425 334.000
57.31419 326.000
57.33414 330.000
57.35409 343.000
57.37403 368.000
57.39398 298.000
57.41393 337.000
57.43388 324.000
57.45382 318.000
57.47377 298.000
57.49372 347.000
57.51366 313.000
57.53361 284.000
57.55356 309.000
57.57350 297.000
57.59345 321.000
57.61340 278.000
57.63334 309.000
57.65329 251.000
57.67324 305.000
57.69319 290.000
57.71313 251.000
57.73308 274.000
57.75303 281.000
57.77297 290.000
57.79292 240.000
57.81287 273.000
57.83281 257.000
57.85276 258.000
57.87271 274.000
57.89266 256.000
57.91260 245.000
57.93255 247.000
57.95250 259.000
57.97244 280.000
57.99239 244.000
58.01234 246.000
58.03228 263.000
58.05223 260.000
58.07218 238.000
58.09212 270.000
58.11207 276.000
58.13202 298.000
58.15197 270.000
58.17191 277.000
58.19186 295.000
58.21181 267.000
58.23175 274.000
58.25170 258.000
58.27165 270.000
58.29159 240.000
58.31154 283.000
58.33149 268.000
58.35144 241.000
58.37138 248.000
58.39133 257.000
58.41128 271.000
58.43122 277.000
58.45117 248.000
58.47112 242.000
58.49106 267.000
58.51101 289.000
58.53096 299.000
58.55090 286.000
58.57085 280.000
58.59080 291.000
58.61075 267.000
58.63069 268.000
58.65064 297.000
58.67059 269.000
58.69053 257.000
58.71048 258.000
58.73043 276.000
58.75037 264.000
58.77032 278.000
58.79027 288.000
58.81022 268.000
58.83016 299.000
58.85011 273.000
58.87006 254.000
58.89000 280.000
58.90995 277.000
58.92990 260.000
58.94984 253.000
58.96979 269.000
58.98974 244.000
59.00969 242.000
59.02963 240.000
59.04958 292.000
59.06953 290.000
59.08947 258.000
59.10942 291.000
59.12937 275.000
59.14931 256.000
59.16926 274.000
59.18921 257.000
59.20915 279.000
59.22910 288.000
59.24905 262.000
59.26900 286.000
59.28894 275.000
59.30889 287.000
59.32884 275.000
59.34878 269.000
59.36873 290.000
59.38868 318.000
59.40862 326.000
59.42857 278.000
59.44852 284.000
59.46847 314.000
59.48841 283.000
59.50836 278.000
59.52831 304.000
59.54825 327.000
59.56820 308.000
59.58815 298.000
59.60809 317.000
59.62804 309.000
59.64799 292.000
59.66793 311.000
59.68788 361.000
59.70783 306.000
59.72778 368.000
59.74772 317.000
59.76767 352.000
59.78762 431.000
59.80756 356.000
59.82751 358.000
59.84746 344.000
59.86740 315.000
59.88735 331.000
59.90730 313.000
59.92725 331.000
59.94719 318.000
59.96714 361.000
59.98709 348.000
60.00703 299.000
60.02698 314.000
60.04693 280.000
60.06687 266.000
60.08682 335.000
60.10677 322.000
60.12671 298.000
60.14666 278.000
60.16661 262.000
60.18656 297.000
60.20650 311.000
60.22645 247.000
60.24640 264.000
60.26634 299.000
60.28629 317.000
60.30624 283.000
60.32618 303.000
60.34613 276.000
60.36608 259.000
60.38603 281.000
60.40597 294.000
60.42592 312.000
60.44587 283.000
60.46581 281.000
60.48576 308.000
60.50571 281.000
60.52565 281.000
60.54560 257.000
60.56555 298.000
60.58550 301.000
60.60544 265.000
60.62539 286.000
60.64534 264.000
60.66528 280.000
60.68523 325.000
60.70518 294.000
60.72512 323.000
60.74507 281.000
60.76502 282.000
60.78496 303.000
60.80491 270.000
60.82486 286.000
60.84481 317.000
60.86475 287.000
60.88470 267.000
60.90465 278.000
60.92459 303.000
60.94454 295.000
60.96449 301.000
60.98443 297.000
61.00438 330.000
61.02433 330.000
61.04428 317.000
61.06422 318.000
61.08417 299.000
61.10412 354.000
61.12406 347.000
61.14401 334.000
61.16396 361.000
61.18390 315.000
61.20385 340.000
61.22380 346.000
61.24374 361.000
61.26369 357.000
61.28364 354.000
61.30359 304.000
61.32353 337.000
61.34348 312.000
61.36343 360.000
61.38337 381.000
61.40332 336.000
61.42327 374.000
61.44321 382.000
61.46316 383.000
61.48311 382.000
61.50306 436.000
61.52300 411.000
61.54295 366.000
61.56290 430.000
61.58284 454.000
61.60279 447.000
61.62274 481.000
61.64268 498.000
61.66263 450.000
61.68258 423.000
61.70252 514.000
61.72247 455.000
61.74242 436.000
61.76237 483.000
61.78231 434.000
61.80226 519.000
61.82221 532.000
61.84215 485.000
61.86210 469.000
61.88205 509.000
61.90199 526.000
61.92194 573.000
61.94189 543.000
61.96184 591.000
61.98178 559.000
62.00173 613.000
62.02168 583.000
62.04162 643.000
62.06157 591.000
62.08152 663.000
62.10146 652.000
62.12141 778.000
62.14136 747.000
62.16131 844.000
62.18125 842.000
62.20120 829.000
62.22115 951.000
62.24109 1004.000
62.26104 1057.000
62.28099 1150.000
62.30093 1178.000
62.32088 1283.000
62.34083 1263.000
62.36077 1478.000
62.38072 1461.000
62.40067 1497.000
62.42062 1420.000
62.44056 1446.000
62.46051 1460.000
62.48046 1444.000
62.50040 1366.000
62.52035 1385.000
62.54030 1382.000
62.56024 1364.000
62.58019 1298.000
62.60014 1220.000
62.62009 1200.000
62.64003 1137.000
62.65998 1130.000
62.67993 1090.000
62.69987 1000.000
62.71982 946.000
62.73977 892.000
62.75971 899.000
62.77966 769.000
62.79961 789.000
62.81955 736.000
62.83950 732.000
62.85945 669.000
62.87940 664.000
62.89934 646.000
62.91929 614.000
62.93924 608.000
62.95918 535.000
62.97913 507.000
62.99908 498.000
63.01902 474.000
63.03897 438.000
63.05892 449.000
63.07887 456.000
63.09881 374.000
63.11876 399.000
63.13871 355.000
63.15865 383.000
63.17860 340.000
63.19855 364.000
63.21849 343.000
63.23844 369.000
63.25839 330.000
63.27833 291.000
63.29828 321.000
63.31823 323.000
63.33818 282.000
63.35812 291.000
63.37807 300.000
63.39802 313.000
63.41796 281.000
63.43791 285.000
63.45786 308.000
63.47780 284.000
63.49775 269.000
63.51770 257.000
63.53765 270.000
63.55759 285.000
63.57754 281.000
63.59749 286.000
63.61743 276.000
63.63738 298.000
63.65733 286.000
63.67727 285.000
63.69722 285.000
63.71717 280.000
63.73712 284.000
63.75706 253.000
63.77701 274.000
63.79696 282.000
63.81690 281.000
63.83685 248.000
63.85680 271.000
63.87674 276.000
63.89669 279.000
63.91664 287.000
63.93658 293.000
63.95653 247.000
63.97648 280.000
63.99643 313.000
64.01637 263.000
64.03632 237.000
64.05627 285.000
64.07621 238.000
64.09616 283.000
64.11611 261.000
64.13605 287.000
64.15600 274.000
64.17595 296.000
64.19590 256.000
64.21584 297.000
64.23579 269.000
64.25574 300.000
64.27568 265.000
64.29563 291.000
64.31558 311.000
64.33552 309.000
64.35547 261.000
64.37542 281.000
64.39536 273.000
64.41531 293.000
64.43526 267.000
64.45521 280.000
64.47515 275.000
64.49510 267.000
64.51505 270.000
64.53499 261.000
64.55494 283.000
64.57489 305.000
64.59483 290.000
64.61478 261.000
64.63473 266.000
64.65468 265.000
64.67462 254.000
64.69457 306.000
64.71452 284.000
64.73446 281.000
64.75441 248.000
64.77436 260.000
64.79430 278.000
64.81425 271.000
64.83420 268.000
64.85414 270.000
64.87409 271.000
64.89404 275.000
64.91399 242.000
64.93393 269.000
64.95388 274.000
64.97383 288.000
64.99377 285.000
65.01372 288.000
65.03367 269.000
65.05361 226.000
65.07356 249.000
65.09351 247.000
65.11346 285.000
65.13340 276.000
65.15335 267.000
65.17330 269.000
65.19324 248.000
65.21319 278.000
65.23314 264.000
65.25308 272.000
65.27303 291.000
65.29298 276.000
65.31293 301.000
65.33287 249.000
65.35282 294.000
65.37277 256.000
65.39271 292.000
65.41266 294.000
65.43261 240.000
65.45255 279.000
65.47250 259.000
65.49245 287.000
65.51239 275.000
65.53234 331.000
65.55229 265.000
65.57224 311.000
65.59218 273.000
65.61213 262.000
65.63208 264.000
65.65202 254.000
65.67197 278.000
65.69192 275.000
65.71186 286.000
65.73181 287.000
65.75176 297.000
65.77171 268.000
65.79165 288.000
65.81160 299.000
65.83155 286.000
65.85149 278.000
65.87144 244.000
65.89139 294.000
65.91133 264.000
65.93128 253.000
65.95123 266.000
65.97117 263.000
65.99112 288.000
66.01107 254.000
66.03102 278.000
66.05096 248.000
66.07091 246.000
66.09086 242.000
66.11080 248.000
66.13075 270.000
66.15070 258.000
66.17064 260.000
66.19059 295.000
66.21054 264.000
66.23049 261.000
66.25043 273.000
66.27038 264.000
66.29033 246.000
66.31027 279.000
66.33022 274.000
66.35017 246.000
66.37011 237.000
66.39006 250.000
66.41001 290.000
66.42995 269.000
66.44990 293.000
66.46985 288.000
66.48980 271.000
66.50974 266.000
66.52969 273.000
66.54964 251.000
66.56958 291.000
66.58953 258.000
66.60948 243.000
66.62942 273.000
66.64937 262.000
66.66932 242.000
66.68927 272.000
66.70921 294.000
66.72916 254.000
66.74911 262.000
66.76905 264.000
66.78900 261.000
66.80895 242.000
66.82889 241.000
66.84884 237.000
66.86879 255.000
66.88874 242.000
66.90868 242.000
66.92863 229.000
66.94858 271.000
66.96852 245.000
66.98847 251.000
67.00842 259.000
67.02836 245.000
67.04831 275.000
67.06826 280.000
67.08820 257.000
67.10815 272.000
67.12810 229.000
67.14805 255.000
67.16799 268.000
67.18794 262.000
67.20789 265.000
67.22783 270.000
67.24778 247.000
67.26773 245.000
67.28767 230.000
67.30762 272.000
67.32757 283.000
67.34752 270.000
67.36746 251.000
67.38741 290.000
67.40736 252.000
67.42730 262.000
67.44725 265.000
67.46720 287.000
67.48714 289.000
67.50709 284.000
67.52704 246.000
67.54698 257.000
67.56693 263.000
67.58688 270.000
67.60683 258.000
67.62677 279.000
67.64672 258.000
67.66667 256.000
67.68661 260.000
67.70656 239.000
67.72651 258.000
67.74645 271.000
67.76640 261.000
67.78635 271.000
67.80630 244.000
67.82624 252.000
67.84619 268.000
67.86614 246.000
67.88608 256.000
67.90603 261.000
67.92598 264.000
67.94592 249.000
67.96587 253.000
67.98582 269.000
68.00576 235.000
68.02571 220.000
68.04566 257.000
68.06561 248.000
68.08555 286.000
68.10550 262.000
68.12545 269.000
68.14539 267.000
68.16534 250.000
68.18529 258.000
68.20523 269.000
68.22518 250.000
68.24513 253.000
68.26508 259.000
68.28502 281.000
68.30497 262.000
68.32492 247.000
68.34486 260.000
68.36481 265.000
68.38476 259.000
68.40470 253.000
68.42465 232.000
68.44460 252.000
68.46455 253.000
68.48449 265.000
68.50444 258.000
68.52439 273.000
68.54433 255.000
68.56428 253.000
68.58423 215.000
68.60417 241.000
68.62412 280.000
68.64407 257.000
68.66401 241.000
68.68396 252.000
68.70391 263.000
68.72386 271.000
68.74380 280.000
68.76375 263.000
68.78370 275.000
68.80364 251.000
68.82359 253.000
68.84354 250.000
68.86348 285.000
68.88343 233.000
68.90338 260.000
68.92333 262.000
68.94327 250.000
68.96322 250.000
68.98317 237.000
69.00311 246.000
69.02306 231.000
69.04301 235.000
69.06295 246.000
69.08290 268.000
69.10285 261.000
69.12279 259.000
69.14274 277.000
69.16269 263.000
69.18264 237.000
69.20258 262.000
69.22253 270.000
69.24248 255.000
69.26242 258.000
69.28237 262.000
69.30232 252.000
69.32226 245.000
69.34221 242.000
69.36216 251.000
69.38211 255.000
69.40205 247.000
69.42200 249.000
69.44195 245.000
69.46189 261.000
69.48184 245.000
69.50179 256.000
69.52173 242.000
69.54168 278.000
69.56163 233.000
69.58157 255.000
69.60152 241.000
69.62147 243.000
69.64142 268.000
69.66136 248.000
69.68131 251.000
69.70126 255.000
69.72120 243.000
69.74115 255.000
69.76110 258.000
69.78104 253.000
69.80099 249.000
69.82094 278.000
69.84089 237.000
69.86083 247.000
69.88078 239.000
69.90073 249.000
69.92067 281.000
69.94062 254.000
69.96057 236.000
69.98051 252.000
70.00046 245.000
70.02041 263.000
70.04035 271.000
70.06030 234.000
70.08025 234.000
70.10020 246.000
70.12014 264.000
70.14009 255.000
70.16004 223.000
70.17998 248.000
70.19993 232.000
70.21988 247.000
70.23982 245.000
70.25977 255.000
70.27972 255.000
70.29967 264.000
70.31961 251.000
70.33956 284.000
70.35951 241.000
70.37945 253.000
70.39940 245.000
70.41935 244.000
70.43929 233.000
70.45924 270.000
70.47919 264.000
70.49914 269.000
70.51908 253.000
70.53903 254.000
70.55898 244.000
70.57892 233.000
70.59887 236.000
70.61882 250.000
70.63876 269.000
70.65871 236.000
70.67866 276.000
70.69860 242.000
70.71855 234.000
70.73850 244.000
70.75845 267.000
70.77839 254.000
70.79834 266.000
70.81829 269.000
70.83823 267.000
70.85818 255.000
70.87813 250.000
70.89807 285.000
70.91802 280.000
70.93797 248.000
70.95792 289.000
70.97786 262.000
70.99781 226.000
71.01776 270.000
71.03770 270.000
71.05765 239.000
71.07760 276.000
71.09754 271.000
71.11749 280.000
71.13744 231.000
71.15738 256.000
71.17733 311.000
71.19728 282.000
71.21723 257.000
71.23717 281.000
71.25712 289.000
71.27707 250.000
71.29701 247.000
71.31696 297.000
71.33691 296.000
71.35685 289.000
71.37680 243.000
71.39675 279.000
71.41670 270.000
71.43664 268.000
71.45659 285.000
71.47654 275.000
71.49648 268.000
71.51643 263.000
71.53638 281.000
71.55632 238.000
71.57627 262.000
71.59622 284.000
71.61616 267.000
71.63611 257.000
71.65606 240.000
71.67601 257.000
71.69595 272.000
71.71590 272.000
71.73585 271.000
71.75579 279.000
71.77574 235.000
71.79569 263.000
71.81563 285.000
71.83558 250.000
71.85553 231.000
71.87548 243.000
71.89542 248.000
71.91537 291.000
71.93532 228.000
71.95526 266.000
71.97521 310.000
71.99516 231.000
72.01510 259.000
72.03505 274.000
72.05500 238.000
72.07495 277.000
72.09489 266.000
72.11484 280.000
72.13479 262.000
72.15473 259.000
72.17468 257.000
72.19463 270.000
72.21457 273.000
72.23452 256.000
72.25447 262.000
72.27441 271.000
72.29436 269.000
72.31431 280.000
72.33426 256.000
72.35420 243.000
72.37415 270.000
72.39410 250.000
72.41404 246.000
72.43399 217.000
72.45394 247.000
72.47388 294.000
72.49383 278.000
72.51378 290.000
72.53373 265.000
72.55367 270.000
72.57362 260.000
72.59357 254.000
72.61351 276.000
72.63346 258.000
72.65341 245.000
72.67335 285.000
72.69330 285.000
72.71325 272.000
72.73319 290.000
72.75314 288.000
72.77309 292.000
72.79304 301.000
72.81298 285.000
72.83293 277.000
72.85288 299.000
72.87282 303.000
72.89277 299.000
72.91272 306.000
72.93266 267.000
72.95261 290.000
72.97256 288.000
72.99251 312.000
73.01245 290.000
73.03240 278.000
73.05235 277.000
73.07229 283.000
73.09224 297.000
73.11219 292.000
73.13213 281.000
73.15208 298.000
73.17203 275.000
73.19197 273.000
73.21192 309.000
73.23187 278.000
73.25182 273.000
73.27176 254.000
73.29171 270.000
73.31166 272.000
73.33160 281.000
73.35155 248.000
73.37150 259.000
73.39144 271.000
73.41139 292.000
73.43134 276.000
73.45129 252.000
73.47123 286.000
73.49118 279.000
73.51113 267.000
73.53107 250.000
73.55102 290.000
73.57097 277.000
73.59091 285.000
73.61086 259.000
73.63081 274.000
73.65076 265.000
73.67070 273.000
73.69065 264.000
73.71060 254.000
73.73054 298.000
73.75049 279.000
73.77044 303.000
73.79038 280.000
73.81033 270.000
73.83028 316.000
73.85022 299.000
73.87017 273.000
73.89012 297.000
73.91007 288.000
73.93001 293.000
73.94996 284.000
73.96991 288.000
73.98985 323.000
74.00980 283.000
74.02975 323.000
74.04969 290.000
74.06964 336.000
74.08959 326.000
74.10954 321.000
74.12948 287.000
74.14943 302.000
74.16938 340.000
74.18932 323.000
74.20927 344.000
74.22922 333.000
74.24916 324.000
74.26911 352.000
74.28906 322.000
74.30900 339.000
74.32895 346.000
74.34890 367.000
74.36885 363.000
74.38879 344.000
74.40874 363.000
74.42869 375.000
74.44863 425.000
74.46858 399.000
74.48853 427.000
74.50847 425.000
74.52842 408.000
74.54837 475.000
74.56832 492.000
74.58826 492.000
74.60821 495.000
74.62816 537.000
74.64810 507.000
74.66805 573.000
74.68800 540.000
74.70794 525.000
74.72789 623.000
74.74784 605.000
74.76778 595.000
74.78773 610.000
74.80768 640.000
74.82763 657.000
74.84757 641.000
74.86752 683.000
74.88747 681.000
74.90741 610.000
74.92736 633.000
74.94731 624.000
74.96725 553.000
74.98720 561.000
75.00715 550.000
75.02710 585.000
75.04704 586.000
75.06699 566.000
75.08694 526.000
75.10688 551.000
75.12683 579.000
75.14678 519.000
75.16672 495.000
75.18667 481.000
75.20662 507.000
75.22657 493.000
75.24651 443.000
75.26646 472.000
75.28641 387.000
75.30635 428.000
75.32630 392.000
75.34625 397.000
75.36619 406.000
75.38614 419.000
75.40609 376.000
75.42603 370.000
75.44598 386.000
75.46593 340.000
75.48588 318.000
75.50582 323.000
75.52577 316.000
75.54572 288.000
75.56566 286.000
75.58561 295.000
75.60556 309.000
75.62550 276.000
75.64545 282.000
75.66540 290.000
75.68535 293.000
75.70529 268.000
75.72524 285.000
75.74519 249.000
75.76513 249.000
75.78508 253.000
75.80503 269.000
75.82497 272.000
75.84492 273.000
75.86487 248.000
75.88481 255.000
75.90476 241.000
75.92471 251.000
75.94466 218.000
75.96460 259.000
75.98455 262.000
76.00450 254.000
76.02444 242.000
76.04439 229.000
76.06434 258.000
76.08428 254.000
76.10423 263.000
76.12418 270.000
76.14413 255.000
76.16407 252.000
76.18402 243.000
76.20397 256.000
76.22391 272.000
76.24386 262.000
76.26381 262.000
76.28375 271.000
76.30370 274.000
76.32365 259.000
76.34359 277.000
76.36354 264.000
76.38349 240.000
76.40344 242.000
76.42338 250.000
76.44333 261.000
76.46328 254.000
76.48322 246.000
76.50317 247.000
76.52312 248.000
76.54306 257.000
76.56301 295.000
76.58296 261.000
76.60291 258.000
76.62285 261.000
76.64280 255.000
76.66275 258.000
76.68269 249.000
76.70264 247.000
76.72259 276.000
76.74253 238.000
76.76248 257.000
76.78243 277.000
76.80238 280.000
76.82232 235.000
76.84227 256.000
76.86222 239.000
76.88216 273.000
76.90211 277.000
76.92206 254.000
76.94200 296.000
76.96195 258.000
76.98190 258.000
77.00184 253.000
77.02179 267.000
77.04174 281.000
77.06169 276.000
77.08163 261.000
77.10158 261.000
77.12153 258.000
77.14147 286.000
77.16142 250.000
77.18137 276.000
77.20131 272.000
77.22126 298.000
77.24121 311.000
77.26116 284.000
77.28110 309.000
77.30105 305.000
77.32100 298.000
77.34094 289.000
77.36089 327.000
77.38084 320.000
77.40078 279.000
77.42073 278.000
77.44068 268.000
77.46062 307.000
77.48057 283.000
77.50052 295.000
77.52047 268.000
77.54041 294.000
77.56036 301.000
77.58031 309.000
77.60025 254.000
77.62020 287.000
77.64015 295.000
77.66009 266.000
77.68004 240.000
77.69999 303.000
77.71994 286.000
77.73988 309.000
77.75983 274.000
77.77978 269.000
77.79972 265.000
77.81967 237.000
77.83962 262.000
77.85956 254.000
77.87951 273.000
77.89946 284.000
77.91940 278.000
77.93935 253.000
77.95930 251.000
77.97925 266.000
77.99919 278.000
78.01914 280.000
78.03909 272.000
78.05903 292.000
78.07898 270.000
78.09893 273.000
78.11887 293.000
78.13882 272.000
78.15877 268.000
78.17872 270.000
78.19866 268.000
78.21861 313.000
78.23856 288.000
78.25850 301.000
78.27845 307.000
78.29840 329.000
78.31834 310.000
78.33829 342.000
78.35824 355.000
78.37819 325.000
78.39813 359.000
78.41808 328.000
78.43803 360.000
78.45797 326.000
78.47792 364.000
78.49787 354.000
78.51781 395.000
78.53776 382.000
78.55771 387.000
78.57765 436.000
78.59760 420.000
78.61755 415.000
78.63750 471.000
78.65744 455.000
78.67739 515.000
78.69734 514.000
78.71728 500.000
78.73723 516.000
78.75718 516.000
78.77712 530.000
78.79707 566.000
78.81702 474.000
78.83697 508.000
78.85691 501.000
78.87686 525.000
78.89681 529.000
78.91675 526.000
78.93670 492.000
78.95665 477.000
78.97659 465.000
78.99654 488.000
79.01649 476.000
79.03643 481.000
79.05638 469.000
79.07633 420.000
79.09628 430.000
79.11622 418.000
79.13617 435.000
79.15612 425.000
79.17606 455.000
79.19601 390.000
79.21596 391.000
79.23590 408.000
79.25585 373.000
79.27580 392.000
79.29575 361.000
79.31569 326.000
79.33564 319.000
79.35559 333.000
79.37553 309.000
79.39548 293.000
79.41543 291.000
79.43537 276.000
79.45532 309.000
79.47527 295.000
79.49521 294.000
79.51516 302.000
79.53511 310.000
79.55506 276.000
79.57500 295.000
79.59495 279.000
79.61490 277.000
79.63484 303.000
79.65479 283.000
79.67474 267.000
79.69468 254.000
79.71463 260.000
79.73458 272.000
79.75453 260.000
79.77447 220.000
79.79442 268.000
79.81437 278.000
79.83431 246.000
79.85426 228.000
79.87421 242.000
79.89415 274.000
79.91410 225.000
79.93405 248.000
79.95399 247.000
79.97394 243.000
79.99389 242.000
80.01384 259.000
80.03378 279.000
80.05373 237.000
80.07368 265.000
80.09362 252.000
80.11357 258.000
80.13352 270.000
80.15346 259.000
80.17341 233.000
80.19336 252.000
80.21331 251.000
80.23325 288.000
80.25320 227.000
80.27315 252.000
80.29309 256.000
80.31304 247.000
80.33299 249.000
80.35293 268.000
80.37288 246.000
80.39283 268.000
80.41278 266.000
80.43272 240.000
80.45267 237.000
80.47262 240.000
80.49256 219.000
80.51251 234.000
80.53246 257.000
80.55240 244.000
80.57235 239.000
80.59230 222.000
80.61224 239.000
80.63219 256.000
80.65214 263.000
80.67209 234.000
80.69203 236.000
80.71198 256.000
80.73193 242.000
80.75187 251.000
80.77182 267.000
80.79177 268.000
80.81171 264.000
80.83166 219.000
80.85161 265.000
80.87156 240.000
80.89150 245.000
80.91145 244.000
80.93140 226.000
80.95134 264.000
80.97129 222.000
80.99124 241.000
81.01118 244.000
81.03113 226.000
81.05108 238.000
81.07102 244.000
81.09097 238.000
81.11092 235.000
81.13087 234.000
81.15081 248.000
81.17076 243.000
81.19071 254.000
81.21065 235.000
81.23060 229.000
81.25055 246.000
81.27049 250.000
81.29044 242.000
81.31039 254.000
81.33034 250.000
81.35028 247.000
81.37023 244.000
81.39018 247.000
81.41012 254.000
81.43007 238.000
81.45002 266.000
81.46996 257.000
81.48991 251.000
81.50986 210.000
81.52980 244.000
81.54975 249.000
81.56970 259.000
81.58965 251.000
81.60959 260.000
81.62954 237.000
81.64949 239.000
81.66943 263.000
81.68938 266.000
81.70933 244.000
81.72927 234.000
81.74922 261.000
81.76917 244.000
81.78912 245.000
81.80906 274.000
81.82901 250.000
81.84896 245.000
81.86890 256.000
81.88885 253.000
81.90880 263.000
81.92874 253.000
81.94869 245.000
81.96864 224.000
81.98859 268.000
82.00853 246.000
82.02848 229.000
82.04843 248.000
82.06837 235.000
82.08832 251.000
82.10827 284.000
82.12821 270.000
82.14816 244.000
82.16811 204.000
82.18805 275.000
82.20800 251.000
82.22795 262.000
82.24790 249.000
82.26784 264.000
82.28779 245.000
82.30774 245.000
82.32768 270.000
82.34763 265.000
82.36758 226.000
82.38752 251.000
82.40747 255.000
82.42742 262.000
82.44737 253.000
82.46731 246.000
82.48726 246.000
82.50721 268.000
82.52715 265.000
82.54710 270.000
82.56705 255.000
82.58699 255.000
82.60694 239.000
82.62689 244.000
82.64683 258.000
82.66678 255.000
82.68673 238.000
82.70668 232.000
82.72662 244.000
82.74657 251.000
82.76652 232.000
82.78646 245.000
82.80641 227.000
82.82636 226.000
82.84630 270.000
82.86625 208.000
82.88620 237.000
82.90615 258.000
82.92609 260.000
82.94604 242.000
82.96599 256.000
82.98593 226.000
83.00588 270.000
83.02583 268.000
83.04577 217.000
83.06572 256.000
83.08567 256.000
83.10561 254.000
83.12556 259.000
83.14551 257.000
83.16546 240.000
83.18540 241.000
83.20535 252.000
83.22530 265.000
83.24524 229.000
83.26519 235.000
83.28514 217.000
83.30508 257.000
83.32503 227.000
83.34498 244.000
83.36493 240.000
83.38487 252.000
83.40482 246.000
83.42477 260.000
83.44471 261.000
83.46466 250.000
83.48461 256.000
83.50455 228.000
83.52450 284.000
83.54445 242.000
83.56440 253.000
83.58434 248.000
83.60429 273.000
83.62424 264.000
83.64418 245.000
83.66413 238.000
83.68408 250.000
83.70402 231.000
83.72397 232.000
83.74392 221.000
83.76386 240.000
83.78381 243.000
83.80376 264.000
83.82371 223.000
83.84365 226.000
83.86360 223.000
83.88355 253.000
83.90349 254.000
83.92344 251.000
83.94339 245.000
83.96333 246.000
83.98328 210.000
84.00323 262.000
84.02318 239.000
84.04312 220.000
84.06307 243.000
84.08302 259.000
84.10296 275.000
84.12291 229.000
84.14286 269.000
84.16280 252.000
84.18275 248.000
84.20270 232.000
84.22264 253.000
84.24259 230.000
84.26254 238.000
84.28249 232.000
84.30243 222.000
84.32238 259.000
84.34233 233.000
84.36227 252.000
84.38222 250.000
84.40217 221.000
84.42211 240.000
84.44206 250.000
84.46201 277.000
84.48196 259.000
84.50190 242.000
84.52185 272.000
84.54180 230.000
84.56174 249.000
84.58169 229.000
84.60164 244.000
84.62158 255.000
84.64153 220.000
84.66148 254.000
84.68142 250.000
84.70137 256.000
84.72132 262.000
84.74127 257.000
84.76121 263.000
84.78116 269.000
84.80111 236.000
84.82105 223.000
84.84100 239.000
84.86095 236.000
84.88089 245.000
84.90084 272.000
84.92079 247.000
84.94074 236.000
84.96068 235.000
84.98063 246.000
85.00058 241.000
85.02052 256.000
85.04047 249.000
85.06042 242.000
85.08036 220.000
85.10031 232.000
85.12026 252.000
85.14021 255.000
85.16015 258.000
85.18010 258.000
85.20005 272.000
85.21999 245.000
85.23994 243.000
85.25989 258.000
85.27983 265.000
85.29978 244.000
85.31973 263.000
85.33967 262.000
85.35962 240.000
85.37957 257.000
85.39952 261.000
85.41946 236.000
85.43941 252.000
85.45936 225.000
85.47930 245.000
85.49925 245.000
85.51920 233.000
85.53914 234.000
85.55909 241.000
85.57904 247.000
85.59899 224.000
85.61893 245.000
85.63888 222.000
85.65883 260.000
85.67877 230.000
85.69872 255.000
85.71867 253.000
85.73861 250.000
85.75856 269.000
85.77851 255.000
85.79845 232.000
85.81840 242.000
85.83835 246.000
85.85830 253.000
85.87824 220.000
85.89819 245.000
85.91814 249.000
85.93808 255.000
85.95803 262.000
85.97798 221.000
85.99792 255.000
86.01787 268.000
86.03782 256.000
86.05777 219.000
86.07771 251.000
86.09766 250.000
86.11761 262.000
86.13755 263.000
86.15750 252.000
86.17745 223.000
86.19739 232.000
86.21734 254.000
86.23729 251.000
86.25723 245.000
86.27718 255.000
86.29713 249.000
86.31708 251.000
86.33702 245.000
86.35697 227.000
86.37692 245.000
86.39686 247.000
86.41681 225.000
86.43676 240.000
86.45670 270.000
86.47665 253.000
86.49660 253.000
86.51655 222.000
86.53649 229.000
86.55644 254.000
86.57639 234.000
86.59633 274.000
86.61628 270.000
86.63623 273.000
86.65617 223.000
86.67612 246.000
86.69607 244.000
86.71602 247.000
86.73596 245.000
86.75591 292.000
86.77586 261.000
86.79580 237.000
86.81575 216.000
86.83570 255.000
86.85564 230.000
86.87559 267.000
86.89554 241.000
86.91548 286.000
86.93543 250.000
86.95538 273.000
86.97533 248.000
86.99527 230.000
87.01522 262.000
87.03517 268.000
87.05511 276.000
87.07506 270.000
87.09501 253.000
87.11495 222.000
87.13490 271.000
87.15485 257.000
87.17480 237.000
87.19474 235.000
87.21469 258.000
87.23464 246.000
87.25458 236.000
87.27453 275.000
87.29448 243.000
87.31442 249.000
87.33437 248.000
87.35432 260.000
87.37426 249.000
87.39421 254.000
87.41416 234.000
87.43411 253.000
87.45405 239.000
87.47400 246.000
87.49395 219.000
87.51389 266.000
87.53384 266.000
87.55379 260.000
87.57373 269.000
87.59368 243.000
87.61363 254.000
87.63358 259.000
87.65352 259.000
87.67347 244.000
87.69342 257.000
87.71336 255.000
87.73331 252.000
87.75326 260.000
87.77320 273.000
87.79315 223.000
87.81310 241.000
87.83304 214.000
87.85299 252.000
87.87294 234.000
87.89289 222.000
87.91283 269.000
87.93278 264.000
87.95273 267.000
87.97267 221.000
87.99262 236.000
88.01257 244.000
88.03251 238.000
88.05246 248.000
88.07241 245.000
88.09236 240.000
88.11230 258.000
88.13225 264.000
88.15220 264.000
88.17214 252.000
88.19209 231.000
88.21204 252.000
88.23198 272.000
88.25193 238.000
88.27188 228.000
88.29183 264.000
88.31177 267.000
88.33172 267.000
88.35167 291.000
88.37161 223.000
88.39156 256.000
88.41151 236.000
88.43145 227.000
88.45140 278.000
88.47135 256.000
88.49129 261.000
88.51124 241.000
88.53119 225.000
88.55114 234.000
88.57108 284.000
88.59103 231.000
88.61098 238.000
88.63092 242.000
88.65087 235.000
88.67082 205.000
88.69076 235.000
88.71071 232.000
88.73066 228.000
88.75061 256.000
88.77055 235.000
88.79050 224.000
88.81045 229.000
88.83039 230.000
88.85034 241.000
88.87029 226.000
88.89023 272.000
88.91018 233.000
88.93013 253.000
88.95007 215.000
88.97002 234.000
88.98997 273.000
89.00992 279.000
89.02986 235.000
89.04981 216.000
89.06976 228.000
89.08970 251.000
89.10965 277.000
89.12960 228.000
89.14954 229.000
89.16949 249.000
89.18944 259.000
89.20939 243.000
89.22933 234.000
89.24928 253.000
89.26923 230.000
89.28917 244.000
89.30912 228.000
89.32907 259.000
89.34901 251.000
89.36896 245.000
89.38891 281.000
89.40885 216.000
89.42880 262.000
89.44875 247.000
89.46870 217.000
89.48864 277.000
89.50859 215.000
89.52854 225.000
89.54848 239.000
89.56843 243.000
89.58838 264.000
89.60832 262.000
89.62827 239.000
89.64822 232.000
89.66817 251.000
89.68811 231.000
89.70806 230.000
89.72801 233.000
89.74795 254.000
89.76790 237.000
89.78785 246.000
89.80779 252.000
89.82774 246.000
89.84769 266.000
89.86764 262.000
89.88758 250.000
89.90753 242.000
89.92748 251.000
89.94742 257.000
89.96737 247.000
89.98732 267.000
90.00726 280.000
