10.00000 214.000
10.01995 216.000
10.03989 185.000
10.05984 211.000
10.07979 212.000
10.09973 242.000
10.11968 186.000
10.13963 208.000
10.15958 207.000
10.17952 187.000
10.19947 218.000
10.21942 200.000
10.23936 217.000
10.25931 222.000
10.27926 221.000
10.29920 223.000
10.31915 212.000
10.33910 213.000
10.35905 208.000
10.37899 230.000
10.39894 229.000
10.41889 212.000
10.43883 237.000
10.45878 186.000
10.47873 202.000
10.49867 188.000
10.51862 223.000
10.53857 213.000
10.55851 232.000
10.57846 177.000
10.59841 206.000
10.61836 217.000
10.63830 230.000
10.65825 223.000
10.67820 222.000
10.69814 223.000
10.71809 196.000
10.73804 203.000
10.75798 216.000
10.77793 208.000
10.79788 216.000
10.81783 221.000
10.83777 224.000
10.85772 237.000
10.87767 192.000
10.89761 216.000
10.91756 189.000
10.93751 214.000
10.95745 211.000
10.97740 258.000
10.99735 252.000
11.01730 214.000
11.03724 214.000
11.05719 204.000
11.07714 203.000
11.09708 197.000
11.11703 204.000
11.13698 212.000
11.15692 222.000
11.17687 214.000
11.19682 221.000
11.21676 207.000
11.23671 200.000
11.25666 204.000
11.27661 218.000
11.29655 232.000
11.31650 205.000
11.33645 230.000
11.35639 203.000
11.37634 216.000
11.39629 198.000
11.41623 238.000
11.43618 212.000
11.45613 192.000
11.47608 211.000
11.49602 222.000
11.51597 209.000
11.53592 229.000
11.55586 229.000
11.57581 219.000
11.59576 196.000
11.61570 208.000
11.63565 238.000
11.65560 200.000
11.67554 181.000
11.69549 210.000
11.71544 211.000
11.73539 205.000
11.75533 209.000
11.77528 220.000
11.79523 226.000
11.81517 216.000
11.83512 214.000
11.85507 213.000
11.87501 207.000
11.89496 225.000
11.91491 193.000
11.93486 206.000
11.95480 212.000
11.97475 242.000
11.99470 223.000
12.01464 223.000
12.03459 208.000
12.05454 205.000
12.07448 214.000
12.09443 216.000
12.11438 189.000
12.13432 191.000
12.15427 217.000
12.17422 215.000
12.19417 206.000
12.21411 211.000
12.23406 218.000
12.25401 171.000
12.27395 212.000
12.29390 206.000
12.31385 208.000
12.33379 227.000
12.35374 225.000
12.37369 218.000
12.39364 214.000
12.41358 200.000
12.43353 189.000
12.45348 213.000
12.47342 197.000
12.49337 219.000
12.51332 202.000
12.53326 235.000
12.55321 219.000
12.57316 197.000
12.59311 230.000
12.61305 222.000
12.63300 221.000
12.65295 202.000
12.67289 224.000
12.69284 206.000
12.71279 194.000
12.73273 220.000
12.75268 221.000
12.77263 224.000
12.79257 203.000
12.81252 226.000
12.83247 217.000
12.85242 225.000
12.87236 215.000
12.89231 201.000
12.91226 219.000
12.93220 186.000
12.95215 200.000
12.97210 196.000
12.99204 211.000
13.01199 201.000
13.03194 220.000
13.05189 200.000
13.07183 200.000
13.09178 206.000
13.11173 239.000
13.13167 225.000
13.15162 190.000
13.17157 237.000
13.19151 199.000
13.21146 232.000
13.23141 223.000
13.25135 221.000
13.27130 205.000
13.29125 201.000
13.31120 208.000
13.33114 203.000
13.35109 213.000
13.37104 226.000
13.39098 215.000
13.41093 213.000
13.43088 196.000
13.45082 236.000
13.47077 208.000
13.49072 195.000
13.51067 200.000
13.53061 234.000
13.55056 228.000
13.57051 204.000
13.59045 205.000
13.61040 216.000
13.63035 212.000
13.65029 194.000
13.67024 227.000
13.69019 224.000
13.71013 209.000
13.73008 217.000
13.75003 213.000
13.76998 197.000
13.78992 201.000
13.80987 223.000
13.82982 205.000
13.84976 198.000
13.86971 194.000
13.88966 219.000
13.90960 231.000
13.92955 240.000
13.94950 215.000
13.96945 228.000
13.98939 240.000
14.00934 230.000
14.02929 230.000
14.04923 228.000
14.06918 230.000
14.08913 227.000
14.10907 234.000
14.12902 215.000
14.14897 214.000
14.16892 187.000
14.18886 224.000
14.20881 213.000
14.22876 235.000
14.24870 209.000
14.26865 203.000
14.28860 212.000
14.30854 193.000
14.32849 227.000
14.34844 235.000
14.36838 220.000
14.38833 200.000
14.40828 212.000
14.42823 253.000
14.44817 200.000
14.46812 214.000
14.48807 240.000
14.50801 222.000
14.52796 213.000
14.54791 195.000
14.56785 224.000
14.58780 208.000
14.60775 216.000
14.62770 214.000
14.64764 211.000
14.66759 214.000
14.68754 192.000
14.70748 216.000
14.72743 215.000
14.74738 174.000
14.76732 226.000
14.78727 227.000
14.80722 225.000
14.82716 219.000
14.84711 231.000
14.86706 196.000
14.88701 194.000
14.90695 183.000
14.92690 209.000
14.94685 226.000
14.96679 206.000
14.98674 218.000
15.00669 203.000
15.02663 212.000
15.04658 234.000
15.06653 204.000
15.08648 201.000
15.10642 259.000
15.12637 208.000
15.14632 230.000
15.16626 205.000
15.18621 218.000
15.20616 229.000
15.22610 212.000
15.24605 204.000
15.26600 215.000
15.28594 213.000
15.30589 226.000
15.32584 237.000
15.34579 185.000
15.36573 245.000
15.38568 233.000
15.40563 236.000
15.42557 208.000
15.44552 217.000
15.46547 209.000
15.48541 223.000
15.50536 220.000
15.52531 206.000
15.54526 220.000
15.56520 235.000
15.58515 235.000
15.60510 198.000
15.62504 244.000
15.64499 232.000
15.66494 236.000
15.68488 270.000
15.70483 283.000
15.72478 314.000
15.74472 310.000
15.76467 363.000
15.78462 405.000
15.80457 423.000
15.82451 444.000
15.84446 458.000
15.86441 440.000
15.88435 376.000
15.90430 335.000
15.92425 306.000
15.94419 323.000
15.96414 297.000
15.98409 277.000
16.00404 315.000
16.02398 348.000
16.04393 422.000
16.06388 444.000
16.08382 492.000
16.10377 552.000
16.12372 552.000
16.14366 645.000
16.16361 587.000
16.18356 646.000
16.20351 743.000
16.22345 716.000
16.24340 754.000
16.26335 804.000
16.28329 897.000
16.30324 968.000
16.32319 1143.000
16.34313 1247.000
16.36308 1303.000
16.38303 1368.000
16.40297 1416.000
16.42292 1294.000
16.44287 1111.000
16.46282 986.000
16.48276 779.000
16.50271 591.000
16.52266 520.000
16.54260 424.000
16.56255 350.000
16.58250 341.000
16.60244 297.000
16.62239 317.000
16.64234 314.000
16.66229 279.000
16.68223 278.000
16.70218 257.000
16.72213 270.000
16.74207 262.000
16.76202 264.000
16.78197 252.000
16.80191 244.000
16.82186 268.000
16.84181 266.000
16.86175 233.000
16.88170 258.000
16.90165 243.000
16.92160 226.000
16.94154 223.000
16.96149 257.000
16.98144 253.000
17.00138 220.000
17.02133 238.000
17.04128 212.000
17.06122 244.000
17.08117 227.000
17.10112 259.000
17.12107 237.000
17.14101 249.000
17.16096 233.000
17.18091 217.000
17.20085 184.000
17.22080 227.000
17.24075 243.000
17.26069 239.000
17.28064 232.000
17.30059 238.000
17.32053 217.000
17.34048 219.000
17.36043 244.000
17.38038 222.000
17.40032 231.000
17.42027 206.000
17.44022 231.000
17.46016 221.000
17.48011 225.000
17.50006 205.000
17.52000 223.000
17.53995 234.000
17.55990 249.000
17.57985 212.000
17.59979 198.000
17.61974 235.000
17.63969 229.000
17.65963 204.000
17.67958 234.000
17.69953 222.000
17.71947 230.000
17.73942 229.000
17.75937 234.000
17.77932 199.000
17.79926 218.000
17.81921 215.000
17.83916 206.000
17.85910 210.000
17.87905 195.000
17.89900 229.000
17.91894 205.000
17.93889 198.000
17.95884 232.000
17.97878 220.000
17.99873 243.000
18.01868 209.000
18.03863 242.000
18.05857 194.000
18.07852 208.000
18.09847 196.000
18.11841 220.000
18.13836 214.000
18.15831 229.000
18.17825 218.000
18.19820 227.000
18.21815 248.000
18.23810 258.000
18.25804 256.000
18.27799 273.000
18.29794 315.000
18.31788 357.000
18.33783 386.000
18.35778 439.000
18.37772 503.000
18.39767 455.000
18.41762 431.000
18.43756 342.000
18.45751 305.000
18.47746 242.000
18.49741 210.000
18.51735 208.000
18.53730 221.000
18.55725 200.000
18.57719 244.000
18.59714 216.000
18.61709 228.000
18.63703 212.000
18.65698 213.000
18.67693 212.000
18.69688 224.000
18.71682 225.000
18.73677 192.000
18.75672 242.000
18.77666 215.000
18.79661 216.000
18.81656 195.000
18.83650 226.000
18.85645 215.000
18.87640 199.000
18.89634 201.000
18.91629 228.000
18.93624 225.000
18.95619 201.000
18.97613 213.000
18.99608 211.000
19.01603 212.000
19.03597 207.000
19.05592 233.000
19.07587 193.000
19.09581 239.000
19.11576 225.000
19.13571 207.000
19.15566 202.000
19.17560 216.000
19.19555 198.000
19.21550 197.000
19.23544 205.000
19.25539 216.000
19.27534 227.000
19.29528 194.000
19.31523 197.000
19.33518 231.000
19.35513 229.000
19.37507 236.000
19.39502 221.000
19.41497 219.000
19.43491 225.000
19.45486 203.000
19.47481 216.000
19.49475 224.000
19.51470 217.000
19.53465 212.000
19.55459 227.000
19.57454 195.000
19.59449 226.000
19.61444 210.000
19.63438 193.000
19.65433 209.000
19.67428 223.000
19.69422 219.000
19.71417 209.000
19.73412 220.000
19.75406 206.000
19.77401 204.000
19.79396 223.000
19.81391 214.000
19.83385 195.000
19.85380 238.000
19.87375 227.000
19.89369 206.000
19.91364 229.000
19.93359 208.000
19.95353 252.000
19.97348 214.000
19.99343 205.000
20.01337 216.000
20.03332 219.000
20.05327 222.000
20.07322 232.000
20.09316 195.000
20.11311 214.000
20.13306 236.000
20.15300 229.000
20.17295 228.000
20.19290 202.000
20.21284 218.000
20.23279 203.000
20.25274 220.000
20.27269 190.000
20.29263 244.000
20.31258 206.000
20.33253 218.000
20.35247 207.000
20.37242 172.000
20.39237 206.000
20.41231 233.000
20.43226 248.000
20.45221 237.000
20.47215 270.000
20.49210 220.000
20.51205 244.000
20.53200 204.000
20.55194 265.000
20.57189 278.000
20.59184 266.000
20.61178 237.000
20.63173 247.000
20.65168 235.000
20.67162 256.000
20.69157 253.000
20.71152 258.000
20.73147 271.000
20.75141 259.000
20.77136 294.000
20.79131 283.000
20.81125 280.000
20.83120 276.000
20.85115 322.000
20.87109 325.000
20.89104 353.000
20.91099 307.000
20.93094 274.000
20.95088 263.000
20.97083 275.000
20.99078 262.000
21.01072 258.000
21.03067 250.000
21.05062 235.000
21.07056 247.000
21.09051 215.000
21.11046 239.000
21.13040 225.000
21.15035 206.000
21.17030 238.000
21.19025 199.000
21.21019 241.000
21.23014 213.000
21.25009 208.000
21.27003 209.000
21.28998 218.000
21.30993 215.000
21.32987 214.000
21.34982 199.000
21.36977 232.000
21.38972 206.000
21.40966 237.000
21.42961 221.000
21.44956 201.000
21.46950 210.000
21.48945 205.000
21.50940 181.000
21.52934 191.000
21.54929 187.000
21.56924 226.000
21.58918 204.000
21.60913 231.000
21.62908 184.000
21.64903 236.000
21.66897 214.000
21.68892 206.000
21.70887 220.000
21.72881 220.000
21.74876 210.000
21.76871 214.000
21.78865 201.000
21.80860 200.000
21.82855 205.000
21.84850 223.000
21.86844 210.000
21.88839 215.000
21.90834 191.000
21.92828 207.000
21.94823 222.000
21.96818 225.000
21.98812 205.000
22.00807 197.000
22.02802 207.000
22.04796 212.000
22.06791 200.000
22.08786 203.000
22.10781 228.000
22.12775 217.000
22.14770 224.000
22.16765 186.000
22.18759 208.000
22.20754 188.000
22.22749 237.000
22.24743 207.000
22.26738 211.000
22.28733 223.000
22.30728 223.000
22.32722 204.000
22.34717 197.000
22.36712 213.000
22.38706 217.000
22.40701 197.000
22.42696 206.000
22.44690 222.000
22.46685 220.000
22.48680 197.000
22.50675 189.000
22.52669 216.000
22.54664 213.000
22.56659 233.000
22.58653 246.000
22.60648 214.000
22.62643 208.000
22.64637 225.000
22.66632 214.000
22.68627 213.000
22.70621 219.000
22.72616 237.000
22.74611 222.000
22.76606 229.000
22.78600 220.000
22.80595 208.000
22.82590 234.000
22.84584 203.000
22.86579 231.000
22.88574 217.000
22.90568 230.000
22.92563 222.000
22.94558 187.000
22.96553 207.000
22.98547 193.000
23.00542 199.000
23.02537 206.000
23.04531 220.000
23.06526 229.000
23.08521 224.000
23.10515 202.000
23.12510 211.000
23.14505 209.000
23.16499 221.000
23.18494 210.000
23.20489 222.000
23.22484 192.000
23.24478 237.000
23.26473 226.000
23.28468 215.000
23.30462 212.000
23.32457 223.000
23.34452 222.000
23.36446 216.000
23.38441 189.000
23.40436 203.000
23.42431 236.000
23.44425 215.000
23.46420 234.000
23.48415 193.000
23.50409 216.000
23.52404 211.000
23.54399 231.000
23.56393 210.000
23.58388 209.000
23.60383 234.000
23.62377 221.000
23.64372 203.000
23.66367 198.000
23.68362 217.000
23.70356 197.000
23.72351 220.000
23.74346 241.000
23.76340 202.000
23.78335 230.000
23.80330 205.000
23.82324 217.000
23.84319 204.000
23.86314 236.000
23.88309 204.000
23.90303 224.000
23.92298 213.000
23.94293 205.000
23.96287 211.000
23.98282 216.000
24.00277 231.000
24.02271 214.000
24.04266 220.000
24.06261 239.000
24.08256 213.000
24.10250 222.000
24.12245 233.000
24.14240 250.000
24.16234 209.000
24.18229 190.000
24.20224 198.000
24.22218 230.000
24.24213 228.000
24.26208 194.000
24.28202 222.000
24.30197 215.000
24.32192 212.000
24.34187 236.000
24.36181 251.000
24.38176 218.000
24.40171 201.000
24.42165 215.000
24.44160 239.000
24.46155 204.000
24.48149 209.000
24.50144 222.000
24.52139 219.000
24.54134 210.000
24.56128 211.000
24.58123 239.000
24.60118 231.000
24.62112 216.000
24.64107 214.000
24.66102 211.000
24.68096 216.000
24.70091 220.000
24.72086 221.000
24.74080 209.000
24.76075 222.000
24.78070 223.000
24.80065 227.000
24.82059 226.000
24.84054 219.000
24.86049 220.000
24.88043 216.000
24.90038 246.000
24.92033 203.000
24.94027 209.000
24.96022 219.000
24.98017 244.000
25.00012 235.000
25.02006 236.000
25.04001 206.000
25.05996 195.000
25.07990 218.000
25.09985 230.000
25.11980 211.000
25.13974 233.000
25.15969 207.000
25.17964 236.000
25.19958 262.000
25.21953 231.000
25.23948 200.000
25.25943 192.000
25.27937 213.000
25.29932 208.000
25.31927 236.000
25.33921 211.000
25.35916 243.000
25.37911 212.000
25.39905 202.000
25.41900 244.000
25.43895 235.000
25.45890 223.000
25.47884 204.000
25.49879 247.000
25.51874 211.000
25.53868 213.000
25.55863 237.000
25.57858 205.000
25.59852 209.000
25.61847 225.000
25.63842 230.000
25.65837 228.000
25.67831 244.000
25.69826 213.000
25.71821 223.000
25.73815 218.000
25.75810 224.000
25.77805 201.000
25.79799 219.000
25.81794 236.000
25.83789 211.000
25.85783 240.000
25.87778 226.000
25.89773 239.000
25.91768 234.000
25.93762 215.000
25.95757 214.000
25.97752 233.000
25.99746 229.000
26.01741 235.000
26.03736 247.000
26.05730 223.000
26.07725 219.000
26.09720 236.000
26.11715 235.000
26.13709 226.000
26.15704 218.000
26.17699 231.000
26.19693 199.000
26.21688 234.000
26.23683 209.000
26.25677 249.000
26.27672 198.000
26.29667 227.000
26.31661 203.000
26.33656 204.000
26.35651 232.000
26.37646 200.000
26.39640 198.000
26.41635 208.000
26.43630 237.000
26.45624 238.000
26.47619 213.000
26.49614 238.000
26.51608 222.000
26.53603 249.000
26.55598 238.000
26.57593 246.000
26.59587 250.000
26.61582 200.000
26.63577 231.000
26.65571 221.000
26.67566 230.000
26.69561 227.000
26.71555 247.000
26.73550 201.000
26.75545 218.000
26.77539 248.000
26.79534 168.000
26.81529 197.000
26.83524 198.000
26.85518 219.000
26.87513 224.000
26.89508 241.000
26.91502 208.000
26.93497 212.000
26.95492 241.000
26.97486 242.000
26.99481 244.000
27.01476 216.000
27.03471 223.000
27.05465 235.000
27.07460 209.000
27.09455 212.000
27.11449 227.000
27.13444 214.000
27.15439 223.000
27.17433 209.000
27.19428 216.000
27.21423 210.000
27.23417 194.000
27.25412 230.000
27.27407 242.000
27.29402 220.000
27.31396 227.000
27.33391 220.000
27.35386 237.000
27.37380 210.000
27.39375 189.000
27.41370 197.000
27.43364 215.000
27.45359 216.000
27.47354 229.000
27.49349 235.000
27.51343 223.000
27.53338 224.000
27.55333 247.000
27.57327 199.000
27.59322 216.000
27.61317 237.000
27.63311 206.000
27.65306 217.000
27.67301 230.000
27.69296 201.000
27.71290 219.000
27.73285 219.000
27.75280 224.000
27.77274 213.000
27.79269 205.000
27.81264 221.000
27.83258 220.000
27.85253 209.000
27.87248 248.000
27.89242 200.000
27.91237 227.000
27.93232 234.000
27.95227 224.000
27.97221 220.000
27.99216 200.000
28.01211 250.000
28.03205 225.000
28.05200 220.000
28.07195 216.000
28.09189 205.000
28.11184 212.000
28.13179 217.000
28.15174 230.000
28.17168 219.000
28.19163 196.000
28.21158 223.000
28.23152 231.000
28.25147 224.000
28.27142 200.000
28.29136 217.000
28.31131 213.000
28.33126 196.000
28.35120 241.000
28.37115 202.000
28.39110 242.000
28.41105 235.000
28.43099 204.000
28.45094 217.000
28.47089 221.000
28.49083 187.000
28.51078 244.000
28.53073 245.000
28.55067 216.000
28.57062 229.000
28.59057 229.000
28.61052 212.000
28.63046 215.000
28.65041 223.000
28.67036 203.000
28.69030 212.000
28.71025 211.000
28.73020 198.000
28.75014 221.000
28.77009 236.000
28.79004 241.000
28.80998 210.000
28.82993 208.000
28.84988 213.000
28.86983 240.000
28.88977 214.000
28.90972 225.000
28.92967 232.000
28.94961 230.000
28.96956 244.000
28.98951 229.000
29.00945 205.000
29.02940 240.000
29.04935 232.000
29.06930 233.000
29.08924 219.000
29.10919 227.000
29.12914 203.000
29.14908 238.000
29.16903 233.000
29.18898 245.000
29.20892 225.000
29.22887 225.000
29.24882 226.000
29.26877 214.000
29.28871 230.000
29.30866 228.000
29.32861 254.000
29.34855 235.000
29.36850 237.000
29.38845 236.000
29.40839 203.000
29.42834 255.000
29.44829 245.000
29.46823 240.000
29.48818 254.000
29.50813 245.000
29.52808 236.000
29.54802 243.000
29.56797 247.000
29.58792 215.000
29.60786 245.000
29.62781 227.000
29.64776 226.000
29.66770 228.000
29.68765 219.000
29.70760 210.000
29.72755 239.000
29.74749 244.000
29.76744 247.000
29.78739 226.000
29.80733 212.000
29.82728 255.000
29.84723 242.000
29.86717 204.000
29.88712 259.000
29.90707 236.000
29.92701 268.000
29.94696 224.000
29.96691 257.000
29.98686 238.000
30.00680 274.000
30.02675 244.000
30.04670 282.000
30.06664 320.000
30.08659 366.000
30.10654 392.000
30.12648 388.000
30.14643 468.000
30.16638 520.000
30.18633 628.000
30.20627 737.000
30.22622 748.000
30.24617 808.000
30.26611 683.000
30.28606 625.000
30.30601 565.000
30.32595 483.000
30.34590 418.000
30.36585 342.000
30.38579 294.000
30.40574 282.000
30.42569 279.000
30.44564 261.000
30.46558 274.000
30.48553 263.000
30.50548 222.000
30.52542 242.000
30.54537 219.000
30.56532 228.000
30.58526 243.000
30.60521 252.000
30.62516 244.000
30.64511 245.000
30.66505 216.000
30.68500 254.000
30.70495 234.000
30.72489 240.000
30.74484 228.000
30.76479 232.000
30.78473 208.000
30.80468 239.000
30.82463 236.000
30.84458 237.000
30.86452 242.000
30.88447 253.000
30.90442 229.000
30.92436 236.000
30.94431 248.000
30.96426 212.000
30.98420 197.000
31.00415 194.000
31.02410 214.000
31.04404 226.000
31.06399 220.000
31.08394 232.000
31.10389 224.000
31.12383 248.000
31.14378 238.000
31.16373 209.000
31.18367 225.000
31.20362 246.000
31.22357 238.000
31.24351 198.000
31.26346 250.000
31.28341 236.000
31.30336 194.000
31.32330 231.000
31.34325 227.000
31.36320 231.000
31.38314 228.000
31.40309 233.000
31.42304 240.000
31.44298 204.000
31.46293 240.000
31.48288 236.000
31.50282 243.000
31.52277 213.000
31.54272 234.000
31.56267 214.000
31.58261 241.000
31.60256 215.000
31.62251 226.000
31.64245 241.000
31.66240 243.000
31.68235 232.000
31.70229 239.000
31.72224 231.000
31.74219 226.000
31.76214 232.000
31.78208 241.000
31.80203 229.000
31.82198 219.000
31.84192 227.000
31.86187 235.000
31.88182 255.000
31.90176 233.000
31.92171 233.000
31.94166 224.000
31.96160 258.000
31.98155 266.000
32.00150 274.000
32.02145 229.000
32.04139 265.000
32.06134 232.000
32.08129 244.000
32.10123 247.000
32.12118 257.000
32.14113 233.000
32.16107 253.000
32.18102 257.000
32.20097 250.000
32.22092 223.000
32.24086 240.000
32.26081 210.000
32.28076 256.000
32.30070 238.000
32.32065 256.000
32.34060 239.000
32.36054 269.000
32.38049 267.000
32.40044 266.000
32.42039 287.000
32.44033 309.000
32.46028 318.000
32.48023 343.000
32.50017 358.000
32.52012 370.000
32.54007 373.000
32.56001 347.000
32.57996 384.000
32.59991 386.000
32.61985 327.000
32.63980 312.000
32.65975 248.000
32.67970 320.000
32.69964 279.000
32.71959 273.000
32.73954 274.000
32.75948 250.000
32.77943 302.000
32.79938 278.000
32.81932 242.000
32.83927 268.000
32.85922 270.000
32.87917 279.000
32.89911 276.000
32.91906 287.000
32.93901 275.000
32.95895 279.000
32.97890 313.000
32.99885 349.000
33.01879 253.000
33.03874 313.000
33.05869 335.000
33.07863 328.000
33.09858 319.000
33.11853 324.000
33.13848 347.000
33.15842 354.000
33.17837 350.000
33.19832 371.000
33.21826 354.000
33.23821 306.000
33.25816 306.000
33.27810 311.000
33.29805 319.000
33.31800 295.000
33.33795 297.000
33.35789 291.000
33.37784 259.000
33.39779 274.000
33.41773 273.000
33.43768 238.000
33.45763 239.000
33.47757 278.000
33.49752 239.000
33.51747 249.000
33.53741 233.000
33.55736 242.000
33.57731 254.000
33.59726 243.000
33.61720 239.000
33.63715 251.000
33.65710 247.000
33.67704 236.000
33.69699 233.000
33.71694 253.000
33.73688 255.000
33.75683 254.000
33.77678 241.000
33.79673 257.000
33.81667 258.000
33.83662 270.000
33.85657 237.000
33.87651 263.000
33.89646 260.000
33.91641 274.000
33.93635 289.000
33.95630 256.000
33.97625 265.000
33.99620 304.000
34.01614 270.000
34.03609 251.000
34.05604 269.000
34.07598 316.000
34.09593 269.000
34.11588 312.000
34.13582 293.000
34.15577 277.000
34.17572 322.000
34.19566 300.000
34.21561 330.000
34.23556 309.000
34.25551 293.000
34.27545 325.000
34.29540 319.000
34.31535 326.000
34.33529 353.000
34.35524 307.000
34.37519 332.000
34.39513 340.000
34.41508 323.000
34.43503 311.000
34.45498 293.000
34.47492 308.000
34.49487 329.000
34.51482 340.000
34.53476 322.000
34.55471 292.000
34.57466 322.000
34.59460 302.000
34.61455 303.000
34.63450 308.000
34.65444 283.000
34.67439 282.000
34.69434 258.000
34.71429 294.000
34.73423 283.000
34.75418 314.000
34.77413 315.000
34.79407 301.000
34.81402 306.000
34.83397 288.000
34.85391 291.000
34.87386 275.000
34.89381 319.000
34.91376 329.000
34.93370 324.000
34.95365 381.000
34.97360 366.000
34.99354 380.000
35.01349 402.000
35.03344 478.000
35.05338 416.000
35.07333 457.000
35.09328 478.000
35.11322 486.000
35.13317 473.000
35.15312 442.000
35.17307 441.000
35.19301 441.000
35.21296 473.000
35.23291 485.000
35.25285 457.000
35.27280 510.000
35.29275 522.000
35.31269 575.000
35.33264 627.000
35.35259 726.000
35.37254 900.000
35.39248 1102.000
35.41243 1335.000
35.43238 1378.000
35.45232 1556.000
35.47227 1603.000
35.49222 1891.000
35.51216 2188.000
35.53211 2561.000
35.55206 2660.000
35.57201 2783.000
35.59195 3025.000
35.61190 3102.000
35.63185 2876.000
35.65179 2550.000
35.67174 2179.000
35.69169 1852.000
35.71163 1669.000
35.73158 1333.000
35.75153 1001.000
35.77147 804.000
35.79142 629.000
35.81137 503.000
35.83132 473.000
35.85126 410.000
35.87121 383.000
35.89116 356.000
35.91110 344.000
35.93105 322.000
35.95100 320.000
35.97094 304.000
35.99089 313.000
36.01084 302.000
36.03079 306.000
36.05073 303.000
36.07068 309.000
36.09063 301.000
36.11057 281.000
36.13052 279.000
36.15047 295.000
36.17041 267.000
36.19036 320.000
36.21031 321.000
36.23025 302.000
36.25020 317.000
36.27015 395.000
36.29010 394.000
36.31004 424.000
36.32999 486.000
36.34994 490.000
36.36988 505.000
36.38983 501.000
36.40978 500.000
36.42972 574.000
36.44967 498.000
36.46962 520.000
36.48957 484.000
36.50951 469.000
36.52946 416.000
36.54941 429.000
36.56935 380.000
36.58930 356.000
36.60925 377.000
36.62919 358.000
36.64914 345.000
36.66909 333.000
36.68903 339.000
36.70898 320.000
36.72893 302.000
36.74888 317.000
36.76882 271.000
36.78877 322.000
36.80872 290.000
36.82866 246.000
36.84861 295.000
36.86856 315.000
36.88850 300.000
36.90845 274.000
36.92840 277.000
36.94835 324.000
36.96829 290.000
36.98824 284.000
37.00819 294.000
37.02813 310.000
37.04808 299.000
37.06803 306.000
37.08797 310.000
37.10792 348.000
37.12787 342.000
37.14781 365.000
37.16776 356.000
37.18771 317.000
37.20766 346.000
37.22760 391.000
37.24755 374.000
37.26750 381.000
37.28744 353.000
37.30739 329.000
37.32734 319.000
37.34728 368.000
37.36723 293.000
37.38718 302.000
37.40713 262.000
37.42707 275.000
37.44702 265.000
37.46697 281.000
37.48691 239.000
37.50686 257.000
37.52681 233.000
37.54675 237.000
37.56670 271.000
37.58665 243.000
37.60660 242.000
37.62654 271.000
37.64649 251.000
37.66644 281.000
37.68638 257.000
37.70633 248.000
37.72628 273.000
37.74622 260.000
37.76617 233.000
37.78612 226.000
37.80606 253.000
37.82601 252.000
37.84596 269.000
37.86591 264.000
37.88585 268.000
37.90580 257.000
37.92575 265.000
37.94569 234.000
37.96564 262.000
37.98559 275.000
38.00553 303.000
38.02548 250.000
38.04543 256.000
38.06538 289.000
38.08532 265.000
38.10527 276.000
38.12522 262.000
38.14516 247.000
38.16511 266.000
38.18506 286.000
38.20500 274.000
38.22495 280.000
38.24490 303.000
38.26484 267.000
38.28479 282.000
38.30474 318.000
38.32469 278.000
38.34463 314.000
38.36458 312.000
38.38453 376.000
38.40447 318.000
38.42442 332.000
38.44437 382.000
38.46431 419.000
38.48426 445.000
38.50421 442.000
38.52416 483.000
38.54410 581.000
38.56405 663.000
38.58400 765.000
38.60394 931.000
38.62389 1123.000
38.64384 1319.000
38.66378 1369.000
38.68373 1505.000
38.70368 1568.000
38.72362 1546.000
38.74357 1505.000
38.76352 1480.000
38.78347 1325.000
38.80341 1197.000
38.82336 1116.000
38.84331 1020.000
38.86325 896.000
38.88320 838.000
38.90315 777.000
38.92309 738.000
38.94304 664.000
38.96299 640.000
38.98294 589.000
39.00288 609.000
39.02283 529.000
39.04278 470.000
39.06272 461.000
39.08267 433.000
39.10262 413.000
39.12256 372.000
39.14251 359.000
39.16246 338.000
39.18241 347.000
39.20235 322.000
39.22230 316.000
39.24225 300.000
39.26219 262.000
39.28214 279.000
39.30209 284.000
39.32203 269.000
39.34198 245.000
39.36193 270.000
39.38187 260.000
39.40182 235.000
39.42177 275.000
39.44172 243.000
39.46166 245.000
39.48161 231.000
39.50156 261.000
39.52150 250.000
39.54145 252.000
39.56140 233.000
39.58134 261.000
39.60129 245.000
39.62124 252.000
39.64119 252.000
39.66113 234.000
39.68108 238.000
39.70103 230.000
39.72097 255.000
39.74092 241.000
39.76087 254.000
39.78081 247.000
39.80076 266.000
39.82071 212.000
39.84065 237.000
39.86060 264.000
39.88055 252.000
39.90050 261.000
39.92044 239.000
39.94039 232.000
39.96034 231.000
39.98028 230.000
40.00023 247.000
40.02018 268.000
40.04012 226.000
40.06007 238.000
40.08002 249.000
40.09997 223.000
40.11991 245.000
40.13986 233.000
40.15981 227.000
40.17975 240.000
40.19970 241.000
40.21965 247.000
40.23959 232.000
40.25954 233.000
40.27949 255.000
40.29943 253.000
40.31938 235.000
40.33933 233.000
40.35928 236.000
40.37922 262.000
40.39917 237.000
40.41912 262.000
40.43906 242.000
40.45901 224.000
40.47896 221.000
40.49890 267.000
40.51885 226.000
40.53880 255.000
40.55875 267.000
40.57869 246.000
40.59864 212.000
40.61859 293.000
40.63853 247.000
40.65848 261.000
40.67843 246.000
40.69837 254.000
40.71832 234.000
40.73827 275.000
40.75822 248.000
40.77816 240.000
40.79811 237.000
40.81806 282.000
40.83800 269.000
40.85795 249.000
40.87790 256.000
40.89784 265.000
40.91779 241.000
40.93774 268.000
40.95768 263.000
40.97763 265.000
40.99758 239.000
41.01753 287.000
41.03747 271.000
41.05742 315.000
41.07737 283.000
41.09731 310.000
41.11726 331.000
41.13721 339.000
41.15715 339.000
41.17710 400.000
41.19705 450.000
41.21700 509.000
41.23694 644.000
41.25689 804.000
41.27684 979.000
41.29678 1128.000
41.31673 1331.000
41.33668 1433.000
41.35662 1476.000
41.37657 1499.000
41.39652 1505.000
41.41646 1467.000
41.43641 1393.000
41.45636 1253.000
41.47631 1137.000
41.49625 1060.000
41.51620 979.000
41.53615 800.000
41.55609 754.000
41.57604 631.000
41.59599 568.000
41.61593 509.000
41.63588 458.000
41.65583 440.000
41.67578 394.000
41.69572 410.000
41.71567 386.000
41.73562 317.000
41.75556 324.000
41.77551 280.000
41.79546 318.000
41.81540 287.000
41.83535 283.000
41.85530 315.000
41.87524 272.000
41.89519 285.000
41.91514 296.000
41.93509 272.000
41.95503 265.000
41.97498 264.000
41.99493 286.000
42.01487 279.000
42.03482 277.000
42.05477 285.000
42.07471 258.000
42.09466 255.000
42.11461 229.000
42.13456 259.000
42.15450 250.000
42.17445 268.000
42.19440 268.000
42.21434 246.000
42.23429 246.000
42.25424 259.000
42.27418 238.000
42.29413 247.000
42.31408 263.000
42.33403 252.000
42.35397 235.000
42.37392 234.000
42.39387 231.000
42.41381 252.000
42.43376 243.000
42.45371 255.000
42.47365 263.000
42.49360 255.000
42.51355 228.000
42.53349 239.000
42.55344 235.000
42.57339 246.000
42.59334 250.000
42.61328 238.000
42.63323 238.000
42.65318 238.000
42.67312 221.000
42.69307 234.000
42.71302 249.000
42.73296 255.000
42.75291 279.000
42.77286 215.000
42.79281 265.000
42.81275 247.000
42.83270 264.000
42.85265 249.000
42.87259 275.000
42.89254 289.000
42.91249 266.000
42.93243 269.000
42.95238 261.000
42.97233 287.000
42.99227 319.000
43.01222 325.000
43.03217 313.000
43.05212 325.000
43.07206 360.000
43.09201 340.000
43.11196 390.000
43.13190 433.000
43.15185 381.000
43.17180 446.000
43.19174 496.000
43.21169 464.000
43.23164 489.000
43.25159 539.000
43.27153 555.000
43.29148 569.000
43.31143 610.000
43.33137 511.000
43.35132 453.000
43.37127 468.000
43.39121 495.000
43.41116 440.000
43.43111 430.000
43.45105 378.000
43.47100 325.000
43.49095 302.000
43.51090 335.000
43.53084 314.000
43.55079 258.000
43.57074 264.000
43.59068 250.000
43.61063 273.000
43.63058 225.000
43.65052 237.000
43.67047 216.000
43.69042 228.000
43.71037 252.000
43.73031 241.000
43.75026 206.000
43.77021 228.000
43.79015 216.000
43.81010 250.000
43.83005 255.000
43.84999 226.000
43.86994 240.000
43.88989 220.000
43.90984 260.000
43.92978 241.000
43.94973 231.000
43.96968 221.000
43.98962 233.000
44.00957 244.000
44.02952 243.000
44.04946 222.000
44.06941 218.000
44.08936 239.000
44.10930 228.000
44.12925 229.000
44.14920 228.000
44.16915 233.000
44.18909 226.000
44.20904 214.000
44.22899 230.000
44.24893 228.000
44.26888 233.000
44.28883 209.000
44.30877 229.000
44.32872 240.000
44.34867 244.000
44.36862 222.000
44.38856 241.000
44.40851 223.000
44.42846 230.000
44.44840 216.000
44.46835 253.000
44.48830 221.000
44.50824 223.000
44.52819 229.000
44.54814 214.000
44.56808 212.000
44.58803 220.000
44.60798 215.000
44.62793 234.000
44.64787 248.000
44.66782 251.000
44.68777 241.000
44.70771 244.000
44.72766 275.000
44.74761 299.000
44.76755 273.000
44.78750 274.000
44.80745 315.000
44.82740 248.000
44.84734 233.000
44.86729 243.000
44.88724 235.000
44.90718 262.000
44.92713 247.000
44.94708 271.000
44.96702 262.000
44.98697 215.000
45.00692 249.000
45.02686 263.000
45.04681 224.000
45.06676 232.000
45.08671 230.000
45.10665 241.000
45.12660 220.000
45.14655 228.000
45.16649 244.000
45.18644 244.000
45.20639 225.000
45.22633 214.000
45.24628 235.000
45.26623 252.000
45.28618 217.000
45.30612 231.000
45.32607 207.000
45.34602 227.000
45.36596 243.000
45.38591 245.000
45.40586 212.000
45.42580 209.000
45.44575 230.000
45.46570 218.000
45.48565 205.000
45.50559 237.000
45.52554 215.000
45.54549 218.000
45.56543 232.000
45.58538 237.000
45.60533 227.000
45.62527 227.000
45.64522 229.000
45.66517 203.000
45.68511 220.000
45.70506 212.000
45.72501 218.000
45.74496 213.000
45.76490 211.000
45.78485 212.000
45.80480 230.000
45.82474 209.000
45.84469 225.000
45.86464 242.000
45.88458 210.000
45.90453 233.000
45.92448 230.000
45.94443 239.000
45.96437 203.000
45.98432 238.000
46.00427 226.000
46.02421 223.000
46.04416 202.000
46.06411 231.000
46.08405 229.000
46.10400 239.000
46.12395 234.000
46.14389 234.000
46.16384 217.000
46.18379 244.000
46.20374 243.000
46.22368 242.000
46.24363 281.000
46.26358 254.000
46.28352 271.000
46.30347 223.000
46.32342 260.000
46.34336 258.000
46.36331 247.000
46.38326 264.000
46.40321 236.000
46.42315 237.000
46.44310 250.000
46.46305 238.000
46.48299 236.000
46.50294 204.000
46.52289 219.000
46.54283 242.000
46.56278 236.000
46.58273 224.000
46.60267 230.000
46.62262 213.000
46.64257 248.000
46.66252 223.000
46.68246 233.000
46.70241 233.000
46.72236 225.000
46.74230 243.000
46.76225 233.000
46.78220 231.000
46.80214 229.000
46.82209 203.000
46.84204 240.000
46.86199 208.000
46.88193 234.000
46.90188 230.000
46.92183 217.000
46.94177 261.000
46.96172 212.000
46.98167 217.000
47.00161 234.000
47.02156 228.000
47.04151 236.000
47.06146 231.000
47.08140 262.000
47.10135 227.000
47.12130 223.000
47.14124 190.000
47.16119 250.000
47.18114 227.000
47.20108 227.000
47.22103 218.000
47.24098 218.000
47.26092 210.000
47.28087 218.000
47.30082 220.000
47.32077 220.000
47.34071 240.000
47.36066 231.000
47.38061 232.000
47.40055 239.000
47.42050 215.000
47.44045 216.000
47.46039 231.000
47.48034 241.000
47.50029 233.000
47.52024 225.000
47.54018 224.000
47.56013 239.000
47.58008 213.000
47.60002 242.000
47.61997 223.000
47.63992 233.000
47.65986 199.000
47.67981 245.000
47.69976 242.000
47.71970 221.000
47.73965 240.000
47.75960 220.000
47.77955 233.000
47.79949 230.000
47.81944 195.000
47.83939 221.000
47.85933 254.000
47.87928 237.000
47.89923 233.000
47.91917 237.000
47.93912 234.000
47.95907 229.000
47.97902 252.000
47.99896 240.000
48.01891 238.000
48.03886 215.000
48.05880 203.000
48.07875 224.000
48.09870 228.000
48.11864 225.000
48.13859 244.000
48.15854 241.000
48.17848 211.000
48.19843 235.000
48.21838 243.000
48.23833 242.000
48.25827 261.000
48.27822 224.000
48.29817 240.000
48.31811 242.000
48.33806 279.000
48.35801 250.000
48.37795 249.000
48.39790 216.000
48.41785 238.000
48.43780 261.000
48.45774 289.000
48.47769 263.000
48.49764 274.000
48.51758 270.000
48.53753 281.000
48.55748 256.000
48.57742 308.000
48.59737 285.000
48.61732 319.000
48.63726 321.000
48.65721 385.000
48.67716 402.000
48.69711 436.000
48.71705 483.000
48.73700 553.000
48.75695 558.000
48.77689 604.000
48.79684 605.000
48.81679 573.000
48.83673 591.000
48.85668 574.000
48.87663 536.000
48.89658 525.000
48.91652 495.000
48.93647 463.000
48.95642 433.000
48.97636 378.000
48.99631 377.000
49.01626 357.000
49.03620 321.000
49.05615 310.000
49.07610 267.000
49.09605 272.000
49.11599 274.000
49.13594 250.000
49.15589 250.000
49.17583 254.000
49.19578 233.000
49.21573 246.000
49.23567 243.000
49.25562 251.000
49.27557 240.000
49.29551 237.000
49.31546 223.000
49.33541 208.000
49.35536 224.000
49.37530 208.000
49.39525 224.000
49.41520 252.000
49.43514 246.000
49.45509 240.000
49.47504 244.000
49.49498 246.000
49.51493 257.000
49.53488 234.000
49.55483 240.000
49.57477 231.000
49.59472 233.000
49.61467 228.000
49.63461 246.000
49.65456 230.000
49.67451 213.000
49.69445 220.000
49.71440 218.000
49.73435 242.000
49.75429 209.000
49.77424 207.000
49.79419 260.000
49.81414 233.000
49.83408 226.000
49.85403 215.000
49.87398 246.000
49.89392 229.000
49.91387 235.000
49.93382 251.000
49.95376 208.000
49.97371 240.000
49.99366 198.000
50.01361 219.000
50.03355 221.000
50.05350 240.000
50.07345 224.000
50.09339 239.000
50.11334 215.000
50.13329 232.000
50.15323 222.000
50.17318 216.000
50.19313 237.000
50.21307 230.000
50.23302 191.000
50.25297 219.000
50.27292 232.000
50.29286 232.000
50.31281 231.000
50.33276 222.000
50.35270 219.000
50.37265 247.000
50.39260 206.000
50.41254 242.000
50.43249 212.000
50.45244 242.000
50.47239 235.000
50.49233 194.000
50.51228 230.000
50.53223 237.000
50.55217 217.000
50.57212 213.000
50.59207 220.000
50.61201 226.000
50.63196 223.000
50.65191 214.000
50.67186 227.000
50.69180 243.000
50.71175 233.000
50.73170 212.000
50.75164 248.000
50.77159 226.000
50.79154 242.000
50.81148 218.000
50.83143 285.000
50.85138 223.000
50.87132 229.000
50.89127 234.000
50.91122 253.000
50.93117 217.000
50.95111 204.000
50.97106 231.000
50.99101 220.000
51.01095 243.000
51.03090 227.000
51.05085 240.000
51.07079 241.000
51.09074 229.000
51.11069 232.000
51.13064 235.000
51.15058 237.000
51.17053 226.000
51.19048 238.000
51.21042 228.000
51.23037 241.000
51.25032 214.000
51.27026 246.000
51.29021 267.000
51.31016 231.000
51.33010 233.000
51.35005 196.000
51.37000 223.000
51.38995 237.000
51.40989 282.000
51.42984 243.000
51.44979 235.000
51.46973 225.000
51.48968 224.000
51.50963 242.000
51.52957 219.000
51.54952 243.000
51.56947 261.000
51.58942 216.000
51.60936 209.000
51.62931 236.000
51.64926 204.000
51.66920 224.000
51.68915 216.000
51.70910 225.000
51.72904 239.000
51.74899 259.000
51.76894 206.000
51.78888 217.000
51.80883 246.000
51.82878 208.000
51.84873 206.000
51.86867 230.000
51.88862 238.000
51.90857 218.000
51.92851 241.000
51.94846 236.000
51.96841 236.000
51.98835 224.000
52.00830 236.000
52.02825 236.000
52.04820 236.000
52.06814 244.000
52.08809 230.000
52.10804 222.000
52.12798 234.000
52.14793 223.000
52.16788 222.000
52.18782 259.000
52.20777 235.000
52.22772 248.000
52.24767 247.000
52.26761 232.000
52.28756 222.000
52.30751 214.000
52.32745 248.000
52.34740 241.000
52.36735 244.000
52.38729 223.000
52.40724 232.000
52.42719 229.000
52.44713 241.000
52.46708 229.000
52.48703 258.000
52.50698 259.000
52.52692 224.000
52.54687 250.000
52.56682 247.000
52.58676 249.000
52.60671 246.000
52.62666 224.000
52.64660 235.000
52.66655 234.000
52.68650 254.000
52.70645 259.000
52.72639 263.000
52.74634 232.000
52.76629 269.000
52.78623 278.000
52.80618 286.000
52.82613 316.000
52.84607 287.000
52.86602 302.000
52.88597 338.000
52.90591 357.000
52.92586 314.000
52.94581 370.000
52.96576 355.000
52.98570 359.000
53.00565 382.000
53.02560 381.000
53.04554 355.000
53.06549 337.000
53.08544 330.000
53.10538 342.000
53.12533 350.000
53.14528 321.000
53.16523 335.000
53.18517 294.000
53.20512 340.000
53.22507 348.000
53.24501 313.000
53.26496 317.000
53.28491 339.000
53.30485 317.000
53.32480 331.000
53.34475 326.000
53.36469 291.000
53.38464 283.000
53.40459 332.000
53.42454 358.000
53.44448 302.000
53.46443 334.000
53.48438 324.000
53.50432 322.000
53.52427 345.000
53.54422 341.000
53.56416 305.000
53.58411 352.000
53.60406 346.000
53.62401 364.000
53.64395 403.000
53.66390 374.000
53.68385 448.000
53.70379 367.000
53.72374 357.000
53.74369 409.000
53.76363 354.000
53.78358 363.000
53.80353 347.000
53.82348 301.000
53.84342 309.000
53.86337 326.000
53.88332 292.000
53.90326 261.000
53.92321 300.000
53.94316 265.000
53.96310 289.000
53.98305 266.000
54.00300 224.000
54.02294 246.000
54.04289 249.000
54.06284 269.000
54.08279 216.000
54.10273 253.000
54.12268 235.000
54.14263 269.000
54.16257 245.000
54.18252 225.000
54.20247 237.000
54.22241 220.000
54.24236 228.000
54.26231 216.000
54.28226 229.000
54.30220 224.000
54.32215 240.000
54.34210 232.000
54.36204 235.000
54.38199 227.000
54.40194 250.000
54.42188 249.000
54.44183 260.000
54.46178 227.000
54.48172 237.000
54.50167 225.000
54.52162 248.000
54.54157 246.000
54.56151 237.000
54.58146 226.000
54.60141 225.000
54.62135 227.000
54.64130 235.000
54.66125 232.000
54.68119 247.000
54.70114 212.000
54.72109 241.000
54.74104 215.000
54.76098 228.000
54.78093 256.000
54.80088 225.000
54.82082 224.000
54.84077 236.000
54.86072 221.000
54.88066 211.000
54.90061 231.000
54.92056 251.000
54.94050 243.000
54.96045 244.000
54.98040 235.000
55.00035 250.000
55.02029 245.000
55.04024 243.000
55.06019 223.000
55.08013 229.000
55.10008 207.000
55.12003 249.000
55.13997 213.000
55.15992 239.000
55.17987 241.000
55.19982 223.000
55.21976 235.000
55.23971 217.000
55.25966 227.000
55.27960 249.000
55.29955 219.000
55.31950 221.000
55.33944 241.000
55.35939 226.000
55.37934 223.000
55.39929 214.000
55.41923 238.000
55.43918 237.000
55.45913 212.000
55.47907 218.000
55.49902 236.000
55.51897 217.000
55.53891 241.000
55.55886 237.000
55.57881 256.000
55.59875 235.000
55.61870 226.000
55.63865 250.000
55.65860 214.000
55.67854 223.000
55.69849 223.000
55.71844 218.000
55.73838 206.000
55.75833 237.000
55.77828 240.000
55.79822 232.000
55.81817 235.000
55.83812 228.000
55.85807 213.000
55.87801 254.000
55.89796 228.000
55.91791 248.000
55.93785 215.000
55.95780 250.000
55.97775 241.000
55.99769 226.000
56.01764 238.000
56.03759 261.000
56.05753 247.000
56.07748 206.000
56.09743 202.000
56.11738 248.000
56.13732 202.000
56.15727 221.000
56.17722 219.000
56.19716 242.000
56.21711 231.000
56.23706 236.000
56.25700 241.000
56.27695 247.000
56.29690 233.000
56.31685 242.000
56.33679 223.000
56.35674 260.000
56.37669 224.000
56.39663 228.000
56.41658 245.000
56.43653 215.000
56.45647 257.000
56.47642 260.000
56.49637 241.000
56.51631 243.000
56.53626 226.000
56.55621 235.000
56.57616 228.000
56.59610 228.000
56.61605 219.000
56.63600 227.000
56.65594 253.000
56.67589 245.000
56.69584 209.000
56.71578 273.000
56.73573 260.000
56.75568 273.000
56.77563 250.000
56.79557 246.000
56.81552 265.000
56.83547 245.000
56.85541 272.000
56.87536 246.000
56.89531 303.000
56.91525 292.000
56.93520 298.000
56.95515 304.000
56.97510 305.000
56.99504 283.000
57.01499 347.000
57.03494 311.000
57.05488 333.000
57.07483 335.000
57.09478 369.000
57.11472 395.000
57.13467 424.000
57.15462 419.000
57.17456 415.000
57.19451 448.000
57.21446 507.000
57.23441 509.000
57.25435 596.000
57.27430 606.000
57.29425 563.000
57.31419 581.000
57.33414 527.000
57.35409 503.000
57.37403 523.000
57.39398 501.000
57.41393 495.000
57.43388 517.000
57.45382 504.000
57.47377 437.000
57.49372 472.000
57.51366 408.000
57.53361 394.000
57.55356 386.000
57.57350 386.000
57.59345 408.000
57.61340 379.000
57.63334 414.000
57.65329 416.000
57.67324 461.000
57.69319 414.000
57.71313 449.000
57.73308 479.000
57.75303 484.000
57.77297 528.000
57.79292 520.000
57.81287 502.000
57.83281 482.000
57.85276 448.000
57.87271 397.000
57.89266 394.000
57.91260 396.000
57.93255 399.000
57.95250 389.000
57.97244 363.000
57.99239 357.000
58.01234 319.000
58.03228 298.000
58.05223 316.000
58.07218 318.000
58.09212 350.000
58.11207 338.000
58.13202 349.000
58.15197 386.000
58.17191 338.000
58.19186 382.000
58.21181 383.000
58.23175 391.000
58.25170 427.000
58.27165 396.000
58.29159 435.000
58.31154 365.000
58.33149 384.000
58.35144 358.000
58.37138 348.000
58.39133 364.000
58.41128 317.000
58.43122 317.000
58.45117 291.000
58.47112 298.000
58.49106 278.000
58.51101 238.000
58.53096 264.000
58.55090 260.000
58.57085 282.000
58.59080 236.000
58.61075 248.000
58.63069 252.000
58.65064 225.000
58.67059 249.000
58.69053 260.000
58.71048 206.000
58.73043 222.000
58.75037 264.000
58.77032 226.000
58.79027 220.000
58.81022 239.000
58.83016 256.000
58.85011 253.000
58.87006 235.000
58.89000 270.000
58.90995 234.000
58.92990 248.000
58.94984 216.000
58.96979 239.000
58.98974 217.000
59.00969 250.000
59.02963 257.000
59.04958 217.000
59.06953 252.000
59.08947 250.000
59.10942 257.000
59.12937 242.000
59.14931 244.000
59.16926 231.000
59.18921 214.000
59.20915 242.000
59.22910 247.000
59.24905 234.000
59.26900 240.000
59.28894 246.000
59.30889 209.000
59.32884 245.000
59.34878 234.000
59.36873 246.000
59.38868 237.000
59.40862 243.000
59.42857 232.000
59.44852 221.000
59.46847 233.000
59.48841 219.000
59.50836 233.000
59.52831 237.000
59.54825 230.000
59.56820 255.000
59.58815 235.000
59.60809 237.000
59.62804 243.000
59.64799 230.000
59.66793 243.000
59.68788 218.000
59.70783 264.000
59.72778 239.000
59.74772 226.000
59.76767 240.000
59.78762 235.000
59.80756 241.000
59.82751 262.000
59.84746 203.000
59.86740 236.000
59.88735 275.000
59.90730 228.000
59.92725 204.000
59.94719 243.000
59.96714 243.000
59.98709 227.000
60.00703 246.000
60.02698 229.000
60.04693 239.000
60.06687 202.000
60.08682 240.000
60.10677 240.000
60.12671 242.000
60.14666 230.000
60.16661 230.000
60.18656 253.000
60.20650 255.000
60.22645 251.000
60.24640 219.000
60.26634 270.000
60.28629 214.000
60.30624 251.000
60.32618 207.000
60.34613 240.000
60.36608 241.000
60.38603 262.000
60.40597 250.000
60.42592 270.000
60.44587 260.000
60.46581 233.000
60.48576 251.000
60.50571 240.000
60.52565 242.000
60.54560 233.000
60.56555 245.000
60.58550 226.000
60.60544 247.000
60.62539 210.000
60.64534 257.000
60.66528 200.000
60.68523 241.000
60.70518 225.000
60.72512 255.000
60.74507 246.000
60.76502 254.000
60.78496 241.000
60.80491 227.000
60.82486 222.000
60.84481 234.000
60.86475 227.000
60.88470 206.000
60.90465 261.000
60.92459 217.000
60.94454 233.000
60.96449 274.000
60.98443 234.000
61.00438 234.000
61.02433 262.000
61.04428 224.000
61.06422 253.000
61.08417 232.000
61.10412 273.000
61.12406 245.000
61.14401 258.000
61.16396 286.000
61.18390 248.000
61.20385 259.000
61.22380 259.000
61.24374 252.000
61.26369 287.000
61.28364 268.000
61.30359 271.000
61.32353 252.000
61.34348 282.000
61.36343 308.000
61.38337 317.000
61.40332 290.000
61.42327 305.000
61.44321 328.000
61.46316 408.000
61.48311 362.000
61.50306 424.000
61.52300 475.000
61.54295 493.000
61.56290 514.000
61.58284 491.000
61.60279 476.000
61.62274 473.000
61.64268 446.000
61.66263 432.000
61.68258 455.000
61.70252 458.000
61.72247 428.000
61.74242 428.000
61.76237 371.000
61.78231 450.000
61.80226 398.000
61.82221 407.000
61.84215 384.000
61.86210 400.000
61.88205 415.000
61.90199 410.000
61.92194 417.000
61.94189 428.000
61.96184 438.000
61.98178 419.000
62.00173 408.000
62.02168 432.000
62.04162 414.000
62.06157 415.000
62.08152 400.000
62.10146 423.000
62.12141 381.000
62.14136 354.000
62.16131 378.000
62.18125 373.000
62.20120 390.000
62.22115 366.000
62.24109 359.000
62.26104 330.000
62.28099 374.000
62.30093 352.000
62.32088 357.000
62.34083 347.000
62.36077 344.000
62.38072 324.000
62.40067 340.000
62.42062 377.000
62.44056 343.000
62.46051 336.000
62.48046 381.000
62.50040 338.000
62.52035 342.000
62.54030 370.000
62.56024 366.000
62.58019 397.000
62.60014 405.000
62.62009 404.000
62.64003 418.000
62.65998 399.000
62.67993 425.000
62.69987 436.000
62.71982 505.000
62.73977 489.000
62.75971 479.000
62.77966 510.000
62.79961 567.000
62.81955 634.000
62.83950 619.000
62.85945 670.000
62.87940 706.000
62.89934 733.000
62.91929 719.000
62.93924 684.000
62.95918 619.000
62.97913 584.000
62.99908 527.000
63.01902 535.000
63.03897 512.000
63.05892 541.000
63.07887 522.000
63.09881 465.000
63.11876 456.000
63.13871 418.000
63.15865 400.000
63.17860 366.000
63.19855 329.000
63.21849 318.000
63.23844 272.000
63.25839 245.000
63.27833 266.000
63.29828 295.000
63.31823 250.000
63.33818 240.000
63.35812 244.000
63.37807 261.000
63.39802 256.000
63.41796 269.000
63.43791 267.000
63.45786 229.000
63.47780 275.000
63.49775 269.000
63.51770 281.000
63.53765 243.000
63.55759 230.000
63.57754 258.000
63.59749 225.000
63.61743 223.000
63.63738 248.000
63.65733 238.000
63.67727 246.000
63.69722 235.000
63.71717 258.000
63.73712 256.000
63.75706 245.000
63.77701 256.000
63.79696 234.000
63.81690 248.000
63.83685 263.000
63.85680 265.000
63.87674 248.000
63.89669 253.000
63.91664 241.000
63.93658 249.000
63.95653 248.000
63.97648 257.000
63.99643 245.000
64.01637 265.000
64.03632 241.000
64.05627 228.000
64.07621 268.000
64.09616 259.000
64.11611 244.000
64.13605 243.000
64.15600 268.000
64.17595 246.000
64.19590 241.000
64.21584 232.000
64.23579 246.000
64.25574 246.000
64.27568 267.000
64.29563 251.000
64.31558 258.000
64.33552 283.000
64.35547 253.000
64.37542 219.000
64.39536 255.000
64.41531 259.000
64.43526 262.000
64.45521 274.000
64.47515 265.000
64.49510 252.000
64.51505 265.000
64.53499 254.000
64.55494 299.000
64.57489 300.000
64.59483 300.000
64.61478 305.000
64.63473 297.000
64.65468 281.000
64.67462 295.000
64.69457 297.000
64.71452 268.000
64.73446 302.000
64.75441 292.000
64.77436 270.000
64.79430 297.000
64.81425 271.000
64.83420 264.000
64.85414 283.000
64.87409 275.000
64.89404 255.000
64.91399 281.000
64.93393 280.000
64.95388 260.000
64.97383 254.000
64.99377 316.000
65.01372 265.000
65.03367 315.000
65.05361 282.000
65.07356 228.000
65.09351 276.000
65.11346 277.000
65.13340 257.000
65.15335 280.000
65.17330 256.000
65.19324 262.000
65.21319 255.000
65.23314 253.000
65.25308 269.000
65.27303 280.000
65.29298 282.000
65.31293 250.000
65.33287 270.000
65.35282 263.000
65.37277 260.000
65.39271 276.000
65.41266 302.000
65.43261 276.000
65.45255 270.000
65.47250 272.000
65.49245 262.000
65.51239 265.000
65.53234 283.000
65.55229 270.000
65.57224 284.000
65.59218 305.000
65.61213 290.000
65.63208 285.000
65.65202 307.000
65.67197 334.000
65.69192 309.000
65.71186 322.000
65.73181 341.000
65.75176 321.000
65.77171 314.000
65.79165 350.000
65.81160 330.000
65.83155 341.000
65.85149 347.000
65.87144 354.000
65.89139 361.000
65.91133 368.000
65.93128 337.000
65.95123 356.000
65.97117 361.000
65.99112 305.000
66.01107 367.000
66.03102 297.000
66.05096 309.000
66.07091 321.000
66.09086 319.000
66.11080 329.000
66.13075 342.000
66.15070 394.000
66.17064 374.000
66.19059 424.000
66.21054 404.000
66.23049 438.000
66.25043 456.000
66.27038 431.000
66.29033 417.000
66.31027 420.000
66.33022 419.000
66.35017 397.000
66.37011 385.000
66.39006 412.000
66.41001 378.000
66.42995 362.000
66.44990 348.000
66.46985 363.000
66.48980 343.000
66.50974 340.000
66.52969 325.000
66.54964 305.000
66.56958 305.000
66.58953 293.000
66.60948 266.000
66.62942 293.000
66.64937 280.000
66.66932 275.000
66.68927 280.000
66.70921 267.000
66.72916 269.000
66.74911 253.000
66.76905 261.000
66.78900 221.000
66.80895 239.000
66.82889 266.000
66.84884 205.000
66.86879 235.000
66.88874 247.000
66.90868 226.000
66.92863 218.000
66.94858 245.000
66.96852 216.000
66.98847 251.000
67.00842 225.000
67.02836 254.000
67.04831 249.000
67.06826 218.000
67.08820 250.000
67.10815 234.000
67.12810 256.000
67.14805 265.000
67.16799 254.000
67.18794 233.000
67.20789 245.000
67.22783 260.000
67.24778 224.000
67.26773 265.000
67.28767 224.000
67.30762 247.000
67.32757 244.000
67.34752 231.000
67.36746 231.000
67.38741 250.000
67.40736 243.000
67.42730 269.000
67.44725 263.000
67.46720 259.000
67.48714 248.000
67.50709 273.000
67.52704 257.000
67.54698 274.000
67.56693 277.000
67.58688 252.000
67.60683 250.000
67.62677 298.000
67.64672 314.000
67.66667 276.000
67.68661 314.000
67.70656 305.000
67.72651 324.000
67.74645 307.000
67.76640 332.000
67.78635 335.000
67.80630 321.000
67.82624 397.000
67.84619 354.000
67.86614 354.000
67.88608 386.000
67.90603 364.000
67.92598 411.000
67.94592 353.000
67.96587 417.000
67.98582 378.000
68.00576 433.000
68.02571 381.000
68.04566 422.000
68.06561 447.000
68.08555 416.000
68.10550 378.000
68.12545 389.000
68.14539 403.000
68.16534 394.000
68.18529 385.000
68.20523 386.000
68.22518 401.000
68.24513 392.000
68.26508 367.000
68.28502 381.000
68.30497 380.000
68.32492 321.000
68.34486 340.000
68.36481 337.000
68.38476 340.000
68.40470 317.000
68.42465 314.000
68.44460 275.000
68.46455 295.000
68.48449 274.000
68.50444 276.000
68.52439 290.000
68.54433 255.000
68.56428 241.000
68.58423 270.000
68.60417 253.000
68.62412 251.000
68.64407 238.000
68.66401 255.000
68.68396 233.000
68.70391 254.000
68.72386 243.000
68.74380 236.000
68.76375 236.000
68.78370 231.000
68.80364 239.000
68.82359 249.000
68.84354 221.000
68.86348 265.000
68.88343 233.000
68.90338 257.000
68.92333 244.000
68.94327 241.000
68.96322 256.000
68.98317 234.000
69.00311 258.000
69.02306 224.000
69.04301 253.000
69.06295 229.000
69.08290 232.000
69.10285 216.000
69.12279 239.000
69.14274 243.000
69.16269 253.000
69.18264 220.000
69.20258 238.000
69.22253 226.000
69.24248 241.000
69.26242 242.000
69.28237 241.000
69.30232 277.000
69.32226 269.000
69.34221 226.000
69.36216 222.000
69.38211 229.000
69.40205 237.000
69.42200 257.000
69.44195 245.000
69.46189 227.000
69.48184 239.000
69.50179 233.000
69.52173 248.000
69.54168 248.000
69.56163 252.000
69.58157 267.000
69.60152 272.000
69.62147 263.000
69.64142 263.000
69.66136 247.000
69.68131 255.000
69.70126 215.000
69.72120 263.000
69.74115 268.000
69.76110 207.000
69.78104 241.000
69.80099 248.000
69.82094 253.000
69.84089 232.000
69.86083 228.000
69.88078 224.000
69.90073 260.000
69.92067 251.000
69.94062 228.000
69.96057 260.000
69.98051 244.000
70.00046 221.000
70.02041 223.000
70.04035 236.000
70.06030 216.000
70.08025 254.000
70.10020 240.000
70.12014 241.000
70.14009 234.000
70.16004 264.000
70.17998 243.000
70.19993 243.000
70.21988 233.000
70.23982 218.000
70.25977 244.000
70.27972 240.000
70.29967 250.000
70.31961 275.000
70.33956 233.000
70.35951 231.000
70.37945 222.000
70.39940 241.000
70.41935 232.000
70.43929 246.000
70.45924 240.000
70.47919 217.000
70.49914 222.000
70.51908 238.000
70.53903 231.000
70.55898 209.000
70.57892 242.000
70.59887 239.000
70.61882 229.000
70.63876 212.000
70.65871 217.000
70.67866 209.000
70.69860 266.000
70.71855 231.000
70.73850 222.000
70.75845 202.000
70.77839 251.000
70.79834 221.000
70.81829 229.000
70.83823 226.000
70.85818 229.000
70.87813 222.000
70.89807 230.000
70.91802 265.000
70.93797 236.000
70.95792 265.000
70.97786 230.000
70.99781 248.000
71.01776 262.000
71.03770 221.000
71.05765 231.000
71.07760 229.000
71.09754 230.000
71.11749 263.000
71.13744 256.000
71.15738 233.000
71.17733 231.000
71.19728 252.000
71.21723 254.000
71.23717 249.000
71.25712 263.000
71.27707 253.000
71.29701 272.000
71.31696 243.000
71.33691 255.000
71.35685 273.000
71.37680 283.000
71.39675 257.000
71.41670 260.000
71.43664 235.000
71.45659 252.000
71.47654 249.000
71.49648 231.000
71.51643 304.000
71.53638 244.000
71.55632 257.000
71.57627 263.000
71.59622 248.000
71.61616 235.000
71.63611 254.000
71.65606 255.000
71.67601 263.000
71.69595 224.000
71.71590 235.000
71.73585 261.000
71.75579 239.000
71.77574 239.000
71.79569 223.000
71.81563 255.000
71.83558 264.000
71.85553 266.000
71.87548 267.000
71.89542 233.000
71.91537 225.000
71.93532 228.000
71.95526 251.000
71.97521 247.000
71.99516 299.000
72.01510 258.000
72.03505 310.000
72.05500 293.000
72.07495 288.000
72.09489 292.000
72.11484 263.000
72.13479 298.000
72.15473 293.000
72.17468 307.000
72.19463 297.000
72.21457 321.000
72.23452 328.000
72.25447 327.000
72.27441 366.000
72.29436 370.000
72.31431 374.000
72.33426 346.000
72.35420 348.000
72.37415 361.000
72.39410 346.000
72.41404 329.000
72.43399 369.000
72.45394 312.000
72.47388 349.000
72.49383 318.000
72.51378 332.000
72.53373 285.000
72.55367 299.000
72.57362 305.000
72.59357 294.000
72.61351 304.000
72.63346 268.000
72.65341 266.000
72.67335 298.000
72.69330 269.000
72.71325 290.000
72.73319 270.000
72.75314 257.000
72.77309 262.000
72.79304 262.000
72.81298 242.000
72.83293 261.000
72.85288 220.000
72.87282 260.000
72.89277 244.000
72.91272 242.000
72.93266 250.000
72.95261 267.000
72.97256 286.000
72.99251 256.000
73.01245 241.000
73.03240 256.000
73.05235 243.000
73.07229 209.000
73.09224 257.000
73.11219 236.000
73.13213 253.000
73.15208 287.000
73.17203 244.000
73.19197 267.000
73.21192 279.000
73.23187 256.000
73.25182 248.000
73.27176 264.000
73.29171 264.000
73.31166 244.000
73.33160 257.000
73.35155 232.000
73.37150 267.000
73.39144 271.000
73.41139 248.000
73.43134 256.000
73.45129 235.000
73.47123 260.000
73.49118 231.000
73.51113 267.000
73.53107 269.000
73.55102 239.000
73.57097 242.000
73.59091 265.000
73.61086 228.000
73.63081 239.000
73.65076 292.000
73.67070 243.000
73.69065 268.000
73.71060 268.000
73.73054 244.000
73.75049 262.000
73.77044 282.000
73.79038 260.000
73.81033 234.000
73.83028 268.000
73.85022 285.000
73.87017 256.000
73.89012 281.000
73.91007 232.000
73.93001 291.000
73.94996 279.000
73.96991 290.000
73.98985 290.000
74.00980 301.000
74.02975 300.000
74.04969 281.000
74.06964 301.000
74.08959 281.000
74.10954 290.000
74.12948 289.000
74.14943 283.000
74.16938 322.000
74.18932 303.000
74.20927 296.000
74.22922 294.000
74.24916 306.000
74.26911 290.000
74.28906 279.000
74.30900 285.000
74.32895 289.000
74.34890 328.000
74.36885 312.000
74.38879 328.000
74.40874 334.000
74.42869 350.000
74.44863 341.000
74.46858 345.000
74.48853 311.000
74.50847 308.000
74.52842 334.000
74.54837 288.000
74.56832 291.000
74.58826 307.000
74.60821 302.000
74.62816 303.000
74.64810 317.000
74.66805 273.000
74.68800 296.000
74.70794 266.000
74.72789 287.000
74.74784 286.000
74.76778 275.000
74.78773 309.000
74.80768 288.000
74.82763 263.000
74.84757 280.000
74.86752 304.000
74.88747 315.000
74.90741 294.000
74.92736 324.000
74.94731 346.000
74.96725 302.000
74.98720 355.000
75.00715 279.000
75.02710 325.000
75.04704 313.000
75.06699 311.000
75.08694 312.000
75.10688 307.000
75.12683 346.000
75.14678 299.000
75.16672 335.000
75.18667 382.000
75.20662 327.000
75.22657 327.000
75.24651 362.000
75.26646 286.000
75.28641 341.000
75.30635 342.000
75.32630 292.000
75.34625 296.000
75.36619 296.000
75.38614 318.000
75.40609 312.000
75.42603 324.000
75.44598 285.000
75.46593 312.000
75.48588 312.000
75.50582 305.000
75.52577 281.000
75.54572 278.000
75.56566 301.000
75.58561 302.000
75.60556 271.000
75.62550 252.000
75.64545 257.000
75.66540 259.000
75.68535 251.000
75.70529 280.000
75.72524 258.000
75.74519 267.000
75.76513 250.000
75.78508 245.000
75.80503 238.000
75.82497 229.000
75.84492 229.000
75.86487 245.000
75.88481 209.000
75.90476 250.000
75.92471 256.000
75.94466 269.000
75.96460 245.000
75.98455 219.000
76.00450 281.000
76.02444 213.000
76.04439 249.000
76.06434 218.000
76.08428 224.000
76.10423 232.000
76.12418 229.000
76.14413 221.000
76.16407 256.000
76.18402 226.000
76.20397 219.000
76.22391 233.000
76.24386 221.000
76.26381 238.000
76.28375 225.000
76.30370 219.000
76.32365 248.000
76.34359 224.000
76.36354 248.000
76.38349 212.000
76.40344 219.000
76.42338 247.000
76.44333 224.000
76.46328 201.000
76.48322 234.000
76.50317 240.000
76.52312 234.000
76.54306 246.000
76.56301 264.000
76.58296 230.000
76.60291 235.000
76.62285 232.000
76.64280 214.000
76.66275 241.000
76.68269 262.000
76.70264 229.000
76.72259 219.000
76.74253 240.000
76.76248 223.000
76.78243 217.000
76.80238 220.000
76.82232 227.000
76.84227 250.000
76.86222 224.000
76.88216 259.000
76.90211 246.000
76.92206 242.000
76.94200 269.000
76.96195 242.000
76.98190 257.000
77.00184 260.000
77.02179 244.000
77.04174 236.000
77.06169 264.000
77.08163 270.000
77.10158 245.000
77.12153 263.000
77.14147 247.000
77.16142 273.000
77.18137 297.000
77.20131 292.000
77.22126 297.000
77.24121 286.000
77.26116 242.000
77.28110 276.000
77.30105 284.000
77.32100 286.000
77.34094 274.000
77.36089 285.000
77.38084 253.000
77.40078 275.000
77.42073 291.000
77.44068 278.000
77.46062 303.000
77.48057 264.000
77.50052 304.000
77.52047 278.000
77.54041 262.000
77.56036 279.000
77.58031 220.000
77.60025 268.000
77.62020 251.000
77.64015 253.000
77.66009 265.000
77.68004 254.000
77.69999 299.000
77.71994 276.000
77.73988 259.000
77.75983 276.000
77.77978 253.000
77.79972 251.000
77.81967 276.000
77.83962 255.000
77.85956 246.000
77.87951 279.000
77.89946 241.000
77.91940 252.000
77.93935 254.000
77.95930 249.000
77.97925 209.000
77.99919 230.000
78.01914 238.000
78.03909 237.000
78.05903 254.000
78.07898 259.000
78.09893 233.000
78.11887 258.000
78.13882 277.000
78.15877 248.000
78.17872 260.000
78.19866 248.000
78.21861 238.000
78.23856 242.000
78.25850 245.000
78.27845 236.000
78.29840 227.000
78.31834 276.000
78.33829 257.000
78.35824 244.000
78.37819 224.000
78.39813 221.000
78.41808 244.000
78.43803 257.000
78.45797 229.000
78.47792 244.000
78.49787 234.000
78.51781 226.000
78.53776 236.000
78.55771 254.000
78.57765 236.000
78.59760 229.000
78.61755 250.000
78.63750 252.000
78.65744 209.000
78.67739 207.000
78.69734 214.000
78.71728 248.000
78.73723 226.000
78.75718 220.000
78.77712 210.000
78.79707 239.000
78.81702 227.000
78.83697 209.000
78.85691 248.000
78.87686 246.000
78.89681 232.000
78.91675 229.000
78.93670 248.000
78.95665 256.000
78.97659 236.000
78.99654 239.000
79.01649 258.000
79.03643 249.000
79.05638 245.000
79.07633 245.000
79.09628 229.000
79.11622 239.000
79.13617 217.000
79.15612 233.000
79.17606 239.000
79.19601 226.000
79.21596 227.000
79.23590 237.000
79.25585 254.000
79.27580 239.000
79.29575 280.000
79.31569 230.000
79.33564 239.000
79.35559 283.000
79.37553 234.000
79.39548 270.000
79.41543 293.000
79.43537 256.000
79.45532 256.000
79.47527 264.000
79.49521 237.000
79.51516 257.000
79.53511 255.000
79.55506 233.000
79.57500 232.000
79.59495 243.000
79.61490 243.000
79.63484 247.000
79.65479 252.000
79.67474 240.000
79.69468 245.000
79.71463 288.000
79.73458 264.000
79.75453 241.000
79.77447 248.000
79.79442 253.000
79.81437 263.000
79.83431 228.000
79.85426 215.000
79.87421 252.000
79.89415 262.000
79.91410 235.000
79.93405 251.000
79.95399 225.000
79.97394 227.000
79.99389 238.000
80.01384 253.000
80.03378 214.000
80.05373 229.000
80.07368 229.000
80.09362 254.000
80.11357 276.000
80.13352 229.000
80.15346 227.000
80.17341 226.000
80.19336 268.000
80.21331 268.000
80.23325 242.000
80.25320 265.000
80.27315 259.000
80.29309 258.000
80.31304 276.000
80.33299 224.000
80.35293 252.000
80.37288 248.000
80.39283 245.000
80.41278 253.000
80.43272 273.000
80.45267 241.000
80.47262 240.000
80.49256 245.000
80.51251 256.000
80.53246 220.000
80.55240 244.000
80.57235 237.000
80.59230 268.000
80.61224 225.000
80.63219 238.000
80.65214 220.000
80.67209 210.000
80.69203 220.000
80.71198 241.000
80.73193 216.000
80.75187 270.000
80.77182 219.000
80.79177 217.000
80.81171 232.000
80.83166 222.000
80.85161 227.000
80.87156 215.000
80.89150 221.000
80.91145 250.000
80.93140 233.000
80.95134 221.000
80.97129 219.000
80.99124 251.000
81.01118 225.000
81.03113 239.000
81.05108 234.000
81.07102 243.000
81.09097 223.000
81.11092 260.000
81.13087 223.000
81.15081 228.000
81.17076 249.000
81.19071 230.000
81.21065 240.000
81.23060 242.000
81.25055 217.000
81.27049 236.000
81.29044 222.000
81.31039 243.000
81.33034 242.000
81.35028 220.000
81.37023 221.000
81.39018 219.000
81.41012 248.000
81.43007 208.000
81.45002 231.000
81.46996 217.000
81.48991 249.000
81.50986 263.000
81.52980 255.000
81.54975 250.000
81.56970 224.000
81.58965 240.000
81.60959 197.000
81.62954 232.000
81.64949 247.000
81.66943 241.000
81.68938 238.000
81.70933 218.000
81.72927 228.000
81.74922 218.000
81.76917 225.000
81.78912 241.000
81.80906 219.000
81.82901 231.000
81.84896 260.000
81.86890 229.000
81.88885 217.000
81.90880 230.000
81.92874 212.000
81.94869 246.000
81.96864 225.000
81.98859 227.000
82.00853 241.000
82.02848 232.000
82.04843 232.000
82.06837 219.000
82.08832 237.000
82.10827 240.000
82.12821 239.000
82.14816 224.000
82.16811 239.000
82.18805 248.000
82.20800 200.000
82.22795 227.000
82.24790 234.000
82.26784 237.000
82.28779 256.000
82.30774 236.000
82.32768 261.000
82.34763 276.000
82.36758 284.000
82.38752 254.000
82.40747 280.000
82.42742 257.000
82.44737 265.000
82.46731 263.000
82.48726 274.000
82.50721 273.000
82.52715 272.000
82.54710 270.000
82.56705 296.000
82.58699 287.000
82.60694 292.000
82.62689 268.000
82.64683 270.000
82.66678 294.000
82.68673 298.000
82.70668 284.000
82.72662 253.000
82.74657 285.000
82.76652 280.000
82.78646 272.000
82.80641 302.000
82.82636 279.000
82.84630 268.000
82.86625 278.000
82.88620 278.000
82.90615 271.000
82.92609 315.000
82.94604 288.000
82.96599 275.000
82.98593 270.000
83.00588 281.000
83.02583 290.000
83.04577 268.000
83.06572 271.000
83.08567 286.000
83.10561 256.000
83.12556 290.000
83.14551 248.000
83.16546 279.000
83.18540 237.000
83.20535 265.000
83.22530 262.000
83.24524 284.000
83.26519 246.000
83.28514 253.000
83.30508 284.000
83.32503 264.000
83.34498 271.000
83.36493 248.000
83.38487 222.000
83.40482 267.000
83.42477 269.000
83.44471 270.000
83.46466 301.000
83.48461 231.000
83.50455 289.000
83.52450 296.000
83.54445 248.000
83.56440 308.000
83.58434 241.000
83.60429 272.000
83.62424 255.000
83.64418 283.000
83.66413 264.000
83.68408 242.000
83.70402 262.000
83.72397 278.000
83.74392 256.000
83.76386 278.000
83.78381 267.000
83.80376 253.000
83.82371 249.000
83.84365 271.000
83.86360 243.000
83.88355 276.000
83.90349 293.000
83.92344 248.000
83.94339 262.000
83.96333 269.000
83.98328 253.000
84.00323 254.000
84.02318 245.000
84.04312 227.000
84.06307 259.000
84.08302 236.000
84.10296 239.000
84.12291 239.000
84.14286 226.000
84.16280 233.000
84.18275 256.000
84.20270 277.000
84.22264 247.000
84.24259 253.000
84.26254 224.000
84.28249 220.000
84.30243 259.000
84.32238 280.000
84.34233 256.000
84.36227 257.000
84.38222 238.000
84.40217 264.000
84.42211 231.000
84.44206 230.000
84.46201 244.000
84.48196 241.000
84.50190 276.000
84.52185 237.000
84.54180 240.000
84.56174 225.000
84.58169 245.000
84.60164 250.000
84.62158 227.000
84.64153 236.000
84.66148 248.000
84.68142 259.000
84.70137 265.000
84.72132 220.000
84.74127 232.000
84.76121 250.000
84.78116 247.000
84.80111 228.000
84.82105 205.000
84.84100 205.000
84.86095 240.000
84.88089 208.000
84.90084 218.000
84.92079 196.000
84.94074 217.000
84.96068 228.000
84.98063 210.000
85.00058 226.000
85.02052 246.000
85.04047 203.000
85.06042 240.000
85.08036 236.000
85.10031 257.000
85.12026 226.000
85.14021 214.000
85.16015 255.000
85.18010 236.000
85.20005 233.000
85.21999 210.000
85.23994 217.000
85.25989 264.000
85.27983 236.000
85.29978 236.000
85.31973 232.000
85.33967 216.000
85.35962 254.000
85.37957 252.000
85.39952 225.000
85.41946 227.000
85.43941 233.000
85.45936 248.000
85.47930 221.000
85.49925 235.000
85.51920 236.000
85.53914 237.000
85.55909 224.000
85.57904 246.000
85.59899 264.000
85.61893 206.000
85.63888 221.000
85.65883 230.000
85.67877 236.000
85.69872 230.000
85.71867 247.000
85.73861 264.000
85.75856 233.000
85.77851 252.000
85.79845 227.000
85.81840 201.000
85.83835 254.000
85.85830 256.000
85.87824 239.000
85.89819 262.000
85.91814 268.000
85.93808 251.000
85.95803 254.000
85.97798 257.000
85.99792 232.000
86.01787 270.000
86.03782 207.000
86.05777 239.000
86.07771 249.000
86.09766 250.000
86.11761 225.000
86.13755 252.000
86.15750 229.000
86.17745 258.000
86.19739 237.000
86.21734 236.000
86.23729 240.000
86.25723 220.000
86.27718 232.000
86.29713 231.000
86.31708 248.000
86.33702 239.000
86.35697 239.000
86.37692 238.000
86.39686 241.000
86.41681 224.000
86.43676 253.000
86.45670 265.000
86.47665 267.000
86.49660 252.000
86.51655 272.000
86.53649 249.000
86.55644 242.000
86.57639 248.000
86.59633 234.000
86.61628 277.000
86.63623 243.000
86.65617 250.000
86.67612 256.000
86.69607 260.000
86.71602 237.000
86.73596 240.000
86.75591 218.000
86.77586 265.000
86.79580 252.000
86.81575 241.000
86.83570 256.000
86.85564 268.000
86.87559 258.000
86.89554 229.000
86.91548 258.000
86.93543 250.000
86.95538 244.000
86.97533 249.000
86.99527 260.000
87.01522 258.000
87.03517 257.000
87.05511 251.000
87.07506 254.000
87.09501 244.000
87.11495 287.000
87.13490 243.000
87.15485 261.000
87.17480 259.000
87.19474 260.000
87.21469 267.000
87.23464 277.000
87.25458 261.000
87.27453 259.000
87.29448 267.000
87.31442 263.000
87.33437 249.000
87.35432 237.000
87.37426 225.000
87.39421 267.000
87.41416 254.000
87.43411 264.000
87.45405 257.000
87.47400 234.000
87.49395 246.000
87.51389 289.000
87.53384 227.000
87.55379 231.000
87.57373 245.000
87.59368 266.000
87.61363 240.000
87.63358 266.000
87.65352 236.000
87.67347 226.000
87.69342 232.000
87.71336 222.000
87.73331 240.000
87.75326 220.000
87.77320 234.000
87.79315 221.000
87.81310 234.000
87.83304 225.000
87.85299 230.000
87.87294 267.000
87.89289 217.000
87.91283 224.000
87.93278 245.000
87.95273 240.000
87.97267 233.000
87.99262 225.000
88.01257 224.000
88.03251 283.000
88.05246 258.000
88.07241 228.000
88.09236 262.000
88.11230 225.000
88.13225 234.000
88.15220 253.000
88.17214 240.000
88.19209 235.000
88.21204 237.000
88.23198 246.000
88.25193 229.000
88.27188 237.000
88.29183 239.000
88.31177 269.000
88.33172 241.000
88.35167 227.000
88.37161 231.000
88.39156 238.000
88.41151 249.000
88.43145 232.000
88.45140 219.000
88.47135 234.000
88.49129 229.000
88.51124 231.000
88.53119 235.000
88.55114 224.000
88.57108 224.000
88.59103 224.000
88.61098 226.000
88.63092 211.000
88.65087 208.000
88.67082 246.000
88.69076 223.000
88.71071 215.000
88.73066 239.000
88.75061 238.000
88.77055 228.000
88.79050 249.000
88.81045 208.000
88.83039 221.000
88.85034 259.000
88.87029 231.000
88.89023 251.000
88.91018 234.000
88.93013 235.000
88.95007 250.000
88.97002 198.000
88.98997 216.000
89.00992 228.000
89.02986 247.000
89.04981 226.000
89.06976 221.000
89.08970 237.000
89.10965 246.000
89.12960 226.000
89.14954 231.000
89.16949 260.000
89.18944 263.000
89.20939 227.000
89.22933 248.000
89.24928 205.000
89.26923 239.000
89.28917 263.000
89.30912 231.000
89.32907 238.000
89.34901 268.000
89.36896 231.000
89.38891 228.000
89.40885 249.000
89.42880 252.000
89.44875 268.000
89.46870 253.000
89.48864 248.000
89.50859 266.000
89.52854 303.000
89.54848 259.000
89.56843 259.000
89.58838 253.000
89.60832 282.000
89.62827 281.000
89.64822 300.000
89.66817 285.000
89.68811 272.000
89.70806 248.000
89.72801 286.000
89.74795 306.000
89.76790 315.000
89.78785 297.000
89.80779 312.000
89.82774 299.000
89.84769 291.000
89.86764 305.000
89.88758 319.000
89.90753 350.000
89.92748 324.000
89.94742 320.000
89.96737 327.000
89.98732 325.000
90.00726 307.000
