10.00000 77.000
10.01995 57.000
10.03989 63.000
10.05984 51.000
10.07979 54.000
10.09973 74.000
10.11968 72.000
10.13963 58.000
10.15958 74.000
10.17952 59.000
10.19947 71.000
10.21942 54.000
10.23936 58.000
10.25931 68.000
10.27926 69.000
10.29920 77.000
10.31915 68.000
10.33910 58.000
10.35905 79.000
10.37899 72.000
10.39894 74.000
10.41889 67.000
10.43883 63.000
10.45878 77.000
10.47873 85.000
10.49867 91.000
10.51862 85.000
10.53857 84.000
10.55851 73.000
10.57846 79.000
10.59841 77.000
10.61836 76.000
10.63830 58.000
10.65825 82.000
10.67820 77.000
10.69814 60.000
10.71809 83.000
10.73804 64.000
10.75798 72.000
10.77793 77.000
10.79788 70.000
10.81783 73.000
10.83777 83.000
10.85772 74.000
10.87767 87.000
10.89761 72.000
10.91756 80.000
10.93751 89.000
10.95745 70.000
10.97740 64.000
10.99735 85.000
11.01730 62.000
11.03724 84.000
11.05719 72.000
11.07714 79.000
11.09708 76.000
11.11703 74.000
11.13698 71.000
11.15692 70.000
11.17687 93.000
11.19682 76.000
11.21676 93.000
11.23671 74.000
11.25666 76.000
11.27661 81.000
11.29655 74.000
11.31650 77.000
11.33645 80.000
11.35639 71.000
11.37634 74.000
11.39629 72.000
11.41623 75.000
11.43618 57.000
11.45613 79.000
11.47608 84.000
11.49602 79.000
11.51597 86.000
11.53592 91.000
11.55586 80.000
11.57581 89.000
11.59576 92.000
11.61570 79.000
11.63565 87.000
11.65560 90.000
11.67554 80.000
11.69549 92.000
11.71544 83.000
11.73539 87.000
11.75533 96.000
11.77528 94.000
11.79523 90.000
11.81517 78.000
11.83512 61.000
11.85507 78.000
11.87501 84.000
11.89496 87.000
11.91491 86.000
11.93486 101.000
11.95480 76.000
11.97475 98.000
11.99470 72.000
12.01464 95.000
12.03459 85.000
12.05454 74.000
12.07448 84.000
12.09443 97.000
12.11438 80.000
12.13432 90.000
12.15427 75.000
12.17422 81.000
12.19417 95.000
12.21411 98.000
12.23406 87.000
12.25401 106.000
12.27395 100.000
12.29390 78.000
12.31385 82.000
12.33379 86.000
12.35374 100.000
12.37369 75.000
12.39364 87.000
12.41358 74.000
12.43353 81.000
12.45348 111.000
12.47342 95.000
12.49337 87.000
12.51332 87.000
12.53326 88.000
12.55321 95.000
12.57316 106.000
12.59311 102.000
12.61305 93.000
12.63300 88.000
12.65295 80.000
12.67289 84.000
12.69284 98.000
12.71279 91.000
12.73273 83.000
12.75268 89.000
12.77263 85.000
12.79257 87.000
12.81252 69.000
12.83247 92.000
12.85242 77.000
12.87236 92.000
12.89231 87.000
12.91226 80.000
12.93220 92.000
12.95215 89.000
12.97210 82.000
12.99204 90.000
13.01199 95.000
13.03194 97.000
13.05189 112.000
13.07183 81.000
13.09178 99.000
13.11173 92.000
13.13167 86.000
13.15162 91.000
13.17157 70.000
13.19151 96.000
13.21146 97.000
13.23141 103.000
13.25135 85.000
13.27130 103.000
13.29125 102.000
13.31120 87.000
13.33114 93.000
13.35109 89.000
13.37104 87.000
13.39098 96.000
13.41093 103.000
13.43088 97.000
13.45082 88.000
13.47077 93.000
13.49072 103.000
13.51067 91.000
13.53061 89.000
13.55056 104.000
13.57051 95.000
13.59045 95.000
13.61040 81.000
13.63035 83.000
13.65029 93.000
13.67024 97.000
13.69019 97.000
13.71013 89.000
13.73008 101.000
13.75003 96.000
13.76998 80.000
13.78992 95.000
13.80987 113.000
13.82982 102.000
13.84976 99.000
13.86971 82.000
13.88966 82.000
13.90960 89.000
13.92955 75.000
13.94950 121.000
13.96945 81.000
13.98939 117.000
14.00934 98.000
14.02929 121.000
14.04923 82.000
14.06918 76.000
14.08913 82.000
14.10907 86.000
14.12902 92.000
14.14897 86.000
14.16892 106.000
14.18886 78.000
14.20881 99.000
14.22876 88.000
14.24870 97.000
14.26865 85.000
14.28860 75.000
14.30854 90.000
14.32849 96.000
14.34844 103.000
14.36838 106.000
14.38833 90.000
14.40828 91.000
14.42823 87.000
14.44817 105.000
14.46812 108.000
14.48807 81.000
14.50801 86.000
14.52796 90.000
14.54791 92.000
14.56785 99.000
14.58780 90.000
14.60775 76.000
14.62770 115.000
14.64764 81.000
14.66759 112.000
14.68754 91.000
14.70748 107.000
14.72743 103.000
14.74738 101.000
14.76732 110.000
14.78727 98.000
14.80722 103.000
14.82716 98.000
14.84711 104.000
14.86706 103.000
14.88701 79.000
14.90695 109.000
14.92690 91.000
14.94685 97.000
14.96679 109.000
14.98674 86.000
15.00669 110.000
15.02663 114.000
15.04658 100.000
15.06653 118.000
15.08648 102.000
15.10642 107.000
15.12637 101.000
15.14632 119.000
15.16626 96.000
15.18621 99.000
15.20616 116.000
15.22610 104.000
15.24605 108.000
15.26600 105.000
15.28594 118.000
15.30589 99.000
15.32584 102.000
15.34579 108.000
15.36573 129.000
15.38568 134.000
15.40563 109.000
15.42557 120.000
15.44552 105.000
15.46547 109.000
15.48541 118.000
15.50536 132.000
15.52531 132.000
15.54526 120.000
15.56520 141.000
15.58515 118.000
15.60510 114.000
15.62504 134.000
15.64499 139.000
15.66494 163.000
15.68488 174.000
15.70483 221.000
15.72478 287.000
15.74472 382.000
15.76467 595.000
15.78462 874.000
15.80457 1134.000
15.82451 1431.000
15.84446 1646.000
15.86441 1668.000
15.88435 1612.000
15.90430 1490.000
15.92425 1089.000
15.94419 802.000
15.96414 593.000
15.98409 359.000
16.00404 247.000
16.02398 207.000
16.04393 167.000
16.06388 150.000
16.08382 135.000
16.10377 104.000
16.12372 130.000
16.14366 117.000
16.16361 121.000
16.18356 109.000
16.20351 104.000
16.22345 123.000
16.24340 119.000
16.26335 125.000
16.28329 116.000
16.30324 127.000
16.32319 96.000
16.34313 126.000
16.36308 123.000
16.38303 105.000
16.40297 116.000
16.42292 110.000
16.44287 114.000
16.46282 99.000
16.48276 117.000
16.50271 106.000
16.52266 92.000
16.54260 97.000
16.56255 125.000
16.58250 112.000
16.60244 125.000
16.62239 98.000
16.64234 112.000
16.66229 109.000
16.68223 108.000
16.70218 107.000
16.72213 93.000
16.74207 107.000
16.76202 98.000
16.78197 96.000
16.80191 104.000
16.82186 123.000
16.84181 94.000
16.86175 93.000
16.88170 123.000
16.90165 107.000
16.92160 111.000
16.94154 102.000
16.96149 125.000
16.98144 104.000
17.00138 100.000
17.02133 104.000
17.04128 101.000
17.06122 131.000
17.08117 117.000
17.10112 115.000
17.12107 103.000
17.14101 102.000
17.16096 119.000
17.18091 97.000
17.20085 103.000
17.22080 96.000
17.24075 107.000
17.26069 104.000
17.28064 88.000
17.30059 116.000
17.32053 109.000
17.34048 107.000
17.36043 106.000
17.38038 96.000
17.40032 113.000
17.42027 108.000
17.44022 104.000
17.46016 107.000
17.48011 106.000
17.50006 111.000
17.52000 96.000
17.53995 91.000
17.55990 118.000
17.57985 102.000
17.59979 114.000
17.61974 116.000
17.63969 107.000
17.65963 115.000
17.67958 125.000
17.69953 115.000
17.71947 137.000
17.73942 106.000
17.75937 99.000
17.77932 110.000
17.79926 130.000
17.81921 105.000
17.83916 97.000
17.85910 119.000
17.87905 120.000
17.89900 108.000
17.91894 101.000
17.93889 114.000
17.95884 116.000
17.97878 115.000
17.99873 110.000
18.01868 114.000
18.03863 114.000
18.05857 114.000
18.07852 113.000
18.09847 111.000
18.11841 117.000
18.13836 99.000
18.15831 123.000
18.17825 129.000
18.19820 105.000
18.21815 120.000
18.23810 125.000
18.25804 122.000
18.27799 117.000
18.29794 120.000
18.31788 124.000
18.33783 145.000
18.35778 145.000
18.37772 146.000
18.39767 145.000
18.41762 145.000
18.43756 196.000
18.45751 177.000
18.47746 192.000
18.49741 165.000
18.51735 170.000
18.53730 172.000
18.55725 148.000
18.57719 128.000
18.59714 135.000
18.61709 135.000
18.63703 119.000
18.65698 115.000
18.67693 132.000
18.69688 115.000
18.71682 119.000
18.73677 117.000
18.75672 95.000
18.77666 104.000
18.79661 113.000
18.81656 108.000
18.83650 122.000
18.85645 115.000
18.87640 111.000
18.89634 118.000
18.91629 103.000
18.93624 91.000
18.95619 111.000
18.97613 95.000
18.99608 102.000
19.01603 104.000
19.03597 98.000
19.05592 99.000
19.07587 93.000
19.09581 117.000
19.11576 134.000
19.13571 113.000
19.15566 112.000
19.17560 134.000
19.19555 121.000
19.21550 132.000
19.23544 124.000
19.25539 127.000
19.27534 120.000
19.29528 115.000
19.31523 106.000
19.33518 100.000
19.35513 107.000
19.37507 125.000
19.39502 136.000
19.41497 121.000
19.43491 121.000
19.45486 121.000
19.47481 101.000
19.49475 130.000
19.51470 139.000
19.53465 83.000
19.55459 127.000
19.57454 132.000
19.59449 114.000
19.61444 109.000
19.63438 93.000
19.65433 132.000
19.67428 105.000
19.69422 107.000
19.71417 122.000
19.73412 105.000
19.75406 126.000
19.77401 108.000
19.79396 118.000
19.81391 127.000
19.83385 126.000
19.85380 99.000
19.87375 123.000
19.89369 120.000
19.91364 112.000
19.93359 108.000
19.95353 105.000
19.97348 100.000
19.99343 115.000
20.01337 143.000
20.03332 115.000
20.05327 134.000
20.07322 125.000
20.09316 129.000
20.11311 138.000
20.13306 120.000
20.15300 107.000
20.17295 141.000
20.19290 109.000
20.21284 110.000
20.23279 123.000
20.25274 114.000
20.27269 134.000
20.29263 108.000
20.31258 107.000
20.33253 123.000
20.35247 118.000
20.37242 131.000
20.39237 105.000
20.41231 127.000
20.43226 117.000
20.45221 127.000
20.47215 115.000
20.49210 110.000
20.51205 117.000
20.53200 109.000
20.55194 118.000
20.57189 101.000
20.59184 142.000
20.61178 115.000
20.63173 102.000
20.65168 110.000
20.67162 110.000
20.69157 113.000
20.71152 119.000
20.73147 122.000
20.75141 113.000
20.77136 125.000
20.79131 128.000
20.81125 124.000
20.83120 122.000
20.85115 107.000
20.87109 107.000
20.89104 120.000
20.91099 125.000
20.93094 128.000
20.95088 122.000
20.97083 116.000
20.99078 118.000
21.01072 129.000
21.03067 96.000
21.05062 112.000
21.07056 121.000
21.09051 152.000
21.11046 145.000
21.13040 117.000
21.15035 143.000
21.17030 124.000
21.19025 131.000
21.21019 119.000
21.23014 134.000
21.25009 121.000
21.27003 141.000
21.28998 116.000
21.30993 114.000
21.32987 133.000
21.34982 106.000
21.36977 131.000
21.38972 115.000
21.40966 122.000
21.42961 124.000
21.44956 116.000
21.46950 130.000
21.48945 116.000
21.50940 127.000
21.52934 118.000
21.54929 122.000
21.56924 121.000
21.58918 138.000
21.60913 110.000
21.62908 137.000
21.64903 122.000
21.66897 127.000
21.68892 149.000
21.70887 129.000
21.72881 125.000
21.74876 142.000
21.76871 115.000
21.78865 120.000
21.80860 134.000
21.82855 122.000
21.84850 126.000
21.86844 130.000
21.88839 129.000
21.90834 127.000
21.92828 135.000
21.94823 145.000
21.96818 111.000
21.98812 126.000
22.00807 143.000
22.02802 125.000
22.04796 110.000
22.06791 129.000
22.08786 125.000
22.10781 117.000
22.12775 105.000
22.14770 132.000
22.16765 140.000
22.18759 105.000
22.20754 148.000
22.22749 128.000
22.24743 126.000
22.26738 127.000
22.28733 116.000
22.30728 139.000
22.32722 117.000
22.34717 131.000
22.36712 125.000
22.38706 122.000
22.40701 119.000
22.42696 123.000
22.44690 128.000
22.46685 139.000
22.48680 117.000
22.50675 123.000
22.52669 129.000
22.54664 112.000
22.56659 111.000
22.58653 125.000
22.60648 133.000
22.62643 115.000
22.64637 107.000
22.66632 123.000
22.68627 101.000
22.70621 121.000
22.72616 130.000
22.74611 115.000
22.76606 128.000
22.78600 129.000
22.80595 123.000
22.82590 124.000
22.84584 113.000
22.86579 109.000
22.88574 138.000
22.90568 95.000
22.92563 150.000
22.94558 132.000
22.96553 117.000
22.98547 149.000
23.00542 119.000
23.02537 130.000
23.04531 104.000
23.06526 129.000
23.08521 127.000
23.10515 129.000
23.12510 132.000
23.14505 132.000
23.16499 146.000
23.18494 127.000
23.20489 135.000
23.22484 143.000
23.24478 119.000
23.26473 125.000
23.28468 137.000
23.30462 140.000
23.32457 111.000
23.34452 135.000
23.36446 111.000
23.38441 131.000
23.40436 109.000
23.42431 117.000
23.44425 123.000
23.46420 120.000
23.48415 112.000
23.50409 121.000
23.52404 129.000
23.54399 110.000
23.56393 134.000
23.58388 136.000
23.60383 115.000
23.62377 123.000
23.64372 123.000
23.66367 146.000
23.68362 126.000
23.70356 144.000
23.72351 138.000
23.74346 124.000
23.76340 141.000
23.78335 115.000
23.80330 129.000
23.82324 112.000
23.84319 147.000
23.86314 137.000
23.88309 109.000
23.90303 131.000
23.92298 146.000
23.94293 128.000
23.96287 107.000
23.98282 130.000
24.00277 145.000
24.02271 145.000
24.04266 113.000
24.06261 122.000
24.08256 121.000
24.10250 124.000
24.12245 107.000
24.14240 132.000
24.16234 148.000
24.18229 116.000
24.20224 116.000
24.22218 119.000
24.24213 129.000
24.26208 123.000
24.28202 129.000
24.30197 129.000
24.32192 144.000
24.34187 132.000
24.36181 118.000
24.38176 123.000
24.40171 134.000
24.42165 132.000
24.44160 135.000
24.46155 102.000
24.48149 140.000
24.50144 128.000
24.52139 149.000
24.54134 151.000
24.56128 124.000
24.58123 113.000
24.60118 151.000
24.62112 135.000
24.64107 127.000
24.66102 137.000
24.68096 130.000
24.70091 134.000
24.72086 122.000
24.74080 109.000
24.76075 131.000
24.78070 132.000
24.80065 142.000
24.82059 137.000
24.84054 150.000
24.86049 135.000
24.88043 141.000
24.90038 129.000
24.92033 128.000
24.94027 118.000
24.96022 110.000
24.98017 146.000
25.00012 116.000
25.02006 141.000
25.04001 144.000
25.05996 130.000
25.07990 122.000
25.09985 131.000
25.11980 151.000
25.13974 136.000
25.15969 128.000
25.17964 131.000
25.19958 146.000
25.21953 135.000
25.23948 165.000
25.25943 132.000
25.27937 126.000
25.29932 128.000
25.31927 108.000
25.33921 127.000
25.35916 141.000
25.37911 125.000
25.39905 136.000
25.41900 121.000
25.43895 136.000
25.45890 136.000
25.47884 152.000
25.49879 124.000
25.51874 131.000
25.53868 142.000
25.55863 154.000
25.57858 108.000
25.59852 143.000
25.61847 137.000
25.63842 122.000
25.65837 118.000
25.67831 154.000
25.69826 115.000
25.71821 134.000
25.73815 145.000
25.75810 142.000
25.77805 168.000
25.79799 156.000
25.81794 144.000
25.83789 133.000
25.85783 134.000
25.87778 136.000
25.89773 132.000
25.91768 115.000
25.93762 136.000
25.95757 135.000
25.97752 119.000
25.99746 138.000
26.01741 140.000
26.03736 116.000
26.05730 146.000
26.07725 152.000
26.09720 139.000
26.11715 129.000
26.13709 128.000
26.15704 146.000
26.17699 169.000
26.19693 155.000
26.21688 132.000
26.23683 126.000
26.25677 130.000
26.27672 130.000
26.29667 140.000
26.31661 135.000
26.33656 152.000
26.35651 165.000
26.37646 131.000
26.39640 141.000
26.41635 154.000
26.43630 149.000
26.45624 147.000
26.47619 144.000
26.49614 144.000
26.51608 154.000
26.53603 150.000
26.55598 147.000
26.57593 135.000
26.59587 123.000
26.61582 140.000
26.63577 127.000
26.65571 121.000
26.67566 154.000
26.69561 137.000
26.71555 153.000
26.73550 141.000
26.75545 146.000
26.77539 129.000
26.79534 112.000
26.81529 155.000
26.83524 125.000
26.85518 143.000
26.87513 142.000
26.89508 137.000
26.91502 132.000
26.93497 140.000
26.95492 155.000
26.97486 154.000
26.99481 132.000
27.01476 140.000
27.03471 138.000
27.05465 146.000
27.07460 145.000
27.09455 137.000
27.11449 113.000
27.13444 166.000
27.15439 150.000
27.17433 120.000
27.19428 144.000
27.21423 143.000
27.23417 139.000
27.25412 144.000
27.27407 129.000
27.29402 142.000
27.31396 164.000
27.33391 145.000
27.35386 123.000
27.37380 137.000
27.39375 155.000
27.41370 116.000
27.43364 127.000
27.45359 158.000
27.47354 139.000
27.49349 137.000
27.51343 120.000
27.53338 125.000
27.55333 137.000
27.57327 135.000
27.59322 136.000
27.61317 136.000
27.63311 130.000
27.65306 108.000
27.67301 130.000
27.69296 130.000
27.71290 137.000
27.73285 130.000
27.75280 164.000
27.77274 134.000
27.79269 146.000
27.81264 136.000
27.83258 144.000
27.85253 132.000
27.87248 132.000
27.89242 128.000
27.91237 138.000
27.93232 146.000
27.95227 152.000
27.97221 137.000
27.99216 155.000
28.01211 126.000
28.03205 124.000
28.05200 138.000
28.07195 133.000
28.09189 133.000
28.11184 147.000
28.13179 150.000
28.15174 158.000
28.17168 148.000
28.19163 138.000
28.21158 150.000
28.23152 153.000
28.25147 154.000
28.27142 150.000
28.29136 153.000
28.31131 139.000
28.33126 144.000
28.35120 127.000
28.37115 145.000
28.39110 148.000
28.41105 139.000
28.43099 135.000
28.45094 163.000
28.47089 135.000
28.49083 152.000
28.51078 127.000
28.53073 122.000
28.55067 165.000
28.57062 128.000
28.59057 140.000
28.61052 160.000
28.63046 169.000
28.65041 155.000
28.67036 133.000
28.69030 150.000
28.71025 143.000
28.73020 144.000
28.75014 125.000
28.77009 143.000
28.79004 158.000
28.80998 133.000
28.82993 140.000
28.84988 140.000
28.86983 147.000
28.88977 166.000
28.90972 150.000
28.92967 129.000
28.94961 146.000
28.96956 118.000
28.98951 141.000
29.00945 167.000
29.02940 156.000
29.04935 166.000
29.06930 154.000
29.08924 142.000
29.10919 169.000
29.12914 153.000
29.14908 121.000
29.16903 124.000
29.18898 138.000
29.20892 135.000
29.22887 142.000
29.24882 168.000
29.26877 137.000
29.28871 172.000
29.30866 156.000
29.32861 153.000
29.34855 144.000
29.36850 133.000
29.38845 141.000
29.40839 133.000
29.42834 141.000
29.44829 163.000
29.46823 172.000
29.48818 143.000
29.50813 131.000
29.52808 142.000
29.54802 157.000
29.56797 134.000
29.58792 153.000
29.60786 150.000
29.62781 125.000
29.64776 139.000
29.66770 172.000
29.68765 150.000
29.70760 129.000
29.72755 158.000
29.74749 166.000
29.76744 158.000
29.78739 136.000
29.80733 138.000
29.82728 170.000
29.84723 147.000
29.86717 133.000
29.88712 161.000
29.90707 135.000
29.92701 149.000
29.94696 120.000
29.96691 147.000
29.98686 159.000
30.00680 151.000
30.02675 147.000
30.04670 144.000
30.06664 142.000
30.08659 170.000
30.10654 183.000
30.12648 159.000
30.14643 147.000
30.16638 177.000
30.18633 197.000
30.20627 192.000
30.22622 220.000
30.24617 224.000
30.26611 243.000
30.28606 300.000
30.30601 293.000
30.32595 309.000
30.34590 290.000
30.36585 276.000
30.38579 317.000
30.40574 256.000
30.42569 243.000
30.44564 227.000
30.46558 226.000
30.48553 187.000
30.50548 179.000
30.52542 180.000
30.54537 151.000
30.56532 144.000
30.58526 164.000
30.60521 175.000
30.62516 163.000
30.64511 138.000
30.66505 156.000
30.68500 150.000
30.70495 155.000
30.72489 186.000
30.74484 160.000
30.76479 156.000
30.78473 153.000
30.80468 162.000
30.82463 129.000
30.84458 131.000
30.86452 149.000
30.88447 148.000
30.90442 159.000
30.92436 141.000
30.94431 164.000
30.96426 111.000
30.98420 148.000
31.00415 145.000
31.02410 139.000
31.04404 155.000
31.06399 167.000
31.08394 127.000
31.10389 148.000
31.12383 161.000
31.14378 151.000
31.16373 151.000
31.18367 155.000
31.20362 157.000
31.22357 149.000
31.24351 137.000
31.26346 156.000
31.28341 137.000
31.30336 150.000
31.32330 157.000
31.34325 161.000
31.36320 160.000
31.38314 152.000
31.40309 153.000
31.42304 146.000
31.44298 163.000
31.46293 123.000
31.48288 140.000
31.50282 145.000
31.52277 140.000
31.54272 149.000
31.56267 132.000
31.58261 148.000
31.60256 148.000
31.62251 186.000
31.64245 145.000
31.66240 169.000
31.68235 184.000
31.70229 151.000
31.72224 153.000
31.74219 180.000
31.76214 195.000
31.78208 207.000
31.80203 209.000
31.82198 211.000
31.84192 254.000
31.86187 285.000
31.88182 339.000
31.90176 313.000
31.92171 339.000
31.94166 362.000
31.96160 352.000
31.98155 369.000
32.00150 296.000
32.02145 307.000
32.04139 269.000
32.06134 248.000
32.08129 252.000
32.10123 205.000
32.12118 198.000
32.14113 187.000
32.16107 145.000
32.18102 171.000
32.20097 170.000
32.22092 164.000
32.24086 153.000
32.26081 161.000
32.28076 163.000
32.30070 170.000
32.32065 146.000
32.34060 170.000
32.36054 143.000
32.38049 161.000
32.40044 171.000
32.42039 160.000
32.44033 155.000
32.46028 162.000
32.48023 194.000
32.50017 186.000
32.52012 201.000
32.54007 220.000
32.56001 221.000
32.57996 218.000
32.59991 211.000
32.61985 228.000
32.63980 224.000
32.65975 214.000
32.67970 182.000
32.69964 175.000
32.71959 185.000
32.73954 169.000
32.75948 160.000
32.77943 172.000
32.79938 174.000
32.81932 143.000
32.83927 162.000
32.85922 162.000
32.87917 149.000
32.89911 161.000
32.91906 133.000
32.93901 135.000
32.95895 154.000
32.97890 182.000
32.99885 155.000
33.01879 153.000
33.03874 148.000
33.05869 145.000
33.07863 144.000
33.09858 132.000
33.11853 151.000
33.13848 155.000
33.15842 161.000
33.17837 134.000
33.19832 135.000
33.21826 167.000
33.23821 174.000
33.25816 140.000
33.27810 146.000
33.29805 170.000
33.31800 167.000
33.33795 149.000
33.35789 141.000
33.37784 157.000
33.39779 140.000
33.41773 153.000
33.43768 152.000
33.45763 156.000
33.47757 137.000
33.49752 160.000
33.51747 144.000
33.53741 160.000
33.55736 158.000
33.57731 159.000
33.59726 170.000
33.61720 144.000
33.63715 136.000
33.65710 188.000
33.67704 181.000
33.69699 172.000
33.71694 180.000
33.73688 169.000
33.75683 167.000
33.77678 173.000
33.79673 164.000
33.81667 161.000
33.83662 149.000
33.85657 179.000
33.87651 164.000
33.89646 159.000
33.91641 159.000
33.93635 167.000
33.95630 155.000
33.97625 154.000
33.99620 155.000
34.01614 170.000
34.03609 134.000
34.05604 159.000
34.07598 145.000
34.09593 158.000
34.11588 159.000
34.13582 150.000
34.15577 155.000
34.17572 154.000
34.19566 162.000
34.21561 171.000
34.23556 151.000
34.25551 165.000
34.27545 166.000
34.29540 145.000
34.31535 134.000
34.33529 148.000
34.35524 167.000
34.37519 164.000
34.39513 172.000
34.41508 157.000
34.43503 140.000
34.45498 150.000
34.47492 146.000
34.49487 155.000
34.51482 154.000
34.53476 162.000
34.55471 153.000
34.57466 159.000
34.59460 178.000
34.61455 158.000
34.63450 142.000
34.65444 194.000
34.67439 174.000
34.69434 178.000
34.71429 146.000
34.73423 165.000
34.75418 176.000
34.77413 186.000
34.79407 169.000
34.81402 174.000
34.83397 180.000
34.85391 203.000
34.87386 177.000
34.89381 191.000
34.91376 181.000
34.93370 146.000
34.95365 188.000
34.97360 191.000
34.99354 171.000
35.01349 182.000
35.03344 175.000
35.05338 184.000
35.07333 178.000
35.09328 201.000
35.11322 175.000
35.13317 173.000
35.15312 179.000
35.17307 166.000
35.19301 184.000
35.21296 174.000
35.23291 174.000
35.25285 197.000
35.27280 195.000
35.29275 197.000
35.31269 182.000
35.33264 251.000
35.35259 249.000
35.37254 235.000
35.39248 298.000
35.41243 356.000
35.43238 387.000
35.45232 437.000
35.47227 557.000
35.49222 580.000
35.51216 660.000
35.53211 711.000
35.55206 813.000
35.57201 942.000
35.59195 999.000
35.61190 1112.000
35.63185 1076.000
35.65179 1158.000
35.67174 1276.000
35.69169 1170.000
35.71163 1145.000
35.73158 1142.000
35.75153 1022.000
35.77147 991.000
35.79142 857.000
35.81137 857.000
35.83132 793.000
35.85126 744.000
35.87121 702.000
35.89116 647.000
35.91110 607.000
35.93105 527.000
35.95100 509.000
35.97094 443.000
35.99089 402.000
36.01084 335.000
36.03079 290.000
36.05073 244.000
36.07068 217.000
36.09063 224.000
36.11057 212.000
36.13052 167.000
36.15047 175.000
36.17041 163.000
36.19036 160.000
36.21031 164.000
36.23025 171.000
36.25020 187.000
36.27015 170.000
36.29010 155.000
36.31004 163.000
36.32999 156.000
36.34994 172.000
36.36988 148.000
36.38983 173.000
36.40978 161.000
36.42972 151.000
36.44967 168.000
36.46962 158.000
36.48957 169.000
36.50951 173.000
36.52946 156.000
36.54941 191.000
36.56935 180.000
36.58930 176.000
36.60925 180.000
36.62919 159.000
36.64914 169.000
36.66909 178.000
36.68903 147.000
36.70898 172.000
36.72893 193.000
36.74888 221.000
36.76882 187.000
36.78877 183.000
36.80872 210.000
36.82866 203.000
36.84861 164.000
36.86856 177.000
36.88850 182.000
36.90845 168.000
36.92840 187.000
36.94835 166.000
36.96829 170.000
36.98824 196.000
37.00819 171.000
37.02813 155.000
37.04808 155.000
37.06803 157.000
37.08797 180.000
37.10792 156.000
37.12787 164.000
37.14781 177.000
37.16776 190.000
37.18771 184.000
37.20766 184.000
37.22760 204.000
37.24755 205.000
37.26750 169.000
37.28744 207.000
37.30739 183.000
37.32734 208.000
37.34728 194.000
37.36723 197.000
37.38718 193.000
37.40713 198.000
37.42707 192.000
37.44702 201.000
37.46697 178.000
37.48691 200.000
37.50686 204.000
37.52681 170.000
37.54675 190.000
37.56670 182.000
37.58665 172.000
37.60660 154.000
37.62654 170.000
37.64649 183.000
37.66644 184.000
37.68638 165.000
37.70633 166.000
37.72628 153.000
37.74622 172.000
37.76617 172.000
37.78612 184.000
37.80606 160.000
37.82601 160.000
37.84596 179.000
37.86591 161.000
37.88585 181.000
37.90580 141.000
37.92575 188.000
37.94569 168.000
37.96564 181.000
37.98559 178.000
38.00553 154.000
38.02548 187.000
38.04543 157.000
38.06538 156.000
38.08532 147.000
38.10527 175.000
38.12522 164.000
38.14516 177.000
38.16511 163.000
38.18506 172.000
38.20500 181.000
38.22495 152.000
38.24490 170.000
38.26484 182.000
38.28479 159.000
38.30474 184.000
38.32469 182.000
38.34463 164.000
38.36458 194.000
38.38453 167.000
38.40447 177.000
38.42442 167.000
38.44437 193.000
38.46431 205.000
38.48426 195.000
38.50421 242.000
38.52416 253.000
38.54410 218.000
38.56405 259.000
38.58400 328.000
38.60394 363.000
38.62389 376.000
38.64384 475.000
38.66378 552.000
38.68373 586.000
38.70368 713.000
38.72362 786.000
38.74357 856.000
38.76352 795.000
38.78347 837.000
38.80341 837.000
38.82336 813.000
38.84331 730.000
38.86325 726.000
38.88320 662.000
38.90315 618.000
38.92309 546.000
38.94304 536.000
38.96299 474.000
38.98294 457.000
39.00288 458.000
39.02283 439.000
39.04278 410.000
39.06272 359.000
39.08267 360.000
39.10262 302.000
39.12256 296.000
39.14251 296.000
39.16246 281.000
39.18241 269.000
39.20235 286.000
39.22230 306.000
39.24225 314.000
39.26219 341.000
39.28214 367.000
39.30209 409.000
39.32203 553.000
39.34198 620.000
39.36193 677.000
39.38187 778.000
39.40182 734.000
39.42177 783.000
39.44172 779.000
39.46166 791.000
39.48161 742.000
39.50156 678.000
39.52150 602.000
39.54145 544.000
39.56140 463.000
39.58134 427.000
39.60129 412.000
39.62124 334.000
39.64119 256.000
39.66113 238.000
39.68108 221.000
39.70103 191.000
39.72097 217.000
39.74092 196.000
39.76087 188.000
39.78081 160.000
39.80076 166.000
39.82071 153.000
39.84065 190.000
39.86060 175.000
39.88055 173.000
39.90050 180.000
39.92044 166.000
39.94039 157.000
39.96034 201.000
39.98028 197.000
40.00023 164.000
40.02018 168.000
40.04012 165.000
40.06007 160.000
40.08002 160.000
40.09997 154.000
40.11991 172.000
40.13986 160.000
40.15981 168.000
40.17975 158.000
40.19970 142.000
40.21965 182.000
40.23959 161.000
40.25954 155.000
40.27949 175.000
40.29943 171.000
40.31938 145.000
40.33933 172.000
40.35928 151.000
40.37922 160.000
40.39917 157.000
40.41912 173.000
40.43906 151.000
40.45901 167.000
40.47896 153.000
40.49890 151.000
40.51885 175.000
40.53880 161.000
40.55875 154.000
40.57869 135.000
40.59864 164.000
40.61859 164.000
40.63853 179.000
40.65848 185.000
40.67843 149.000
40.69837 177.000
40.71832 155.000
40.73827 158.000
40.75822 170.000
40.77816 170.000
40.79811 166.000
40.81806 163.000
40.83800 179.000
40.85795 158.000
40.87790 170.000
40.89784 166.000
40.91779 157.000
40.93774 158.000
40.95768 165.000
40.97763 151.000
40.99758 165.000
41.01753 145.000
41.03747 158.000
41.05742 161.000
41.07737 161.000
41.09731 156.000
41.11726 182.000
41.13721 168.000
41.15715 169.000
41.17710 158.000
41.19705 144.000
41.21700 149.000
41.23694 148.000
41.25689 147.000
41.27684 177.000
41.29678 150.000
41.31673 161.000
41.33668 179.000
41.35662 151.000
41.37657 170.000
41.39652 144.000
41.41646 157.000
41.43641 156.000
41.45636 155.000
41.47631 164.000
41.49625 159.000
41.51620 151.000
41.53615 166.000
41.55609 166.000
41.57604 151.000
41.59599 167.000
41.61593 175.000
41.63588 177.000
41.65583 161.000
41.67578 154.000
41.69572 155.000
41.71567 162.000
41.73562 178.000
41.75556 150.000
41.77551 163.000
41.79546 156.000
41.81540 161.000
41.83535 161.000
41.85530 158.000
41.87524 182.000
41.89519 190.000
41.91514 167.000
41.93509 151.000
41.95503 150.000
41.97498 183.000
41.99493 173.000
42.01487 171.000
42.03482 161.000
42.05477 190.000
42.07471 184.000
42.09466 147.000
42.11461 128.000
42.13456 166.000
42.15450 160.000
42.17445 173.000
42.19440 162.000
42.21434 156.000
42.23429 165.000
42.25424 170.000
42.27418 160.000
42.29413 176.000
42.31408 178.000
42.33403 153.000
42.35397 145.000
42.37392 169.000
42.39387 169.000
42.41381 162.000
42.43376 139.000
42.45371 148.000
42.47365 155.000
42.49360 182.000
42.51355 131.000
42.53349 161.000
42.55344 157.000
42.57339 177.000
42.59334 161.000
42.61328 176.000
42.63323 147.000
42.65318 160.000
42.67312 181.000
42.69307 166.000
42.71302 189.000
42.73296 163.000
42.75291 169.000
42.77286 180.000
42.79281 157.000
42.81275 169.000
42.83270 161.000
42.85265 192.000
42.87259 163.000
42.89254 165.000
42.91249 162.000
42.93243 172.000
42.95238 178.000
42.97233 184.000
42.99227 159.000
43.01222 184.000
43.03217 159.000
43.05212 190.000
43.07206 187.000
43.09201 201.000
43.11196 187.000
43.13190 196.000
43.15185 201.000
43.17180 205.000
43.19174 247.000
43.21169 200.000
43.23164 273.000
43.25159 262.000
43.27153 278.000
43.29148 266.000
43.31143 323.000
43.33137 340.000
43.35132 356.000
43.37127 356.000
43.39121 384.000
43.41116 412.000
43.43111 420.000
43.45105 442.000
43.47100 452.000
43.49095 464.000
43.51090 476.000
43.53084 441.000
43.55079 413.000
43.57074 448.000
43.59068 363.000
43.61063 380.000
43.63058 317.000
43.65052 295.000
43.67047 267.000
43.69042 269.000
43.71037 246.000
43.73031 203.000
43.75026 219.000
43.77021 190.000
43.79015 198.000
43.81010 183.000
43.83005 189.000
43.84999 187.000
43.86994 178.000
43.88989 168.000
43.90984 176.000
43.92978 180.000
43.94973 168.000
43.96968 176.000
43.98962 154.000
44.00957 177.000
44.02952 165.000
44.04946 179.000
44.06941 162.000
44.08936 149.000
44.10930 153.000
44.12925 167.000
44.14920 154.000
44.16915 174.000
44.18909 167.000
44.20904 183.000
44.22899 154.000
44.24893 159.000
44.26888 154.000
44.28883 166.000
44.30877 164.000
44.32872 161.000
44.34867 176.000
44.36862 178.000
44.38856 171.000
44.40851 163.000
44.42846 148.000
44.44840 174.000
44.46835 151.000
44.48830 168.000
44.50824 141.000
44.52819 161.000
44.54814 152.000
44.56808 175.000
44.58803 164.000
44.60798 140.000
44.62793 161.000
44.64787 150.000
44.66782 170.000
44.68777 161.000
44.70771 168.000
44.72766 154.000
44.74761 167.000
44.76755 180.000
44.78750 182.000
44.80745 174.000
44.82740 159.000
44.84734 167.000
44.86729 166.000
44.88724 162.000
44.90718 153.000
44.92713 171.000
44.94708 168.000
44.96702 161.000
44.98697 140.000
45.00692 159.000
45.02686 169.000
45.04681 171.000
45.06676 161.000
45.08671 168.000
45.10665 166.000
45.12660 171.000
45.14655 152.000
45.16649 174.000
45.18644 158.000
45.20639 156.000
45.22633 161.000
45.24628 171.000
45.26623 182.000
45.28618 142.000
45.30612 139.000
45.32607 193.000
45.34602 191.000
45.36596 148.000
45.38591 169.000
45.40586 189.000
45.42580 175.000
45.44575 155.000
45.46570 195.000
45.48565 162.000
45.50559 166.000
45.52554 176.000
45.54549 149.000
45.56543 155.000
45.58538 164.000
45.60533 164.000
45.62527 160.000
45.64522 142.000
45.66517 188.000
45.68511 170.000
45.70506 156.000
45.72501 175.000
45.74496 157.000
45.76490 169.000
45.78485 168.000
45.80480 158.000
45.82474 159.000
45.84469 181.000
45.86464 146.000
45.88458 159.000
45.90453 165.000
45.92448 149.000
45.94443 159.000
45.96437 171.000
45.98432 175.000
46.00427 169.000
46.02421 187.000
46.04416 165.000
46.06411 171.000
46.08405 181.000
46.10400 175.000
46.12395 154.000
46.14389 172.000
46.16384 173.000
46.18379 172.000
46.20374 144.000
46.22368 188.000
46.24363 187.000
46.26358 167.000
46.28352 175.000
46.30347 191.000
46.32342 188.000
46.34336 179.000
46.36331 192.000
46.38326 192.000
46.40321 189.000
46.42315 190.000
46.44310 166.000
46.46305 207.000
46.48299 178.000
46.50294 184.000
46.52289 194.000
46.54283 160.000
46.56278 161.000
46.58273 194.000
46.60267 186.000
46.62262 165.000
46.64257 175.000
46.66252 169.000
46.68246 169.000
46.70241 156.000
46.72236 173.000
46.74230 191.000
46.76225 178.000
46.78220 149.000
46.80214 156.000
46.82209 151.000
46.84204 197.000
46.86199 185.000
46.88193 166.000
46.90188 151.000
46.92183 163.000
46.94177 186.000
46.96172 181.000
46.98167 147.000
47.00161 172.000
47.02156 196.000
47.04151 165.000
47.06146 166.000
47.08140 166.000
47.10135 180.000
47.12130 181.000
47.14124 161.000
47.16119 174.000
47.18114 175.000
47.20108 177.000
47.22103 175.000
47.24098 163.000
47.26092 172.000
47.28087 175.000
47.30082 161.000
47.32077 169.000
47.34071 177.000
47.36066 175.000
47.38061 193.000
47.40055 146.000
47.42050 174.000
47.44045 211.000
47.46039 162.000
47.48034 191.000
47.50029 186.000
47.52024 158.000
47.54018 165.000
47.56013 158.000
47.58008 169.000
47.60002 151.000
47.61997 185.000
47.63992 171.000
47.65986 179.000
47.67981 148.000
47.69976 162.000
47.71970 186.000
47.73965 168.000
47.75960 175.000
47.77955 145.000
47.79949 174.000
47.81944 158.000
47.83939 153.000
47.85933 149.000
47.87928 165.000
47.89923 173.000
47.91917 181.000
47.93912 148.000
47.95907 158.000
47.97902 174.000
47.99896 173.000
48.01891 156.000
48.03886 175.000
48.05880 178.000
48.07875 172.000
48.09870 166.000
48.11864 177.000
48.13859 202.000
48.15854 155.000
48.17848 193.000
48.19843 187.000
48.21838 151.000
48.23833 201.000
48.25827 151.000
48.27822 168.000
48.29817 159.000
48.31811 205.000
48.33806 192.000
48.35801 189.000
48.37795 223.000
48.39790 195.000
48.41785 210.000
48.43780 213.000
48.45774 219.000
48.47769 226.000
48.49764 241.000
48.51758 291.000
48.53753 315.000
48.55748 346.000
48.57742 343.000
48.59737 473.000
48.61732 473.000
48.63726 545.000
48.65721 610.000
48.67716 710.000
48.69711 680.000
48.71705 798.000
48.73700 819.000
48.75695 836.000
48.77689 845.000
48.79684 863.000
48.81679 903.000
48.83673 827.000
48.85668 783.000
48.87663 724.000
48.89658 702.000
48.91652 682.000
48.93647 585.000
48.95642 541.000
48.97636 433.000
48.99631 425.000
49.01626 388.000
49.03620 323.000
49.05615 298.000
49.07610 264.000
49.09605 253.000
49.11599 236.000
49.13594 247.000
49.15589 231.000
49.17583 195.000
49.19578 187.000
49.21573 194.000
49.23567 173.000
49.25562 186.000
49.27557 184.000
49.29551 220.000
49.31546 165.000
49.33541 151.000
49.35536 169.000
49.37530 177.000
49.39525 195.000
49.41520 170.000
49.43514 202.000
49.45509 176.000
49.47504 185.000
49.49498 196.000
49.51493 157.000
49.53488 192.000
49.55483 168.000
49.57477 191.000
49.59472 174.000
49.61467 182.000
49.63461 190.000
49.65456 190.000
49.67451 178.000
49.69445 164.000
49.71440 174.000
49.73435 159.000
49.75429 179.000
49.77424 177.000
49.79419 168.000
49.81414 165.000
49.83408 179.000
49.85403 187.000
49.87398 163.000
49.89392 149.000
49.91387 180.000
49.93382 178.000
49.95376 182.000
49.97371 167.000
49.99366 167.000
50.01361 161.000
50.03355 185.000
50.05350 192.000
50.07345 194.000
50.09339 156.000
50.11334 170.000
50.13329 180.000
50.15323 188.000
50.17318 160.000
50.19313 162.000
50.21307 192.000
50.23302 180.000
50.25297 169.000
50.27292 171.000
50.29286 169.000
50.31281 154.000
50.33276 152.000
50.35270 166.000
50.37265 157.000
50.39260 169.000
50.41254 178.000
50.43249 169.000
50.45244 171.000
50.47239 173.000
50.49233 185.000
50.51228 161.000
50.53223 159.000
50.55217 192.000
50.57212 166.000
50.59207 189.000
50.61201 171.000
50.63196 154.000
50.65191 172.000
50.67186 187.000
50.69180 179.000
50.71175 134.000
50.73170 174.000
50.75164 197.000
50.77159 164.000
50.79154 180.000
50.81148 180.000
50.83143 172.000
50.85138 167.000
50.87132 178.000
50.89127 170.000
50.91122 170.000
50.93117 162.000
50.95111 187.000
50.97106 156.000
50.99101 179.000
51.01095 160.000
51.03090 187.000
51.05085 197.000
51.07079 177.000
51.09074 182.000
51.11069 178.000
51.13064 169.000
51.15058 146.000
51.17053 162.000
51.19048 174.000
51.21042 176.000
51.23037 176.000
51.25032 192.000
51.27026 191.000
51.29021 192.000
51.31016 148.000
51.33010 167.000
51.35005 166.000
51.37000 173.000
51.38995 174.000
51.40989 188.000
51.42984 204.000
51.44979 168.000
51.46973 189.000
51.48968 205.000
51.50963 186.000
51.52957 166.000
51.54952 183.000
51.56947 179.000
51.58942 190.000
51.60936 185.000
51.62931 163.000
51.64926 189.000
51.66920 203.000
51.68915 186.000
51.70910 194.000
51.72904 176.000
51.74899 161.000
51.76894 155.000
51.78888 158.000
51.80883 174.000
51.82878 182.000
51.84873 171.000
51.86867 191.000
51.88862 179.000
51.90857 168.000
51.92851 150.000
51.94846 159.000
51.96841 170.000
51.98835 183.000
52.00830 191.000
52.02825 154.000
52.04820 152.000
52.06814 170.000
52.08809 164.000
52.10804 188.000
52.12798 176.000
52.14793 178.000
52.16788 193.000
52.18782 145.000
52.20777 161.000
52.22772 145.000
52.24767 185.000
52.26761 164.000
52.28756 153.000
52.30751 171.000
52.32745 179.000
52.34740 167.000
52.36735 171.000
52.38729 172.000
52.40724 142.000
52.42719 189.000
52.44713 155.000
52.46708 169.000
52.48703 154.000
52.50698 172.000
52.52692 172.000
52.54687 179.000
52.56682 160.000
52.58676 173.000
52.60671 164.000
52.62666 176.000
52.64660 176.000
52.66655 173.000
52.68650 175.000
52.70645 178.000
52.72639 184.000
52.74634 170.000
52.76629 179.000
52.78623 168.000
52.80618 161.000
52.82613 179.000
52.84607 156.000
52.86602 129.000
52.88597 138.000
52.90591 187.000
52.92586 178.000
52.94581 144.000
52.96576 161.000
52.98570 163.000
53.00565 161.000
53.02560 173.000
53.04554 179.000
53.06549 153.000
53.08544 169.000
53.10538 166.000
53.12533 164.000
53.14528 170.000
53.16523 175.000
53.18517 180.000
53.20512 201.000
53.22507 166.000
53.24501 186.000
53.26496 192.000
53.28491 214.000
53.30485 195.000
53.32480 209.000
53.34475 212.000
53.36469 187.000
53.38464 197.000
53.40459 220.000
53.42454 214.000
53.44448 203.000
53.46443 188.000
53.48438 211.000
53.50432 225.000
53.52427 204.000
53.54422 205.000
53.56416 221.000
53.58411 222.000
53.60406 225.000
53.62401 247.000
53.64395 252.000
53.66390 259.000
53.68385 244.000
53.70379 275.000
53.72374 254.000
53.74369 252.000
53.76363 256.000
53.78358 253.000
53.80353 240.000
53.82348 235.000
53.84342 217.000
53.86337 256.000
53.88332 241.000
53.90326 209.000
53.92321 215.000
53.94316 195.000
53.96310 202.000
53.98305 220.000
54.00300 214.000
54.02294 173.000
54.04289 225.000
54.06284 201.000
54.08279 169.000
54.10273 178.000
54.12268 199.000
54.14263 181.000
54.16257 190.000
54.18252 177.000
54.20247 182.000
54.22241 183.000
54.24236 158.000
54.26231 193.000
54.28226 174.000
54.30220 191.000
54.32215 187.000
54.34210 184.000
54.36204 179.000
54.38199 187.000
54.40194 161.000
54.42188 181.000
54.44183 164.000
54.46178 186.000
54.48172 189.000
54.50167 175.000
54.52162 181.000
54.54157 170.000
54.56151 161.000
54.58146 185.000
54.60141 180.000
54.62135 166.000
54.64130 175.000
54.66125 160.000
54.68119 175.000
54.70114 199.000
54.72109 181.000
54.74104 204.000
54.76098 181.000
54.78093 218.000
54.80088 163.000
54.82082 158.000
54.84077 175.000
54.86072 181.000
54.88066 172.000
54.90061 192.000
54.92056 140.000
54.94050 176.000
54.96045 159.000
54.98040 205.000
55.00035 174.000
55.02029 166.000
55.04024 167.000
55.06019 168.000
55.08013 200.000
55.10008 173.000
55.12003 180.000
55.13997 181.000
55.15992 184.000
55.17987 160.000
55.19982 185.000
55.21976 149.000
55.23971 163.000
55.25966 156.000
55.27960 182.000
55.29955 173.000
55.31950 153.000
55.33944 161.000
55.35939 190.000
55.37934 177.000
55.39929 188.000
55.41923 164.000
55.43918 174.000
55.45913 168.000
55.47907 160.000
55.49902 183.000
55.51897 179.000
55.53891 159.000
55.55886 200.000
55.57881 189.000
55.59875 191.000
55.61870 174.000
55.63865 165.000
55.65860 186.000
55.67854 162.000
55.69849 179.000
55.71844 185.000
55.73838 186.000
55.75833 179.000
55.77828 183.000
55.79822 168.000
55.81817 148.000
55.83812 180.000
55.85807 174.000
55.87801 165.000
55.89796 149.000
55.91791 185.000
55.93785 170.000
55.95780 193.000
55.97775 174.000
55.99769 157.000
56.01764 183.000
56.03759 171.000
56.05753 185.000
56.07748 180.000
56.09743 184.000
56.11738 177.000
56.13732 163.000
56.15727 176.000
56.17722 182.000
56.19716 170.000
56.21711 155.000
56.23706 179.000
56.25700 173.000
56.27695 162.000
56.29690 178.000
56.31685 171.000
56.33679 171.000
56.35674 157.000
56.37669 195.000
56.39663 165.000
56.41658 179.000
56.43653 179.000
56.45647 177.000
56.47642 176.000
56.49637 163.000
56.51631 194.000
56.53626 199.000
56.55621 184.000
56.57616 169.000
56.59610 198.000
56.61605 171.000
56.63600 192.000
56.65594 177.000
56.67589 185.000
56.69584 168.000
56.71578 187.000
56.73573 169.000
56.75568 192.000
56.77563 171.000
56.79557 197.000
56.81552 186.000
56.83547 207.000
56.85541 185.000
56.87536 168.000
56.89531 178.000
56.91525 188.000
56.93520 158.000
56.95515 173.000
56.97510 204.000
56.99504 191.000
57.01499 162.000
57.03494 186.000
57.05488 189.000
57.07483 193.000
57.09478 208.000
57.11472 214.000
57.13467 204.000
57.15462 228.000
57.17456 239.000
57.19451 255.000
57.21446 236.000
57.23441 269.000
57.25435 286.000
57.27430 288.000
57.29425 283.000
57.31419 285.000
57.33414 329.000
57.35409 321.000
57.37403 300.000
57.39398 286.000
57.41393 287.000
57.43388 287.000
57.45382 282.000
57.47377 289.000
57.49372 233.000
57.51366 246.000
57.53361 257.000
57.55356 234.000
57.57350 225.000
57.59345 222.000
57.61340 220.000
57.63334 239.000
57.65329 172.000
57.67324 177.000
57.69319 222.000
57.71313 220.000
57.73308 224.000
57.75303 189.000
57.77297 198.000
57.79292 196.000
57.81287 176.000
57.83281 182.000
57.85276 191.000
57.87271 190.000
57.89266 179.000
57.91260 186.000
57.93255 209.000
57.95250 172.000
57.97244 198.000
57.99239 190.000
58.01234 178.000
58.03228 198.000
58.05223 195.000
58.07218 190.000
58.09212 198.000
58.11207 216.000
58.13202 222.000
58.15197 225.000
58.17191 236.000
58.19186 269.000
58.21181 283.000
58.23175 282.000
58.25170 289.000
58.27165 266.000
58.29159 286.000
58.31154 267.000
58.33149 254.000
58.35144 289.000
58.37138 252.000
58.39133 302.000
58.41128 310.000
58.43122 261.000
58.45117 252.000
58.47112 228.000
58.49106 233.000
58.51101 221.000
58.53096 238.000
58.55090 208.000
58.57085 208.000
58.59080 171.000
58.61075 211.000
58.63069 202.000
58.65064 192.000
58.67059 182.000
58.69053 173.000
58.71048 192.000
58.73043 201.000
58.75037 175.000
58.77032 179.000
58.79027 218.000
58.81022 172.000
58.83016 181.000
58.85011 170.000
58.87006 181.000
58.89000 170.000
58.90995 181.000
58.92990 168.000
58.94984 199.000
58.96979 186.000
58.98974 177.000
59.00969 197.000
59.02963 171.000
59.04958 178.000
59.06953 192.000
59.08947 173.000
59.10942 196.000
59.12937 181.000
59.14931 189.000
59.16926 195.000
59.18921 180.000
59.20915 189.000
59.22910 156.000
59.24905 194.000
59.26900 196.000
59.28894 175.000
59.30889 168.000
59.32884 180.000
59.34878 189.000
59.36873 154.000
59.38868 190.000
59.40862 182.000
59.42857 168.000
59.44852 209.000
59.46847 174.000
59.48841 183.000
59.50836 203.000
59.52831 160.000
59.54825 200.000
59.56820 171.000
59.58815 150.000
59.60809 175.000
59.62804 186.000
59.64799 163.000
59.66793 197.000
59.68788 190.000
59.70783 157.000
59.72778 170.000
59.74772 163.000
59.76767 187.000
59.78762 174.000
59.80756 178.000
59.82751 194.000
59.84746 174.000
59.86740 176.000
59.88735 179.000
59.90730 191.000
59.92725 173.000
59.94719 196.000
59.96714 180.000
59.98709 198.000
60.00703 172.000
60.02698 161.000
60.04693 160.000
60.06687 181.000
60.08682 190.000
60.10677 180.000
60.12671 175.000
60.14666 182.000
60.16661 166.000
60.18656 174.000
60.20650 185.000
60.22645 177.000
60.24640 176.000
60.26634 177.000
60.28629 189.000
60.30624 202.000
60.32618 202.000
60.34613 188.000
60.36608 168.000
60.38603 181.000
60.40597 179.000
60.42592 167.000
60.44587 169.000
60.46581 192.000
60.48576 186.000
60.50571 193.000
60.52565 207.000
60.54560 189.000
60.56555 184.000
60.58550 193.000
60.60544 182.000
60.62539 154.000
60.64534 203.000
60.66528 193.000
60.68523 184.000
60.70518 189.000
60.72512 208.000
60.74507 163.000
60.76502 174.000
60.78496 186.000
60.80491 184.000
60.82486 187.000
60.84481 198.000
60.86475 154.000
60.88470 193.000
60.90465 177.000
60.92459 189.000
60.94454 190.000
60.96449 203.000
60.98443 191.000
61.00438 180.000
61.02433 181.000
61.04428 198.000
61.06422 187.000
61.08417 199.000
61.10412 188.000
61.12406 160.000
61.14401 197.000
61.16396 188.000
61.18390 189.000
61.20385 177.000
61.22380 187.000
61.24374 192.000
61.26369 217.000
61.28364 213.000
61.30359 161.000
61.32353 205.000
61.34348 212.000
61.36343 212.000
61.38337 234.000
61.40332 215.000
61.42327 212.000
61.44321 236.000
61.46316 233.000
61.48311 265.000
61.50306 263.000
61.52300 299.000
61.54295 309.000
61.56290 311.000
61.58284 349.000
61.60279 332.000
61.62274 365.000
61.64268 388.000
61.66263 380.000
61.68258 394.000
61.70252 375.000
61.72247 406.000
61.74242 419.000
61.76237 415.000
61.78231 445.000
61.80226 425.000
61.82221 419.000
61.84215 427.000
61.86210 442.000
61.88205 431.000
61.90199 465.000
61.92194 431.000
61.94189 430.000
61.96184 392.000
61.98178 382.000
62.00173 401.000
62.02168 394.000
62.04162 384.000
62.06157 315.000
62.08152 313.000
62.10146 329.000
62.12141 308.000
62.14136 262.000
62.16131 271.000
62.18125 274.000
62.20120 272.000
62.22115 228.000
62.24109 229.000
62.26104 228.000
62.28099 234.000
62.30093 228.000
62.32088 209.000
62.34083 215.000
62.36077 207.000
62.38072 214.000
62.40067 198.000
62.42062 187.000
62.44056 180.000
62.46051 182.000
62.48046 210.000
62.50040 205.000
62.52035 183.000
62.54030 231.000
62.56024 192.000
62.58019 205.000
62.60014 205.000
62.62009 228.000
62.64003 208.000
62.65998 225.000
62.67993 216.000
62.69987 236.000
62.71982 231.000
62.73977 243.000
62.75971 257.000
62.77966 242.000
62.79961 256.000
62.81955 261.000
62.83950 325.000
62.85945 323.000
62.87940 308.000
62.89934 332.000
62.91929 342.000
62.93924 365.000
62.95918 367.000
62.97913 378.000
62.99908 406.000
63.01902 332.000
63.03897 330.000
63.05892 341.000
63.07887 316.000
63.09881 331.000
63.11876 307.000
63.13871 293.000
63.15865 294.000
63.17860 280.000
63.19855 277.000
63.21849 273.000
63.23844 234.000
63.25839 251.000
63.27833 255.000
63.29828 251.000
63.31823 206.000
63.33818 222.000
63.35812 207.000
63.37807 208.000
63.39802 220.000
63.41796 187.000
63.43791 209.000
63.45786 184.000
63.47780 200.000
63.49775 197.000
63.51770 195.000
63.53765 212.000
63.55759 210.000
63.57754 217.000
63.59749 182.000
63.61743 200.000
63.63738 213.000
63.65733 199.000
63.67727 194.000
63.69722 215.000
63.71717 177.000
63.73712 193.000
63.75706 194.000
63.77701 203.000
63.79696 181.000
63.81690 199.000
63.83685 187.000
63.85680 196.000
63.87674 186.000
63.89669 195.000
63.91664 184.000
63.93658 187.000
63.95653 185.000
63.97648 198.000
63.99643 182.000
64.01637 216.000
64.03632 206.000
64.05627 199.000
64.07621 178.000
64.09616 195.000
64.11611 193.000
64.13605 215.000
64.15600 204.000
64.17595 197.000
64.19590 246.000
64.21584 228.000
64.23579 266.000
64.25574 271.000
64.27568 293.000
64.29563 325.000
64.31558 331.000
64.33552 347.000
64.35547 324.000
64.37542 406.000
64.39536 388.000
64.41531 373.000
64.43526 419.000
64.45521 401.000
64.47515 377.000
64.49510 408.000
64.51505 360.000
64.53499 346.000
64.55494 304.000
64.57489 285.000
64.59483 302.000
64.61478 306.000
64.63473 264.000
64.65468 274.000
64.67462 243.000
64.69457 255.000
64.71452 245.000
64.73446 218.000
64.75441 225.000
64.77436 203.000
64.79430 233.000
64.81425 215.000
64.83420 209.000
64.85414 211.000
64.87409 201.000
64.89404 184.000
64.91399 196.000
64.93393 179.000
64.95388 209.000
64.97383 206.000
64.99377 218.000
65.01372 188.000
65.03367 183.000
65.05361 179.000
65.07356 213.000
65.09351 213.000
65.11346 188.000
65.13340 186.000
65.15335 177.000
65.17330 167.000
65.19324 201.000
65.21319 173.000
65.23314 197.000
65.25308 176.000
65.27303 180.000
65.29298 179.000
65.31293 198.000
65.33287 179.000
65.35282 209.000
65.37277 216.000
65.39271 181.000
65.41266 187.000
65.43261 198.000
65.45255 208.000
65.47250 207.000
65.49245 218.000
65.51239 199.000
65.53234 215.000
65.55229 221.000
65.57224 211.000
65.59218 199.000
65.61213 226.000
65.63208 204.000
65.65202 252.000
65.67197 284.000
65.69192 236.000
65.71186 252.000
65.73181 238.000
65.75176 231.000
65.77171 280.000
65.79165 254.000
65.81160 244.000
65.83155 274.000
65.85149 274.000
65.87144 236.000
65.89139 258.000
65.91133 270.000
65.93128 263.000
65.95123 315.000
65.97117 270.000
65.99112 270.000
66.01107 238.000
66.03102 258.000
66.05096 284.000
66.07091 269.000
66.09086 260.000
66.11080 296.000
66.13075 277.000
66.15070 266.000
66.17064 260.000
66.19059 265.000
66.21054 274.000
66.23049 291.000
66.25043 313.000
66.27038 303.000
66.29033 290.000
66.31027 329.000
66.33022 320.000
66.35017 307.000
66.37011 356.000
66.39006 315.000
66.41001 301.000
66.42995 342.000
66.44990 304.000
66.46985 324.000
66.48980 314.000
66.50974 301.000
66.52969 281.000
66.54964 300.000
66.56958 279.000
66.58953 270.000
66.60948 305.000
66.62942 318.000
66.64937 360.000
66.66932 326.000
66.68927 340.000
66.70921 316.000
66.72916 346.000
66.74911 312.000
66.76905 386.000
66.78900 321.000
66.80895 348.000
66.82889 312.000
66.84884 353.000
66.86879 344.000
66.88874 303.000
66.90868 316.000
66.92863 289.000
66.94858 253.000
66.96852 301.000
66.98847 278.000
67.00842 246.000
67.02836 260.000
67.04831 250.000
67.06826 239.000
67.08820 207.000
67.10815 215.000
67.12810 240.000
67.14805 212.000
67.16799 202.000
67.18794 201.000
67.20789 177.000
67.22783 206.000
67.24778 210.000
67.26773 198.000
67.28767 178.000
67.30762 224.000
67.32757 206.000
67.34752 171.000
67.36746 158.000
67.38741 204.000
67.40736 207.000
67.42730 202.000
67.44725 207.000
67.46720 168.000
67.48714 196.000
67.50709 200.000
67.52704 209.000
67.54698 196.000
67.56693 186.000
67.58688 199.000
67.60683 195.000
67.62677 222.000
67.64672 223.000
67.66667 223.000
67.68661 199.000
67.70656 187.000
67.72651 218.000
67.74645 234.000
67.76640 235.000
67.78635 239.000
67.80630 229.000
67.82624 250.000
67.84619 259.000
67.86614 242.000
67.88608 287.000
67.90603 280.000
67.92598 259.000
67.94592 252.000
67.96587 257.000
67.98582 305.000
68.00576 304.000
68.02571 295.000
68.04566 287.000
68.06561 307.000
68.08555 323.000
68.10550 283.000
68.12545 324.000
68.14539 278.000
68.16534 272.000
68.18529 281.000
68.20523 308.000
68.22518 284.000
68.24513 307.000
68.26508 258.000
68.28502 287.000
68.30497 253.000
68.32492 295.000
68.34486 264.000
68.36481 258.000
68.38476 233.000
68.40470 226.000
68.42465 225.000
68.44460 218.000
68.46455 194.000
68.48449 183.000
68.50444 207.000
68.52439 224.000
68.54433 205.000
68.56428 217.000
68.58423 214.000
68.60417 195.000
68.62412 193.000
68.64407 200.000
68.66401 188.000
68.68396 182.000
68.70391 181.000
68.72386 193.000
68.74380 206.000
68.76375 181.000
68.78370 181.000
68.80364 187.000
68.82359 179.000
68.84354 208.000
68.86348 165.000
68.88343 201.000
68.90338 202.000
68.92333 197.000
68.94327 180.000
68.96322 203.000
68.98317 193.000
69.00311 213.000
69.02306 182.000
69.04301 212.000
69.06295 210.000
69.08290 196.000
69.10285 190.000
69.12279 184.000
69.14274 191.000
69.16269 199.000
69.18264 176.000
69.20258 206.000
69.22253 202.000
69.24248 184.000
69.26242 191.000
69.28237 196.000
69.30232 183.000
69.32226 202.000
69.34221 169.000
69.36216 188.000
69.38211 195.000
69.40205 181.000
69.42200 195.000
69.44195 207.000
69.46189 192.000
69.48184 227.000
69.50179 213.000
69.52173 191.000
69.54168 173.000
69.56163 177.000
69.58157 184.000
69.60152 202.000
69.62147 197.000
69.64142 179.000
69.66136 183.000
69.68131 191.000
69.70126 179.000
69.72120 203.000
69.74115 180.000
69.76110 187.000
69.78104 207.000
69.80099 186.000
69.82094 202.000
69.84089 186.000
69.86083 170.000
69.88078 191.000
69.90073 193.000
69.92067 189.000
69.94062 169.000
69.96057 181.000
69.98051 204.000
70.00046 204.000
70.02041 194.000
70.04035 201.000
70.06030 194.000
70.08025 200.000
70.10020 216.000
70.12014 161.000
70.14009 204.000
70.16004 194.000
70.17998 171.000
70.19993 187.000
70.21988 195.000
70.23982 173.000
70.25977 173.000
70.27972 171.000
70.29967 190.000
70.31961 189.000
70.33956 188.000
70.35951 171.000
70.37945 182.000
70.39940 165.000
70.41935 191.000
70.43929 190.000
70.45924 156.000
70.47919 194.000
70.49914 167.000
70.51908 200.000
70.53903 179.000
70.55898 178.000
70.57892 193.000
70.59887 176.000
70.61882 190.000
70.63876 170.000
70.65871 188.000
70.67866 185.000
70.69860 211.000
70.71855 160.000
70.73850 224.000
70.75845 173.000
70.77839 198.000
70.79834 171.000
70.81829 211.000
70.83823 177.000
70.85818 190.000
70.87813 207.000
70.89807 180.000
70.91802 207.000
70.93797 193.000
70.95792 189.000
70.97786 198.000
70.99781 180.000
71.01776 182.000
71.03770 185.000
71.05765 193.000
71.07760 198.000
71.09754 165.000
71.11749 190.000
71.13744 208.000
71.15738 174.000
71.17733 196.000
71.19728 206.000
71.21723 208.000
71.23717 203.000
71.25712 177.000
71.27707 194.000
71.29701 173.000
71.31696 182.000
71.33691 209.000
71.35685 197.000
71.37680 186.000
71.39675 201.000
71.41670 205.000
71.43664 201.000
71.45659 196.000
71.47654 196.000
71.49648 222.000
71.51643 187.000
71.53638 191.000
71.55632 201.000
71.57627 207.000
71.59622 217.000
71.61616 195.000
71.63611 185.000
71.65606 201.000
71.67601 189.000
71.69595 186.000
71.71590 190.000
71.73585 189.000
71.75579 195.000
71.77574 164.000
71.79569 185.000
71.81563 172.000
71.83558 178.000
71.85553 191.000
71.87548 170.000
71.89542 180.000
71.91537 191.000
71.93532 187.000
71.95526 184.000
71.97521 175.000
71.99516 182.000
72.01510 216.000
72.03505 208.000
72.05500 183.000
72.07495 203.000
72.09489 171.000
72.11484 220.000
72.13479 232.000
72.15473 205.000
72.17468 199.000
72.19463 207.000
72.21457 214.000
72.23452 205.000
72.25447 203.000
72.27441 223.000
72.29436 216.000
72.31431 228.000
72.33426 207.000
72.35420 233.000
72.37415 228.000
72.39410 222.000
72.41404 252.000
72.43399 238.000
72.45394 253.000
72.47388 235.000
72.49383 231.000
72.51378 226.000
72.53373 221.000
72.55367 205.000
72.57362 228.000
72.59357 210.000
72.61351 224.000
72.63346 237.000
72.65341 222.000
72.67335 211.000
72.69330 202.000
72.71325 208.000
72.73319 201.000
72.75314 159.000
72.77309 205.000
72.79304 171.000
72.81298 190.000
72.83293 179.000
72.85288 194.000
72.87282 201.000
72.89277 142.000
72.91272 187.000
72.93266 194.000
72.95261 200.000
72.97256 194.000
72.99251 175.000
73.01245 200.000
73.03240 212.000
73.05235 181.000
73.07229 188.000
73.09224 223.000
73.11219 168.000
73.13213 193.000
73.15208 193.000
73.17203 200.000
73.19197 179.000
73.21192 184.000
73.23187 188.000
73.25182 199.000
73.27176 185.000
73.29171 191.000
73.31166 185.000
73.33160 218.000
73.35155 177.000
73.37150 213.000
73.39144 184.000
73.41139 224.000
73.43134 225.000
73.45129 209.000
73.47123 219.000
73.49118 210.000
73.51113 233.000
73.53107 208.000
73.55102 218.000
73.57097 256.000
73.59091 243.000
73.61086 236.000
73.63081 262.000
73.65076 285.000
73.67070 250.000
73.69065 276.000
73.71060 236.000
73.73054 256.000
73.75049 253.000
73.77044 227.000
73.79038 247.000
73.81033 217.000
73.83028 220.000
73.85022 253.000
73.87017 218.000
73.89012 210.000
73.91007 209.000
73.93001 214.000
73.94996 222.000
73.96991 176.000
73.98985 194.000
74.00980 199.000
74.02975 206.000
74.04969 223.000
74.06964 210.000
74.08959 190.000
74.10954 230.000
74.12948 216.000
74.14943 206.000
74.16938 181.000
74.18932 240.000
74.20927 221.000
74.22922 165.000
74.24916 200.000
74.26911 200.000
74.28906 208.000
74.30900 201.000
74.32895 194.000
74.34890 222.000
74.36885 213.000
74.38879 209.000
74.40874 168.000
74.42869 210.000
74.44863 204.000
74.46858 204.000
74.48853 249.000
74.50847 222.000
74.52842 230.000
74.54837 190.000
74.56832 217.000
74.58826 245.000
74.60821 244.000
74.62816 216.000
74.64810 232.000
74.66805 214.000
74.68800 249.000
74.70794 229.000
74.72789 247.000
74.74784 210.000
74.76778 218.000
74.78773 197.000
74.80768 230.000
74.82763 207.000
74.84757 222.000
74.86752 222.000
74.88747 258.000
74.90741 218.000
74.92736 206.000
74.94731 218.000
74.96725 248.000
74.98720 251.000
75.00715 230.000
75.02710 254.000
75.04704 256.000
75.06699 237.000
75.08694 260.000
75.10688 230.000
75.12683 218.000
75.14678 244.000
75.16672 227.000
75.18667 244.000
75.20662 272.000
75.22657 201.000
75.24651 277.000
75.26646 256.000
75.28641 263.000
75.30635 274.000
75.32630 285.000
75.34625 274.000
75.36619 252.000
75.38614 247.000
75.40609 243.000
75.42603 228.000
75.44598 262.000
75.46593 239.000
75.48588 242.000
75.50582 255.000
75.52577 228.000
75.54572 206.000
75.56566 248.000
75.58561 225.000
75.60556 232.000
75.62550 252.000
75.64545 239.000
75.66540 192.000
75.68535 238.000
75.70529 227.000
75.72524 228.000
75.74519 237.000
75.76513 213.000
75.78508 215.000
75.80503 217.000
75.82497 210.000
75.84492 228.000
75.86487 214.000
75.88481 220.000
75.90476 199.000
75.92471 213.000
75.94466 201.000
75.96460 201.000
75.98455 239.000
76.00450 210.000
76.02444 200.000
76.04439 187.000
76.06434 229.000
76.08428 232.000
76.10423 227.000
76.12418 227.000
76.14413 186.000
76.16407 207.000
76.18402 229.000
76.20397 202.000
76.22391 222.000
76.24386 191.000
76.26381 203.000
76.28375 183.000
76.30370 180.000
76.32365 170.000
76.34359 250.000
76.36354 195.000
76.38349 209.000
76.40344 203.000
76.42338 197.000
76.44333 181.000
76.46328 199.000
76.48322 181.000
76.50317 180.000
76.52312 197.000
76.54306 197.000
76.56301 215.000
76.58296 186.000
76.60291 188.000
76.62285 183.000
76.64280 207.000
76.66275 194.000
76.68269 200.000
76.70264 183.000
76.72259 209.000
76.74253 201.000
76.76248 181.000
76.78243 176.000
76.80238 194.000
76.82232 163.000
76.84227 192.000
76.86222 194.000
76.88216 202.000
76.90211 189.000
76.92206 207.000
76.94200 174.000
76.96195 162.000
76.98190 197.000
77.00184 188.000
77.02179 184.000
77.04174 178.000
77.06169 222.000
77.08163 191.000
77.10158 174.000
77.12153 198.000
77.14147 202.000
77.16142 188.000
77.18137 203.000
77.20131 190.000
77.22126 193.000
77.24121 205.000
77.26116 201.000
77.28110 197.000
77.30105 210.000
77.32100 182.000
77.34094 185.000
77.36089 186.000
77.38084 194.000
77.40078 194.000
77.42073 186.000
77.44068 185.000
77.46062 178.000
77.48057 223.000
77.50052 188.000
77.52047 193.000
77.54041 189.000
77.56036 189.000
77.58031 192.000
77.60025 195.000
77.62020 209.000
77.64015 216.000
77.66009 193.000
77.68004 191.000
77.69999 227.000
77.71994 222.000
77.73988 221.000
77.75983 208.000
77.77978 235.000
77.79972 252.000
77.81967 216.000
77.83962 230.000
77.85956 239.000
77.87951 255.000
77.89946 244.000
77.91940 247.000
77.93935 263.000
77.95930 270.000
77.97925 293.000
77.99919 258.000
78.01914 275.000
78.03909 287.000
78.05903 290.000
78.07898 299.000
78.09893 323.000
78.11887 291.000
78.13882 287.000
78.15877 276.000
78.17872 324.000
78.19866 319.000
78.21861 271.000
78.23856 266.000
78.25850 280.000
78.27845 279.000
78.29840 283.000
78.31834 283.000
78.33829 249.000
78.35824 251.000
78.37819 257.000
78.39813 294.000
78.41808 273.000
78.43803 222.000
78.45797 234.000
78.47792 228.000
78.49787 234.000
78.51781 221.000
78.53776 192.000
78.55771 212.000
78.57765 210.000
78.59760 180.000
78.61755 215.000
78.63750 208.000
78.65744 196.000
78.67739 193.000
78.69734 181.000
78.71728 186.000
78.73723 194.000
78.75718 194.000
78.77712 202.000
78.79707 193.000
78.81702 196.000
78.83697 188.000
78.85691 197.000
78.87686 186.000
78.89681 203.000
78.91675 203.000
78.93670 203.000
78.95665 200.000
78.97659 181.000
78.99654 206.000
79.01649 178.000
79.03643 214.000
79.05638 202.000
79.07633 200.000
79.09628 186.000
79.11622 183.000
79.13617 195.000
79.15612 179.000
79.17606 200.000
79.19601 193.000
79.21596 203.000
79.23590 195.000
79.25585 195.000
79.27580 182.000
79.29575 204.000
79.31569 212.000
79.33564 188.000
79.35559 180.000
79.37553 196.000
79.39548 203.000
79.41543 237.000
79.43537 203.000
79.45532 208.000
79.47527 193.000
79.49521 203.000
79.51516 193.000
79.53511 237.000
79.55506 204.000
79.57500 175.000
79.59495 214.000
79.61490 178.000
79.63484 168.000
79.65479 192.000
79.67474 190.000
79.69468 165.000
79.71463 208.000
79.73458 187.000
79.75453 211.000
79.77447 187.000
79.79442 214.000
79.81437 183.000
79.83431 213.000
79.85426 216.000
79.87421 202.000
79.89415 198.000
79.91410 186.000
79.93405 190.000
79.95399 199.000
79.97394 190.000
79.99389 200.000
80.01384 222.000
80.03378 184.000
80.05373 193.000
80.07368 174.000
80.09362 201.000
80.11357 191.000
80.13352 225.000
80.15346 213.000
80.17341 208.000
80.19336 200.000
80.21331 210.000
80.23325 211.000
80.25320 206.000
80.27315 176.000
80.29309 202.000
80.31304 217.000
80.33299 209.000
80.35293 199.000
80.37288 190.000
80.39283 210.000
80.41278 215.000
80.43272 175.000
80.45267 231.000
80.47262 188.000
80.49256 216.000
80.51251 216.000
80.53246 214.000
80.55240 194.000
80.57235 211.000
80.59230 200.000
80.61224 209.000
80.63219 197.000
80.65214 193.000
80.67209 223.000
80.69203 233.000
80.71198 164.000
80.73193 196.000
80.75187 189.000
80.77182 195.000
80.79177 205.000
80.81171 203.000
80.83166 221.000
80.85161 192.000
80.87156 232.000
80.89150 205.000
80.91145 193.000
80.93140 199.000
80.95134 195.000
80.97129 225.000
80.99124 216.000
81.01118 214.000
81.03113 208.000
81.05108 190.000
81.07102 198.000
81.09097 198.000
81.11092 190.000
81.13087 201.000
81.15081 206.000
81.17076 198.000
81.19071 204.000
81.21065 216.000
81.23060 211.000
81.25055 206.000
81.27049 207.000
81.29044 213.000
81.31039 169.000
81.33034 188.000
81.35028 191.000
81.37023 179.000
81.39018 187.000
81.41012 200.000
81.43007 212.000
81.45002 211.000
81.46996 205.000
81.48991 189.000
81.50986 193.000
81.52980 196.000
81.54975 214.000
81.56970 187.000
81.58965 210.000
81.60959 213.000
81.62954 182.000
81.64949 176.000
81.66943 172.000
81.68938 207.000
81.70933 179.000
81.72927 199.000
81.74922 197.000
81.76917 186.000
81.78912 183.000
81.80906 228.000
81.82901 186.000
81.84896 166.000
81.86890 193.000
81.88885 186.000
81.90880 169.000
81.92874 193.000
81.94869 209.000
81.96864 189.000
81.98859 204.000
82.00853 179.000
82.02848 192.000
82.04843 198.000
82.06837 190.000
82.08832 209.000
82.10827 194.000
82.12821 172.000
82.14816 194.000
82.16811 171.000
82.18805 203.000
82.20800 199.000
82.22795 183.000
82.24790 199.000
82.26784 228.000
82.28779 214.000
82.30774 204.000
82.32768 200.000
82.34763 213.000
82.36758 207.000
82.38752 221.000
82.40747 229.000
82.42742 244.000
82.44737 222.000
82.46731 235.000
82.48726 200.000
82.50721 253.000
82.52715 236.000
82.54710 210.000
82.56705 241.000
82.58699 243.000
82.60694 239.000
82.62689 217.000
82.64683 236.000
82.66678 225.000
82.68673 221.000
82.70668 193.000
82.72662 215.000
82.74657 220.000
82.76652 211.000
82.78646 206.000
82.80641 219.000
82.82636 222.000
82.84630 213.000
82.86625 221.000
82.88620 218.000
82.90615 230.000
82.92609 239.000
82.94604 217.000
82.96599 221.000
82.98593 221.000
83.00588 222.000
83.02583 202.000
83.04577 216.000
83.06572 213.000
83.08567 228.000
83.10561 222.000
83.12556 221.000
83.14551 229.000
83.16546 200.000
83.18540 264.000
83.20535 206.000
83.22530 216.000
83.24524 198.000
83.26519 228.000
83.28514 206.000
83.30508 210.000
83.32503 213.000
83.34498 207.000
83.36493 212.000
83.38487 210.000
83.40482 186.000
83.42477 199.000
83.44471 209.000
83.46466 203.000
83.48461 232.000
83.50455 247.000
83.52450 214.000
83.54445 189.000
83.56440 213.000
83.58434 217.000
83.60429 220.000
83.62424 230.000
83.64418 224.000
83.66413 208.000
83.68408 226.000
83.70402 206.000
83.72397 223.000
83.74392 206.000
83.76386 233.000
83.78381 226.000
83.80376 238.000
83.82371 222.000
83.84365 222.000
83.86360 204.000
83.88355 227.000
83.90349 251.000
83.92344 222.000
83.94339 210.000
83.96333 206.000
83.98328 192.000
84.00323 221.000
84.02318 183.000
84.04312 204.000
84.06307 189.000
84.08302 206.000
84.10296 192.000
84.12291 181.000
84.14286 204.000
84.16280 193.000
84.18275 194.000
84.20270 205.000
84.22264 199.000
84.24259 207.000
84.26254 188.000
84.28249 206.000
84.30243 182.000
84.32238 179.000
84.34233 245.000
84.36227 223.000
84.38222 223.000
84.40217 213.000
84.42211 222.000
84.44206 214.000
84.46201 212.000
84.48196 199.000
84.50190 233.000
84.52185 235.000
84.54180 242.000
84.56174 246.000
84.58169 270.000
84.60164 266.000
84.62158 252.000
84.64153 245.000
84.66148 289.000
84.68142 263.000
84.70137 264.000
84.72132 268.000
84.74127 260.000
84.76121 281.000
84.78116 243.000
84.80111 261.000
84.82105 266.000
84.84100 292.000
84.86095 236.000
84.88089 238.000
84.90084 256.000
84.92079 255.000
84.94074 218.000
84.96068 248.000
84.98063 240.000
85.00058 233.000
85.02052 220.000
85.04047 234.000
85.06042 231.000
85.08036 209.000
85.10031 228.000
85.12026 220.000
85.14021 195.000
85.16015 222.000
85.18010 191.000
85.20005 189.000
85.21999 205.000
85.23994 198.000
85.25989 220.000
85.27983 177.000
85.29978 195.000
85.31973 192.000
85.33967 197.000
85.35962 206.000
85.37957 212.000
85.39952 187.000
85.41946 202.000
85.43941 226.000
85.45936 181.000
85.47930 194.000
85.49925 201.000
85.51920 198.000
85.53914 198.000
85.55909 206.000
85.57904 183.000
85.59899 183.000
85.61893 207.000
85.63888 213.000
85.65883 198.000
85.67877 197.000
85.69872 179.000
85.71867 186.000
85.73861 205.000
85.75856 205.000
85.77851 208.000
85.79845 205.000
85.81840 199.000
85.83835 195.000
85.85830 194.000
85.87824 177.000
85.89819 175.000
85.91814 176.000
85.93808 177.000
85.95803 211.000
85.97798 201.000
85.99792 185.000
86.01787 228.000
86.03782 189.000
86.05777 218.000
86.07771 210.000
86.09766 190.000
86.11761 183.000
86.13755 185.000
86.15750 190.000
86.17745 208.000
86.19739 225.000
86.21734 193.000
86.23729 198.000
86.25723 199.000
86.27718 180.000
86.29713 184.000
86.31708 208.000
86.33702 203.000
86.35697 180.000
86.37692 205.000
86.39686 190.000
86.41681 201.000
86.43676 201.000
86.45670 214.000
86.47665 231.000
86.49660 187.000
86.51655 199.000
86.53649 193.000
86.55644 210.000
86.57639 197.000
86.59633 215.000
86.61628 209.000
86.63623 215.000
86.65617 206.000
86.67612 210.000
86.69607 222.000
86.71602 190.000
86.73596 190.000
86.75591 197.000
86.77586 218.000
86.79580 223.000
86.81575 214.000
86.83570 197.000
86.85564 198.000
86.87559 204.000
86.89554 217.000
86.91548 218.000
86.93543 228.000
86.95538 218.000
86.97533 239.000
86.99527 182.000
87.01522 203.000
87.03517 229.000
87.05511 178.000
87.07506 184.000
87.09501 244.000
87.11495 228.000
87.13490 203.000
87.15485 207.000
87.17480 180.000
87.19474 225.000
87.21469 207.000
87.23464 235.000
87.25458 236.000
87.27453 212.000
87.29448 238.000
87.31442 224.000
87.33437 211.000
87.35432 223.000
87.37426 198.000
87.39421 211.000
87.41416 216.000
87.43411 199.000
87.45405 209.000
87.47400 240.000
87.49395 212.000
87.51389 208.000
87.53384 233.000
87.55379 211.000
87.57373 198.000
87.59368 207.000
87.61363 219.000
87.63358 199.000
87.65352 213.000
87.67347 230.000
87.69342 191.000
87.71336 217.000
87.73331 187.000
87.75326 236.000
87.77320 192.000
87.79315 172.000
87.81310 198.000
87.83304 181.000
87.85299 190.000
87.87294 185.000
87.89289 203.000
87.91283 190.000
87.93278 176.000
87.95273 188.000
87.97267 203.000
87.99262 223.000
88.01257 207.000
88.03251 176.000
88.05246 222.000
88.07241 231.000
88.09236 215.000
88.11230 209.000
88.13225 208.000
88.15220 167.000
88.17214 199.000
88.19209 185.000
88.21204 167.000
88.23198 203.000
88.25193 190.000
88.27188 193.000
88.29183 197.000
88.31177 195.000
88.33172 177.000
88.35167 212.000
88.37161 217.000
88.39156 193.000
88.41151 217.000
88.43145 187.000
88.45140 182.000
88.47135 198.000
88.49129 183.000
88.51124 199.000
88.53119 201.000
88.55114 191.000
88.57108 180.000
88.59103 216.000
88.61098 192.000
88.63092 193.000
88.65087 186.000
88.67082 187.000
88.69076 191.000
88.71071 206.000
88.73066 199.000
88.75061 207.000
88.77055 221.000
88.79050 185.000
88.81045 218.000
88.83039 175.000
88.85034 192.000
88.87029 183.000
88.89023 210.000
88.91018 197.000
88.93013 207.000
88.95007 211.000
88.97002 205.000
88.98997 186.000
89.00992 214.000
89.02986 222.000
89.04981 223.000
89.06976 188.000
89.08970 200.000
89.10965 193.000
89.12960 198.000
89.14954 187.000
89.16949 181.000
89.18944 199.000
89.20939 192.000
89.22933 177.000
89.24928 174.000
89.26923 216.000
89.28917 185.000
89.30912 197.000
89.32907 214.000
89.34901 235.000
89.36896 219.000
89.38891 206.000
89.40885 220.000
89.42880 192.000
89.44875 171.000
89.46870 214.000
89.48864 221.000
89.50859 236.000
89.52854 205.000
89.54848 239.000
89.56843 200.000
89.58838 225.000
89.60832 219.000
89.62827 214.000
89.64822 208.000
89.66817 212.000
89.68811 218.000
89.70806 219.000
89.72801 211.000
89.74795 227.000
89.76790 218.000
89.78785 213.000
89.80779 228.000
89.82774 208.000
89.84769 241.000
89.86764 204.000
89.88758 227.000
89.90753 254.000
89.92748 232.000
89.94742 227.000
89.96737 250.000
89.98732 228.000
90.00726 216.000
