10.00000 85.000
10.01995 75.000
10.03989 64.000
10.05984 63.000
10.07979 83.000
10.09973 79.000
10.11968 69.000
10.13963 75.000
10.15958 87.000
10.17952 78.000
10.19947 76.000
10.21942 75.000
10.23936 77.000
10.25931 78.000
10.27926 68.000
10.29920 77.000
10.31915 82.000
10.33910 79.000
10.35905 59.000
10.37899 79.000
10.39894 84.000
10.41889 88.000
10.43883 67.000
10.45878 73.000
10.47873 66.000
10.49867 85.000
10.51862 73.000
10.53857 80.000
10.55851 64.000
10.57846 83.000
10.59841 89.000
10.61836 82.000
10.63830 82.000
10.65825 61.000
10.67820 78.000
10.69814 78.000
10.71809 67.000
10.73804 81.000
10.75798 67.000
10.77793 77.000
10.79788 88.000
10.81783 74.000
10.83777 82.000
10.85772 78.000
10.87767 74.000
10.89761 86.000
10.91756 72.000
10.93751 71.000
10.95745 80.000
10.97740 80.000
10.99735 71.000
11.01730 84.000
11.03724 78.000
11.05719 75.000
11.07714 90.000
11.09708 72.000
11.11703 53.000
11.13698 83.000
11.15692 73.000
11.17687 66.000
11.19682 75.000
11.21676 82.000
11.23671 87.000
11.25666 77.000
11.27661 68.000
11.29655 80.000
11.31650 67.000
11.33645 71.000
11.35639 86.000
11.37634 85.000
11.39629 70.000
11.41623 79.000
11.43618 76.000
11.45613 73.000
11.47608 76.000
11.49602 72.000
11.51597 77.000
11.53592 72.000
11.55586 72.000
11.57581 73.000
11.59576 66.000
11.61570 82.000
11.63565 86.000
11.65560 75.000
11.67554 79.000
11.69549 71.000
11.71544 76.000
11.73539 64.000
11.75533 82.000
11.77528 81.000
11.79523 84.000
11.81517 64.000
11.83512 62.000
11.85507 77.000
11.87501 82.000
11.89496 72.000
11.91491 80.000
11.93486 88.000
11.95480 77.000
11.97475 72.000
11.99470 92.000
12.01464 63.000
12.03459 80.000
12.05454 59.000
12.07448 67.000
12.09443 106.000
12.11438 71.000
12.13432 69.000
12.15427 73.000
12.17422 76.000
12.19417 79.000
12.21411 81.000
12.23406 84.000
12.25401 75.000
12.27395 68.000
12.29390 68.000
12.31385 67.000
12.33379 75.000
12.35374 78.000
12.37369 71.000
12.39364 68.000
12.41358 68.000
12.43353 73.000
12.45348 70.000
12.47342 77.000
12.49337 82.000
12.51332 77.000
12.53326 66.000
12.55321 57.000
12.57316 68.000
12.59311 75.000
12.61305 67.000
12.63300 84.000
12.65295 62.000
12.67289 73.000
12.69284 74.000
12.71279 78.000
12.73273 70.000
12.75268 72.000
12.77263 73.000
12.79257 78.000
12.81252 68.000
12.83247 73.000
12.85242 81.000
12.87236 75.000
12.89231 78.000
12.91226 90.000
12.93220 71.000
12.95215 81.000
12.97210 63.000
12.99204 64.000
13.01199 88.000
13.03194 72.000
13.05189 71.000
13.07183 78.000
13.09178 56.000
13.11173 65.000
13.13167 66.000
13.15162 77.000
13.17157 75.000
13.19151 72.000
13.21146 77.000
13.23141 74.000
13.25135 70.000
13.27130 64.000
13.29125 69.000
13.31120 67.000
13.33114 63.000
13.35109 62.000
13.37104 82.000
13.39098 77.000
13.41093 66.000
13.43088 73.000
13.45082 79.000
13.47077 73.000
13.49072 82.000
13.51067 73.000
13.53061 77.000
13.55056 59.000
13.57051 70.000
13.59045 79.000
13.61040 92.000
13.63035 72.000
13.65029 62.000
13.67024 68.000
13.69019 73.000
13.71013 84.000
13.73008 73.000
13.75003 74.000
13.76998 71.000
13.78992 75.000
13.80987 71.000
13.82982 78.000
13.84976 81.000
13.86971 70.000
13.88966 89.000
13.90960 70.000
13.92955 63.000
13.94950 77.000
13.96945 70.000
13.98939 70.000
14.00934 87.000
14.02929 93.000
14.04923 63.000
14.06918 82.000
14.08913 76.000
14.10907 75.000
14.12902 77.000
14.14897 81.000
14.16892 77.000
14.18886 88.000
14.20881 77.000
14.22876 84.000
14.24870 67.000
14.26865 86.000
14.28860 102.000
14.30854 55.000
14.32849 62.000
14.34844 74.000
14.36838 76.000
14.38833 72.000
14.40828 77.000
14.42823 62.000
14.44817 72.000
14.46812 79.000
14.48807 65.000
14.50801 65.000
14.52796 68.000
14.54791 70.000
14.56785 78.000
14.58780 75.000
14.60775 73.000
14.62770 75.000
14.64764 73.000
14.66759 82.000
14.68754 78.000
14.70748 81.000
14.72743 82.000
14.74738 81.000
14.76732 61.000
14.78727 70.000
14.80722 79.000
14.82716 81.000
14.84711 88.000
14.86706 85.000
14.88701 63.000
14.90695 66.000
14.92690 76.000
14.94685 71.000
14.96679 91.000
14.98674 78.000
15.00669 69.000
15.02663 67.000
15.04658 81.000
15.06653 83.000
15.08648 70.000
15.10642 82.000
15.12637 70.000
15.14632 91.000
15.16626 71.000
15.18621 81.000
15.20616 82.000
15.22610 88.000
15.24605 79.000
15.26600 76.000
15.28594 73.000
15.30589 67.000
15.32584 92.000
15.34579 101.000
15.36573 94.000
15.38568 74.000
15.40563 97.000
15.42557 67.000
15.44552 87.000
15.46547 83.000
15.48541 98.000
15.50536 95.000
15.52531 97.000
15.54526 92.000
15.56520 81.000
15.58515 98.000
15.60510 99.000
15.62504 126.000
15.64499 135.000
15.66494 138.000
15.68488 163.000
15.70483 155.000
15.72478 210.000
15.74472 176.000
15.76467 297.000
15.78462 298.000
15.80457 289.000
15.82451 263.000
15.84446 191.000
15.86441 169.000
15.88435 154.000
15.90430 168.000
15.92425 156.000
15.94419 212.000
15.96414 228.000
15.98409 268.000
16.00404 336.000
16.02398 344.000
16.04393 432.000
16.06388 528.000
16.08382 603.000
16.10377 638.000
16.12372 727.000
16.14366 818.000
16.16361 873.000
16.18356 958.000
16.20351 1024.000
16.22345 1298.000
16.24340 1504.000
16.26335 1763.000
16.28329 1987.000
16.30324 2294.000
16.32319 2334.000
16.34313 2296.000
16.36308 1753.000
16.38303 1073.000
16.40297 619.000
16.42292 272.000
16.44287 181.000
16.46282 148.000
16.48276 136.000
16.50271 117.000
16.52266 111.000
16.54260 104.000
16.56255 108.000
16.58250 114.000
16.60244 92.000
16.62239 91.000
16.64234 106.000
16.66229 96.000
16.68223 117.000
16.70218 111.000
16.72213 80.000
16.74207 86.000
16.76202 75.000
16.78197 85.000
16.80191 84.000
16.82186 88.000
16.84181 83.000
16.86175 85.000
16.88170 79.000
16.90165 92.000
16.92160 70.000
16.94154 100.000
16.96149 70.000
16.98144 78.000
17.00138 69.000
17.02133 64.000
17.04128 80.000
17.06122 74.000
17.08117 79.000
17.10112 88.000
17.12107 67.000
17.14101 79.000
17.16096 85.000
17.18091 81.000
17.20085 83.000
17.22080 83.000
17.24075 78.000
17.26069 66.000
17.28064 72.000
17.30059 87.000
17.32053 66.000
17.34048 85.000
17.36043 81.000
17.38038 80.000
17.40032 66.000
17.42027 76.000
17.44022 76.000
17.46016 86.000
17.48011 79.000
17.50006 83.000
17.52000 69.000
17.53995 79.000
17.55990 85.000
17.57985 77.000
17.59979 75.000
17.61974 75.000
17.63969 73.000
17.65963 77.000
17.67958 63.000
17.69953 74.000
17.71947 78.000
17.73942 72.000
17.75937 83.000
17.77932 80.000
17.79926 77.000
17.81921 72.000
17.83916 67.000
17.85910 76.000
17.87905 52.000
17.89900 64.000
17.91894 71.000
17.93889 69.000
17.95884 75.000
17.97878 63.000
17.99873 86.000
18.01868 73.000
18.03863 90.000
18.05857 93.000
18.07852 112.000
18.09847 131.000
18.11841 160.000
18.13836 188.000
18.15831 176.000
18.17825 171.000
18.19820 184.000
18.21815 155.000
18.23810 180.000
18.25804 113.000
18.27799 106.000
18.29794 96.000
18.31788 88.000
18.33783 77.000
18.35778 92.000
18.37772 81.000
18.39767 77.000
18.41762 71.000
18.43756 78.000
18.45751 68.000
18.47746 76.000
18.49741 66.000
18.51735 71.000
18.53730 74.000
18.55725 65.000
18.57719 55.000
18.59714 96.000
18.61709 83.000
18.63703 74.000
18.65698 77.000
18.67693 73.000
18.69688 74.000
18.71682 60.000
18.73677 66.000
18.75672 52.000
18.77666 75.000
18.79661 66.000
18.81656 75.000
18.83650 59.000
18.85645 74.000
18.87640 65.000
18.89634 66.000
18.91629 69.000
18.93624 59.000
18.95619 79.000
18.97613 68.000
18.99608 63.000
19.01603 72.000
19.03597 59.000
19.05592 75.000
19.07587 70.000
19.09581 65.000
19.11576 78.000
19.13571 62.000
19.15566 70.000
19.17560 62.000
19.19555 82.000
19.21550 65.000
19.23544 67.000
19.25539 84.000
19.27534 64.000
19.29528 60.000
19.31523 75.000
19.33518 63.000
19.35513 64.000
19.37507 68.000
19.39502 73.000
19.41497 73.000
19.43491 87.000
19.45486 76.000
19.47481 67.000
19.49475 76.000
19.51470 78.000
19.53465 79.000
19.55459 71.000
19.57454 70.000
19.59449 72.000
19.61444 74.000
19.63438 74.000
19.65433 71.000
19.67428 68.000
19.69422 69.000
19.71417 71.000
19.73412 67.000
19.75406 74.000
19.77401 53.000
19.79396 72.000
19.81391 69.000
19.83385 87.000
19.85380 62.000
19.87375 73.000
19.89369 86.000
19.91364 80.000
19.93359 96.000
19.95353 93.000
19.97348 100.000
19.99343 105.000
20.01337 113.000
20.03332 111.000
20.05327 103.000
20.07322 98.000
20.09316 108.000
20.11311 83.000
20.13306 96.000
20.15300 81.000
20.17295 77.000
20.19290 85.000
20.21284 77.000
20.23279 74.000
20.25274 89.000
20.27269 88.000
20.29263 101.000
20.31258 93.000
20.33253 76.000
20.35247 99.000
20.37242 84.000
20.39237 98.000
20.41231 105.000
20.43226 128.000
20.45221 136.000
20.47215 157.000
20.49210 207.000
20.51205 229.000
20.53200 235.000
20.55194 239.000
20.57189 274.000
20.59184 245.000
20.61178 224.000
20.63173 269.000
20.65168 249.000
20.67162 207.000
20.69157 239.000
20.71152 184.000
20.73147 180.000
20.75141 211.000
20.77136 203.000
20.79131 236.000
20.81125 212.000
20.83120 167.000
20.85115 198.000
20.87109 153.000
20.89104 143.000
20.91099 122.000
20.93094 120.000
20.95088 112.000
20.97083 106.000
20.99078 96.000
21.01072 105.000
21.03067 76.000
21.05062 65.000
21.07056 68.000
21.09051 70.000
21.11046 70.000
21.13040 66.000
21.15035 89.000
21.17030 58.000
21.19025 57.000
21.21019 72.000
21.23014 78.000
21.25009 57.000
21.27003 71.000
21.28998 67.000
21.30993 73.000
21.32987 71.000
21.34982 71.000
21.36977 64.000
21.38972 87.000
21.40966 62.000
21.42961 57.000
21.44956 99.000
21.46950 64.000
21.48945 60.000
21.50940 74.000
21.52934 81.000
21.54929 78.000
21.56924 67.000
21.58918 66.000
21.60913 80.000
21.62908 74.000
21.64903 68.000
21.66897 80.000
21.68892 78.000
21.70887 68.000
21.72881 78.000
21.74876 71.000
21.76871 75.000
21.78865 91.000
21.80860 68.000
21.82855 78.000
21.84850 68.000
21.86844 73.000
21.88839 64.000
21.90834 76.000
21.92828 70.000
21.94823 81.000
21.96818 79.000
21.98812 75.000
22.00807 68.000
22.02802 59.000
22.04796 81.000
22.06791 87.000
22.08786 84.000
22.10781 73.000
22.12775 77.000
22.14770 64.000
22.16765 76.000
22.18759 66.000
22.20754 72.000
22.22749 67.000
22.24743 77.000
22.26738 85.000
22.28733 61.000
22.30728 65.000
22.32722 78.000
22.34717 88.000
22.36712 71.000
22.38706 75.000
22.40701 74.000
22.42696 65.000
22.44690 71.000
22.46685 73.000
22.48680 82.000
22.50675 66.000
22.52669 60.000
22.54664 76.000
22.56659 67.000
22.58653 71.000
22.60648 62.000
22.62643 73.000
22.64637 66.000
22.66632 73.000
22.68627 78.000
22.70621 65.000
22.72616 81.000
22.74611 73.000
22.76606 77.000
22.78600 68.000
22.80595 69.000
22.82590 71.000
22.84584 72.000
22.86579 85.000
22.88574 73.000
22.90568 83.000
22.92563 76.000
22.94558 77.000
22.96553 68.000
22.98547 66.000
23.00542 77.000
23.02537 80.000
23.04531 63.000
23.06526 76.000
23.08521 52.000
23.10515 63.000
23.12510 73.000
23.14505 68.000
23.16499 63.000
23.18494 73.000
23.20489 78.000
23.22484 68.000
23.24478 74.000
23.26473 66.000
23.28468 68.000
23.30462 80.000
23.32457 78.000
23.34452 73.000
23.36446 75.000
23.38441 63.000
23.40436 73.000
23.42431 73.000
23.44425 85.000
23.46420 78.000
23.48415 76.000
23.50409 76.000
23.52404 67.000
23.54399 68.000
23.56393 72.000
23.58388 72.000
23.60383 62.000
23.62377 65.000
23.64372 77.000
23.66367 82.000
23.68362 67.000
23.70356 67.000
23.72351 75.000
23.74346 73.000
23.76340 78.000
23.78335 77.000
23.80330 78.000
23.82324 76.000
23.84319 62.000
23.86314 79.000
23.88309 72.000
23.90303 85.000
23.92298 70.000
23.94293 88.000
23.96287 67.000
23.98282 88.000
24.00277 70.000
24.02271 85.000
24.04266 81.000
24.06261 79.000
24.08256 84.000
24.10250 84.000
24.12245 67.000
24.14240 85.000
24.16234 57.000
24.18229 91.000
24.20224 96.000
24.22218 93.000
24.24213 69.000
24.26208 96.000
24.28202 74.000
24.30197 92.000
24.32192 83.000
24.34187 75.000
24.36181 75.000
24.38176 71.000
24.40171 73.000
24.42165 76.000
24.44160 75.000
24.46155 85.000
24.48149 76.000
24.50144 95.000
24.52139 94.000
24.54134 70.000
24.56128 74.000
24.58123 75.000
24.60118 88.000
24.62112 94.000
24.64107 63.000
24.66102 67.000
24.68096 77.000
24.70091 83.000
24.72086 61.000
24.74080 65.000
24.76075 81.000
24.78070 77.000
24.80065 89.000
24.82059 65.000
24.84054 92.000
24.86049 81.000
24.88043 76.000
24.90038 80.000
24.92033 78.000
24.94027 80.000
24.96022 86.000
24.98017 86.000
25.00012 81.000
25.02006 71.000
25.04001 77.000
25.05996 81.000
25.07990 70.000
25.09985 78.000
25.11980 86.000
25.13974 80.000
25.15969 81.000
25.17964 71.000
25.19958 97.000
25.21953 84.000
25.23948 82.000
25.25943 90.000
25.27937 81.000
25.29932 91.000
25.31927 80.000
25.33921 74.000
25.35916 82.000
25.37911 90.000
25.39905 87.000
25.41900 79.000
25.43895 80.000
25.45890 83.000
25.47884 83.000
25.49879 68.000
25.51874 77.000
25.53868 84.000
25.55863 70.000
25.57858 81.000
25.59852 81.000
25.61847 65.000
25.63842 75.000
25.65837 90.000
25.67831 78.000
25.69826 69.000
25.71821 70.000
25.73815 79.000
25.75810 73.000
25.77805 90.000
25.79799 66.000
25.81794 81.000
25.83789 74.000
25.85783 75.000
25.87778 74.000
25.89773 122.000
25.91768 75.000
25.93762 86.000
25.95757 79.000
25.97752 88.000
25.99746 99.000
26.01741 75.000
26.03736 80.000
26.05730 85.000
26.07725 83.000
26.09720 85.000
26.11715 89.000
26.13709 95.000
26.15704 93.000
26.17699 86.000
26.19693 75.000
26.21688 65.000
26.23683 89.000
26.25677 79.000
26.27672 93.000
26.29667 72.000
26.31661 81.000
26.33656 64.000
26.35651 83.000
26.37646 93.000
26.39640 67.000
26.41635 90.000
26.43630 92.000
26.45624 83.000
26.47619 94.000
26.49614 82.000
26.51608 82.000
26.53603 84.000
26.55598 83.000
26.57593 79.000
26.59587 74.000
26.61582 75.000
26.63577 88.000
26.65571 94.000
26.67566 69.000
26.69561 95.000
26.71555 85.000
26.73550 81.000
26.75545 75.000
26.77539 100.000
26.79534 86.000
26.81529 98.000
26.83524 78.000
26.85518 71.000
26.87513 80.000
26.89508 87.000
26.91502 70.000
26.93497 85.000
26.95492 78.000
26.97486 77.000
26.99481 71.000
27.01476 95.000
27.03471 97.000
27.05465 94.000
27.07460 94.000
27.09455 99.000
27.11449 69.000
27.13444 92.000
27.15439 76.000
27.17433 99.000
27.19428 76.000
27.21423 100.000
27.23417 74.000
27.25412 88.000
27.27407 87.000
27.29402 71.000
27.31396 74.000
27.33391 84.000
27.35386 80.000
27.37380 94.000
27.39375 108.000
27.41370 95.000
27.43364 87.000
27.45359 86.000
27.47354 75.000
27.49349 75.000
27.51343 83.000
27.53338 73.000
27.55333 90.000
27.57327 93.000
27.59322 89.000
27.61317 88.000
27.63311 93.000
27.65306 86.000
27.67301 64.000
27.69296 79.000
27.71290 99.000
27.73285 99.000
27.75280 88.000
27.77274 77.000
27.79269 92.000
27.81264 72.000
27.83258 91.000
27.85253 97.000
27.87248 99.000
27.89242 82.000
27.91237 83.000
27.93232 84.000
27.95227 69.000
27.97221 61.000
27.99216 80.000
28.01211 96.000
28.03205 80.000
28.05200 107.000
28.07195 72.000
28.09189 90.000
28.11184 82.000
28.13179 87.000
28.15174 91.000
28.17168 66.000
28.19163 97.000
28.21158 76.000
28.23152 71.000
28.25147 82.000
28.27142 97.000
28.29136 71.000
28.31131 79.000
28.33126 99.000
28.35120 77.000
28.37115 83.000
28.39110 83.000
28.41105 68.000
28.43099 94.000
28.45094 112.000
28.47089 87.000
28.49083 84.000
28.51078 97.000
28.53073 82.000
28.55067 92.000
28.57062 92.000
28.59057 89.000
28.61052 72.000
28.63046 99.000
28.65041 84.000
28.67036 91.000
28.69030 98.000
28.71025 101.000
28.73020 91.000
28.75014 89.000
28.77009 79.000
28.79004 94.000
28.80998 96.000
28.82993 86.000
28.84988 85.000
28.86983 94.000
28.88977 82.000
28.90972 88.000
28.92967 81.000
28.94961 75.000
28.96956 81.000
28.98951 100.000
29.00945 72.000
29.02940 82.000
29.04935 102.000
29.06930 84.000
29.08924 86.000
29.10919 88.000
29.12914 81.000
29.14908 100.000
29.16903 83.000
29.18898 87.000
29.20892 104.000
29.22887 88.000
29.24882 81.000
29.26877 89.000
29.28871 91.000
29.30866 88.000
29.32861 83.000
29.34855 102.000
29.36850 94.000
29.38845 106.000
29.40839 104.000
29.42834 109.000
29.44829 114.000
29.46823 114.000
29.48818 119.000
29.50813 141.000
29.52808 123.000
29.54802 124.000
29.56797 117.000
29.58792 125.000
29.60786 135.000
29.62781 124.000
29.64776 125.000
29.66770 108.000
29.68765 87.000
29.70760 118.000
29.72755 124.000
29.74749 123.000
29.76744 145.000
29.78739 141.000
29.80733 139.000
29.82728 167.000
29.84723 195.000
29.86717 202.000
29.88712 211.000
29.90707 213.000
29.92701 204.000
29.94696 219.000
29.96691 198.000
29.98686 164.000
30.00680 162.000
30.02675 160.000
30.04670 162.000
30.06664 120.000
30.08659 125.000
30.10654 121.000
30.12648 95.000
30.14643 112.000
30.16638 94.000
30.18633 122.000
30.20627 116.000
30.22622 89.000
30.24617 100.000
30.26611 80.000
30.28606 92.000
30.30601 90.000
30.32595 90.000
30.34590 93.000
30.36585 86.000
30.38579 87.000
30.40574 93.000
30.42569 69.000
30.44564 101.000
30.46558 103.000
30.48553 96.000
30.50548 89.000
30.52542 87.000
30.54537 109.000
30.56532 88.000
30.58526 99.000
30.60521 76.000
30.62516 94.000
30.64511 89.000
30.66505 85.000
30.68500 86.000
30.70495 90.000
30.72489 96.000
30.74484 109.000
30.76479 87.000
30.78473 84.000
30.80468 89.000
30.82463 106.000
30.84458 85.000
30.86452 100.000
30.88447 90.000
30.90442 95.000
30.92436 94.000
30.94431 97.000
30.96426 97.000
30.98420 107.000
31.00415 102.000
31.02410 98.000
31.04404 74.000
31.06399 84.000
31.08394 88.000
31.10389 69.000
31.12383 106.000
31.14378 88.000
31.16373 98.000
31.18367 72.000
31.20362 83.000
31.22357 76.000
31.24351 90.000
31.26346 114.000
31.28341 97.000
31.30336 111.000
31.32330 89.000
31.34325 91.000
31.36320 79.000
31.38314 91.000
31.40309 96.000
31.42304 108.000
31.44298 105.000
31.46293 113.000
31.48288 87.000
31.50282 94.000
31.52277 82.000
31.54272 114.000
31.56267 101.000
31.58261 94.000
31.60256 105.000
31.62251 106.000
31.64245 116.000
31.66240 101.000
31.68235 102.000
31.70229 117.000
31.72224 104.000
31.74219 90.000
31.76214 101.000
31.78208 103.000
31.80203 129.000
31.82198 94.000
31.84192 121.000
31.86187 115.000
31.88182 103.000
31.90176 107.000
31.92171 112.000
31.94166 98.000
31.96160 102.000
31.98155 110.000
32.00150 81.000
32.02145 89.000
32.04139 97.000
32.06134 96.000
32.08129 92.000
32.10123 87.000
32.12118 91.000
32.14113 101.000
32.16107 96.000
32.18102 86.000
32.20097 95.000
32.22092 112.000
32.24086 107.000
32.26081 91.000
32.28076 84.000
32.30070 113.000
32.32065 99.000
32.34060 109.000
32.36054 110.000
32.38049 109.000
32.40044 121.000
32.42039 120.000
32.44033 125.000
32.46028 128.000
32.48023 139.000
32.50017 127.000
32.52012 147.000
32.54007 153.000
32.56001 149.000
32.57996 160.000
32.59991 187.000
32.61985 158.000
32.63980 162.000
32.65975 166.000
32.67970 156.000
32.69964 167.000
32.71959 171.000
32.73954 180.000
32.75948 190.000
32.77943 183.000
32.79938 164.000
32.81932 200.000
32.83927 201.000
32.85922 222.000
32.87917 260.000
32.89911 233.000
32.91906 283.000
32.93901 299.000
32.95895 283.000
32.97890 291.000
32.99885 334.000
33.01879 335.000
33.03874 269.000
33.05869 274.000
33.07863 218.000
33.09858 211.000
33.11853 185.000
33.13848 168.000
33.15842 158.000
33.17837 156.000
33.19832 144.000
33.21826 136.000
33.23821 148.000
33.25816 141.000
33.27810 144.000
33.29805 157.000
33.31800 157.000
33.33795 173.000
33.35789 141.000
33.37784 139.000
33.39779 162.000
33.41773 132.000
33.43768 139.000
33.45763 107.000
33.47757 117.000
33.49752 113.000
33.51747 107.000
33.53741 107.000
33.55736 114.000
33.57731 108.000
33.59726 115.000
33.61720 99.000
33.63715 129.000
33.65710 113.000
33.67704 138.000
33.69699 136.000
33.71694 141.000
33.73688 155.000
33.75683 146.000
33.77678 144.000
33.79673 170.000
33.81667 177.000
33.83662 215.000
33.85657 212.000
33.87651 217.000
33.89646 216.000
33.91641 232.000
33.93635 247.000
33.95630 246.000
33.97625 264.000
33.99620 248.000
34.01614 254.000
34.03609 237.000
34.05604 222.000
34.07598 210.000
34.09593 207.000
34.11588 217.000
34.13582 186.000
34.15577 172.000
34.17572 169.000
34.19566 166.000
34.21561 174.000
34.23556 178.000
34.25551 177.000
34.27545 171.000
34.29540 146.000
34.31535 155.000
34.33529 167.000
34.35524 151.000
34.37519 182.000
34.39513 163.000
34.41508 181.000
34.43503 166.000
34.45498 162.000
34.47492 150.000
34.49487 149.000
34.51482 126.000
34.53476 123.000
34.55471 115.000
34.57466 127.000
34.59460 131.000
34.61455 102.000
34.63450 120.000
34.65444 97.000
34.67439 94.000
34.69434 126.000
34.71429 94.000
34.73423 121.000
34.75418 98.000
34.77413 115.000
34.79407 117.000
34.81402 112.000
34.83397 116.000
34.85391 129.000
34.87386 134.000
34.89381 128.000
34.91376 122.000
34.93370 163.000
34.95365 153.000
34.97360 207.000
34.99354 208.000
35.01349 284.000
35.03344 383.000
35.05338 428.000
35.07333 508.000
35.09328 522.000
35.11322 542.000
35.13317 613.000
35.15312 673.000
35.17307 700.000
35.19301 676.000
35.21296 645.000
35.23291 661.000
35.25285 566.000
35.27280 659.000
35.29275 595.000
35.31269 597.000
35.33264 548.000
35.35259 494.000
35.37254 443.000
35.39248 435.000
35.41243 442.000
35.43238 405.000
35.45232 408.000
35.47227 374.000
35.49222 356.000
35.51216 366.000
35.53211 376.000
35.55206 408.000
35.57201 376.000
35.59195 344.000
35.61190 303.000
35.63185 295.000
35.65179 291.000
35.67174 231.000
35.69169 204.000
35.71163 154.000
35.73158 135.000
35.75153 163.000
35.77147 134.000
35.79142 131.000
35.81137 116.000
35.83132 123.000
35.85126 138.000
35.87121 124.000
35.89116 113.000
35.91110 125.000
35.93105 146.000
35.95100 125.000
35.97094 109.000
35.99089 120.000
36.01084 133.000
36.03079 104.000
36.05073 141.000
36.07068 95.000
36.09063 112.000
36.11057 110.000
36.13052 117.000
36.15047 116.000
36.17041 113.000
36.19036 123.000
36.21031 112.000
36.23025 127.000
36.25020 129.000
36.27015 148.000
36.29010 152.000
36.31004 168.000
36.32999 248.000
36.34994 348.000
36.36988 394.000
36.38983 437.000
36.40978 399.000
36.42972 421.000
36.44967 432.000
36.46962 424.000
36.48957 423.000
36.50951 344.000
36.52946 333.000
36.54941 332.000
36.56935 298.000
36.58930 255.000
36.60925 232.000
36.62919 232.000
36.64914 222.000
36.66909 222.000
36.68903 211.000
36.70898 202.000
36.72893 203.000
36.74888 172.000
36.76882 184.000
36.78877 160.000
36.80872 157.000
36.82866 157.000
36.84861 150.000
36.86856 125.000
36.88850 130.000
36.90845 125.000
36.92840 114.000
36.94835 140.000
36.96829 114.000
36.98824 96.000
37.00819 109.000
37.02813 103.000
37.04808 84.000
37.06803 89.000
37.08797 78.000
37.10792 121.000
37.12787 104.000
37.14781 90.000
37.16776 95.000
37.18771 80.000
37.20766 101.000
37.22760 99.000
37.24755 86.000
37.26750 94.000
37.28744 93.000
37.30739 87.000
37.32734 79.000
37.34728 92.000
37.36723 98.000
37.38718 80.000
37.40713 97.000
37.42707 101.000
37.44702 79.000
37.46697 95.000
37.48691 94.000
37.50686 65.000
37.52681 78.000
37.54675 82.000
37.56670 97.000
37.58665 92.000
37.60660 88.000
37.62654 89.000
37.64649 76.000
37.66644 80.000
37.68638 89.000
37.70633 84.000
37.72628 79.000
37.74622 89.000
37.76617 93.000
37.78612 77.000
37.80606 108.000
37.82601 97.000
37.84596 104.000
37.86591 106.000
37.88585 94.000
37.90580 88.000
37.92575 86.000
37.94569 75.000
37.96564 108.000
37.98559 83.000
38.00553 91.000
38.02548 85.000
38.04543 83.000
38.06538 93.000
38.08532 90.000
38.10527 96.000
38.12522 95.000
38.14516 103.000
38.16511 95.000
38.18506 106.000
38.20500 91.000
38.22495 95.000
38.24490 91.000
38.26484 79.000
38.28479 96.000
38.30474 86.000
38.32469 101.000
38.34463 100.000
38.36458 96.000
38.38453 102.000
38.40447 94.000
38.42442 88.000
38.44437 92.000
38.46431 119.000
38.48426 93.000
38.50421 102.000
38.52416 93.000
38.54410 109.000
38.56405 121.000
38.58400 120.000
38.60394 155.000
38.62389 174.000
38.64384 163.000
38.66378 220.000
38.68373 215.000
38.70368 256.000
38.72362 277.000
38.74357 343.000
38.76352 348.000
38.78347 313.000
38.80341 346.000
38.82336 322.000
38.84331 322.000
38.86325 282.000
38.88320 266.000
38.90315 265.000
38.92309 250.000
38.94304 229.000
38.96299 195.000
38.98294 174.000
39.00288 163.000
39.02283 169.000
39.04278 151.000
39.06272 171.000
39.08267 135.000
39.10262 107.000
39.12256 119.000
39.14251 107.000
39.16246 108.000
39.18241 107.000
39.20235 101.000
39.22230 87.000
39.24225 103.000
39.26219 107.000
39.28214 93.000
39.30209 86.000
39.32203 94.000
39.34198 100.000
39.36193 101.000
39.38187 90.000
39.40182 88.000
39.42177 102.000
39.44172 90.000
39.46166 109.000
39.48161 94.000
39.50156 107.000
39.52150 85.000
39.54145 85.000
39.56140 94.000
39.58134 88.000
39.60129 89.000
39.62124 103.000
39.64119 91.000
39.66113 101.000
39.68108 90.000
39.70103 90.000
39.72097 93.000
39.74092 94.000
39.76087 73.000
39.78081 99.000
39.80076 89.000
39.82071 106.000
39.84065 98.000
39.86060 92.000
39.88055 88.000
39.90050 82.000
39.92044 98.000
39.94039 99.000
39.96034 90.000
39.98028 89.000
40.00023 82.000
40.02018 99.000
40.04012 94.000
40.06007 94.000
40.08002 85.000
40.09997 86.000
40.11991 88.000
40.13986 90.000
40.15981 92.000
40.17975 95.000
40.19970 98.000
40.21965 101.000
40.23959 103.000
40.25954 99.000
40.27949 89.000
40.29943 76.000
40.31938 86.000
40.33933 88.000
40.35928 102.000
40.37922 73.000
40.39917 92.000
40.41912 91.000
40.43906 77.000
40.45901 87.000
40.47896 98.000
40.49890 103.000
40.51885 106.000
40.53880 97.000
40.55875 89.000
40.57869 103.000
40.59864 100.000
40.61859 109.000
40.63853 113.000
40.65848 100.000
40.67843 111.000
40.69837 99.000
40.71832 80.000
40.73827 112.000
40.75822 90.000
40.77816 105.000
40.79811 108.000
40.81806 103.000
40.83800 98.000
40.85795 131.000
40.87790 111.000
40.89784 124.000
40.91779 120.000
40.93774 111.000
40.95768 118.000
40.97763 158.000
40.99758 142.000
41.01753 141.000
41.03747 145.000
41.05742 159.000
41.07737 198.000
41.09731 183.000
41.11726 212.000
41.13721 214.000
41.15715 248.000
41.17710 294.000
41.19705 371.000
41.21700 475.000
41.23694 634.000
41.25689 907.000
41.27684 1351.000
41.29678 1702.000
41.31673 1924.000
41.33668 2000.000
41.35662 1890.000
41.37657 1804.000
41.39652 1794.000
41.41646 1666.000
41.43641 1635.000
41.45636 1388.000
41.47631 1199.000
41.49625 920.000
41.51620 718.000
41.53615 617.000
41.55609 487.000
41.57604 395.000
41.59599 295.000
41.61593 246.000
41.63588 221.000
41.65583 186.000
41.67578 163.000
41.69572 130.000
41.71567 115.000
41.73562 111.000
41.75556 123.000
41.77551 126.000
41.79546 112.000
41.81540 109.000
41.83535 109.000
41.85530 107.000
41.87524 123.000
41.89519 104.000
41.91514 104.000
41.93509 110.000
41.95503 109.000
41.97498 94.000
41.99493 94.000
42.01487 94.000
42.03482 102.000
42.05477 94.000
42.07471 100.000
42.09466 100.000
42.11461 116.000
42.13456 91.000
42.15450 76.000
42.17445 96.000
42.19440 97.000
42.21434 98.000
42.23429 117.000
42.25424 99.000
42.27418 102.000
42.29413 106.000
42.31408 84.000
42.33403 79.000
42.35397 91.000
42.37392 94.000
42.39387 96.000
42.41381 115.000
42.43376 123.000
42.45371 103.000
42.47365 101.000
42.49360 91.000
42.51355 91.000
42.53349 112.000
42.55344 103.000
42.57339 123.000
42.59334 128.000
42.61328 106.000
42.63323 130.000
42.65318 125.000
42.67312 119.000
42.69307 148.000
42.71302 152.000
42.73296 157.000
42.75291 184.000
42.77286 174.000
42.79281 187.000
42.81275 173.000
42.83270 156.000
42.85265 156.000
42.87259 144.000
42.89254 159.000
42.91249 147.000
42.93243 151.000
42.95238 142.000
42.97233 127.000
42.99227 136.000
43.01222 132.000
43.03217 109.000
43.05212 136.000
43.07206 114.000
43.09201 99.000
43.11196 127.000
43.13190 109.000
43.15185 100.000
43.17180 96.000
43.19174 116.000
43.21169 115.000
43.23164 104.000
43.25159 86.000
43.27153 88.000
43.29148 89.000
43.31143 77.000
43.33137 83.000
43.35132 101.000
43.37127 69.000
43.39121 81.000
43.41116 90.000
43.43111 78.000
43.45105 85.000
43.47100 91.000
43.49095 84.000
43.51090 82.000
43.53084 94.000
43.55079 52.000
43.57074 69.000
43.59068 74.000
43.61063 99.000
43.63058 82.000
43.65052 77.000
43.67047 83.000
43.69042 78.000
43.71037 86.000
43.73031 79.000
43.75026 78.000
43.77021 90.000
43.79015 90.000
43.81010 76.000
43.83005 71.000
43.84999 106.000
43.86994 65.000
43.88989 80.000
43.90984 89.000
43.92978 89.000
43.94973 81.000
43.96968 70.000
43.98962 76.000
44.00957 61.000
44.02952 81.000
44.04946 77.000
44.06941 85.000
44.08936 76.000
44.10930 70.000
44.12925 100.000
44.14920 75.000
44.16915 86.000
44.18909 93.000
44.20904 78.000
44.22899 66.000
44.24893 75.000
44.26888 76.000
44.28883 90.000
44.30877 71.000
44.32872 82.000
44.34867 84.000
44.36862 71.000
44.38856 74.000
44.40851 76.000
44.42846 76.000
44.44840 94.000
44.46835 93.000
44.48830 92.000
44.50824 72.000
44.52819 81.000
44.54814 87.000
44.56808 85.000
44.58803 82.000
44.60798 111.000
44.62793 103.000
44.64787 106.000
44.66782 140.000
44.68777 152.000
44.70771 154.000
44.72766 159.000
44.74761 150.000
44.76755 138.000
44.78750 118.000
44.80745 124.000
44.82740 138.000
44.84734 113.000
44.86729 112.000
44.88724 89.000
44.90718 86.000
44.92713 97.000
44.94708 84.000
44.96702 97.000
44.98697 79.000
45.00692 70.000
45.02686 91.000
45.04681 93.000
45.06676 79.000
45.08671 96.000
45.10665 69.000
45.12660 73.000
45.14655 82.000
45.16649 76.000
45.18644 78.000
45.20639 82.000
45.22633 92.000
45.24628 67.000
45.26623 79.000
45.28618 77.000
45.30612 96.000
45.32607 56.000
45.34602 87.000
45.36596 73.000
45.38591 74.000
45.40586 84.000
45.42580 83.000
45.44575 102.000
45.46570 55.000
45.48565 73.000
45.50559 66.000
45.52554 73.000
45.54549 71.000
45.56543 73.000
45.58538 65.000
45.60533 84.000
45.62527 76.000
45.64522 77.000
45.66517 78.000
45.68511 76.000
45.70506 80.000
45.72501 76.000
45.74496 68.000
45.76490 76.000
45.78485 81.000
45.80480 73.000
45.82474 74.000
45.84469 82.000
45.86464 79.000
45.88458 74.000
45.90453 73.000
45.92448 64.000
45.94443 74.000
45.96437 72.000
45.98432 70.000
46.00427 75.000
46.02421 69.000
46.04416 77.000
46.06411 72.000
46.08405 64.000
46.10400 65.000
46.12395 89.000
46.14389 89.000
46.16384 90.000
46.18379 66.000
46.20374 79.000
46.22368 78.000
46.24363 71.000
46.26358 94.000
46.28352 76.000
46.30347 102.000
46.32342 96.000
46.34336 87.000
46.36331 80.000
46.38326 85.000
46.40321 85.000
46.42315 90.000
46.44310 71.000
46.46305 66.000
46.48299 93.000
46.50294 88.000
46.52289 100.000
46.54283 88.000
46.56278 90.000
46.58273 74.000
46.60267 80.000
46.62262 89.000
46.64257 74.000
46.66252 78.000
46.68246 88.000
46.70241 74.000
46.72236 86.000
46.74230 102.000
46.76225 70.000
46.78220 81.000
46.80214 73.000
46.82209 75.000
46.84204 84.000
46.86199 67.000
46.88193 72.000
46.90188 84.000
46.92183 79.000
46.94177 80.000
46.96172 84.000
46.98167 70.000
47.00161 71.000
47.02156 70.000
47.04151 71.000
47.06146 71.000
47.08140 64.000
47.10135 81.000
47.12130 83.000
47.14124 82.000
47.16119 73.000
47.18114 51.000
47.20108 73.000
47.22103 92.000
47.24098 77.000
47.26092 86.000
47.28087 69.000
47.30082 78.000
47.32077 73.000
47.34071 80.000
47.36066 67.000
47.38061 79.000
47.40055 82.000
47.42050 58.000
47.44045 72.000
47.46039 84.000
47.48034 79.000
47.50029 81.000
47.52024 84.000
47.54018 73.000
47.56013 93.000
47.58008 78.000
47.60002 80.000
47.61997 62.000
47.63992 80.000
47.65986 80.000
47.67981 74.000
47.69976 95.000
47.71970 61.000
47.73965 63.000
47.75960 74.000
47.77955 68.000
47.79949 66.000
47.81944 78.000
47.83939 76.000
47.85933 92.000
47.87928 71.000
47.89923 87.000
47.91917 86.000
47.93912 83.000
47.95907 65.000
47.97902 87.000
47.99896 74.000
48.01891 90.000
48.03886 72.000
48.05880 74.000
48.07875 64.000
48.09870 96.000
48.11864 90.000
48.13859 94.000
48.15854 77.000
48.17848 84.000
48.19843 88.000
48.21838 76.000
48.23833 100.000
48.25827 98.000
48.27822 102.000
48.29817 109.000
48.31811 107.000
48.33806 144.000
48.35801 144.000
48.37795 142.000
48.39790 143.000
48.41785 152.000
48.43780 128.000
48.45774 113.000
48.47769 122.000
48.49764 133.000
48.51758 109.000
48.53753 121.000
48.55748 126.000
48.57742 107.000
48.59737 106.000
48.61732 123.000
48.63726 110.000
48.65721 136.000
48.67716 111.000
48.69711 126.000
48.71705 145.000
48.73700 133.000
48.75695 137.000
48.77689 107.000
48.79684 115.000
48.81679 108.000
48.83673 114.000
48.85668 105.000
48.87663 98.000
48.89658 105.000
48.91652 104.000
48.93647 84.000
48.95642 76.000
48.97636 97.000
48.99631 86.000
49.01626 82.000
49.03620 81.000
49.05615 93.000
49.07610 70.000
49.09605 86.000
49.11599 62.000
49.13594 94.000
49.15589 69.000
49.17583 79.000
49.19578 89.000
49.21573 63.000
49.23567 84.000
49.25562 77.000
49.27557 83.000
49.29551 89.000
49.31546 80.000
49.33541 86.000
49.35536 58.000
49.37530 74.000
49.39525 89.000
49.41520 92.000
49.43514 82.000
49.45509 86.000
49.47504 68.000
49.49498 73.000
49.51493 83.000
49.53488 77.000
49.55483 85.000
49.57477 93.000
49.59472 81.000
49.61467 83.000
49.63461 90.000
49.65456 89.000
49.67451 75.000
49.69445 71.000
49.71440 74.000
49.73435 73.000
49.75429 79.000
49.77424 84.000
49.79419 83.000
49.81414 84.000
49.83408 79.000
49.85403 72.000
49.87398 76.000
49.89392 94.000
49.91387 67.000
49.93382 73.000
49.95376 97.000
49.97371 90.000
49.99366 67.000
50.01361 75.000
50.03355 106.000
50.05350 80.000
50.07345 78.000
50.09339 94.000
50.11334 80.000
50.13329 75.000
50.15323 72.000
50.17318 85.000
50.19313 74.000
50.21307 63.000
50.23302 82.000
50.25297 86.000
50.27292 68.000
50.29286 66.000
50.31281 77.000
50.33276 81.000
50.35270 70.000
50.37265 70.000
50.39260 86.000
50.41254 78.000
50.43249 78.000
50.45244 87.000
50.47239 76.000
50.49233 80.000
50.51228 62.000
50.53223 82.000
50.55217 90.000
50.57212 80.000
50.59207 85.000
50.61201 80.000
50.63196 76.000
50.65191 76.000
50.67186 62.000
50.69180 78.000
50.71175 82.000
50.73170 81.000
50.75164 87.000
50.77159 74.000
50.79154 91.000
50.81148 83.000
50.83143 82.000
50.85138 63.000
50.87132 72.000
50.89127 70.000
50.91122 87.000
50.93117 75.000
50.95111 89.000
50.97106 72.000
50.99101 86.000
51.01095 69.000
51.03090 69.000
51.05085 75.000
51.07079 83.000
51.09074 86.000
51.11069 92.000
51.13064 84.000
51.15058 72.000
51.17053 81.000
51.19048 79.000
51.21042 95.000
51.23037 68.000
51.25032 66.000
51.27026 76.000
51.29021 63.000
51.31016 80.000
51.33010 73.000
51.35005 67.000
51.37000 79.000
51.38995 75.000
51.40989 93.000
51.42984 84.000
51.44979 70.000
51.46973 79.000
51.48968 81.000
51.50963 68.000
51.52957 69.000
51.54952 65.000
51.56947 69.000
51.58942 62.000
51.60936 75.000
51.62931 79.000
51.64926 85.000
51.66920 80.000
51.68915 73.000
51.70910 76.000
51.72904 94.000
51.74899 65.000
51.76894 79.000
51.78888 85.000
51.80883 66.000
51.82878 68.000
51.84873 70.000
51.86867 62.000
51.88862 72.000
51.90857 82.000
51.92851 69.000
51.94846 69.000
51.96841 82.000
51.98835 80.000
52.00830 66.000
52.02825 83.000
52.04820 83.000
52.06814 68.000
52.08809 81.000
52.10804 60.000
52.12798 81.000
52.14793 75.000
52.16788 75.000
52.18782 77.000
52.20777 78.000
52.22772 83.000
52.24767 74.000
52.26761 72.000
52.28756 78.000
52.30751 81.000
52.32745 72.000
52.34740 82.000
52.36735 85.000
52.38729 88.000
52.40724 91.000
52.42719 102.000
52.44713 82.000
52.46708 81.000
52.48703 106.000
52.50698 91.000
52.52692 101.000
52.54687 96.000
52.56682 105.000
52.58676 92.000
52.60671 115.000
52.62666 110.000
52.64660 126.000
52.66655 113.000
52.68650 156.000
52.70645 166.000
52.72639 155.000
52.74634 182.000
52.76629 195.000
52.78623 205.000
52.80618 263.000
52.82613 271.000
52.84607 354.000
52.86602 366.000
52.88597 377.000
52.90591 353.000
52.92586 297.000
52.94581 242.000
52.96576 221.000
52.98570 243.000
53.00565 223.000
53.02560 253.000
53.04554 222.000
53.06549 183.000
53.08544 168.000
53.10538 137.000
53.12533 119.000
53.14528 125.000
53.16523 127.000
53.18517 114.000
53.20512 135.000
53.22507 105.000
53.24501 128.000
53.26496 93.000
53.28491 73.000
53.30485 105.000
53.32480 110.000
53.34475 101.000
53.36469 99.000
53.38464 92.000
53.40459 85.000
53.42454 91.000
53.44448 79.000
53.46443 90.000
53.48438 113.000
53.50432 93.000
53.52427 84.000
53.54422 104.000
53.56416 91.000
53.58411 91.000
53.60406 83.000
53.62401 97.000
53.64395 76.000
53.66390 87.000
53.68385 79.000
53.70379 80.000
53.72374 77.000
53.74369 97.000
53.76363 87.000
53.78358 81.000
53.80353 94.000
53.82348 76.000
53.84342 88.000
53.86337 92.000
53.88332 84.000
53.90326 86.000
53.92321 105.000
53.94316 65.000
53.96310 84.000
53.98305 81.000
54.00300 82.000
54.02294 83.000
54.04289 78.000
54.06284 96.000
54.08279 88.000
54.10273 85.000
54.12268 78.000
54.14263 74.000
54.16257 90.000
54.18252 78.000
54.20247 70.000
54.22241 74.000
54.24236 65.000
54.26231 81.000
54.28226 81.000
54.30220 67.000
54.32215 71.000
54.34210 69.000
54.36204 82.000
54.38199 92.000
54.40194 76.000
54.42188 73.000
54.44183 99.000
54.46178 85.000
54.48172 76.000
54.50167 77.000
54.52162 108.000
54.54157 64.000
54.56151 90.000
54.58146 69.000
54.60141 94.000
54.62135 63.000
54.64130 79.000
54.66125 68.000
54.68119 81.000
54.70114 88.000
54.72109 77.000
54.74104 77.000
54.76098 67.000
54.78093 94.000
54.80088 80.000
54.82082 75.000
54.84077 79.000
54.86072 64.000
54.88066 93.000
54.90061 73.000
54.92056 71.000
54.94050 92.000
54.96045 81.000
54.98040 103.000
55.00035 79.000
55.02029 85.000
55.04024 76.000
55.06019 82.000
55.08013 92.000
55.10008 69.000
55.12003 66.000
55.13997 69.000
55.15992 88.000
55.17987 93.000
55.19982 86.000
55.21976 86.000
55.23971 88.000
55.25966 83.000
55.27960 75.000
55.29955 70.000
55.31950 71.000
55.33944 80.000
55.35939 85.000
55.37934 84.000
55.39929 72.000
55.41923 83.000
55.43918 74.000
55.45913 70.000
55.47907 78.000
55.49902 74.000
55.51897 76.000
55.53891 87.000
55.55886 72.000
55.57881 68.000
55.59875 70.000
55.61870 75.000
55.63865 64.000
55.65860 72.000
55.67854 64.000
55.69849 77.000
55.71844 66.000
55.73838 75.000
55.75833 71.000
55.77828 82.000
55.79822 62.000
55.81817 75.000
55.83812 86.000
55.85807 76.000
55.87801 78.000
55.89796 97.000
55.91791 74.000
55.93785 71.000
55.95780 87.000
55.97775 59.000
55.99769 88.000
56.01764 82.000
56.03759 88.000
56.05753 84.000
56.07748 69.000
56.09743 92.000
56.11738 75.000
56.13732 79.000
56.15727 73.000
56.17722 96.000
56.19716 105.000
56.21711 88.000
56.23706 98.000
56.25700 91.000
56.27695 99.000
56.29690 94.000
56.31685 108.000
56.33679 101.000
56.35674 116.000
56.37669 112.000
56.39663 107.000
56.41658 134.000
56.43653 143.000
56.45647 143.000
56.47642 156.000
56.49637 156.000
56.51631 156.000
56.53626 136.000
56.55621 143.000
56.57616 150.000
56.59610 163.000
56.61605 141.000
56.63600 119.000
56.65594 124.000
56.67589 149.000
56.69584 119.000
56.71578 185.000
56.73573 138.000
56.75568 131.000
56.77563 144.000
56.79557 111.000
56.81552 121.000
56.83547 110.000
56.85541 116.000
56.87536 124.000
56.89531 113.000
56.91525 113.000
56.93520 96.000
56.95515 96.000
56.97510 93.000
56.99504 104.000
57.01499 93.000
57.03494 88.000
57.05488 96.000
57.07483 77.000
57.09478 108.000
57.11472 127.000
57.13467 93.000
57.15462 110.000
57.17456 106.000
57.19451 121.000
57.21446 128.000
57.23441 133.000
57.25435 145.000
57.27430 145.000
57.29425 174.000
57.31419 179.000
57.33414 177.000
57.35409 219.000
57.37403 196.000
57.39398 191.000
57.41393 225.000
57.43388 236.000
57.45382 248.000
57.47377 298.000
57.49372 366.000
57.51366 392.000
57.53361 454.000
57.55356 488.000
57.57350 476.000
57.59345 439.000
57.61340 374.000
57.63334 290.000
57.65329 276.000
57.67324 274.000
57.69319 250.000
57.71313 263.000
57.73308 270.000
57.75303 244.000
57.77297 221.000
57.79292 172.000
57.81287 118.000
57.83281 115.000
57.85276 113.000
57.87271 97.000
57.89266 93.000
57.91260 80.000
57.93255 93.000
57.95250 97.000
57.97244 98.000
57.99239 104.000
58.01234 83.000
58.03228 89.000
58.05223 84.000
58.07218 72.000
58.09212 102.000
58.11207 83.000
58.13202 86.000
58.15197 104.000
58.17191 79.000
58.19186 86.000
58.21181 99.000
58.23175 83.000
58.25170 89.000
58.27165 106.000
58.29159 105.000
58.31154 102.000
58.33149 99.000
58.35144 104.000
58.37138 96.000
58.39133 108.000
58.41128 91.000
58.43122 90.000
58.45117 89.000
58.47112 58.000
58.49106 87.000
58.51101 93.000
58.53096 63.000
58.55090 81.000
58.57085 69.000
58.59080 80.000
58.61075 73.000
58.63069 73.000
58.65064 73.000
58.67059 59.000
58.69053 88.000
58.71048 66.000
58.73043 81.000
58.75037 86.000
58.77032 58.000
58.79027 74.000
58.81022 68.000
58.83016 76.000
58.85011 92.000
58.87006 70.000
58.89000 83.000
58.90995 78.000
58.92990 75.000
58.94984 78.000
58.96979 75.000
58.98974 71.000
59.00969 76.000
59.02963 56.000
59.04958 64.000
59.06953 76.000
59.08947 78.000
59.10942 71.000
59.12937 84.000
59.14931 92.000
59.16926 61.000
59.18921 84.000
59.20915 80.000
59.22910 84.000
59.24905 80.000
59.26900 90.000
59.28894 68.000
59.30889 71.000
59.32884 82.000
59.34878 82.000
59.36873 77.000
59.38868 66.000
59.40862 76.000
59.42857 72.000
59.44852 63.000
59.46847 70.000
59.48841 83.000
59.50836 80.000
59.52831 73.000
59.54825 72.000
59.56820 81.000
59.58815 73.000
59.60809 86.000
59.62804 61.000
59.64799 69.000
59.66793 81.000
59.68788 60.000
59.70783 81.000
59.72778 85.000
59.74772 83.000
59.76767 69.000
59.78762 70.000
59.80756 81.000
59.82751 100.000
59.84746 91.000
59.86740 82.000
59.88735 87.000
59.90730 92.000
59.92725 89.000
59.94719 88.000
59.96714 90.000
59.98709 77.000
60.00703 110.000
60.02698 86.000
60.04693 80.000
60.06687 69.000
60.08682 92.000
60.10677 73.000
60.12671 102.000
60.14666 86.000
60.16661 72.000
60.18656 79.000
60.20650 94.000
60.22645 84.000
60.24640 96.000
60.26634 88.000
60.28629 75.000
60.30624 101.000
60.32618 92.000
60.34613 104.000
60.36608 88.000
60.38603 85.000
60.40597 78.000
60.42592 87.000
60.44587 98.000
60.46581 97.000
60.48576 80.000
60.50571 106.000
60.52565 83.000
60.54560 106.000
60.56555 91.000
60.58550 108.000
60.60544 107.000
60.62539 94.000
60.64534 119.000
60.66528 98.000
60.68523 116.000
60.70518 116.000
60.72512 105.000
60.74507 99.000
60.76502 101.000
60.78496 101.000
60.80491 103.000
60.82486 121.000
60.84481 98.000
60.86475 87.000
60.88470 104.000
60.90465 101.000
60.92459 92.000
60.94454 99.000
60.96449 91.000
60.98443 98.000
61.00438 95.000
61.02433 80.000
61.04428 80.000
61.06422 90.000
61.08417 93.000
61.10412 99.000
61.12406 91.000
61.14401 89.000
61.16396 100.000
61.18390 110.000
61.20385 111.000
61.22380 99.000
61.24374 115.000
61.26369 107.000
61.28364 90.000
61.30359 110.000
61.32353 102.000
61.34348 112.000
61.36343 129.000
61.38337 107.000
61.40332 107.000
61.42327 125.000
61.44321 111.000
61.46316 115.000
61.48311 128.000
61.50306 138.000
61.52300 129.000
61.54295 131.000
61.56290 155.000
61.58284 128.000
61.60279 130.000
61.62274 129.000
61.64268 141.000
61.66263 154.000
61.68258 133.000
61.70252 149.000
61.72247 138.000
61.74242 155.000
61.76237 137.000
61.78231 140.000
61.80226 157.000
61.82221 144.000
61.84215 145.000
61.86210 186.000
61.88205 184.000
61.90199 196.000
61.92194 205.000
61.94189 249.000
61.96184 304.000
61.98178 320.000
62.00173 379.000
62.02168 362.000
62.04162 323.000
62.06157 402.000
62.08152 359.000
62.10146 374.000
62.12141 361.000
62.14136 370.000
62.16131 354.000
62.18125 334.000
62.20120 355.000
62.22115 346.000
62.24109 322.000
62.26104 338.000
62.28099 344.000
62.30093 281.000
62.32088 298.000
62.34083 248.000
62.36077 228.000
62.38072 242.000
62.40067 210.000
62.42062 202.000
62.44056 214.000
62.46051 225.000
62.48046 205.000
62.50040 183.000
62.52035 180.000
62.54030 170.000
62.56024 177.000
62.58019 162.000
62.60014 144.000
62.62009 146.000
62.64003 161.000
62.65998 173.000
62.67993 135.000
62.69987 153.000
62.71982 128.000
62.73977 113.000
62.75971 134.000
62.77966 123.000
62.79961 112.000
62.81955 133.000
62.83950 122.000
62.85945 100.000
62.87940 138.000
62.89934 105.000
62.91929 121.000
62.93924 109.000
62.95918 103.000
62.97913 83.000
62.99908 91.000
63.01902 99.000
63.03897 113.000
63.05892 89.000
63.07887 111.000
63.09881 95.000
63.11876 94.000
63.13871 75.000
63.15865 98.000
63.17860 72.000
63.19855 69.000
63.21849 82.000
63.23844 81.000
63.25839 88.000
63.27833 89.000
63.29828 90.000
63.31823 81.000
63.33818 90.000
63.35812 71.000
63.37807 79.000
63.39802 68.000
63.41796 76.000
63.43791 75.000
63.45786 86.000
63.47780 84.000
63.49775 77.000
63.51770 96.000
63.53765 90.000
63.55759 83.000
63.57754 77.000
63.59749 99.000
63.61743 101.000
63.63738 84.000
63.65733 105.000
63.67727 75.000
63.69722 86.000
63.71717 76.000
63.73712 87.000
63.75706 85.000
63.77701 79.000
63.79696 89.000
63.81690 94.000
63.83685 82.000
63.85680 69.000
63.87674 70.000
63.89669 77.000
63.91664 88.000
63.93658 88.000
63.95653 67.000
63.97648 87.000
63.99643 87.000
64.01637 67.000
64.03632 88.000
64.05627 85.000
64.07621 72.000
64.09616 75.000
64.11611 89.000
64.13605 76.000
64.15600 74.000
64.17595 90.000
64.19590 81.000
64.21584 80.000
64.23579 64.000
64.25574 74.000
64.27568 75.000
64.29563 78.000
64.31558 87.000
64.33552 90.000
64.35547 84.000
64.37542 69.000
64.39536 89.000
64.41531 87.000
64.43526 88.000
64.45521 74.000
64.47515 86.000
64.49510 106.000
64.51505 100.000
64.53499 117.000
64.55494 134.000
64.57489 131.000
64.59483 143.000
64.61478 157.000
64.63473 131.000
64.65468 151.000
64.67462 160.000
64.69457 167.000
64.71452 138.000
64.73446 170.000
64.75441 150.000
64.77436 166.000
64.79430 159.000
64.81425 155.000
64.83420 131.000
64.85414 135.000
64.87409 153.000
64.89404 140.000
64.91399 146.000
64.93393 143.000
64.95388 111.000
64.97383 128.000
64.99377 134.000
65.01372 130.000
65.03367 142.000
65.05361 131.000
65.07356 135.000
65.09351 140.000
65.11346 132.000
65.13340 111.000
65.15335 90.000
65.17330 117.000
65.19324 116.000
65.21319 120.000
65.23314 112.000
65.25308 99.000
65.27303 114.000
65.29298 109.000
65.31293 95.000
65.33287 100.000
65.35282 109.000
65.37277 101.000
65.39271 99.000
65.41266 103.000
65.43261 100.000
65.45255 85.000
65.47250 109.000
65.49245 93.000
65.51239 95.000
65.53234 92.000
65.55229 97.000
65.57224 92.000
65.59218 103.000
65.61213 89.000
65.63208 76.000
65.65202 86.000
65.67197 91.000
65.69192 92.000
65.71186 89.000
65.73181 95.000
65.75176 90.000
65.77171 91.000
65.79165 90.000
65.81160 104.000
65.83155 100.000
65.85149 114.000
65.87144 106.000
65.89139 117.000
65.91133 110.000
65.93128 107.000
65.95123 105.000
65.97117 112.000
65.99112 95.000
66.01107 102.000
66.03102 113.000
66.05096 103.000
66.07091 105.000
66.09086 109.000
66.11080 111.000
66.13075 92.000
66.15070 108.000
66.17064 123.000
66.19059 114.000
66.21054 130.000
66.23049 123.000
66.25043 115.000
66.27038 100.000
66.29033 105.000
66.31027 85.000
66.33022 91.000
66.35017 106.000
66.37011 102.000
66.39006 99.000
66.41001 94.000
66.42995 101.000
66.44990 100.000
66.46985 90.000
66.48980 80.000
66.50974 64.000
66.52969 72.000
66.54964 94.000
66.56958 76.000
66.58953 68.000
66.60948 70.000
66.62942 91.000
66.64937 63.000
66.66932 84.000
66.68927 70.000
66.70921 67.000
66.72916 83.000
66.74911 82.000
66.76905 74.000
66.78900 79.000
66.80895 73.000
66.82889 90.000
66.84884 52.000
66.86879 82.000
66.88874 85.000
66.90868 81.000
66.92863 79.000
66.94858 80.000
66.96852 76.000
66.98847 80.000
67.00842 72.000
67.02836 72.000
67.04831 74.000
67.06826 71.000
67.08820 75.000
67.10815 80.000
67.12810 84.000
67.14805 89.000
67.16799 81.000
67.18794 73.000
67.20789 84.000
67.22783 79.000
67.24778 81.000
67.26773 85.000
67.28767 80.000
67.30762 90.000
67.32757 80.000
67.34752 60.000
67.36746 85.000
67.38741 87.000
67.40736 96.000
67.42730 97.000
67.44725 120.000
67.46720 93.000
67.48714 86.000
67.50709 87.000
67.52704 93.000
67.54698 104.000
67.56693 81.000
67.58688 87.000
67.60683 97.000
67.62677 96.000
67.64672 127.000
67.66667 98.000
67.68661 120.000
67.70656 88.000
67.72651 111.000
67.74645 110.000
67.76640 133.000
67.78635 125.000
67.80630 110.000
67.82624 117.000
67.84619 135.000
67.86614 164.000
67.88608 129.000
67.90603 166.000
67.92598 158.000
67.94592 163.000
67.96587 174.000
67.98582 163.000
68.00576 160.000
68.02571 154.000
68.04566 158.000
68.06561 150.000
68.08555 159.000
68.10550 146.000
68.12545 162.000
68.14539 124.000
68.16534 136.000
68.18529 118.000
68.20523 105.000
68.22518 118.000
68.24513 114.000
68.26508 121.000
68.28502 111.000
68.30497 102.000
68.32492 96.000
68.34486 106.000
68.36481 81.000
68.38476 105.000
68.40470 88.000
68.42465 94.000
68.44460 70.000
68.46455 90.000
68.48449 94.000
68.50444 69.000
68.52439 76.000
68.54433 77.000
68.56428 89.000
68.58423 98.000
68.60417 88.000
68.62412 94.000
68.64407 71.000
68.66401 92.000
68.68396 61.000
68.70391 83.000
68.72386 73.000
68.74380 84.000
68.76375 79.000
68.78370 92.000
68.80364 74.000
68.82359 74.000
68.84354 70.000
68.86348 84.000
68.88343 78.000
68.90338 95.000
68.92333 94.000
68.94327 79.000
68.96322 85.000
68.98317 95.000
69.00311 93.000
69.02306 74.000
69.04301 91.000
69.06295 85.000
69.08290 95.000
69.10285 103.000
69.12279 97.000
69.14274 78.000
69.16269 90.000
69.18264 87.000
69.20258 100.000
69.22253 92.000
69.24248 100.000
69.26242 105.000
69.28237 102.000
69.30232 92.000
69.32226 97.000
69.34221 109.000
69.36216 91.000
69.38211 93.000
69.40205 89.000
69.42200 88.000
69.44195 86.000
69.46189 89.000
69.48184 84.000
69.50179 88.000
69.52173 84.000
69.54168 63.000
69.56163 73.000
69.58157 74.000
69.60152 59.000
69.62147 61.000
69.64142 69.000
69.66136 87.000
69.68131 75.000
69.70126 87.000
69.72120 70.000
69.74115 70.000
69.76110 77.000
69.78104 73.000
69.80099 77.000
69.82094 74.000
69.84089 71.000
69.86083 68.000
69.88078 84.000
69.90073 69.000
69.92067 74.000
69.94062 75.000
69.96057 81.000
69.98051 80.000
70.00046 60.000
70.02041 69.000
70.04035 58.000
70.06030 74.000
70.08025 81.000
70.10020 82.000
70.12014 73.000
70.14009 65.000
70.16004 73.000
70.17998 80.000
70.19993 81.000
70.21988 61.000
70.23982 72.000
70.25977 90.000
70.27972 72.000
70.29967 75.000
70.31961 68.000
70.33956 68.000
70.35951 75.000
70.37945 74.000
70.39940 55.000
70.41935 68.000
70.43929 74.000
70.45924 93.000
70.47919 83.000
70.49914 75.000
70.51908 73.000
70.53903 85.000
70.55898 67.000
70.57892 75.000
70.59887 78.000
70.61882 84.000
70.63876 70.000
70.65871 92.000
70.67866 67.000
70.69860 66.000
70.71855 83.000
70.73850 65.000
70.75845 74.000
70.77839 68.000
70.79834 77.000
70.81829 76.000
70.83823 84.000
70.85818 78.000
70.87813 65.000
70.89807 75.000
70.91802 78.000
70.93797 68.000
70.95792 78.000
70.97786 67.000
70.99781 79.000
71.01776 70.000
71.03770 65.000
71.05765 81.000
71.07760 65.000
71.09754 71.000
71.11749 60.000
71.13744 63.000
71.15738 78.000
71.17733 80.000
71.19728 69.000
71.21723 68.000
71.23717 75.000
71.25712 74.000
71.27707 73.000
71.29701 79.000
71.31696 68.000
71.33691 79.000
71.35685 72.000
71.37680 78.000
71.39675 76.000
71.41670 75.000
71.43664 76.000
71.45659 89.000
71.47654 69.000
71.49648 75.000
71.51643 63.000
71.53638 82.000
71.55632 64.000
71.57627 59.000
71.59622 62.000
71.61616 87.000
71.63611 76.000
71.65606 80.000
71.67601 69.000
71.69595 89.000
71.71590 93.000
71.73585 82.000
71.75579 74.000
71.77574 83.000
71.79569 108.000
71.81563 86.000
71.83558 72.000
71.85553 106.000
71.87548 81.000
71.89542 87.000
71.91537 86.000
71.93532 102.000
71.95526 82.000
71.97521 96.000
71.99516 107.000
72.01510 97.000
72.03505 127.000
72.05500 148.000
72.07495 128.000
72.09489 160.000
72.11484 147.000
72.13479 132.000
72.15473 148.000
72.17468 164.000
72.19463 156.000
72.21457 141.000
72.23452 159.000
72.25447 147.000
72.27441 156.000
72.29436 152.000
72.31431 159.000
72.33426 181.000
72.35420 162.000
72.37415 145.000
72.39410 153.000
72.41404 141.000
72.43399 132.000
72.45394 109.000
72.47388 140.000
72.49383 128.000
72.51378 114.000
72.53373 116.000
72.55367 92.000
72.57362 103.000
72.59357 90.000
72.61351 105.000
72.63346 96.000
72.65341 99.000
72.67335 85.000
72.69330 104.000
72.71325 92.000
72.73319 105.000
72.75314 84.000
72.77309 99.000
72.79304 74.000
72.81298 93.000
72.83293 82.000
72.85288 96.000
72.87282 84.000
72.89277 75.000
72.91272 100.000
72.93266 96.000
72.95261 91.000
72.97256 86.000
72.99251 73.000
73.01245 100.000
73.03240 82.000
73.05235 91.000
73.07229 90.000
73.09224 83.000
73.11219 103.000
73.13213 79.000
73.15208 80.000
73.17203 96.000
73.19197 101.000
73.21192 115.000
73.23187 117.000
73.25182 112.000
73.27176 97.000
73.29171 122.000
73.31166 109.000
73.33160 94.000
73.35155 126.000
73.37150 120.000
73.39144 136.000
73.41139 123.000
73.43134 118.000
73.45129 114.000
73.47123 119.000
73.49118 110.000
73.51113 125.000
73.53107 129.000
73.55102 133.000
73.57097 143.000
73.59091 122.000
73.61086 162.000
73.63081 121.000
73.65076 139.000
73.67070 125.000
73.69065 143.000
73.71060 171.000
73.73054 128.000
73.75049 147.000
73.77044 105.000
73.79038 124.000
73.81033 109.000
73.83028 123.000
73.85022 97.000
73.87017 96.000
73.89012 104.000
73.91007 104.000
73.93001 98.000
73.94996 110.000
73.96991 79.000
73.98985 92.000
74.00980 111.000
74.02975 101.000
74.04969 108.000
74.06964 105.000
74.08959 101.000
74.10954 102.000
74.12948 81.000
74.14943 86.000
74.16938 99.000
74.18932 89.000
74.20927 101.000
74.22922 98.000
74.24916 98.000
74.26911 102.000
74.28906 129.000
74.30900 97.000
74.32895 105.000
74.34890 107.000
74.36885 95.000
74.38879 101.000
74.40874 92.000
74.42869 103.000
74.44863 96.000
74.46858 109.000
74.48853 89.000
74.50847 100.000
74.52842 98.000
74.54837 91.000
74.56832 97.000
74.58826 86.000
74.60821 88.000
74.62816 99.000
74.64810 93.000
74.66805 89.000
74.68800 89.000
74.70794 83.000
74.72789 107.000
74.74784 87.000
74.76778 88.000
74.78773 68.000
74.80768 76.000
74.82763 84.000
74.84757 76.000
74.86752 72.000
74.88747 87.000
74.90741 73.000
74.92736 84.000
74.94731 94.000
74.96725 93.000
74.98720 85.000
75.00715 83.000
75.02710 88.000
75.04704 94.000
75.06699 96.000
75.08694 82.000
75.10688 84.000
75.12683 87.000
75.14678 91.000
75.16672 68.000
75.18667 77.000
75.20662 87.000
75.22657 84.000
75.24651 95.000
75.26646 77.000
75.28641 92.000
75.30635 92.000
75.32630 79.000
75.34625 101.000
75.36619 99.000
75.38614 80.000
75.40609 84.000
75.42603 83.000
75.44598 69.000
75.46593 80.000
75.48588 79.000
75.50582 70.000
75.52577 98.000
75.54572 69.000
75.56566 81.000
75.58561 71.000
75.60556 76.000
75.62550 50.000
75.64545 68.000
75.66540 61.000
75.68535 83.000
75.70529 66.000
75.72524 77.000
75.74519 75.000
75.76513 78.000
75.78508 59.000
75.80503 70.000
75.82497 74.000
75.84492 67.000
75.86487 76.000
75.88481 73.000
75.90476 70.000
75.92471 67.000
75.94466 69.000
75.96460 68.000
75.98455 76.000
76.00450 58.000
76.02444 69.000
76.04439 58.000
76.06434 79.000
76.08428 69.000
76.10423 65.000
76.12418 61.000
76.14413 72.000
76.16407 76.000
76.18402 61.000
76.20397 71.000
76.22391 50.000
76.24386 69.000
76.26381 69.000
76.28375 78.000
76.30370 54.000
76.32365 61.000
76.34359 59.000
76.36354 76.000
76.38349 60.000
76.40344 70.000
76.42338 71.000
76.44333 70.000
76.46328 60.000
76.48322 60.000
76.50317 55.000
76.52312 62.000
76.54306 79.000
76.56301 74.000
76.58296 75.000
76.60291 72.000
76.62285 73.000
76.64280 62.000
76.66275 77.000
76.68269 75.000
76.70264 61.000
76.72259 70.000
76.74253 54.000
76.76248 72.000
76.78243 73.000
76.80238 72.000
76.82232 57.000
76.84227 60.000
76.86222 74.000
76.88216 68.000
76.90211 71.000
76.92206 74.000
76.94200 90.000
76.96195 81.000
76.98190 80.000
77.00184 60.000
77.02179 84.000
77.04174 63.000
77.06169 77.000
77.08163 54.000
77.10158 90.000
77.12153 96.000
77.14147 92.000
77.16142 109.000
77.18137 119.000
77.20131 124.000
77.22126 117.000
77.24121 132.000
77.26116 108.000
77.28110 125.000
77.30105 127.000
77.32100 129.000
77.34094 127.000
77.36089 137.000
77.38084 128.000
77.40078 136.000
77.42073 134.000
77.44068 157.000
77.46062 129.000
77.48057 163.000
77.50052 149.000
77.52047 129.000
77.54041 119.000
77.56036 141.000
77.58031 116.000
77.60025 115.000
77.62020 155.000
77.64015 119.000
77.66009 104.000
77.68004 123.000
77.69999 116.000
77.71994 117.000
77.73988 114.000
77.75983 97.000
77.77978 94.000
77.79972 103.000
77.81967 100.000
77.83962 80.000
77.85956 120.000
77.87951 101.000
77.89946 105.000
77.91940 100.000
77.93935 91.000
77.95930 96.000
77.97925 88.000
77.99919 88.000
78.01914 83.000
78.03909 99.000
78.05903 99.000
78.07898 93.000
78.09893 88.000
78.11887 91.000
78.13882 94.000
78.15877 99.000
78.17872 86.000
78.19866 76.000
78.21861 79.000
78.23856 71.000
78.25850 78.000
78.27845 75.000
78.29840 90.000
78.31834 63.000
78.33829 75.000
78.35824 66.000
78.37819 76.000
78.39813 71.000
78.41808 63.000
78.43803 93.000
78.45797 72.000
78.47792 71.000
78.49787 66.000
78.51781 74.000
78.53776 68.000
78.55771 72.000
78.57765 73.000
78.59760 67.000
78.61755 69.000
78.63750 80.000
78.65744 70.000
78.67739 83.000
78.69734 70.000
78.71728 70.000
78.73723 63.000
78.75718 73.000
78.77712 82.000
78.79707 67.000
78.81702 60.000
78.83697 59.000
78.85691 59.000
78.87686 69.000
78.89681 54.000
78.91675 47.000
78.93670 63.000
78.95665 62.000
78.97659 91.000
78.99654 53.000
79.01649 72.000
79.03643 60.000
79.05638 65.000
79.07633 71.000
79.09628 73.000
79.11622 68.000
79.13617 62.000
79.15612 63.000
79.17606 63.000
79.19601 62.000
79.21596 76.000
79.23590 69.000
79.25585 74.000
79.27580 61.000
79.29575 80.000
79.31569 59.000
79.33564 62.000
79.35559 58.000
79.37553 59.000
79.39548 70.000
79.41543 74.000
79.43537 73.000
79.45532 68.000
79.47527 62.000
79.49521 71.000
79.51516 71.000
79.53511 67.000
79.55506 70.000
79.57500 79.000
79.59495 85.000
79.61490 70.000
79.63484 70.000
79.65479 76.000
79.67474 85.000
79.69468 87.000
79.71463 73.000
79.73458 75.000
79.75453 79.000
79.77447 79.000
79.79442 72.000
79.81437 92.000
79.83431 85.000
79.85426 70.000
79.87421 83.000
79.89415 74.000
79.91410 75.000
79.93405 77.000
79.95399 76.000
79.97394 80.000
79.99389 81.000
80.01384 76.000
80.03378 70.000
80.05373 75.000
80.07368 85.000
80.09362 83.000
80.11357 65.000
80.13352 63.000
80.15346 79.000
80.17341 78.000
80.19336 71.000
80.21331 62.000
80.23325 74.000
80.25320 68.000
80.27315 46.000
80.29309 68.000
80.31304 77.000
80.33299 59.000
80.35293 86.000
80.37288 82.000
80.39283 73.000
80.41278 59.000
80.43272 66.000
80.45267 62.000
80.47262 94.000
80.49256 56.000
80.51251 67.000
80.53246 60.000
80.55240 71.000
80.57235 76.000
80.59230 63.000
80.61224 59.000
80.63219 67.000
80.65214 70.000
80.67209 52.000
80.69203 66.000
80.71198 67.000
80.73193 72.000
80.75187 66.000
80.77182 75.000
80.79177 58.000
80.81171 79.000
80.83166 78.000
80.85161 72.000
80.87156 70.000
80.89150 56.000
80.91145 66.000
80.93140 80.000
80.95134 67.000
80.97129 77.000
80.99124 74.000
81.01118 63.000
81.03113 71.000
81.05108 71.000
81.07102 72.000
81.09097 73.000
81.11092 60.000
81.13087 70.000
81.15081 72.000
81.17076 67.000
81.19071 69.000
81.21065 68.000
81.23060 59.000
81.25055 72.000
81.27049 68.000
81.29044 78.000
81.31039 67.000
81.33034 68.000
81.35028 71.000
81.37023 63.000
81.39018 87.000
81.41012 79.000
81.43007 77.000
81.45002 66.000
81.46996 96.000
81.48991 70.000
81.50986 80.000
81.52980 104.000
81.54975 76.000
81.56970 56.000
81.58965 79.000
81.60959 77.000
81.62954 71.000
81.64949 60.000
81.66943 72.000
81.68938 58.000
81.70933 69.000
81.72927 67.000
81.74922 63.000
81.76917 67.000
81.78912 77.000
81.80906 66.000
81.82901 68.000
81.84896 67.000
81.86890 82.000
81.88885 74.000
81.90880 85.000
81.92874 80.000
81.94869 71.000
81.96864 72.000
81.98859 72.000
82.00853 74.000
82.02848 74.000
82.04843 70.000
82.06837 62.000
82.08832 63.000
82.10827 69.000
82.12821 75.000
82.14816 63.000
82.16811 70.000
82.18805 63.000
82.20800 63.000
82.22795 73.000
82.24790 73.000
82.26784 67.000
82.28779 67.000
82.30774 64.000
82.32768 84.000
82.34763 80.000
82.36758 60.000
82.38752 72.000
82.40747 54.000
82.42742 70.000
82.44737 75.000
82.46731 72.000
82.48726 52.000
82.50721 75.000
82.52715 66.000
82.54710 72.000
82.56705 67.000
82.58699 70.000
82.60694 77.000
82.62689 81.000
82.64683 70.000
82.66678 77.000
82.68673 77.000
82.70668 69.000
82.72662 67.000
82.74657 80.000
82.76652 64.000
82.78646 76.000
82.80641 71.000
82.82636 79.000
82.84630 66.000
82.86625 67.000
82.88620 68.000
82.90615 63.000
82.92609 60.000
82.94604 71.000
82.96599 58.000
82.98593 67.000
83.00588 53.000
83.02583 73.000
83.04577 62.000
83.06572 87.000
83.08567 75.000
83.10561 70.000
83.12556 64.000
83.14551 83.000
83.16546 58.000
83.18540 61.000
83.20535 70.000
83.22530 64.000
83.24524 66.000
83.26519 70.000
83.28514 63.000
83.30508 79.000
83.32503 66.000
83.34498 88.000
83.36493 63.000
83.38487 69.000
83.40482 72.000
83.42477 83.000
83.44471 73.000
83.46466 81.000
83.48461 92.000
83.50455 78.000
83.52450 77.000
83.54445 68.000
83.56440 69.000
83.58434 68.000
83.60429 70.000
83.62424 78.000
83.64418 80.000
83.66413 79.000
83.68408 82.000
83.70402 89.000
83.72397 65.000
83.74392 64.000
83.76386 74.000
83.78381 75.000
83.80376 91.000
83.82371 87.000
83.84365 99.000
83.86360 75.000
83.88355 76.000
83.90349 86.000
83.92344 75.000
83.94339 77.000
83.96333 86.000
83.98328 88.000
84.00323 76.000
84.02318 87.000
84.04312 76.000
84.06307 69.000
84.08302 68.000
84.10296 65.000
84.12291 72.000
84.14286 87.000
84.16280 84.000
84.18275 66.000
84.20270 79.000
84.22264 78.000
84.24259 72.000
84.26254 68.000
84.28249 64.000
84.30243 67.000
84.32238 76.000
84.34233 85.000
84.36227 69.000
84.38222 70.000
84.40217 75.000
84.42211 66.000
84.44206 64.000
84.46201 68.000
84.48196 69.000
84.50190 70.000
84.52185 74.000
84.54180 70.000
84.56174 66.000
84.58169 72.000
84.60164 73.000
84.62158 62.000
84.64153 69.000
84.66148 61.000
84.68142 58.000
84.70137 65.000
84.72132 71.000
84.74127 64.000
84.76121 61.000
84.78116 83.000
84.80111 69.000
84.82105 63.000
84.84100 59.000
84.86095 60.000
84.88089 82.000
84.90084 65.000
84.92079 80.000
84.94074 67.000
84.96068 71.000
84.98063 65.000
85.00058 78.000
85.02052 65.000
85.04047 68.000
85.06042 74.000
85.08036 71.000
85.10031 63.000
85.12026 56.000
85.14021 54.000
85.16015 77.000
85.18010 74.000
85.20005 80.000
85.21999 61.000
85.23994 69.000
85.25989 73.000
85.27983 63.000
85.29978 72.000
85.31973 64.000
85.33967 52.000
85.35962 66.000
85.37957 69.000
85.39952 67.000
85.41946 69.000
85.43941 70.000
85.45936 68.000
85.47930 61.000
85.49925 66.000
85.51920 75.000
85.53914 61.000
85.55909 69.000
85.57904 77.000
85.59899 66.000
85.61893 70.000
85.63888 80.000
85.65883 71.000
85.67877 81.000
85.69872 84.000
85.71867 66.000
85.73861 64.000
85.75856 78.000
85.77851 84.000
85.79845 89.000
85.81840 85.000
85.83835 83.000
85.85830 81.000
85.87824 95.000
85.89819 85.000
85.91814 100.000
85.93808 84.000
85.95803 94.000
85.97798 83.000
85.99792 89.000
86.01787 79.000
86.03782 89.000
86.05777 92.000
86.07771 104.000
86.09766 99.000
86.11761 96.000
86.13755 87.000
86.15750 99.000
86.17745 102.000
86.19739 96.000
86.21734 78.000
86.23729 95.000
86.25723 88.000
86.27718 92.000
86.29713 89.000
86.31708 103.000
86.33702 83.000
86.35697 77.000
86.37692 87.000
86.39686 72.000
86.41681 87.000
86.43676 75.000
86.45670 81.000
86.47665 84.000
86.49660 83.000
86.51655 67.000
86.53649 83.000
86.55644 76.000
86.57639 79.000
86.59633 62.000
86.61628 64.000
86.63623 78.000
86.65617 84.000
86.67612 81.000
86.69607 81.000
86.71602 73.000
86.73596 72.000
86.75591 55.000
86.77586 84.000
86.79580 68.000
86.81575 71.000
86.83570 81.000
86.85564 79.000
86.87559 78.000
86.89554 66.000
86.91548 78.000
86.93543 73.000
86.95538 74.000
86.97533 51.000
86.99527 78.000
87.01522 79.000
87.03517 79.000
87.05511 66.000
87.07506 58.000
87.09501 70.000
87.11495 65.000
87.13490 54.000
87.15485 79.000
87.17480 55.000
87.19474 55.000
87.21469 75.000
87.23464 75.000
87.25458 60.000
87.27453 73.000
87.29448 66.000
87.31442 57.000
87.33437 66.000
87.35432 61.000
87.37426 72.000
87.39421 62.000
87.41416 59.000
87.43411 77.000
87.45405 64.000
87.47400 66.000
87.49395 77.000
87.51389 45.000
87.53384 79.000
87.55379 63.000
87.57373 81.000
87.59368 59.000
87.61363 61.000
87.63358 71.000
87.65352 64.000
87.67347 69.000
87.69342 49.000
87.71336 83.000
87.73331 58.000
87.75326 54.000
87.77320 65.000
87.79315 75.000
87.81310 60.000
87.83304 68.000
87.85299 67.000
87.87294 61.000
87.89289 62.000
87.91283 71.000
87.93278 63.000
87.95273 64.000
87.97267 61.000
87.99262 66.000
88.01257 68.000
88.03251 71.000
88.05246 78.000
88.07241 71.000
88.09236 66.000
88.11230 69.000
88.13225 73.000
88.15220 74.000
88.17214 51.000
88.19209 66.000
88.21204 62.000
88.23198 55.000
88.25193 66.000
88.27188 72.000
88.29183 69.000
88.31177 71.000
88.33172 71.000
88.35167 74.000
88.37161 66.000
88.39156 79.000
88.41151 71.000
88.43145 73.000
88.45140 82.000
88.47135 73.000
88.49129 62.000
88.51124 77.000
88.53119 64.000
88.55114 73.000
88.57108 76.000
88.59103 67.000
88.61098 76.000
88.63092 87.000
88.65087 78.000
88.67082 60.000
88.69076 82.000
88.71071 102.000
88.73066 79.000
88.75061 74.000
88.77055 66.000
88.79050 65.000
88.81045 94.000
88.83039 85.000
88.85034 92.000
88.87029 85.000
88.89023 82.000
88.91018 84.000
88.93013 77.000
88.95007 81.000
88.97002 92.000
88.98997 80.000
89.00992 80.000
89.02986 100.000
89.04981 97.000
89.06976 81.000
89.08970 88.000
89.10965 88.000
89.12960 86.000
89.14954 95.000
89.16949 84.000
89.18944 85.000
89.20939 92.000
89.22933 86.000
89.24928 91.000
89.26923 81.000
89.28917 81.000
89.30912 90.000
89.32907 95.000
89.34901 88.000
89.36896 88.000
89.38891 74.000
89.40885 91.000
89.42880 94.000
89.44875 86.000
89.46870 70.000
89.48864 74.000
89.50859 79.000
89.52854 85.000
89.54848 97.000
89.56843 84.000
89.58838 103.000
89.60832 91.000
89.62827 94.000
89.64822 97.000
89.66817 114.000
89.68811 118.000
89.70806 137.000
89.72801 121.000
89.74795 104.000
89.76790 129.000
89.78785 121.000
89.80779 119.000
89.82774 122.000
89.84769 110.000
89.86764 118.000
89.88758 97.000
89.90753 122.000
89.92748 112.000
89.94742 131.000
89.96737 110.000
89.98732 101.000
90.00726 100.000
