10.00000 67.000
10.01995 85.000
10.03989 86.000
10.05984 79.000
10.07979 73.000
10.09973 76.000
10.11968 93.000
10.13963 70.000
10.15958 78.000
10.17952 96.000
10.19947 82.000
10.21942 63.000
10.23936 101.000
10.25931 77.000
10.27926 75.000
10.29920 67.000
10.31915 95.000
10.33910 67.000
10.35905 81.000
10.37899 75.000
10.39894 78.000
10.41889 75.000
10.43883 77.000
10.45878 78.000
10.47873 72.000
10.49867 63.000
10.51862 76.000
10.53857 74.000
10.55851 82.000
10.57846 70.000
10.59841 81.000
10.61836 68.000
10.63830 96.000
10.65825 83.000
10.67820 79.000
10.69814 80.000
10.71809 74.000
10.73804 81.000
10.75798 74.000
10.77793 64.000
10.79788 89.000
10.81783 75.000
10.83777 81.000
10.85772 91.000
10.87767 74.000
10.89761 84.000
10.91756 72.000
10.93751 60.000
10.95745 76.000
10.97740 64.000
10.99735 79.000
11.01730 65.000
11.03724 81.000
11.05719 78.000
11.07714 88.000
11.09708 97.000
11.11703 68.000
11.13698 71.000
11.15692 85.000
11.17687 78.000
11.19682 72.000
11.21676 95.000
11.23671 95.000
11.25666 90.000
11.27661 78.000
11.29655 90.000
11.31650 80.000
11.33645 75.000
11.35639 79.000
11.37634 85.000
11.39629 71.000
11.41623 79.000
11.43618 96.000
11.45613 65.000
11.47608 85.000
11.49602 68.000
11.51597 90.000
11.53592 77.000
11.55586 79.000
11.57581 71.000
11.59576 90.000
11.61570 68.000
11.63565 68.000
11.65560 55.000
11.67554 69.000
11.69549 80.000
11.71544 57.000
11.73539 76.000
11.75533 73.000
11.77528 72.000
11.79523 92.000
11.81517 80.000
11.83512 70.000
11.85507 71.000
11.87501 73.000
11.89496 73.000
11.91491 71.000
11.93486 64.000
11.95480 69.000
11.97475 68.000
11.99470 87.000
12.01464 68.000
12.03459 82.000
12.05454 79.000
12.07448 82.000
12.09443 77.000
12.11438 82.000
12.13432 61.000
12.15427 79.000
12.17422 88.000
12.19417 87.000
12.21411 82.000
12.23406 83.000
12.25401 74.000
12.27395 66.000
12.29390 77.000
12.31385 75.000
12.33379 69.000
12.35374 71.000
12.37369 75.000
12.39364 71.000
12.41358 87.000
12.43353 80.000
12.45348 85.000
12.47342 86.000
12.49337 77.000
12.51332 81.000
12.53326 70.000
12.55321 76.000
12.57316 78.000
12.59311 78.000
12.61305 81.000
12.63300 80.000
12.65295 79.000
12.67289 79.000
12.69284 78.000
12.71279 78.000
12.73273 72.000
12.75268 73.000
12.77263 78.000
12.79257 71.000
12.81252 73.000
12.83247 72.000
12.85242 65.000
12.87236 77.000
12.89231 69.000
12.91226 69.000
12.93220 71.000
12.95215 79.000
12.97210 81.000
12.99204 76.000
13.01199 68.000
13.03194 56.000
13.05189 75.000
13.07183 56.000
13.09178 67.000
13.11173 81.000
13.13167 61.000
13.15162 63.000
13.17157 86.000
13.19151 80.000
13.21146 59.000
13.23141 86.000
13.25135 77.000
13.27130 84.000
13.29125 68.000
13.31120 76.000
13.33114 77.000
13.35109 60.000
13.37104 76.000
13.39098 90.000
13.41093 80.000
13.43088 79.000
13.45082 83.000
13.47077 86.000
13.49072 61.000
13.51067 75.000
13.53061 69.000
13.55056 67.000
13.57051 79.000
13.59045 68.000
13.61040 78.000
13.63035 78.000
13.65029 77.000
13.67024 74.000
13.69019 59.000
13.71013 63.000
13.73008 69.000
13.75003 55.000
13.76998 55.000
13.78992 67.000
13.80987 77.000
13.82982 58.000
13.84976 85.000
13.86971 64.000
13.88966 69.000
13.90960 55.000
13.92955 61.000
13.94950 71.000
13.96945 82.000
13.98939 68.000
14.00934 67.000
14.02929 80.000
14.04923 84.000
14.06918 78.000
14.08913 77.000
14.10907 73.000
14.12902 80.000
14.14897 87.000
14.16892 75.000
14.18886 73.000
14.20881 90.000
14.22876 68.000
14.24870 74.000
14.26865 77.000
14.28860 67.000
14.30854 70.000
14.32849 67.000
14.34844 80.000
14.36838 62.000
14.38833 71.000
14.40828 66.000
14.42823 88.000
14.44817 67.000
14.46812 66.000
14.48807 75.000
14.50801 88.000
14.52796 76.000
14.54791 68.000
14.56785 74.000
14.58780 74.000
14.60775 77.000
14.62770 80.000
14.64764 71.000
14.66759 61.000
14.68754 91.000
14.70748 80.000
14.72743 83.000
14.74738 90.000
14.76732 64.000
14.78727 71.000
14.80722 74.000
14.82716 81.000
14.84711 63.000
14.86706 69.000
14.88701 66.000
14.90695 70.000
14.92690 76.000
14.94685 69.000
14.96679 65.000
14.98674 67.000
15.00669 56.000
15.02663 73.000
15.04658 77.000
15.06653 75.000
15.08648 84.000
15.10642 60.000
15.12637 76.000
15.14632 86.000
15.16626 78.000
15.18621 86.000
15.20616 87.000
15.22610 90.000
15.24605 81.000
15.26600 72.000
15.28594 83.000
15.30589 78.000
15.32584 81.000
15.34579 81.000
15.36573 83.000
15.38568 76.000
15.40563 95.000
15.42557 80.000
15.44552 85.000
15.46547 100.000
15.48541 96.000
15.50536 89.000
15.52531 114.000
15.54526 104.000
15.56520 101.000
15.58515 116.000
15.60510 153.000
15.62504 161.000
15.64499 169.000
15.66494 200.000
15.68488 185.000
15.70483 258.000
15.72478 223.000
15.74472 265.000
15.76467 237.000
15.78462 221.000
15.80457 175.000
15.82451 150.000
15.84446 150.000
15.86441 147.000
15.88435 146.000
15.90430 122.000
15.92425 151.000
15.94419 142.000
15.96414 190.000
15.98409 196.000
16.00404 194.000
16.02398 203.000
16.04393 239.000
16.06388 248.000
16.08382 246.000
16.10377 281.000
16.12372 312.000
16.14366 330.000
16.16361 357.000
16.18356 437.000
16.20351 500.000
16.22345 633.000
16.24340 773.000
16.26335 986.000
16.28329 1281.000
16.30324 1537.000
16.32319 1695.000
16.34313 1854.000
16.36308 1927.000
16.38303 1937.000
16.40297 1859.000
16.42292 1636.000
16.44287 1321.000
16.46282 906.000
16.48276 602.000
16.50271 409.000
16.52266 205.000
16.54260 144.000
16.56255 107.000
16.58250 140.000
16.60244 110.000
16.62239 135.000
16.64234 100.000
16.66229 94.000
16.68223 108.000
16.70218 87.000
16.72213 100.000
16.74207 110.000
16.76202 102.000
16.78197 102.000
16.80191 94.000
16.82186 129.000
16.84181 107.000
16.86175 110.000
16.88170 92.000
16.90165 87.000
16.92160 80.000
16.94154 82.000
16.96149 87.000
16.98144 91.000
17.00138 89.000
17.02133 93.000
17.04128 65.000
17.06122 79.000
17.08117 85.000
17.10112 80.000
17.12107 84.000
17.14101 91.000
17.16096 79.000
17.18091 60.000
17.20085 82.000
17.22080 72.000
17.24075 69.000
17.26069 70.000
17.28064 79.000
17.30059 62.000
17.32053 80.000
17.34048 76.000
17.36043 68.000
17.38038 78.000
17.40032 64.000
17.42027 81.000
17.44022 83.000
17.46016 68.000
17.48011 76.000
17.50006 79.000
17.52000 91.000
17.53995 84.000
17.55990 66.000
17.57985 75.000
17.59979 69.000
17.61974 67.000
17.63969 73.000
17.65963 88.000
17.67958 67.000
17.69953 64.000
17.71947 77.000
17.73942 73.000
17.75937 67.000
17.77932 74.000
17.79926 78.000
17.81921 70.000
17.83916 78.000
17.85910 67.000
17.87905 59.000
17.89900 86.000
17.91894 62.000
17.93889 89.000
17.95884 82.000
17.97878 97.000
17.99873 108.000
18.01868 129.000
18.03863 167.000
18.05857 153.000
18.07852 181.000
18.09847 183.000
18.11841 152.000
18.13836 132.000
18.15831 108.000
18.17825 112.000
18.19820 108.000
18.21815 90.000
18.23810 85.000
18.25804 74.000
18.27799 75.000
18.29794 63.000
18.31788 95.000
18.33783 72.000
18.35778 84.000
18.37772 72.000
18.39767 84.000
18.41762 57.000
18.43756 85.000
18.45751 75.000
18.47746 65.000
18.49741 68.000
18.51735 77.000
18.53730 70.000
18.55725 72.000
18.57719 67.000
18.59714 74.000
18.61709 59.000
18.63703 66.000
18.65698 69.000
18.67693 74.000
18.69688 70.000
18.71682 63.000
18.73677 83.000
18.75672 78.000
18.77666 58.000
18.79661 67.000
18.81656 55.000
18.83650 62.000
18.85645 67.000
18.87640 53.000
18.89634 67.000
18.91629 76.000
18.93624 74.000
18.95619 77.000
18.97613 65.000
18.99608 70.000
19.01603 88.000
19.03597 54.000
19.05592 74.000
19.07587 66.000
19.09581 58.000
19.11576 84.000
19.13571 53.000
19.15566 61.000
19.17560 49.000
19.19555 73.000
19.21550 65.000
19.23544 75.000
19.25539 75.000
19.27534 73.000
19.29528 69.000
19.31523 72.000
19.33518 60.000
19.35513 76.000
19.37507 70.000
19.39502 65.000
19.41497 86.000
19.43491 67.000
19.45486 68.000
19.47481 74.000
19.49475 71.000
19.51470 71.000
19.53465 68.000
19.55459 56.000
19.57454 72.000
19.59449 81.000
19.61444 64.000
19.63438 71.000
19.65433 72.000
19.67428 66.000
19.69422 75.000
19.71417 65.000
19.73412 72.000
19.75406 70.000
19.77401 76.000
19.79396 71.000
19.81391 81.000
19.83385 69.000
19.85380 76.000
19.87375 81.000
19.89369 66.000
19.91364 88.000
19.93359 86.000
19.95353 95.000
19.97348 90.000
19.99343 91.000
20.01337 94.000
20.03332 121.000
20.05327 91.000
20.07322 99.000
20.09316 96.000
20.11311 109.000
20.13306 99.000
20.15300 85.000
20.17295 97.000
20.19290 90.000
20.21284 71.000
20.23279 83.000
20.25274 81.000
20.27269 68.000
20.29263 82.000
20.31258 73.000
20.33253 71.000
20.35247 85.000
20.37242 80.000
20.39237 82.000
20.41231 68.000
20.43226 76.000
20.45221 78.000
20.47215 82.000
20.49210 106.000
20.51205 118.000
20.53200 118.000
20.55194 93.000
20.57189 128.000
20.59184 140.000
20.61178 160.000
20.63173 134.000
20.65168 185.000
20.67162 152.000
20.69157 142.000
20.71152 151.000
20.73147 157.000
20.75141 126.000
20.77136 145.000
20.79131 155.000
20.81125 136.000
20.83120 142.000
20.85115 131.000
20.87109 108.000
20.89104 121.000
20.91099 82.000
20.93094 115.000
20.95088 84.000
20.97083 76.000
20.99078 64.000
21.01072 73.000
21.03067 74.000
21.05062 86.000
21.07056 78.000
21.09051 62.000
21.11046 60.000
21.13040 56.000
21.15035 68.000
21.17030 60.000
21.19025 74.000
21.21019 63.000
21.23014 64.000
21.25009 77.000
21.27003 68.000
21.28998 64.000
21.30993 73.000
21.32987 61.000
21.34982 59.000
21.36977 73.000
21.38972 76.000
21.40966 64.000
21.42961 73.000
21.44956 74.000
21.46950 66.000
21.48945 63.000
21.50940 64.000
21.52934 58.000
21.54929 68.000
21.56924 65.000
21.58918 65.000
21.60913 59.000
21.62908 58.000
21.64903 95.000
21.66897 79.000
21.68892 69.000
21.70887 71.000
21.72881 56.000
21.74876 65.000
21.76871 75.000
21.78865 68.000
21.80860 86.000
21.82855 75.000
21.84850 64.000
21.86844 76.000
21.88839 77.000
21.90834 77.000
21.92828 61.000
21.94823 65.000
21.96818 70.000
21.98812 67.000
22.00807 72.000
22.02802 77.000
22.04796 71.000
22.06791 68.000
22.08786 66.000
22.10781 66.000
22.12775 61.000
22.14770 72.000
22.16765 81.000
22.18759 77.000
22.20754 53.000
22.22749 62.000
22.24743 74.000
22.26738 69.000
22.28733 68.000
22.30728 87.000
22.32722 65.000
22.34717 67.000
22.36712 65.000
22.38706 63.000
22.40701 82.000
22.42696 70.000
22.44690 60.000
22.46685 66.000
22.48680 70.000
22.50675 83.000
22.52669 67.000
22.54664 66.000
22.56659 70.000
22.58653 71.000
22.60648 52.000
22.62643 67.000
22.64637 69.000
22.66632 61.000
22.68627 66.000
22.70621 59.000
22.72616 69.000
22.74611 75.000
22.76606 52.000
22.78600 60.000
22.80595 54.000
22.82590 88.000
22.84584 62.000
22.86579 66.000
22.88574 75.000
22.90568 66.000
22.92563 69.000
22.94558 65.000
22.96553 85.000
22.98547 72.000
23.00542 88.000
23.02537 84.000
23.04531 62.000
23.06526 68.000
23.08521 80.000
23.10515 60.000
23.12510 76.000
23.14505 78.000
23.16499 71.000
23.18494 72.000
23.20489 63.000
23.22484 69.000
23.24478 61.000
23.26473 74.000
23.28468 67.000
23.30462 70.000
23.32457 70.000
23.34452 88.000
23.36446 86.000
23.38441 61.000
23.40436 68.000
23.42431 80.000
23.44425 63.000
23.46420 67.000
23.48415 73.000
23.50409 53.000
23.52404 66.000
23.54399 67.000
23.56393 75.000
23.58388 70.000
23.60383 70.000
23.62377 84.000
23.64372 69.000
23.66367 77.000
23.68362 51.000
23.70356 73.000
23.72351 63.000
23.74346 81.000
23.76340 67.000
23.78335 75.000
23.80330 69.000
23.82324 80.000
23.84319 88.000
23.86314 86.000
23.88309 88.000
23.90303 62.000
23.92298 59.000
23.94293 72.000
23.96287 86.000
23.98282 70.000
24.00277 74.000
24.02271 72.000
24.04266 80.000
24.06261 69.000
24.08256 62.000
24.10250 68.000
24.12245 74.000
24.14240 78.000
24.16234 73.000
24.18229 72.000
24.20224 78.000
24.22218 75.000
24.24213 74.000
24.26208 62.000
24.28202 71.000
24.30197 85.000
24.32192 60.000
24.34187 83.000
24.36181 93.000
24.38176 72.000
24.40171 83.000
24.42165 61.000
24.44160 64.000
24.46155 62.000
24.48149 89.000
24.50144 65.000
24.52139 73.000
24.54134 76.000
24.56128 76.000
24.58123 68.000
24.60118 72.000
24.62112 61.000
24.64107 63.000
24.66102 81.000
24.68096 67.000
24.70091 64.000
24.72086 71.000
24.74080 72.000
24.76075 72.000
24.78070 69.000
24.80065 78.000
24.82059 71.000
24.84054 86.000
24.86049 83.000
24.88043 76.000
24.90038 101.000
24.92033 91.000
24.94027 109.000
24.96022 97.000
24.98017 91.000
25.00012 80.000
25.02006 73.000
25.04001 74.000
25.05996 77.000
25.07990 95.000
25.09985 64.000
25.11980 73.000
25.13974 78.000
25.15969 89.000
25.17964 80.000
25.19958 76.000
25.21953 76.000
25.23948 83.000
25.25943 83.000
25.27937 73.000
25.29932 65.000
25.31927 81.000
25.33921 65.000
25.35916 88.000
25.37911 79.000
25.39905 86.000
25.41900 82.000
25.43895 69.000
25.45890 86.000
25.47884 69.000
25.49879 61.000
25.51874 62.000
25.53868 78.000
25.55863 94.000
25.57858 76.000
25.59852 67.000
25.61847 83.000
25.63842 72.000
25.65837 55.000
25.67831 97.000
25.69826 71.000
25.71821 63.000
25.73815 77.000
25.75810 84.000
25.77805 90.000
25.79799 67.000
25.81794 90.000
25.83789 79.000
25.85783 92.000
25.87778 75.000
25.89773 85.000
25.91768 78.000
25.93762 84.000
25.95757 90.000
25.97752 78.000
25.99746 85.000
26.01741 102.000
26.03736 77.000
26.05730 87.000
26.07725 73.000
26.09720 73.000
26.11715 70.000
26.13709 90.000
26.15704 89.000
26.17699 79.000
26.19693 82.000
26.21688 86.000
26.23683 85.000
26.25677 87.000
26.27672 84.000
26.29667 76.000
26.31661 83.000
26.33656 99.000
26.35651 82.000
26.37646 77.000
26.39640 90.000
26.41635 87.000
26.43630 87.000
26.45624 72.000
26.47619 68.000
26.49614 84.000
26.51608 105.000
26.53603 78.000
26.55598 70.000
26.57593 75.000
26.59587 85.000
26.61582 83.000
26.63577 71.000
26.65571 79.000
26.67566 73.000
26.69561 86.000
26.71555 94.000
26.73550 70.000
26.75545 78.000
26.77539 66.000
26.79534 82.000
26.81529 80.000
26.83524 66.000
26.85518 90.000
26.87513 62.000
26.89508 68.000
26.91502 83.000
26.93497 85.000
26.95492 82.000
26.97486 81.000
26.99481 76.000
27.01476 92.000
27.03471 76.000
27.05465 86.000
27.07460 81.000
27.09455 87.000
27.11449 85.000
27.13444 79.000
27.15439 75.000
27.17433 89.000
27.19428 79.000
27.21423 80.000
27.23417 82.000
27.25412 86.000
27.27407 76.000
27.29402 90.000
27.31396 73.000
27.33391 94.000
27.35386 79.000
27.37380 81.000
27.39375 84.000
27.41370 93.000
27.43364 69.000
27.45359 66.000
27.47354 91.000
27.49349 95.000
27.51343 89.000
27.53338 75.000
27.55333 76.000
27.57327 92.000
27.59322 73.000
27.61317 85.000
27.63311 89.000
27.65306 74.000
27.67301 86.000
27.69296 96.000
27.71290 77.000
27.73285 90.000
27.75280 87.000
27.77274 83.000
27.79269 89.000
27.81264 80.000
27.83258 94.000
27.85253 87.000
27.87248 71.000
27.89242 65.000
27.91237 84.000
27.93232 77.000
27.95227 66.000
27.97221 79.000
27.99216 95.000
28.01211 79.000
28.03205 89.000
28.05200 88.000
28.07195 83.000
28.09189 89.000
28.11184 68.000
28.13179 87.000
28.15174 93.000
28.17168 74.000
28.19163 89.000
28.21158 90.000
28.23152 68.000
28.25147 81.000
28.27142 92.000
28.29136 86.000
28.31131 82.000
28.33126 82.000
28.35120 82.000
28.37115 93.000
28.39110 83.000
28.41105 89.000
28.43099 90.000
28.45094 87.000
28.47089 76.000
28.49083 103.000
28.51078 79.000
28.53073 82.000
28.55067 89.000
28.57062 70.000
28.59057 105.000
28.61052 92.000
28.63046 77.000
28.65041 93.000
28.67036 83.000
28.69030 75.000
28.71025 108.000
28.73020 107.000
28.75014 96.000
28.77009 100.000
28.79004 89.000
28.80998 82.000
28.82993 68.000
28.84988 88.000
28.86983 89.000
28.88977 81.000
28.90972 86.000
28.92967 91.000
28.94961 91.000
28.96956 86.000
28.98951 78.000
29.00945 88.000
29.02940 97.000
29.04935 101.000
29.06930 81.000
29.08924 87.000
29.10919 90.000
29.12914 84.000
29.14908 83.000
29.16903 95.000
29.18898 102.000
29.20892 98.000
29.22887 112.000
29.24882 117.000
29.26877 135.000
29.28871 126.000
29.30866 148.000
29.32861 148.000
29.34855 150.000
29.36850 164.000
29.38845 161.000
29.40839 143.000
29.42834 152.000
29.44829 137.000
29.46823 162.000
29.48818 162.000
29.50813 163.000
29.52808 146.000
29.54802 160.000
29.56797 164.000
29.58792 129.000
29.60786 131.000
29.62781 140.000
29.64776 122.000
29.66770 133.000
29.68765 159.000
29.70760 185.000
29.72755 221.000
29.74749 226.000
29.76744 219.000
29.78739 185.000
29.80733 205.000
29.82728 166.000
29.84723 174.000
29.86717 142.000
29.88712 137.000
29.90707 139.000
29.92701 126.000
29.94696 113.000
29.96691 93.000
29.98686 117.000
30.00680 115.000
30.02675 111.000
30.04670 108.000
30.06664 97.000
30.08659 93.000
30.10654 116.000
30.12648 102.000
30.14643 91.000
30.16638 97.000
30.18633 95.000
30.20627 85.000
30.22622 99.000
30.24617 63.000
30.26611 73.000
30.28606 94.000
30.30601 94.000
30.32595 89.000
30.34590 82.000
30.36585 84.000
30.38579 91.000
30.40574 90.000
30.42569 88.000
30.44564 85.000
30.46558 94.000
30.48553 75.000
30.50548 91.000
30.52542 90.000
30.54537 90.000
30.56532 71.000
30.58526 84.000
30.60521 90.000
30.62516 87.000
30.64511 102.000
30.66505 81.000
30.68500 96.000
30.70495 109.000
30.72489 90.000
30.74484 96.000
30.76479 67.000
30.78473 86.000
30.80468 98.000
30.82463 91.000
30.84458 98.000
30.86452 89.000
30.88447 106.000
30.90442 83.000
30.92436 88.000
30.94431 85.000
30.96426 91.000
30.98420 82.000
31.00415 100.000
31.02410 88.000
31.04404 90.000
31.06399 91.000
31.08394 88.000
31.10389 111.000
31.12383 83.000
31.14378 76.000
31.16373 97.000
31.18367 91.000
31.20362 98.000
31.22357 81.000
31.24351 85.000
31.26346 76.000
31.28341 98.000
31.30336 82.000
31.32330 87.000
31.34325 79.000
31.36320 94.000
31.38314 75.000
31.40309 105.000
31.42304 100.000
31.44298 75.000
31.46293 83.000
31.48288 95.000
31.50282 95.000
31.52277 91.000
31.54272 113.000
31.56267 108.000
31.58261 118.000
31.60256 128.000
31.62251 131.000
31.64245 166.000
31.66240 120.000
31.68235 142.000
31.70229 131.000
31.72224 146.000
31.74219 142.000
31.76214 106.000
31.78208 118.000
31.80203 109.000
31.82198 115.000
31.84192 115.000
31.86187 109.000
31.88182 106.000
31.90176 97.000
31.92171 106.000
31.94166 111.000
31.96160 117.000
31.98155 89.000
32.00150 79.000
32.02145 104.000
32.04139 85.000
32.06134 93.000
32.08129 96.000
32.10123 93.000
32.12118 87.000
32.14113 81.000
32.16107 95.000
32.18102 82.000
32.20097 102.000
32.22092 97.000
32.24086 87.000
32.26081 94.000
32.28076 120.000
32.30070 113.000
32.32065 85.000
32.34060 104.000
32.36054 98.000
32.38049 111.000
32.40044 98.000
32.42039 126.000
32.44033 117.000
32.46028 115.000
32.48023 135.000
32.50017 105.000
32.52012 86.000
32.54007 112.000
32.56001 116.000
32.57996 100.000
32.59991 132.000
32.61985 132.000
32.63980 97.000
32.65975 96.000
32.67970 86.000
32.69964 107.000
32.71959 104.000
32.73954 121.000
32.75948 126.000
32.77943 120.000
32.79938 141.000
32.81932 118.000
32.83927 124.000
32.85922 128.000
32.87917 141.000
32.89911 180.000
32.91906 172.000
32.93901 164.000
32.95895 188.000
32.97890 180.000
32.99885 245.000
33.01879 238.000
33.03874 240.000
33.05869 268.000
33.07863 268.000
33.09858 281.000
33.11853 270.000
33.13848 345.000
33.15842 296.000
33.17837 265.000
33.19832 286.000
33.21826 298.000
33.23821 279.000
33.25816 302.000
33.27810 275.000
33.29805 254.000
33.31800 216.000
33.33795 204.000
33.35789 200.000
33.37784 181.000
33.39779 176.000
33.41773 152.000
33.43768 135.000
33.45763 128.000
33.47757 115.000
33.49752 121.000
33.51747 122.000
33.53741 116.000
33.55736 124.000
33.57731 113.000
33.59726 112.000
33.61720 118.000
33.63715 106.000
33.65710 135.000
33.67704 102.000
33.69699 126.000
33.71694 120.000
33.73688 108.000
33.75683 124.000
33.77678 103.000
33.79673 117.000
33.81667 136.000
33.83662 128.000
33.85657 113.000
33.87651 115.000
33.89646 153.000
33.91641 176.000
33.93635 189.000
33.95630 214.000
33.97625 194.000
33.99620 196.000
34.01614 209.000
34.03609 199.000
34.05604 214.000
34.07598 204.000
34.09593 193.000
34.11588 188.000
34.13582 213.000
34.15577 207.000
34.17572 218.000
34.19566 180.000
34.21561 203.000
34.23556 230.000
34.25551 231.000
34.27545 186.000
34.29540 192.000
34.31535 179.000
34.33529 192.000
34.35524 175.000
34.37519 151.000
34.39513 138.000
34.41508 170.000
34.43503 137.000
34.45498 138.000
34.47492 169.000
34.49487 109.000
34.51482 123.000
34.53476 116.000
34.55471 99.000
34.57466 131.000
34.59460 129.000
34.61455 128.000
34.63450 105.000
34.65444 123.000
34.67439 113.000
34.69434 129.000
34.71429 130.000
34.73423 137.000
34.75418 176.000
34.77413 179.000
34.79407 201.000
34.81402 256.000
34.83397 252.000
34.85391 313.000
34.87386 308.000
34.89381 367.000
34.91376 421.000
34.93370 439.000
34.95365 526.000
34.97360 592.000
34.99354 636.000
35.01349 693.000
35.03344 709.000
35.05338 644.000
35.07333 679.000
35.09328 645.000
35.11322 573.000
35.13317 542.000
35.15312 434.000
35.17307 389.000
35.19301 353.000
35.21296 323.000
35.23291 271.000
35.25285 280.000
35.27280 234.000
35.29275 234.000
35.31269 208.000
35.33264 223.000
35.35259 200.000
35.37254 214.000
35.39248 241.000
35.41243 233.000
35.43238 256.000
35.45232 264.000
35.47227 260.000
35.49222 354.000
35.51216 261.000
35.53211 263.000
35.55206 266.000
35.57201 222.000
35.59195 225.000
35.61190 199.000
35.63185 194.000
35.65179 157.000
35.67174 143.000
35.69169 159.000
35.71163 127.000
35.73158 133.000
35.75153 129.000
35.77147 106.000
35.79142 127.000
35.81137 121.000
35.83132 136.000
35.85126 122.000
35.87121 118.000
35.89116 108.000
35.91110 128.000
35.93105 117.000
35.95100 115.000
35.97094 119.000
35.99089 121.000
36.01084 115.000
36.03079 117.000
36.05073 144.000
36.07068 112.000
36.09063 124.000
36.11057 143.000
36.13052 148.000
36.15047 184.000
36.17041 255.000
36.19036 343.000
36.21031 409.000
36.23025 476.000
36.25020 559.000
36.27015 592.000
36.29010 598.000
36.31004 587.000
36.32999 663.000
36.34994 567.000
36.36988 513.000
36.38983 442.000
36.40978 400.000
36.42972 346.000
36.44967 338.000
36.46962 310.000
36.48957 245.000
36.50951 217.000
36.52946 202.000
36.54941 185.000
36.56935 185.000
36.58930 188.000
36.60925 177.000
36.62919 173.000
36.64914 189.000
36.66909 170.000
36.68903 163.000
36.70898 172.000
36.72893 117.000
36.74888 137.000
36.76882 134.000
36.78877 132.000
36.80872 123.000
36.82866 122.000
36.84861 106.000
36.86856 117.000
36.88850 101.000
36.90845 124.000
36.92840 115.000
36.94835 107.000
36.96829 106.000
36.98824 110.000
37.00819 116.000
37.02813 127.000
37.04808 104.000
37.06803 110.000
37.08797 121.000
37.10792 116.000
37.12787 107.000
37.14781 109.000
37.16776 102.000
37.18771 110.000
37.20766 115.000
37.22760 97.000
37.24755 91.000
37.26750 73.000
37.28744 87.000
37.30739 87.000
37.32734 82.000
37.34728 92.000
37.36723 80.000
37.38718 113.000
37.40713 76.000
37.42707 92.000
37.44702 90.000
37.46697 114.000
37.48691 87.000
37.50686 94.000
37.52681 100.000
37.54675 80.000
37.56670 75.000
37.58665 82.000
37.60660 86.000
37.62654 91.000
37.64649 88.000
37.66644 98.000
37.68638 95.000
37.70633 76.000
37.72628 97.000
37.74622 94.000
37.76617 94.000
37.78612 89.000
37.80606 95.000
37.82601 114.000
37.84596 94.000
37.86591 79.000
37.88585 105.000
37.90580 78.000
37.92575 99.000
37.94569 111.000
37.96564 90.000
37.98559 107.000
38.00553 80.000
38.02548 105.000
38.04543 109.000
38.06538 89.000
38.08532 97.000
38.10527 81.000
38.12522 78.000
38.14516 91.000
38.16511 95.000
38.18506 83.000
38.20500 90.000
38.22495 104.000
38.24490 123.000
38.26484 102.000
38.28479 93.000
38.30474 93.000
38.32469 79.000
38.34463 96.000
38.36458 86.000
38.38453 98.000
38.40447 98.000
38.42442 85.000
38.44437 105.000
38.46431 114.000
38.48426 106.000
38.50421 118.000
38.52416 102.000
38.54410 122.000
38.56405 105.000
38.58400 122.000
38.60394 123.000
38.62389 157.000
38.64384 158.000
38.66378 156.000
38.68373 180.000
38.70368 211.000
38.72362 205.000
38.74357 183.000
38.76352 158.000
38.78347 202.000
38.80341 178.000
38.82336 173.000
38.84331 135.000
38.86325 162.000
38.88320 169.000
38.90315 148.000
38.92309 144.000
38.94304 155.000
38.96299 146.000
38.98294 143.000
39.00288 151.000
39.02283 130.000
39.04278 112.000
39.06272 87.000
39.08267 101.000
39.10262 99.000
39.12256 90.000
39.14251 110.000
39.16246 110.000
39.18241 96.000
39.20235 104.000
39.22230 102.000
39.24225 93.000
39.26219 101.000
39.28214 93.000
39.30209 104.000
39.32203 91.000
39.34198 103.000
39.36193 110.000
39.38187 99.000
39.40182 105.000
39.42177 99.000
39.44172 107.000
39.46166 113.000
39.48161 101.000
39.50156 100.000
39.52150 103.000
39.54145 97.000
39.56140 108.000
39.58134 100.000
39.60129 93.000
39.62124 96.000
39.64119 90.000
39.66113 112.000
39.68108 87.000
39.70103 91.000
39.72097 92.000
39.74092 101.000
39.76087 76.000
39.78081 95.000
39.80076 98.000
39.82071 102.000
39.84065 95.000
39.86060 96.000
39.88055 97.000
39.90050 84.000
39.92044 105.000
39.94039 111.000
39.96034 84.000
39.98028 100.000
40.00023 89.000
40.02018 91.000
40.04012 97.000
40.06007 85.000
40.08002 100.000
40.09997 79.000
40.11991 99.000
40.13986 84.000
40.15981 94.000
40.17975 95.000
40.19970 101.000
40.21965 101.000
40.23959 100.000
40.25954 91.000
40.27949 85.000
40.29943 108.000
40.31938 81.000
40.33933 76.000
40.35928 73.000
40.37922 84.000
40.39917 97.000
40.41912 91.000
40.43906 73.000
40.45901 105.000
40.47896 89.000
40.49890 113.000
40.51885 112.000
40.53880 106.000
40.55875 84.000
40.57869 107.000
40.59864 93.000
40.61859 108.000
40.63853 106.000
40.65848 91.000
40.67843 87.000
40.69837 122.000
40.71832 133.000
40.73827 93.000
40.75822 87.000
40.77816 112.000
40.79811 106.000
40.81806 121.000
40.83800 107.000
40.85795 135.000
40.87790 125.000
40.89784 125.000
40.91779 120.000
40.93774 149.000
40.95768 133.000
40.97763 168.000
40.99758 180.000
41.01753 199.000
41.03747 227.000
41.05742 247.000
41.07737 253.000
41.09731 303.000
41.11726 360.000
41.13721 430.000
41.15715 619.000
41.17710 913.000
41.19705 1470.000
41.21700 1871.000
41.23694 2333.000
41.25689 2321.000
41.27684 2221.000
41.29678 2187.000
41.31673 1997.000
41.33668 1943.000
41.35662 1822.000
41.37657 1628.000
41.39652 1312.000
41.41646 1078.000
41.43641 858.000
41.45636 726.000
41.47631 593.000
41.49625 456.000
41.51620 419.000
41.53615 365.000
41.55609 276.000
41.57604 234.000
41.59599 211.000
41.61593 184.000
41.63588 162.000
41.65583 133.000
41.67578 166.000
41.69572 141.000
41.71567 141.000
41.73562 127.000
41.75556 103.000
41.77551 117.000
41.79546 108.000
41.81540 91.000
41.83535 102.000
41.85530 108.000
41.87524 101.000
41.89519 97.000
41.91514 115.000
41.93509 82.000
41.95503 89.000
41.97498 103.000
41.99493 105.000
42.01487 94.000
42.03482 103.000
42.05477 84.000
42.07471 91.000
42.09466 92.000
42.11461 89.000
42.13456 82.000
42.15450 97.000
42.17445 81.000
42.19440 106.000
42.21434 100.000
42.23429 104.000
42.25424 88.000
42.27418 93.000
42.29413 98.000
42.31408 101.000
42.33403 100.000
42.35397 87.000
42.37392 102.000
42.39387 97.000
42.41381 94.000
42.43376 93.000
42.45371 127.000
42.47365 137.000
42.49360 107.000
42.51355 143.000
42.53349 135.000
42.55344 152.000
42.57339 177.000
42.59334 185.000
42.61328 210.000
42.63323 182.000
42.65318 148.000
42.67312 159.000
42.69307 151.000
42.71302 158.000
42.73296 121.000
42.75291 127.000
42.77286 135.000
42.79281 122.000
42.81275 128.000
42.83270 89.000
42.85265 105.000
42.87259 95.000
42.89254 121.000
42.91249 99.000
42.93243 78.000
42.95238 86.000
42.97233 85.000
42.99227 80.000
43.01222 91.000
43.03217 85.000
43.05212 95.000
43.07206 95.000
43.09201 81.000
43.11196 83.000
43.13190 86.000
43.15185 91.000
43.17180 72.000
43.19174 87.000
43.21169 88.000
43.23164 94.000
43.25159 90.000
43.27153 75.000
43.29148 81.000
43.31143 81.000
43.33137 95.000
43.35132 72.000
43.37127 75.000
43.39121 63.000
43.41116 99.000
43.43111 93.000
43.45105 74.000
43.47100 79.000
43.49095 76.000
43.51090 79.000
43.53084 68.000
43.55079 86.000
43.57074 66.000
43.59068 84.000
43.61063 55.000
43.63058 78.000
43.65052 74.000
43.67047 83.000
43.69042 69.000
43.71037 71.000
43.73031 73.000
43.75026 79.000
43.77021 83.000
43.79015 80.000
43.81010 80.000
43.83005 68.000
43.84999 83.000
43.86994 95.000
43.88989 89.000
43.90984 64.000
43.92978 68.000
43.94973 61.000
43.96968 78.000
43.98962 80.000
44.00957 94.000
44.02952 76.000
44.04946 69.000
44.06941 82.000
44.08936 74.000
44.10930 72.000
44.12925 80.000
44.14920 86.000
44.16915 75.000
44.18909 65.000
44.20904 68.000
44.22899 72.000
44.24893 95.000
44.26888 84.000
44.28883 73.000
44.30877 84.000
44.32872 74.000
44.34867 81.000
44.36862 79.000
44.38856 86.000
44.40851 65.000
44.42846 87.000
44.44840 79.000
44.46835 93.000
44.48830 72.000
44.50824 85.000
44.52819 80.000
44.54814 97.000
44.56808 75.000
44.58803 96.000
44.60798 111.000
44.62793 123.000
44.64787 136.000
44.66782 162.000
44.68777 160.000
44.70771 160.000
44.72766 138.000
44.74761 124.000
44.76755 114.000
44.78750 124.000
44.80745 135.000
44.82740 103.000
44.84734 94.000
44.86729 80.000
44.88724 88.000
44.90718 80.000
44.92713 99.000
44.94708 78.000
44.96702 79.000
44.98697 72.000
45.00692 85.000
45.02686 78.000
45.04681 77.000
45.06676 80.000
45.08671 87.000
45.10665 86.000
45.12660 75.000
45.14655 81.000
45.16649 83.000
45.18644 85.000
45.20639 81.000
45.22633 75.000
45.24628 78.000
45.26623 63.000
45.28618 67.000
45.30612 77.000
45.32607 70.000
45.34602 68.000
45.36596 74.000
45.38591 68.000
45.40586 72.000
45.42580 69.000
45.44575 89.000
45.46570 80.000
45.48565 80.000
45.50559 80.000
45.52554 76.000
45.54549 70.000
45.56543 83.000
45.58538 71.000
45.60533 60.000
45.62527 77.000
45.64522 72.000
45.66517 81.000
45.68511 76.000
45.70506 64.000
45.72501 77.000
45.74496 75.000
45.76490 84.000
45.78485 74.000
45.80480 88.000
45.82474 63.000
45.84469 71.000
45.86464 83.000
45.88458 74.000
45.90453 62.000
45.92448 72.000
45.94443 68.000
45.96437 77.000
45.98432 79.000
46.00427 79.000
46.02421 74.000
46.04416 88.000
46.06411 71.000
46.08405 67.000
46.10400 69.000
46.12395 74.000
46.14389 83.000
46.16384 75.000
46.18379 68.000
46.20374 86.000
46.22368 74.000
46.24363 76.000
46.26358 71.000
46.28352 85.000
46.30347 87.000
46.32342 76.000
46.34336 70.000
46.36331 85.000
46.38326 88.000
46.40321 76.000
46.42315 73.000
46.44310 68.000
46.46305 84.000
46.48299 81.000
46.50294 68.000
46.52289 101.000
46.54283 70.000
46.56278 102.000
46.58273 92.000
46.60267 92.000
46.62262 76.000
46.64257 85.000
46.66252 87.000
46.68246 89.000
46.70241 76.000
46.72236 84.000
46.74230 76.000
46.76225 79.000
46.78220 78.000
46.80214 65.000
46.82209 80.000
46.84204 70.000
46.86199 80.000
46.88193 60.000
46.90188 77.000
46.92183 82.000
46.94177 85.000
46.96172 85.000
46.98167 77.000
47.00161 66.000
47.02156 81.000
47.04151 76.000
47.06146 71.000
47.08140 74.000
47.10135 86.000
47.12130 90.000
47.14124 79.000
47.16119 64.000
47.18114 80.000
47.20108 83.000
47.22103 70.000
47.24098 76.000
47.26092 63.000
47.28087 63.000
47.30082 86.000
47.32077 61.000
47.34071 82.000
47.36066 72.000
47.38061 78.000
47.40055 87.000
47.42050 65.000
47.44045 81.000
47.46039 89.000
47.48034 78.000
47.50029 67.000
47.52024 73.000
47.54018 87.000
47.56013 80.000
47.58008 71.000
47.60002 90.000
47.61997 99.000
47.63992 82.000
47.65986 78.000
47.67981 76.000
47.69976 66.000
47.71970 71.000
47.73965 78.000
47.75960 83.000
47.77955 77.000
47.79949 80.000
47.81944 87.000
47.83939 77.000
47.85933 77.000
47.87928 80.000
47.89923 87.000
47.91917 84.000
47.93912 90.000
47.95907 71.000
47.97902 87.000
47.99896 83.000
48.01891 88.000
48.03886 80.000
48.05880 82.000
48.07875 92.000
48.09870 97.000
48.11864 74.000
48.13859 70.000
48.15854 73.000
48.17848 79.000
48.19843 96.000
48.21838 92.000
48.23833 73.000
48.25827 83.000
48.27822 88.000
48.29817 104.000
48.31811 66.000
48.33806 91.000
48.35801 92.000
48.37795 82.000
48.39790 89.000
48.41785 91.000
48.43780 94.000
48.45774 84.000
48.47769 99.000
48.49764 85.000
48.51758 103.000
48.53753 82.000
48.55748 80.000
48.57742 99.000
48.59737 99.000
48.61732 112.000
48.63726 86.000
48.65721 126.000
48.67716 143.000
48.69711 111.000
48.71705 119.000
48.73700 110.000
48.75695 104.000
48.77689 123.000
48.79684 102.000
48.81679 84.000
48.83673 89.000
48.85668 75.000
48.87663 93.000
48.89658 76.000
48.91652 83.000
48.93647 95.000
48.95642 104.000
48.97636 78.000
48.99631 91.000
49.01626 74.000
49.03620 83.000
49.05615 75.000
49.07610 95.000
49.09605 83.000
49.11599 79.000
49.13594 75.000
49.15589 89.000
49.17583 70.000
49.19578 80.000
49.21573 91.000
49.23567 89.000
49.25562 86.000
49.27557 95.000
49.29551 91.000
49.31546 87.000
49.33541 88.000
49.35536 67.000
49.37530 79.000
49.39525 75.000
49.41520 91.000
49.43514 77.000
49.45509 92.000
49.47504 90.000
49.49498 79.000
49.51493 81.000
49.53488 78.000
49.55483 75.000
49.57477 75.000
49.59472 67.000
49.61467 73.000
49.63461 69.000
49.65456 86.000
49.67451 78.000
49.69445 75.000
49.71440 77.000
49.73435 76.000
49.75429 59.000
49.77424 62.000
49.79419 61.000
49.81414 68.000
49.83408 78.000
49.85403 64.000
49.87398 95.000
49.89392 71.000
49.91387 78.000
49.93382 65.000
49.95376 64.000
49.97371 73.000
49.99366 75.000
50.01361 75.000
50.03355 86.000
50.05350 80.000
50.07345 83.000
50.09339 75.000
50.11334 64.000
50.13329 71.000
50.15323 87.000
50.17318 77.000
50.19313 85.000
50.21307 69.000
50.23302 61.000
50.25297 73.000
50.27292 107.000
50.29286 80.000
50.31281 80.000
50.33276 68.000
50.35270 70.000
50.37265 80.000
50.39260 75.000
50.41254 68.000
50.43249 86.000
50.45244 74.000
50.47239 74.000
50.49233 73.000
50.51228 80.000
50.53223 74.000
50.55217 71.000
50.57212 76.000
50.59207 96.000
50.61201 78.000
50.63196 77.000
50.65191 81.000
50.67186 79.000
50.69180 65.000
50.71175 71.000
50.73170 81.000
50.75164 89.000
50.77159 73.000
50.79154 64.000
50.81148 63.000
50.83143 74.000
50.85138 80.000
50.87132 78.000
50.89127 92.000
50.91122 72.000
50.93117 81.000
50.95111 66.000
50.97106 76.000
50.99101 67.000
51.01095 71.000
51.03090 65.000
51.05085 76.000
51.07079 75.000
51.09074 75.000
51.11069 82.000
51.13064 74.000
51.15058 78.000
51.17053 77.000
51.19048 80.000
51.21042 81.000
51.23037 57.000
51.25032 76.000
51.27026 90.000
51.29021 78.000
51.31016 83.000
51.33010 63.000
51.35005 59.000
51.37000 79.000
51.38995 61.000
51.40989 61.000
51.42984 60.000
51.44979 75.000
51.46973 78.000
51.48968 75.000
51.50963 66.000
51.52957 78.000
51.54952 72.000
51.56947 74.000
51.58942 76.000
51.60936 73.000
51.62931 76.000
51.64926 84.000
51.66920 74.000
51.68915 70.000
51.70910 74.000
51.72904 84.000
51.74899 62.000
51.76894 67.000
51.78888 73.000
51.80883 84.000
51.82878 87.000
51.84873 75.000
51.86867 80.000
51.88862 89.000
51.90857 82.000
51.92851 70.000
51.94846 80.000
51.96841 88.000
51.98835 92.000
52.00830 62.000
52.02825 75.000
52.04820 91.000
52.06814 101.000
52.08809 89.000
52.10804 84.000
52.12798 90.000
52.14793 92.000
52.16788 76.000
52.18782 83.000
52.20777 90.000
52.22772 72.000
52.24767 87.000
52.26761 63.000
52.28756 80.000
52.30751 81.000
52.32745 80.000
52.34740 79.000
52.36735 86.000
52.38729 78.000
52.40724 81.000
52.42719 82.000
52.44713 99.000
52.46708 88.000
52.48703 82.000
52.50698 78.000
52.52692 84.000
52.54687 86.000
52.56682 85.000
52.58676 92.000
52.60671 85.000
52.62666 76.000
52.64660 95.000
52.66655 84.000
52.68650 87.000
52.70645 117.000
52.72639 124.000
52.74634 135.000
52.76629 149.000
52.78623 153.000
52.80618 145.000
52.82613 191.000
52.84607 213.000
52.86602 251.000
52.88597 260.000
52.90591 306.000
52.92586 318.000
52.94581 333.000
52.96576 311.000
52.98570 315.000
53.00565 338.000
53.02560 303.000
53.04554 285.000
53.06549 267.000
53.08544 229.000
53.10538 229.000
53.12533 180.000
53.14528 191.000
53.16523 164.000
53.18517 155.000
53.20512 115.000
53.22507 118.000
53.24501 106.000
53.26496 92.000
53.28491 92.000
53.30485 69.000
53.32480 99.000
53.34475 88.000
53.36469 83.000
53.38464 86.000
53.40459 88.000
53.42454 91.000
53.44448 82.000
53.46443 97.000
53.48438 81.000
53.50432 92.000
53.52427 75.000
53.54422 83.000
53.56416 80.000
53.58411 95.000
53.60406 76.000
53.62401 73.000
53.64395 90.000
53.66390 66.000
53.68385 99.000
53.70379 64.000
53.72374 68.000
53.74369 82.000
53.76363 86.000
53.78358 77.000
53.80353 68.000
53.82348 77.000
53.84342 86.000
53.86337 66.000
53.88332 88.000
53.90326 71.000
53.92321 99.000
53.94316 81.000
53.96310 54.000
53.98305 64.000
54.00300 84.000
54.02294 74.000
54.04289 70.000
54.06284 79.000
54.08279 84.000
54.10273 89.000
54.12268 72.000
54.14263 81.000
54.16257 67.000
54.18252 89.000
54.20247 78.000
54.22241 64.000
54.24236 78.000
54.26231 87.000
54.28226 83.000
54.30220 67.000
54.32215 73.000
54.34210 67.000
54.36204 89.000
54.38199 93.000
54.40194 75.000
54.42188 70.000
54.44183 69.000
54.46178 75.000
54.48172 69.000
54.50167 74.000
54.52162 73.000
54.54157 87.000
54.56151 59.000
54.58146 72.000
54.60141 70.000
54.62135 76.000
54.64130 76.000
54.66125 76.000
54.68119 86.000
54.70114 83.000
54.72109 77.000
54.74104 89.000
54.76098 73.000
54.78093 75.000
54.80088 87.000
54.82082 63.000
54.84077 72.000
54.86072 89.000
54.88066 84.000
54.90061 93.000
54.92056 72.000
54.94050 83.000
54.96045 95.000
54.98040 73.000
55.00035 89.000
55.02029 72.000
55.04024 106.000
55.06019 82.000
55.08013 89.000
55.10008 67.000
55.12003 72.000
55.13997 64.000
55.15992 70.000
55.17987 103.000
55.19982 85.000
55.21976 78.000
55.23971 78.000
55.25966 72.000
55.27960 71.000
55.29955 63.000
55.31950 91.000
55.33944 72.000
55.35939 87.000
55.37934 60.000
55.39929 78.000
55.41923 71.000
55.43918 85.000
55.45913 88.000
55.47907 92.000
55.49902 75.000
55.51897 80.000
55.53891 84.000
55.55886 75.000
55.57881 80.000
55.59875 66.000
55.61870 78.000
55.63865 81.000
55.65860 77.000
55.67854 82.000
55.69849 78.000
55.71844 74.000
55.73838 64.000
55.75833 75.000
55.77828 79.000
55.79822 86.000
55.81817 80.000
55.83812 79.000
55.85807 88.000
55.87801 77.000
55.89796 75.000
55.91791 81.000
55.93785 65.000
55.95780 75.000
55.97775 72.000
55.99769 85.000
56.01764 87.000
56.03759 85.000
56.05753 94.000
56.07748 92.000
56.09743 65.000
56.11738 89.000
56.13732 90.000
56.15727 91.000
56.17722 94.000
56.19716 101.000
56.21711 129.000
56.23706 142.000
56.25700 147.000
56.27695 159.000
56.29690 149.000
56.31685 159.000
56.33679 162.000
56.35674 142.000
56.37669 145.000
56.39663 144.000
56.41658 156.000
56.43653 143.000
56.45647 157.000
56.47642 130.000
56.49637 115.000
56.51631 108.000
56.53626 113.000
56.55621 118.000
56.57616 102.000
56.59610 82.000
56.61605 94.000
56.63600 97.000
56.65594 80.000
56.67589 83.000
56.69584 93.000
56.71578 90.000
56.73573 92.000
56.75568 85.000
56.77563 97.000
56.79557 99.000
56.81552 87.000
56.83547 85.000
56.85541 83.000
56.87536 73.000
56.89531 73.000
56.91525 81.000
56.93520 78.000
56.95515 73.000
56.97510 89.000
56.99504 74.000
57.01499 71.000
57.03494 80.000
57.05488 81.000
57.07483 94.000
57.09478 90.000
57.11472 96.000
57.13467 96.000
57.15462 98.000
57.17456 89.000
57.19451 94.000
57.21446 95.000
57.23441 89.000
57.25435 96.000
57.27430 83.000
57.29425 123.000
57.31419 108.000
57.33414 110.000
57.35409 118.000
57.37403 131.000
57.39398 111.000
57.41393 127.000
57.43388 131.000
57.45382 160.000
57.47377 166.000
57.49372 181.000
57.51366 198.000
57.53361 255.000
57.55356 263.000
57.57350 312.000
57.59345 358.000
57.61340 422.000
57.63334 468.000
57.65329 467.000
57.67324 418.000
57.69319 436.000
57.71313 403.000
57.73308 428.000
57.75303 491.000
57.77297 516.000
57.79292 479.000
57.81287 427.000
57.83281 358.000
57.85276 299.000
57.87271 294.000
57.89266 264.000
57.91260 254.000
57.93255 257.000
57.95250 226.000
57.97244 173.000
57.99239 161.000
58.01234 116.000
58.03228 114.000
58.05223 98.000
58.07218 101.000
58.09212 94.000
58.11207 96.000
58.13202 112.000
58.15197 96.000
58.17191 107.000
58.19186 82.000
58.21181 106.000
58.23175 93.000
58.25170 113.000
58.27165 106.000
58.29159 89.000
58.31154 94.000
58.33149 116.000
58.35144 78.000
58.37138 97.000
58.39133 100.000
58.41128 106.000
58.43122 93.000
58.45117 99.000
58.47112 108.000
58.49106 85.000
58.51101 71.000
58.53096 80.000
58.55090 82.000
58.57085 84.000
58.59080 83.000
58.61075 85.000
58.63069 95.000
58.65064 79.000
58.67059 85.000
58.69053 80.000
58.71048 74.000
58.73043 67.000
58.75037 90.000
58.77032 82.000
58.79027 77.000
58.81022 64.000
58.83016 84.000
58.85011 59.000
58.87006 84.000
58.89000 82.000
58.90995 88.000
58.92990 81.000
58.94984 82.000
58.96979 91.000
58.98974 78.000
59.00969 83.000
59.02963 76.000
59.04958 67.000
59.06953 68.000
59.08947 85.000
59.10942 79.000
59.12937 75.000
59.14931 92.000
59.16926 82.000
59.18921 57.000
59.20915 72.000
59.22910 77.000
59.24905 82.000
59.26900 76.000
59.28894 89.000
59.30889 84.000
59.32884 65.000
59.34878 77.000
59.36873 88.000
59.38868 80.000
59.40862 67.000
59.42857 80.000
59.44852 83.000
59.46847 73.000
59.48841 88.000
59.50836 82.000
59.52831 71.000
59.54825 86.000
59.56820 68.000
59.58815 82.000
59.60809 79.000
59.62804 95.000
59.64799 65.000
59.66793 65.000
59.68788 80.000
59.70783 66.000
59.72778 91.000
59.74772 70.000
59.76767 73.000
59.78762 88.000
59.80756 79.000
59.82751 77.000
59.84746 81.000
59.86740 83.000
59.88735 82.000
59.90730 75.000
59.92725 90.000
59.94719 88.000
59.96714 98.000
59.98709 94.000
60.00703 87.000
60.02698 74.000
60.04693 89.000
60.06687 99.000
60.08682 86.000
60.10677 84.000
60.12671 96.000
60.14666 79.000
60.16661 76.000
60.18656 78.000
60.20650 84.000
60.22645 87.000
60.24640 74.000
60.26634 82.000
60.28629 73.000
60.30624 81.000
60.32618 85.000
60.34613 82.000
60.36608 80.000
60.38603 75.000
60.40597 69.000
60.42592 76.000
60.44587 85.000
60.46581 97.000
60.48576 92.000
60.50571 79.000
60.52565 83.000
60.54560 73.000
60.56555 87.000
60.58550 88.000
60.60544 92.000
60.62539 87.000
60.64534 75.000
60.66528 83.000
60.68523 77.000
60.70518 83.000
60.72512 81.000
60.74507 89.000
60.76502 96.000
60.78496 77.000
60.80491 90.000
60.82486 98.000
60.84481 103.000
60.86475 83.000
60.88470 90.000
60.90465 99.000
60.92459 77.000
60.94454 70.000
60.96449 87.000
60.98443 67.000
61.00438 111.000
61.02433 87.000
61.04428 92.000
61.06422 80.000
61.08417 94.000
61.10412 92.000
61.12406 100.000
61.14401 97.000
61.16396 94.000
61.18390 83.000
61.20385 101.000
61.22380 87.000
61.24374 105.000
61.26369 103.000
61.28364 120.000
61.30359 99.000
61.32353 104.000
61.34348 117.000
61.36343 124.000
61.38337 114.000
61.40332 119.000
61.42327 131.000
61.44321 134.000
61.46316 126.000
61.48311 154.000
61.50306 173.000
61.52300 163.000
61.54295 174.000
61.56290 160.000
61.58284 186.000
61.60279 204.000
61.62274 227.000
61.64268 260.000
61.66263 253.000
61.68258 285.000
61.70252 316.000
61.72247 314.000
61.74242 318.000
61.76237 383.000
61.78231 442.000
61.80226 432.000
61.82221 393.000
61.84215 451.000
61.86210 412.000
61.88205 408.000
61.90199 388.000
61.92194 402.000
61.94189 397.000
61.96184 406.000
61.98178 362.000
62.00173 375.000
62.02168 356.000
62.04162 310.000
62.06157 294.000
62.08152 290.000
62.10146 266.000
62.12141 233.000
62.14136 245.000
62.16131 217.000
62.18125 219.000
62.20120 210.000
62.22115 174.000
62.24109 203.000
62.26104 171.000
62.28099 154.000
62.30093 149.000
62.32088 153.000
62.34083 145.000
62.36077 132.000
62.38072 153.000
62.40067 116.000
62.42062 139.000
62.44056 133.000
62.46051 118.000
62.48046 116.000
62.50040 126.000
62.52035 136.000
62.54030 120.000
62.56024 114.000
62.58019 116.000
62.60014 117.000
62.62009 103.000
62.64003 95.000
62.65998 111.000
62.67993 95.000
62.69987 121.000
62.71982 103.000
62.73977 93.000
62.75971 90.000
62.77966 90.000
62.79961 83.000
62.81955 88.000
62.83950 77.000
62.85945 93.000
62.87940 96.000
62.89934 74.000
62.91929 99.000
62.93924 84.000
62.95918 86.000
62.97913 84.000
62.99908 88.000
63.01902 66.000
63.03897 82.000
63.05892 87.000
63.07887 83.000
63.09881 78.000
63.11876 81.000
63.13871 96.000
63.15865 77.000
63.17860 96.000
63.19855 90.000
63.21849 82.000
63.23844 84.000
63.25839 77.000
63.27833 83.000
63.29828 72.000
63.31823 63.000
63.33818 77.000
63.35812 78.000
63.37807 68.000
63.39802 88.000
63.41796 61.000
63.43791 102.000
63.45786 86.000
63.47780 63.000
63.49775 75.000
63.51770 92.000
63.53765 96.000
63.55759 79.000
63.57754 62.000
63.59749 93.000
63.61743 82.000
63.63738 85.000
63.65733 76.000
63.67727 66.000
63.69722 88.000
63.71717 82.000
63.73712 67.000
63.75706 74.000
63.77701 91.000
63.79696 98.000
63.81690 85.000
63.83685 95.000
63.85680 64.000
63.87674 62.000
63.89669 90.000
63.91664 83.000
63.93658 85.000
63.95653 89.000
63.97648 71.000
63.99643 80.000
64.01637 84.000
64.03632 89.000
64.05627 101.000
64.07621 82.000
64.09616 77.000
64.11611 93.000
64.13605 86.000
64.15600 91.000
64.17595 69.000
64.19590 91.000
64.21584 108.000
64.23579 124.000
64.25574 123.000
64.27568 143.000
64.29563 134.000
64.31558 124.000
64.33552 146.000
64.35547 140.000
64.37542 131.000
64.39536 154.000
64.41531 160.000
64.43526 151.000
64.45521 165.000
64.47515 176.000
64.49510 160.000
64.51505 186.000
64.53499 173.000
64.55494 172.000
64.57489 153.000
64.59483 166.000
64.61478 145.000
64.63473 161.000
64.65468 133.000
64.67462 132.000
64.69457 114.000
64.71452 138.000
64.73446 123.000
64.75441 123.000
64.77436 98.000
64.79430 126.000
64.81425 95.000
64.83420 131.000
64.85414 106.000
64.87409 110.000
64.89404 102.000
64.91399 93.000
64.93393 98.000
64.95388 107.000
64.97383 109.000
64.99377 91.000
65.01372 125.000
65.03367 109.000
65.05361 103.000
65.07356 83.000
65.09351 96.000
65.11346 86.000
65.13340 88.000
65.15335 100.000
65.17330 103.000
65.19324 103.000
65.21319 93.000
65.23314 81.000
65.25308 93.000
65.27303 89.000
65.29298 76.000
65.31293 100.000
65.33287 83.000
65.35282 88.000
65.37277 95.000
65.39271 96.000
65.41266 103.000
65.43261 92.000
65.45255 91.000
65.47250 83.000
65.49245 82.000
65.51239 94.000
65.53234 98.000
65.55229 84.000
65.57224 98.000
65.59218 84.000
65.61213 100.000
65.63208 91.000
65.65202 88.000
65.67197 82.000
65.69192 99.000
65.71186 102.000
65.73181 90.000
65.75176 105.000
65.77171 121.000
65.79165 105.000
65.81160 101.000
65.83155 104.000
65.85149 96.000
65.87144 102.000
65.89139 86.000
65.91133 83.000
65.93128 97.000
65.95123 86.000
65.97117 108.000
65.99112 111.000
66.01107 96.000
66.03102 106.000
66.05096 114.000
66.07091 101.000
66.09086 85.000
66.11080 84.000
66.13075 115.000
66.15070 115.000
66.17064 126.000
66.19059 117.000
66.21054 111.000
66.23049 109.000
66.25043 95.000
66.27038 98.000
66.29033 81.000
66.31027 101.000
66.33022 94.000
66.35017 93.000
66.37011 97.000
66.39006 94.000
66.41001 90.000
66.42995 81.000
66.44990 87.000
66.46985 73.000
66.48980 83.000
66.50974 79.000
66.52969 71.000
66.54964 84.000
66.56958 97.000
66.58953 76.000
66.60948 62.000
66.62942 87.000
66.64937 69.000
66.66932 78.000
66.68927 87.000
66.70921 82.000
66.72916 75.000
66.74911 75.000
66.76905 85.000
66.78900 73.000
66.80895 73.000
66.82889 66.000
66.84884 72.000
66.86879 82.000
66.88874 66.000
66.90868 79.000
66.92863 76.000
66.94858 63.000
66.96852 92.000
66.98847 82.000
67.00842 64.000
67.02836 65.000
67.04831 79.000
67.06826 72.000
67.08820 80.000
67.10815 76.000
67.12810 85.000
67.14805 70.000
67.16799 79.000
67.18794 91.000
67.20789 71.000
67.22783 65.000
67.24778 78.000
67.26773 84.000
67.28767 84.000
67.30762 76.000
67.32757 71.000
67.34752 72.000
67.36746 75.000
67.38741 71.000
67.40736 88.000
67.42730 75.000
67.44725 93.000
67.46720 86.000
67.48714 76.000
67.50709 88.000
67.52704 84.000
67.54698 91.000
67.56693 80.000
67.58688 88.000
67.60683 102.000
67.62677 69.000
67.64672 86.000
67.66667 86.000
67.68661 88.000
67.70656 85.000
67.72651 71.000
67.74645 77.000
67.76640 87.000
67.78635 89.000
67.80630 73.000
67.82624 107.000
67.84619 99.000
67.86614 122.000
67.88608 104.000
67.90603 91.000
67.92598 107.000
67.94592 126.000
67.96587 110.000
67.98582 129.000
68.00576 124.000
68.02571 138.000
68.04566 137.000
68.06561 156.000
68.08555 166.000
68.10550 164.000
68.12545 158.000
68.14539 174.000
68.16534 163.000
68.18529 136.000
68.20523 132.000
68.22518 133.000
68.24513 151.000
68.26508 149.000
68.28502 169.000
68.30497 160.000
68.32492 163.000
68.34486 177.000
68.36481 138.000
68.38476 141.000
68.40470 126.000
68.42465 125.000
68.44460 108.000
68.46455 100.000
68.48449 108.000
68.50444 113.000
68.52439 115.000
68.54433 116.000
68.56428 91.000
68.58423 95.000
68.60417 88.000
68.62412 102.000
68.64407 76.000
68.66401 87.000
68.68396 65.000
68.70391 73.000
68.72386 70.000
68.74380 82.000
68.76375 61.000
68.78370 77.000
68.80364 74.000
68.82359 74.000
68.84354 89.000
68.86348 74.000
68.88343 68.000
68.90338 71.000
68.92333 65.000
68.94327 79.000
68.96322 71.000
68.98317 90.000
69.00311 80.000
69.02306 77.000
69.04301 75.000
69.06295 84.000
69.08290 71.000
69.10285 64.000
69.12279 81.000
69.14274 72.000
69.16269 77.000
69.18264 96.000
69.20258 79.000
69.22253 96.000
69.24248 79.000
69.26242 86.000
69.28237 94.000
69.30232 85.000
69.32226 101.000
69.34221 101.000
69.36216 74.000
69.38211 95.000
69.40205 84.000
69.42200 95.000
69.44195 70.000
69.46189 71.000
69.48184 88.000
69.50179 96.000
69.52173 95.000
69.54168 81.000
69.56163 97.000
69.58157 100.000
69.60152 109.000
69.62147 89.000
69.64142 79.000
69.66136 86.000
69.68131 96.000
69.70126 91.000
69.72120 87.000
69.74115 90.000
69.76110 92.000
69.78104 74.000
69.80099 82.000
69.82094 102.000
69.84089 88.000
69.86083 81.000
69.88078 80.000
69.90073 106.000
69.92067 89.000
69.94062 81.000
69.96057 90.000
69.98051 92.000
70.00046 83.000
70.02041 85.000
70.04035 65.000
70.06030 83.000
70.08025 91.000
70.10020 82.000
70.12014 78.000
70.14009 95.000
70.16004 85.000
70.17998 64.000
70.19993 64.000
70.21988 99.000
70.23982 79.000
70.25977 65.000
70.27972 72.000
70.29967 74.000
70.31961 76.000
70.33956 64.000
70.35951 67.000
70.37945 80.000
70.39940 85.000
70.41935 54.000
70.43929 68.000
70.45924 70.000
70.47919 66.000
70.49914 63.000
70.51908 60.000
70.53903 75.000
70.55898 68.000
70.57892 68.000
70.59887 82.000
70.61882 61.000
70.63876 78.000
70.65871 63.000
70.67866 61.000
70.69860 70.000
70.71855 72.000
70.73850 67.000
70.75845 66.000
70.77839 67.000
70.79834 69.000
70.81829 59.000
70.83823 87.000
70.85818 78.000
70.87813 55.000
70.89807 83.000
70.91802 58.000
70.93797 70.000
70.95792 48.000
70.97786 56.000
70.99781 62.000
71.01776 62.000
71.03770 69.000
71.05765 50.000
71.07760 61.000
71.09754 63.000
71.11749 67.000
71.13744 65.000
71.15738 71.000
71.17733 84.000
71.19728 82.000
71.21723 65.000
71.23717 50.000
71.25712 62.000
71.27707 60.000
71.29701 73.000
71.31696 93.000
71.33691 62.000
71.35685 70.000
71.37680 63.000
71.39675 85.000
71.41670 71.000
71.43664 75.000
71.45659 82.000
71.47654 86.000
71.49648 69.000
71.51643 86.000
71.53638 76.000
71.55632 78.000
71.57627 75.000
71.59622 69.000
71.61616 78.000
71.63611 85.000
71.65606 84.000
71.67601 71.000
71.69595 85.000
71.71590 77.000
71.73585 82.000
71.75579 94.000
71.77574 102.000
71.79569 105.000
71.81563 88.000
71.83558 90.000
71.85553 118.000
71.87548 129.000
71.89542 127.000
71.91537 154.000
71.93532 171.000
71.95526 161.000
71.97521 169.000
71.99516 168.000
72.01510 166.000
72.03505 172.000
72.05500 156.000
72.07495 176.000
72.09489 164.000
72.11484 194.000
72.13479 178.000
72.15473 148.000
72.17468 179.000
72.19463 165.000
72.21457 174.000
72.23452 161.000
72.25447 151.000
72.27441 132.000
72.29436 136.000
72.31431 123.000
72.33426 121.000
72.35420 114.000
72.37415 122.000
72.39410 113.000
72.41404 96.000
72.43399 122.000
72.45394 93.000
72.47388 102.000
72.49383 69.000
72.51378 107.000
72.53373 82.000
72.55367 88.000
72.57362 83.000
72.59357 84.000
72.61351 93.000
72.63346 72.000
72.65341 84.000
72.67335 82.000
72.69330 78.000
72.71325 76.000
72.73319 82.000
72.75314 89.000
72.77309 82.000
72.79304 71.000
72.81298 84.000
72.83293 76.000
72.85288 86.000
72.87282 95.000
72.89277 95.000
72.91272 80.000
72.93266 82.000
72.95261 77.000
72.97256 97.000
72.99251 93.000
73.01245 75.000
73.03240 102.000
73.05235 99.000
73.07229 107.000
73.09224 107.000
73.11219 101.000
73.13213 91.000
73.15208 105.000
73.17203 109.000
73.19197 103.000
73.21192 104.000
73.23187 109.000
73.25182 115.000
73.27176 116.000
73.29171 89.000
73.31166 122.000
73.33160 105.000
73.35155 103.000
73.37150 103.000
73.39144 97.000
73.41139 92.000
73.43134 96.000
73.45129 88.000
73.47123 87.000
73.49118 90.000
73.51113 110.000
73.53107 82.000
73.55102 118.000
73.57097 102.000
73.59091 87.000
73.61086 108.000
73.63081 100.000
73.65076 101.000
73.67070 128.000
73.69065 123.000
73.71060 130.000
73.73054 125.000
73.75049 121.000
73.77044 129.000
73.79038 126.000
73.81033 130.000
73.83028 136.000
73.85022 118.000
73.87017 143.000
73.89012 134.000
73.91007 145.000
73.93001 145.000
73.94996 140.000
73.96991 159.000
73.98985 119.000
74.00980 133.000
74.02975 139.000
74.04969 148.000
74.06964 139.000
74.08959 174.000
74.10954 137.000
74.12948 161.000
74.14943 129.000
74.16938 119.000
74.18932 137.000
74.20927 128.000
74.22922 106.000
74.24916 130.000
74.26911 102.000
74.28906 101.000
74.30900 109.000
74.32895 112.000
74.34890 108.000
74.36885 98.000
74.38879 100.000
74.40874 99.000
74.42869 91.000
74.44863 99.000
74.46858 74.000
74.48853 88.000
74.50847 99.000
74.52842 71.000
74.54837 94.000
74.56832 89.000
74.58826 84.000
74.60821 93.000
74.62816 77.000
74.64810 74.000
74.66805 74.000
74.68800 68.000
74.70794 76.000
74.72789 72.000
74.74784 74.000
74.76778 84.000
74.78773 86.000
74.80768 71.000
74.82763 64.000
74.84757 89.000
74.86752 74.000
74.88747 82.000
74.90741 75.000
74.92736 90.000
74.94731 84.000
74.96725 68.000
74.98720 87.000
75.00715 74.000
75.02710 89.000
75.04704 80.000
75.06699 82.000
75.08694 88.000
75.10688 68.000
75.12683 76.000
75.14678 75.000
75.16672 85.000
75.18667 79.000
75.20662 82.000
75.22657 65.000
75.24651 77.000
75.26646 80.000
75.28641 73.000
75.30635 68.000
75.32630 64.000
75.34625 75.000
75.36619 75.000
75.38614 65.000
75.40609 76.000
75.42603 88.000
75.44598 82.000
75.46593 61.000
75.48588 81.000
75.50582 74.000
75.52577 68.000
75.54572 66.000
75.56566 71.000
75.58561 52.000
75.60556 83.000
75.62550 67.000
75.64545 74.000
75.66540 78.000
75.68535 84.000
75.70529 69.000
75.72524 54.000
75.74519 76.000
75.76513 78.000
75.78508 62.000
75.80503 65.000
75.82497 73.000
75.84492 78.000
75.86487 63.000
75.88481 59.000
75.90476 59.000
75.92471 63.000
75.94466 71.000
75.96460 74.000
75.98455 57.000
76.00450 48.000
76.02444 80.000
76.04439 60.000
76.06434 56.000
76.08428 57.000
76.10423 65.000
76.12418 78.000
76.14413 73.000
76.16407 88.000
76.18402 78.000
76.20397 75.000
76.22391 57.000
76.24386 72.000
76.26381 60.000
76.28375 66.000
76.30370 62.000
76.32365 69.000
76.34359 66.000
76.36354 71.000
76.38349 73.000
76.40344 79.000
76.42338 71.000
76.44333 64.000
76.46328 68.000
76.48322 83.000
76.50317 63.000
76.52312 76.000
76.54306 68.000
76.56301 64.000
76.58296 85.000
76.60291 71.000
76.62285 77.000
76.64280 76.000
76.66275 101.000
76.68269 83.000
76.70264 70.000
76.72259 67.000
76.74253 83.000
76.76248 91.000
76.78243 76.000
76.80238 98.000
76.82232 93.000
76.84227 106.000
76.86222 114.000
76.88216 121.000
76.90211 119.000
76.92206 130.000
76.94200 116.000
76.96195 130.000
76.98190 156.000
77.00184 142.000
77.02179 140.000
77.04174 150.000
77.06169 155.000
77.08163 169.000
77.10158 164.000
77.12153 142.000
77.14147 170.000
77.16142 173.000
77.18137 159.000
77.20131 145.000
77.22126 165.000
77.24121 163.000
77.26116 138.000
77.28110 144.000
77.30105 142.000
77.32100 135.000
77.34094 122.000
77.36089 141.000
77.38084 131.000
77.40078 133.000
77.42073 113.000
77.44068 138.000
77.46062 123.000
77.48057 98.000
77.50052 116.000
77.52047 101.000
77.54041 100.000
77.56036 120.000
77.58031 96.000
77.60025 97.000
77.62020 88.000
77.64015 98.000
77.66009 90.000
77.68004 97.000
77.69999 73.000
77.71994 88.000
77.73988 100.000
77.75983 73.000
77.77978 89.000
77.79972 94.000
77.81967 92.000
77.83962 71.000
77.85956 85.000
77.87951 87.000
77.89946 76.000
77.91940 93.000
77.93935 86.000
77.95930 73.000
77.97925 86.000
77.99919 92.000
78.01914 70.000
78.03909 78.000
78.05903 81.000
78.07898 76.000
78.09893 82.000
78.11887 77.000
78.13882 64.000
78.15877 87.000
78.17872 71.000
78.19866 74.000
78.21861 70.000
78.23856 83.000
78.25850 65.000
78.27845 73.000
78.29840 66.000
78.31834 80.000
78.33829 78.000
78.35824 67.000
78.37819 66.000
78.39813 79.000
78.41808 83.000
78.43803 66.000
78.45797 73.000
78.47792 72.000
78.49787 68.000
78.51781 69.000
78.53776 67.000
78.55771 82.000
78.57765 57.000
78.59760 56.000
78.61755 67.000
78.63750 68.000
78.65744 84.000
78.67739 65.000
78.69734 73.000
78.71728 76.000
78.73723 56.000
78.75718 61.000
78.77712 71.000
78.79707 64.000
78.81702 84.000
78.83697 57.000
78.85691 68.000
78.87686 72.000
78.89681 68.000
78.91675 61.000
78.93670 67.000
78.95665 56.000
78.97659 70.000
78.99654 70.000
79.01649 52.000
79.03643 86.000
79.05638 77.000
79.07633 72.000
79.09628 62.000
79.11622 82.000
79.13617 71.000
79.15612 78.000
79.17606 68.000
79.19601 71.000
79.21596 66.000
79.23590 75.000
79.25585 64.000
79.27580 56.000
79.29575 78.000
79.31569 76.000
79.33564 68.000
79.35559 88.000
79.37553 61.000
79.39548 78.000
79.41543 80.000
79.43537 63.000
79.45532 76.000
79.47527 53.000
79.49521 73.000
79.51516 70.000
79.53511 73.000
79.55506 62.000
79.57500 68.000
79.59495 76.000
79.61490 61.000
79.63484 74.000
79.65479 91.000
79.67474 71.000
79.69468 80.000
79.71463 74.000
79.73458 80.000
79.75453 74.000
79.77447 54.000
79.79442 69.000
79.81437 86.000
79.83431 68.000
79.85426 65.000
79.87421 66.000
79.89415 72.000
79.91410 75.000
79.93405 79.000
79.95399 62.000
79.97394 57.000
79.99389 53.000
80.01384 70.000
80.03378 59.000
80.05373 76.000
80.07368 73.000
80.09362 70.000
80.11357 83.000
80.13352 69.000
80.15346 67.000
80.17341 75.000
80.19336 79.000
80.21331 56.000
80.23325 51.000
80.25320 87.000
80.27315 81.000
80.29309 62.000
80.31304 73.000
80.33299 70.000
80.35293 65.000
80.37288 85.000
80.39283 69.000
80.41278 55.000
80.43272 90.000
80.45267 66.000
80.47262 66.000
80.49256 69.000
80.51251 84.000
80.53246 48.000
80.55240 62.000
80.57235 79.000
80.59230 73.000
80.61224 75.000
80.63219 75.000
80.65214 53.000
80.67209 57.000
80.69203 75.000
80.71198 77.000
80.73193 68.000
80.75187 65.000
80.77182 58.000
80.79177 69.000
80.81171 72.000
80.83166 67.000
80.85161 72.000
80.87156 66.000
80.89150 66.000
80.91145 51.000
80.93140 45.000
80.95134 70.000
80.97129 68.000
80.99124 71.000
81.01118 73.000
81.03113 75.000
81.05108 77.000
81.07102 57.000
81.09097 68.000
81.11092 63.000
81.13087 65.000
81.15081 58.000
81.17076 63.000
81.19071 60.000
81.21065 84.000
81.23060 65.000
81.25055 74.000
81.27049 72.000
81.29044 61.000
81.31039 56.000
81.33034 73.000
81.35028 71.000
81.37023 64.000
81.39018 77.000
81.41012 60.000
81.43007 72.000
81.45002 68.000
81.46996 67.000
81.48991 57.000
81.50986 57.000
81.52980 70.000
81.54975 67.000
81.56970 66.000
81.58965 67.000
81.60959 60.000
81.62954 63.000
81.64949 58.000
81.66943 59.000
81.68938 78.000
81.70933 82.000
81.72927 73.000
81.74922 67.000
81.76917 68.000
81.78912 60.000
81.80906 70.000
81.82901 63.000
81.84896 85.000
81.86890 54.000
81.88885 81.000
81.90880 71.000
81.92874 79.000
81.94869 68.000
81.96864 62.000
81.98859 72.000
82.00853 72.000
82.02848 55.000
82.04843 65.000
82.06837 56.000
82.08832 73.000
82.10827 64.000
82.12821 61.000
82.14816 69.000
82.16811 78.000
82.18805 74.000
82.20800 77.000
82.22795 67.000
82.24790 79.000
82.26784 75.000
82.28779 74.000
82.30774 61.000
82.32768 70.000
82.34763 70.000
82.36758 70.000
82.38752 84.000
82.40747 70.000
82.42742 76.000
82.44737 63.000
82.46731 62.000
82.48726 78.000
82.50721 74.000
82.52715 78.000
82.54710 70.000
82.56705 68.000
82.58699 59.000
82.60694 72.000
82.62689 79.000
82.64683 70.000
82.66678 58.000
82.68673 79.000
82.70668 57.000
82.72662 63.000
82.74657 63.000
82.76652 86.000
82.78646 80.000
82.80641 78.000
82.82636 79.000
82.84630 85.000
82.86625 66.000
82.88620 83.000
82.90615 71.000
82.92609 76.000
82.94604 73.000
82.96599 71.000
82.98593 82.000
83.00588 57.000
83.02583 62.000
83.04577 69.000
83.06572 65.000
83.08567 92.000
83.10561 58.000
83.12556 64.000
83.14551 82.000
83.16546 64.000
83.18540 68.000
83.20535 77.000
83.22530 65.000
83.24524 61.000
83.26519 75.000
83.28514 65.000
83.30508 64.000
83.32503 51.000
83.34498 59.000
83.36493 56.000
83.38487 79.000
83.40482 89.000
83.42477 78.000
83.44471 72.000
83.46466 60.000
83.48461 88.000
83.50455 60.000
83.52450 74.000
83.54445 66.000
83.56440 73.000
83.58434 70.000
83.60429 82.000
83.62424 71.000
83.64418 71.000
83.66413 79.000
83.68408 85.000
83.70402 70.000
83.72397 81.000
83.74392 72.000
83.76386 68.000
83.78381 69.000
83.80376 79.000
83.82371 82.000
83.84365 81.000
83.86360 72.000
83.88355 58.000
83.90349 77.000
83.92344 78.000
83.94339 84.000
83.96333 72.000
83.98328 68.000
84.00323 80.000
84.02318 69.000
84.04312 77.000
84.06307 78.000
84.08302 75.000
84.10296 73.000
84.12291 71.000
84.14286 86.000
84.16280 60.000
84.18275 81.000
84.20270 55.000
84.22264 75.000
84.24259 72.000
84.26254 69.000
84.28249 83.000
84.30243 74.000
84.32238 56.000
84.34233 65.000
84.36227 67.000
84.38222 72.000
84.40217 69.000
84.42211 77.000
84.44206 58.000
84.46201 67.000
84.48196 88.000
84.50190 78.000
84.52185 55.000
84.54180 60.000
84.56174 68.000
84.58169 68.000
84.60164 77.000
84.62158 59.000
84.64153 68.000
84.66148 78.000
84.68142 63.000
84.70137 77.000
84.72132 68.000
84.74127 54.000
84.76121 91.000
84.78116 62.000
84.80111 60.000
84.82105 74.000
84.84100 67.000
84.86095 68.000
84.88089 87.000
84.90084 68.000
84.92079 58.000
84.94074 77.000
84.96068 57.000
84.98063 77.000
85.00058 61.000
85.02052 77.000
85.04047 63.000
85.06042 87.000
85.08036 57.000
85.10031 65.000
85.12026 65.000
85.14021 71.000
85.16015 87.000
85.18010 69.000
85.20005 72.000
85.21999 61.000
85.23994 73.000
85.25989 84.000
85.27983 77.000
85.29978 69.000
85.31973 67.000
85.33967 66.000
85.35962 70.000
85.37957 74.000
85.39952 86.000
85.41946 63.000
85.43941 79.000
85.45936 65.000
85.47930 71.000
85.49925 69.000
85.51920 73.000
85.53914 74.000
85.55909 81.000
85.57904 76.000
85.59899 81.000
85.61893 78.000
85.63888 90.000
85.65883 108.000
85.67877 84.000
85.69872 92.000
85.71867 99.000
85.73861 101.000
85.75856 77.000
85.77851 90.000
85.79845 92.000
85.81840 76.000
85.83835 87.000
85.85830 84.000
85.87824 98.000
85.89819 94.000
85.91814 98.000
85.93808 106.000
85.95803 76.000
85.97798 99.000
85.99792 100.000
86.01787 81.000
86.03782 109.000
86.05777 80.000
86.07771 84.000
86.09766 90.000
86.11761 86.000
86.13755 75.000
86.15750 77.000
86.17745 91.000
86.19739 75.000
86.21734 85.000
86.23729 80.000
86.25723 83.000
86.27718 78.000
86.29713 64.000
86.31708 77.000
86.33702 74.000
86.35697 66.000
86.37692 73.000
86.39686 77.000
86.41681 72.000
86.43676 71.000
86.45670 76.000
86.47665 62.000
86.49660 71.000
86.51655 58.000
86.53649 81.000
86.55644 91.000
86.57639 78.000
86.59633 66.000
86.61628 63.000
86.63623 75.000
86.65617 78.000
86.67612 76.000
86.69607 76.000
86.71602 67.000
86.73596 64.000
86.75591 88.000
86.77586 65.000
86.79580 63.000
86.81575 63.000
86.83570 61.000
86.85564 72.000
86.87559 68.000
86.89554 68.000
86.91548 62.000
86.93543 71.000
86.95538 66.000
86.97533 74.000
86.99527 67.000
87.01522 66.000
87.03517 65.000
87.05511 70.000
87.07506 67.000
87.09501 79.000
87.11495 74.000
87.13490 73.000
87.15485 74.000
87.17480 76.000
87.19474 67.000
87.21469 77.000
87.23464 82.000
87.25458 69.000
87.27453 75.000
87.29448 64.000
87.31442 72.000
87.33437 45.000
87.35432 66.000
87.37426 56.000
87.39421 74.000
87.41416 79.000
87.43411 87.000
87.45405 56.000
87.47400 61.000
87.49395 75.000
87.51389 74.000
87.53384 69.000
87.55379 70.000
87.57373 68.000
87.59368 62.000
87.61363 77.000
87.63358 70.000
87.65352 77.000
87.67347 59.000
87.69342 71.000
87.71336 69.000
87.73331 64.000
87.75326 58.000
87.77320 69.000
87.79315 56.000
87.81310 64.000
87.83304 71.000
87.85299 62.000
87.87294 76.000
87.89289 64.000
87.91283 76.000
87.93278 62.000
87.95273 53.000
87.97267 47.000
87.99262 59.000
88.01257 55.000
88.03251 83.000
88.05246 73.000
88.07241 72.000
88.09236 76.000
88.11230 67.000
88.13225 51.000
88.15220 67.000
88.17214 58.000
88.19209 77.000
88.21204 70.000
88.23198 82.000
88.25193 67.000
88.27188 82.000
88.29183 67.000
88.31177 81.000
88.33172 77.000
88.35167 81.000
88.37161 78.000
88.39156 66.000
88.41151 90.000
88.43145 99.000
88.45140 81.000
88.47135 93.000
88.49129 98.000
88.51124 80.000
88.53119 92.000
88.55114 100.000
88.57108 78.000
88.59103 93.000
88.61098 71.000
88.63092 88.000
88.65087 91.000
88.67082 73.000
88.69076 75.000
88.71071 96.000
88.73066 74.000
88.75061 84.000
88.77055 82.000
88.79050 83.000
88.81045 86.000
88.83039 63.000
88.85034 81.000
88.87029 62.000
88.89023 74.000
88.91018 75.000
88.93013 86.000
88.95007 77.000
88.97002 67.000
88.98997 64.000
89.00992 91.000
89.02986 78.000
89.04981 82.000
89.06976 81.000
89.08970 73.000
89.10965 63.000
89.12960 70.000
89.14954 66.000
89.16949 81.000
89.18944 81.000
89.20939 66.000
89.22933 86.000
89.24928 78.000
89.26923 73.000
89.28917 69.000
89.30912 89.000
89.32907 74.000
89.34901 78.000
89.36896 79.000
89.38891 65.000
89.40885 84.000
89.42880 82.000
89.44875 76.000
89.46870 93.000
89.48864 88.000
89.50859 82.000
89.52854 85.000
89.54848 121.000
89.56843 114.000
89.58838 117.000
89.60832 133.000
89.62827 128.000
89.64822 127.000
89.66817 109.000
89.68811 145.000
89.70806 136.000
89.72801 137.000
89.74795 126.000
89.76790 117.000
89.78785 107.000
89.80779 116.000
89.82774 110.000
89.84769 103.000
89.86764 101.000
89.88758 102.000
89.90753 135.000
89.92748 94.000
89.94742 101.000
89.96737 109.000
89.98732 101.000
90.00726 104.000
