10.00000 425.000
10.01995 435.000
10.03989 404.000
10.05984 427.000
10.07979 400.000
10.09973 418.000
10.11968 402.000
10.13963 388.000
10.15958 446.000
10.17952 431.000
10.19947 423.000
10.21942 387.000
10.23936 395.000
10.25931 374.000
10.27926 440.000
10.29920 403.000
10.31915 397.000
10.33910 385.000
10.35905 386.000
10.37899 407.000
10.39894 384.000
10.41889 382.000
10.43883 426.000
10.45878 438.000
10.47873 427.000
10.49867 412.000
10.51862 429.000
10.53857 406.000
10.55851 413.000
10.57846 418.000
10.59841 426.000
10.61836 423.000
10.63830 447.000
10.65825 435.000
10.67820 394.000
10.69814 401.000
10.71809 406.000
10.73804 406.000
10.75798 428.000
10.77793 413.000
10.79788 398.000
10.81783 437.000
10.83777 435.000
10.85772 402.000
10.87767 476.000
10.89761 408.000
10.91756 416.000
10.93751 413.000
10.95745 439.000
10.97740 408.000
10.99735 413.000
11.01730 428.000
11.03724 413.000
11.05719 416.000
11.07714 387.000
11.09708 436.000
11.11703 399.000
11.13698 423.000
11.15692 454.000
11.17687 443.000
11.19682 432.000
11.21676 423.000
11.23671 437.000
11.25666 386.000
11.27661 429.000
11.29655 433.000
11.31650 391.000
11.33645 424.000
11.35639 405.000
11.37634 415.000
11.39629 395.000
11.41623 404.000
11.43618 438.000
11.45613 374.000
11.47608 466.000
11.49602 426.000
11.51597 428.000
11.53592 381.000
11.55586 451.000
11.57581 444.000
11.59576 447.000
11.61570 389.000
11.63565 426.000
11.65560 476.000
11.67554 428.000
11.69549 400.000
11.71544 408.000
11.73539 427.000
11.75533 400.000
11.77528 405.000
11.79523 446.000
11.81517 431.000
11.83512 424.000
11.85507 449.000
11.87501 411.000
11.89496 394.000
11.91491 442.000
11.93486 447.000
11.95480 435.000
11.97475 470.000
11.99470 407.000
12.01464 452.000
12.03459 377.000
12.05454 433.000
12.07448 449.000
12.09443 436.000
12.11438 432.000
12.13432 458.000
12.15427 403.000
12.17422 420.000
12.19417 432.000
12.21411 408.000
12.23406 428.000
12.25401 427.000
12.27395 431.000
12.29390 427.000
12.31385 441.000
12.33379 398.000
12.35374 416.000
12.37369 407.000
12.39364 412.000
12.41358 398.000
12.43353 400.000
12.45348 463.000
12.47342 432.000
12.49337 416.000
12.51332 436.000
12.53326 409.000
12.55321 425.000
12.57316 379.000
12.59311 456.000
12.61305 472.000
12.63300 408.000
12.65295 431.000
12.67289 427.000
12.69284 429.000
12.71279 418.000
12.73273 405.000
12.75268 430.000
12.77263 454.000
12.79257 432.000
12.81252 456.000
12.83247 426.000
12.85242 457.000
12.87236 445.000
12.89231 403.000
12.91226 454.000
12.93220 412.000
12.95215 445.000
12.97210 443.000
12.99204 398.000
13.01199 412.000
13.03194 427.000
13.05189 418.000
13.07183 453.000
13.09178 408.000
13.11173 423.000
13.13167 371.000
13.15162 424.000
13.17157 422.000
13.19151 432.000
13.21146 407.000
13.23141 446.000
13.25135 425.000
13.27130 442.000
13.29125 429.000
13.31120 424.000
13.33114 452.000
13.35109 433.000
13.37104 450.000
13.39098 380.000
13.41093 443.000
13.43088 426.000
13.45082 422.000
13.47077 468.000
13.49072 417.000
13.51067 417.000
13.53061 458.000
13.55056 469.000
13.57051 451.000
13.59045 398.000
13.61040 452.000
13.63035 427.000
13.65029 436.000
13.67024 427.000
13.69019 464.000
13.71013 446.000
13.73008 420.000
13.75003 380.000
13.76998 406.000
13.78992 439.000
13.80987 467.000
13.82982 418.000
13.84976 465.000
13.86971 439.000
13.88966 429.000
13.90960 431.000
13.92955 400.000
13.94950 425.000
13.96945 435.000
13.98939 397.000
14.00934 417.000
14.02929 449.000
14.04923 419.000
14.06918 418.000
14.08913 433.000
14.10907 446.000
14.12902 436.000
14.14897 454.000
14.16892 430.000
14.18886 445.000
14.20881 453.000
14.22876 451.000
14.24870 440.000
14.26865 454.000
14.28860 465.000
14.30854 463.000
14.32849 482.000
14.34844 428.000
14.36838 431.000
14.38833 424.000
14.40828 450.000
14.42823 433.000
14.44817 385.000
14.46812 424.000
14.48807 431.000
14.50801 444.000
14.52796 408.000
14.54791 411.000
14.56785 435.000
14.58780 449.000
14.60775 453.000
14.62770 430.000
14.64764 442.000
14.66759 408.000
14.68754 425.000
14.70748 433.000
14.72743 414.000
14.74738 403.000
14.76732 440.000
14.78727 435.000
14.80722 442.000
14.82716 410.000
14.84711 438.000
14.86706 410.000
14.88701 446.000
14.90695 441.000
14.92690 425.000
14.94685 393.000
14.96679 411.000
14.98674 472.000
15.00669 455.000
15.02663 427.000
15.04658 464.000
15.06653 454.000
15.08648 419.000
15.10642 411.000
15.12637 475.000
15.14632 438.000
15.16626 493.000
15.18621 448.000
15.20616 420.000
15.22610 442.000
15.24605 459.000
15.26600 431.000
15.28594 469.000
15.30589 465.000
15.32584 454.000
15.34579 447.000
15.36573 486.000
15.38568 416.000
15.40563 471.000
15.42557 469.000
15.44552 463.000
15.46547 470.000
15.48541 437.000
15.50536 433.000
15.52531 480.000
15.54526 478.000
15.56520 441.000
15.58515 495.000
15.60510 504.000
15.62504 479.000
15.64499 488.000
15.66494 502.000
15.68488 514.000
15.70483 572.000
15.72478 631.000
15.74472 692.000
15.76467 791.000
15.78462 893.000
15.80457 1204.000
15.82451 1556.000
15.84446 2064.000
15.86441 2586.000
15.88435 3370.000
15.90430 3899.000
15.92425 4144.000
15.94419 3899.000
15.96414 3269.000
15.98409 2203.000
16.00404 1493.000
16.02398 1016.000
16.04393 693.000
16.06388 553.000
16.08382 527.000
16.10377 479.000
16.12372 478.000
16.14366 505.000
16.16361 472.000
16.18356 487.000
16.20351 465.000
16.22345 456.000
16.24340 480.000
16.26335 494.000
16.28329 473.000
16.30324 501.000
16.32319 472.000
16.34313 473.000
16.36308 475.000
16.38303 467.000
16.40297 449.000
16.42292 468.000
16.44287 452.000
16.46282 450.000
16.48276 414.000
16.50271 472.000
16.52266 479.000
16.54260 459.000
16.56255 434.000
16.58250 477.000
16.60244 457.000
16.62239 460.000
16.64234 438.000
16.66229 419.000
16.68223 475.000
16.70218 490.000
16.72213 489.000
16.74207 466.000
16.76202 443.000
16.78197 554.000
16.80191 516.000
16.82186 557.000
16.84181 597.000
16.86175 588.000
16.88170 584.000
16.90165 537.000
16.92160 543.000
16.94154 490.000
16.96149 482.000
16.98144 475.000
17.00138 437.000
17.02133 456.000
17.04128 481.000
17.06122 448.000
17.08117 458.000
17.10112 420.000
17.12107 435.000
17.14101 426.000
17.16096 435.000
17.18091 454.000
17.20085 464.000
17.22080 455.000
17.24075 440.000
17.26069 491.000
17.28064 418.000
17.30059 429.000
17.32053 438.000
17.34048 432.000
17.36043 460.000
17.38038 452.000
17.40032 451.000
17.42027 446.000
17.44022 449.000
17.46016 435.000
17.48011 464.000
17.50006 451.000
17.52000 424.000
17.53995 423.000
17.55990 425.000
17.57985 421.000
17.59979 469.000
17.61974 462.000
17.63969 451.000
17.65963 428.000
17.67958 431.000
17.69953 434.000
17.71947 449.000
17.73942 445.000
17.75937 446.000
17.77932 430.000
17.79926 437.000
17.81921 445.000
17.83916 410.000
17.85910 469.000
17.87905 404.000
17.89900 478.000
17.91894 438.000
17.93889 473.000
17.95884 468.000
17.97878 450.000
17.99873 442.000
18.01868 418.000
18.03863 444.000
18.05857 428.000
18.07852 426.000
18.09847 446.000
18.11841 395.000
18.13836 440.000
18.15831 419.000
18.17825 437.000
18.19820 477.000
18.21815 412.000
18.23810 397.000
18.25804 455.000
18.27799 433.000
18.29794 437.000
18.31788 434.000
18.33783 436.000
18.35778 427.000
18.37772 490.000
18.39767 454.000
18.41762 477.000
18.43756 500.000
18.45751 462.000
18.47746 424.000
18.49741 462.000
18.51735 438.000
18.53730 415.000
18.55725 442.000
18.57719 458.000
18.59714 467.000
18.61709 418.000
18.63703 439.000
18.65698 432.000
18.67693 453.000
18.69688 467.000
18.71682 434.000
18.73677 451.000
18.75672 455.000
18.77666 487.000
18.79661 460.000
18.81656 452.000
18.83650 446.000
18.85645 458.000
18.87640 429.000
18.89634 465.000
18.91629 491.000
18.93624 423.000
18.95619 437.000
18.97613 502.000
18.99608 419.000
19.01603 430.000
19.03597 455.000
19.05592 429.000
19.07587 450.000
19.09581 452.000
19.11576 462.000
19.13571 446.000
19.15566 427.000
19.17560 448.000
19.19555 483.000
19.21550 467.000
19.23544 449.000
19.25539 456.000
19.27534 434.000
19.29528 415.000
19.31523 415.000
19.33518 430.000
19.35513 441.000
19.37507 413.000
19.39502 405.000
19.41497 497.000
19.43491 439.000
19.45486 455.000
19.47481 461.000
19.49475 432.000
19.51470 452.000
19.53465 453.000
19.55459 453.000
19.57454 445.000
19.59449 442.000
19.61444 468.000
19.63438 439.000
19.65433 428.000
19.67428 438.000
19.69422 403.000
19.71417 419.000
19.73412 445.000
19.75406 457.000
19.77401 434.000
19.79396 439.000
19.81391 475.000
19.83385 423.000
19.85380 445.000
19.87375 483.000
19.89369 427.000
19.91364 434.000
19.93359 463.000
19.95353 483.000
19.97348 444.000
19.99343 423.000
20.01337 492.000
20.03332 421.000
20.05327 416.000
20.07322 451.000
20.09316 434.000
20.11311 456.000
20.13306 458.000
20.15300 472.000
20.17295 461.000
20.19290 433.000
20.21284 443.000
20.23279 457.000
20.25274 440.000
20.27269 456.000
20.29263 448.000
20.31258 460.000
20.33253 456.000
20.35247 448.000
20.37242 451.000
20.39237 420.000
20.41231 460.000
20.43226 441.000
20.45221 424.000
20.47215 473.000
20.49210 437.000
20.51205 455.000
20.53200 446.000
20.55194 444.000
20.57189 464.000
20.59184 436.000
20.61178 436.000
20.63173 458.000
20.65168 470.000
20.67162 399.000
20.69157 433.000
20.71152 471.000
20.73147 449.000
20.75141 486.000
20.77136 461.000
20.79131 478.000
20.81125 500.000
20.83120 454.000
20.85115 502.000
20.87109 475.000
20.89104 498.000
20.91099 496.000
20.93094 549.000
20.95088 523.000
20.97083 543.000
20.99078 517.000
21.01072 513.000
21.03067 517.000
21.05062 497.000
21.07056 487.000
21.09051 485.000
21.11046 476.000
21.13040 502.000
21.15035 491.000
21.17030 483.000
21.19025 457.000
21.21019 455.000
21.23014 451.000
21.25009 472.000
21.27003 483.000
21.28998 464.000
21.30993 440.000
21.32987 488.000
21.34982 474.000
21.36977 387.000
21.38972 427.000
21.40966 465.000
21.42961 491.000
21.44956 480.000
21.46950 464.000
21.48945 462.000
21.50940 438.000
21.52934 476.000
21.54929 426.000
21.56924 459.000
21.58918 443.000
21.60913 478.000
21.62908 436.000
21.64903 507.000
21.66897 468.000
21.68892 443.000
21.70887 429.000
21.72881 443.000
21.74876 420.000
21.76871 455.000
21.78865 441.000
21.80860 455.000
21.82855 455.000
21.84850 467.000
21.86844 457.000
21.88839 464.000
21.90834 475.000
21.92828 455.000
21.94823 483.000
21.96818 439.000
21.98812 437.000
22.00807 459.000
22.02802 462.000
22.04796 424.000
22.06791 454.000
22.08786 441.000
22.10781 458.000
22.12775 479.000
22.14770 449.000
22.16765 413.000
22.18759 472.000
22.20754 461.000
22.22749 477.000
22.24743 446.000
22.26738 426.000
22.28733 468.000
22.30728 465.000
22.32722 456.000
22.34717 453.000
22.36712 418.000
22.38706 445.000
22.40701 445.000
22.42696 443.000
22.44690 401.000
22.46685 468.000
22.48680 464.000
22.50675 455.000
22.52669 436.000
22.54664 443.000
22.56659 458.000
22.58653 459.000
22.60648 488.000
22.62643 423.000
22.64637 410.000
22.66632 461.000
22.68627 444.000
22.70621 475.000
22.72616 417.000
22.74611 434.000
22.76606 485.000
22.78600 447.000
22.80595 444.000
22.82590 452.000
22.84584 456.000
22.86579 428.000
22.88574 419.000
22.90568 472.000
22.92563 471.000
22.94558 463.000
22.96553 447.000
22.98547 419.000
23.00542 428.000
23.02537 441.000
23.04531 443.000
23.06526 444.000
23.08521 465.000
23.10515 468.000
23.12510 484.000
23.14505 494.000
23.16499 439.000
23.18494 434.000
23.20489 457.000
23.22484 474.000
23.24478 470.000
23.26473 446.000
23.28468 449.000
23.30462 448.000
23.32457 432.000
23.34452 464.000
23.36446 429.000
23.38441 445.000
23.40436 439.000
23.42431 471.000
23.44425 495.000
23.46420 466.000
23.48415 431.000
23.50409 440.000
23.52404 452.000
23.54399 437.000
23.56393 411.000
23.58388 467.000
23.60383 460.000
23.62377 465.000
23.64372 469.000
23.66367 453.000
23.68362 453.000
23.70356 454.000
23.72351 419.000
23.74346 449.000
23.76340 419.000
23.78335 450.000
23.80330 482.000
23.82324 429.000
23.84319 449.000
23.86314 483.000
23.88309 444.000
23.90303 454.000
23.92298 412.000
23.94293 455.000
23.96287 433.000
23.98282 460.000
24.00277 485.000
24.02271 460.000
24.04266 444.000
24.06261 451.000
24.08256 451.000
24.10250 415.000
24.12245 460.000
24.14240 475.000
24.16234 493.000
24.18229 474.000
24.20224 434.000
24.22218 435.000
24.24213 447.000
24.26208 459.000
24.28202 482.000
24.30197 448.000
24.32192 439.000
24.34187 467.000
24.36181 427.000
24.38176 476.000
24.40171 457.000
24.42165 421.000
24.44160 481.000
24.46155 506.000
24.48149 482.000
24.50144 461.000
24.52139 495.000
24.54134 455.000
24.56128 451.000
24.58123 422.000
24.60118 479.000
24.62112 450.000
24.64107 474.000
24.66102 468.000
24.68096 494.000
24.70091 478.000
24.72086 436.000
24.74080 431.000
24.76075 495.000
24.78070 473.000
24.80065 469.000
24.82059 454.000
24.84054 497.000
24.86049 464.000
24.88043 449.000
24.90038 522.000
24.92033 527.000
24.94027 479.000
24.96022 536.000
24.98017 552.000
25.00012 579.000
25.02006 559.000
25.04001 530.000
25.05996 534.000
25.07990 472.000
25.09985 484.000
25.11980 465.000
25.13974 515.000
25.15969 443.000
25.17964 458.000
25.19958 474.000
25.21953 457.000
25.23948 432.000
25.25943 459.000
25.27937 450.000
25.29932 444.000
25.31927 514.000
25.33921 463.000
25.35916 487.000
25.37911 493.000
25.39905 451.000
25.41900 497.000
25.43895 477.000
25.45890 478.000
25.47884 464.000
25.49879 468.000
25.51874 453.000
25.53868 445.000
25.55863 484.000
25.57858 447.000
25.59852 456.000
25.61847 468.000
25.63842 471.000
25.65837 452.000
25.67831 455.000
25.69826 458.000
25.71821 461.000
25.73815 466.000
25.75810 469.000
25.77805 439.000
25.79799 473.000
25.81794 482.000
25.83789 460.000
25.85783 423.000
25.87778 477.000
25.89773 439.000
25.91768 475.000
25.93762 488.000
25.95757 476.000
25.97752 435.000
25.99746 459.000
26.01741 472.000
26.03736 451.000
26.05730 448.000
26.07725 503.000
26.09720 455.000
26.11715 481.000
26.13709 487.000
26.15704 482.000
26.17699 467.000
26.19693 504.000
26.21688 435.000
26.23683 424.000
26.25677 442.000
26.27672 444.000
26.29667 445.000
26.31661 487.000
26.33656 476.000
26.35651 427.000
26.37646 452.000
26.39640 486.000
26.41635 502.000
26.43630 485.000
26.45624 506.000
26.47619 468.000
26.49614 463.000
26.51608 497.000
26.53603 477.000
26.55598 495.000
26.57593 465.000
26.59587 478.000
26.61582 446.000
26.63577 478.000
26.65571 460.000
26.67566 455.000
26.69561 441.000
26.71555 454.000
26.73550 491.000
26.75545 496.000
26.77539 509.000
26.79534 454.000
26.81529 450.000
26.83524 472.000
26.85518 495.000
26.87513 425.000
26.89508 492.000
26.91502 472.000
26.93497 424.000
26.95492 448.000
26.97486 430.000
26.99481 450.000
27.01476 471.000
27.03471 465.000
27.05465 459.000
27.07460 513.000
27.09455 496.000
27.11449 449.000
27.13444 461.000
27.15439 493.000
27.17433 523.000
27.19428 507.000
27.21423 472.000
27.23417 504.000
27.25412 479.000
27.27407 471.000
27.29402 466.000
27.31396 498.000
27.33391 487.000
27.35386 487.000
27.37380 486.000
27.39375 465.000
27.41370 472.000
27.43364 417.000
27.45359 465.000
27.47354 440.000
27.49349 475.000
27.51343 502.000
27.53338 457.000
27.55333 490.000
27.57327 499.000
27.59322 449.000
27.61317 501.000
27.63311 479.000
27.65306 503.000
27.67301 487.000
27.69296 507.000
27.71290 451.000
27.73285 463.000
27.75280 481.000
27.77274 484.000
27.79269 476.000
27.81264 467.000
27.83258 516.000
27.85253 453.000
27.87248 468.000
27.89242 469.000
27.91237 482.000
27.93232 482.000
27.95227 469.000
27.97221 480.000
27.99216 466.000
28.01211 447.000
28.03205 513.000
28.05200 485.000
28.07195 488.000
28.09189 498.000
28.11184 463.000
28.13179 469.000
28.15174 490.000
28.17168 488.000
28.19163 529.000
28.21158 509.000
28.23152 454.000
28.25147 488.000
28.27142 523.000
28.29136 490.000
28.31131 480.000
28.33126 507.000
28.35120 506.000
28.37115 505.000
28.39110 483.000
28.41105 529.000
28.43099 536.000
28.45094 504.000
28.47089 488.000
28.49083 498.000
28.51078 500.000
28.53073 515.000
28.55067 516.000
28.57062 478.000
28.59057 495.000
28.61052 501.000
28.63046 470.000
28.65041 502.000
28.67036 468.000
28.69030 450.000
28.71025 439.000
28.73020 493.000
28.75014 484.000
28.77009 515.000
28.79004 525.000
28.80998 490.000
28.82993 516.000
28.84988 425.000
28.86983 487.000
28.88977 451.000
28.90972 508.000
28.92967 504.000
28.94961 474.000
28.96956 469.000
28.98951 466.000
29.00945 498.000
29.02940 516.000
29.04935 489.000
29.06930 474.000
29.08924 490.000
29.10919 483.000
29.12914 502.000
29.14908 476.000
29.16903 531.000
29.18898 517.000
29.20892 524.000
29.22887 554.000
29.24882 598.000
29.26877 601.000
29.28871 647.000
29.30866 670.000
29.32861 748.000
29.34855 804.000
29.36850 827.000
29.38845 812.000
29.40839 837.000
29.42834 799.000
29.44829 798.000
29.46823 733.000
29.48818 592.000
29.50813 619.000
29.52808 649.000
29.54802 557.000
29.56797 583.000
29.58792 516.000
29.60786 583.000
29.62781 512.000
29.64776 507.000
29.66770 482.000
29.68765 518.000
29.70760 522.000
29.72755 550.000
29.74749 525.000
29.76744 468.000
29.78739 503.000
29.80733 550.000
29.82728 494.000
29.84723 461.000
29.86717 497.000
29.88712 476.000
29.90707 470.000
29.92701 528.000
29.94696 469.000
29.96691 490.000
29.98686 479.000
30.00680 511.000
30.02675 483.000
30.04670 461.000
30.06664 505.000
30.08659 486.000
30.10654 447.000
30.12648 508.000
30.14643 494.000
30.16638 502.000
30.18633 495.000
30.20627 461.000
30.22622 485.000
30.24617 501.000
30.26611 445.000
30.28606 467.000
30.30601 496.000
30.32595 478.000
30.34590 521.000
30.36585 500.000
30.38579 506.000
30.40574 477.000
30.42569 455.000
30.44564 450.000
30.46558 485.000
30.48553 476.000
30.50548 526.000
30.52542 527.000
30.54537 458.000
30.56532 481.000
30.58526 487.000
30.60521 447.000
30.62516 481.000
30.64511 475.000
30.66505 453.000
30.68500 523.000
30.70495 480.000
30.72489 534.000
30.74484 493.000
30.76479 513.000
30.78473 497.000
30.80468 497.000
30.82463 482.000
30.84458 460.000
30.86452 459.000
30.88447 491.000
30.90442 454.000
30.92436 476.000
30.94431 501.000
30.96426 463.000
30.98420 481.000
31.00415 502.000
31.02410 466.000
31.04404 527.000
31.06399 466.000
31.08394 466.000
31.10389 508.000
31.12383 496.000
31.14378 480.000
31.16373 498.000
31.18367 486.000
31.20362 476.000
31.22357 509.000
31.24351 498.000
31.26346 496.000
31.28341 520.000
31.30336 531.000
31.32330 501.000
31.34325 534.000
31.36320 555.000
31.38314 519.000
31.40309 474.000
31.42304 492.000
31.44298 517.000
31.46293 519.000
31.48288 504.000
31.50282 495.000
31.52277 508.000
31.54272 520.000
31.56267 537.000
31.58261 521.000
31.60256 475.000
31.62251 525.000
31.64245 506.000
31.66240 509.000
31.68235 476.000
31.70229 503.000
31.72224 508.000
31.74219 495.000
31.76214 513.000
31.78208 470.000
31.80203 527.000
31.82198 485.000
31.84192 478.000
31.86187 526.000
31.88182 533.000
31.90176 504.000
31.92171 517.000
31.94166 546.000
31.96160 534.000
31.98155 556.000
32.00150 562.000
32.02145 624.000
32.04139 655.000
32.06134 707.000
32.08129 714.000
32.10123 784.000
32.12118 832.000
32.14113 832.000
32.16107 823.000
32.18102 793.000
32.20097 793.000
32.22092 761.000
32.24086 700.000
32.26081 624.000
32.28076 606.000
32.30070 595.000
32.32065 573.000
32.34060 526.000
32.36054 558.000
32.38049 654.000
32.40044 618.000
32.42039 699.000
32.44033 739.000
32.46028 766.000
32.48023 878.000
32.50017 896.000
32.52012 917.000
32.54007 888.000
32.56001 905.000
32.57996 789.000
32.59991 838.000
32.61985 804.000
32.63980 730.000
32.65975 625.000
32.67970 602.000
32.69964 575.000
32.71959 529.000
32.73954 545.000
32.75948 507.000
32.77943 500.000
32.79938 537.000
32.81932 493.000
32.83927 508.000
32.85922 533.000
32.87917 511.000
32.89911 468.000
32.91906 478.000
32.93901 532.000
32.95895 462.000
32.97890 512.000
32.99885 516.000
33.01879 483.000
33.03874 484.000
33.05869 527.000
33.07863 481.000
33.09858 518.000
33.11853 503.000
33.13848 512.000
33.15842 477.000
33.17837 477.000
33.19832 498.000
33.21826 494.000
33.23821 473.000
33.25816 475.000
33.27810 472.000
33.29805 520.000
33.31800 519.000
33.33795 460.000
33.35789 485.000
33.37784 498.000
33.39779 493.000
33.41773 515.000
33.43768 537.000
33.45763 508.000
33.47757 476.000
33.49752 511.000
33.51747 498.000
33.53741 515.000
33.55736 490.000
33.57731 487.000
33.59726 505.000
33.61720 553.000
33.63715 492.000
33.65710 507.000
33.67704 474.000
33.69699 474.000
33.71694 498.000
33.73688 520.000
33.75683 483.000
33.77678 506.000
33.79673 507.000
33.81667 472.000
33.83662 544.000
33.85657 477.000
33.87651 512.000
33.89646 504.000
33.91641 517.000
33.93635 520.000
33.95630 504.000
33.97625 591.000
33.99620 536.000
34.01614 531.000
34.03609 527.000
34.05604 563.000
34.07598 530.000
34.09593 560.000
34.11588 547.000
34.13582 504.000
34.15577 507.000
34.17572 542.000
34.19566 547.000
34.21561 534.000
34.23556 583.000
34.25551 552.000
34.27545 554.000
34.29540 586.000
34.31535 571.000
34.33529 586.000
34.35524 567.000
34.37519 562.000
34.39513 656.000
34.41508 573.000
34.43503 599.000
34.45498 588.000
34.47492 650.000
34.49487 634.000
34.51482 625.000
34.53476 634.000
34.55471 636.000
34.57466 617.000
34.59460 680.000
34.61455 568.000
34.63450 603.000
34.65444 629.000
34.67439 616.000
34.69434 666.000
34.71429 654.000
34.73423 686.000
34.75418 656.000
34.77413 726.000
34.79407 725.000
34.81402 717.000
34.83397 775.000
34.85391 804.000
34.87386 779.000
34.89381 725.000
34.91376 753.000
34.93370 688.000
34.95365 717.000
34.97360 664.000
34.99354 676.000
35.01349 604.000
35.03344 622.000
35.05338 606.000
35.07333 604.000
35.09328 655.000
35.11322 644.000
35.13317 656.000
35.15312 687.000
35.17307 650.000
35.19301 683.000
35.21296 716.000
35.23291 755.000
35.25285 781.000
35.27280 823.000
35.29275 927.000
35.31269 988.000
35.33264 1232.000
35.35259 1394.000
35.37254 1773.000
35.39248 2111.000
35.41243 2692.000
35.43238 2942.000
35.45232 3273.000
35.47227 3600.000
35.49222 4013.000
35.51216 4466.000
35.53211 4930.000
35.55206 4997.000
35.57201 5066.000
35.59195 4765.000
35.61190 4337.000
35.63185 4107.000
35.65179 3603.000
35.67174 3171.000
35.69169 2610.000
35.71163 2135.000
35.73158 1746.000
35.75153 1526.000
35.77147 1309.000
35.79142 1165.000
35.81137 1169.000
35.83132 1118.000
35.85126 1125.000
35.87121 1109.000
35.89116 1112.000
35.91110 1029.000
35.93105 905.000
35.95100 916.000
35.97094 868.000
35.99089 747.000
36.01084 689.000
36.03079 653.000
36.05073 586.000
36.07068 611.000
36.09063 542.000
36.11057 570.000
36.13052 588.000
36.15047 587.000
36.17041 565.000
36.19036 538.000
36.21031 566.000
36.23025 567.000
36.25020 574.000
36.27015 585.000
36.29010 572.000
36.31004 547.000
36.32999 583.000
36.34994 526.000
36.36988 590.000
36.38983 562.000
36.40978 594.000
36.42972 554.000
36.44967 550.000
36.46962 584.000
36.48957 559.000
36.50951 551.000
36.52946 526.000
36.54941 573.000
36.56935 601.000
36.58930 555.000
36.60925 564.000
36.62919 608.000
36.64914 590.000
36.66909 571.000
36.68903 607.000
36.70898 611.000
36.72893 644.000
36.74888 620.000
36.76882 632.000
36.78877 638.000
36.80872 627.000
36.82866 666.000
36.84861 746.000
36.86856 686.000
36.88850 723.000
36.90845 756.000
36.92840 764.000
36.94835 800.000
36.96829 896.000
36.98824 897.000
37.00819 950.000
37.02813 972.000
37.04808 1088.000
37.06803 1103.000
37.08797 1091.000
37.10792 1128.000
37.12787 1096.000
37.14781 1133.000
37.16776 1097.000
37.18771 1050.000
37.20766 978.000
37.22760 909.000
37.24755 850.000
37.26750 807.000
37.28744 724.000
37.30739 748.000
37.32734 698.000
37.34728 621.000
37.36723 607.000
37.38718 615.000
37.40713 589.000
37.42707 553.000
37.44702 542.000
37.46697 541.000
37.48691 586.000
37.50686 559.000
37.52681 566.000
37.54675 544.000
37.56670 533.000
37.58665 530.000
37.60660 586.000
37.62654 544.000
37.64649 544.000
37.66644 522.000
37.68638 558.000
37.70633 577.000
37.72628 552.000
37.74622 528.000
37.76617 540.000
37.78612 532.000
37.80606 526.000
37.82601 539.000
37.84596 544.000
37.86591 550.000
37.88585 569.000
37.90580 522.000
37.92575 554.000
37.94569 545.000
37.96564 572.000
37.98559 570.000
38.00553 540.000
38.02548 584.000
38.04543 556.000
38.06538 538.000
38.08532 541.000
38.10527 528.000
38.12522 579.000
38.14516 617.000
38.16511 648.000
38.18506 635.000
38.20500 585.000
38.22495 623.000
38.24490 630.000
38.26484 644.000
38.28479 628.000
38.30474 698.000
38.32469 708.000
38.34463 686.000
38.36458 745.000
38.38453 749.000
38.40447 805.000
38.42442 876.000
38.44437 928.000
38.46431 1010.000
38.48426 1096.000
38.50421 1266.000
38.52416 1417.000
38.54410 1770.000
38.56405 2224.000
38.58400 2565.000
38.60394 3217.000
38.62389 3590.000
38.64384 4014.000
38.66378 4355.000
38.68373 4638.000
38.70368 4718.000
38.72362 4618.000
38.74357 4472.000
38.76352 4116.000
38.78347 3918.000
38.80341 3594.000
38.82336 3160.000
38.84331 2844.000
38.86325 2581.000
38.88320 2377.000
38.90315 2231.000
38.92309 2063.000
38.94304 1903.000
38.96299 1799.000
38.98294 1789.000
39.00288 1733.000
39.02283 1567.000
39.04278 1507.000
39.06272 1284.000
39.08267 1185.000
39.10262 1107.000
39.12256 956.000
39.14251 892.000
39.16246 860.000
39.18241 821.000
39.20235 737.000
39.22230 737.000
39.24225 712.000
39.26219 724.000
39.28214 773.000
39.30209 756.000
39.32203 828.000
39.34198 888.000
39.36193 989.000
39.38187 1125.000
39.40182 1248.000
39.42177 1238.000
39.44172 1360.000
39.46166 1302.000
39.48161 1354.000
39.50156 1326.000
39.52150 1168.000
39.54145 1125.000
39.56140 1007.000
39.58134 987.000
39.60129 884.000
39.62124 787.000
39.64119 716.000
39.66113 614.000
39.68108 630.000
39.70103 560.000
39.72097 581.000
39.74092 540.000
39.76087 550.000
39.78081 552.000
39.80076 553.000
39.82071 565.000
39.84065 565.000
39.86060 583.000
39.88055 545.000
39.90050 511.000
39.92044 501.000
39.94039 526.000
39.96034 530.000
39.98028 516.000
40.00023 546.000
40.02018 488.000
40.04012 544.000
40.06007 575.000
40.08002 537.000
40.09997 520.000
40.11991 520.000
40.13986 513.000
40.15981 531.000
40.17975 552.000
40.19970 538.000
40.21965 519.000
40.23959 507.000
40.25954 508.000
40.27949 551.000
40.29943 501.000
40.31938 519.000
40.33933 540.000
40.35928 511.000
40.37922 501.000
40.39917 492.000
40.41912 550.000
40.43906 510.000
40.45901 527.000
40.47896 542.000
40.49890 509.000
40.51885 460.000
40.53880 514.000
40.55875 514.000
40.57869 535.000
40.59864 527.000
40.61859 511.000
40.63853 456.000
40.65848 476.000
40.67843 525.000
40.69837 500.000
40.71832 520.000
40.73827 505.000
40.75822 512.000
40.77816 490.000
40.79811 545.000
40.81806 529.000
40.83800 524.000
40.85795 496.000
40.87790 528.000
40.89784 490.000
40.91779 523.000
40.93774 510.000
40.95768 503.000
40.97763 511.000
40.99758 522.000
41.01753 538.000
41.03747 534.000
41.05742 533.000
41.07737 509.000
41.09731 508.000
41.11726 505.000
41.13721 512.000
41.15715 522.000
41.17710 508.000
41.19705 470.000
41.21700 544.000
41.23694 511.000
41.25689 507.000
41.27684 533.000
41.29678 495.000
41.31673 497.000
41.33668 502.000
41.35662 508.000
41.37657 530.000
41.39652 523.000
41.41646 493.000
41.43641 500.000
41.45636 505.000
41.47631 519.000
41.49625 552.000
41.51620 509.000
41.53615 500.000
41.55609 499.000
41.57604 535.000
41.59599 478.000
41.61593 514.000
41.63588 518.000
41.65583 500.000
41.67578 520.000
41.69572 515.000
41.71567 532.000
41.73562 498.000
41.75556 509.000
41.77551 496.000
41.79546 511.000
41.81540 538.000
41.83535 555.000
41.85530 522.000
41.87524 559.000
41.89519 538.000
41.91514 509.000
41.93509 531.000
41.95503 510.000
41.97498 499.000
41.99493 578.000
42.01487 493.000
42.03482 602.000
42.05477 509.000
42.07471 536.000
42.09466 559.000
42.11461 529.000
42.13456 582.000
42.15450 523.000
42.17445 547.000
42.19440 547.000
42.21434 556.000
42.23429 521.000
42.25424 521.000
42.27418 570.000
42.29413 564.000
42.31408 533.000
42.33403 533.000
42.35397 581.000
42.37392 526.000
42.39387 517.000
42.41381 613.000
42.43376 551.000
42.45371 576.000
42.47365 613.000
42.49360 566.000
42.51355 578.000
42.53349 557.000
42.55344 586.000
42.57339 588.000
42.59334 581.000
42.61328 608.000
42.63323 563.000
42.65318 572.000
42.67312 607.000
42.69307 571.000
42.71302 605.000
42.73296 619.000
42.75291 652.000
42.77286 719.000
42.79281 683.000
42.81275 645.000
42.83270 664.000
42.85265 644.000
42.87259 663.000
42.89254 753.000
42.91249 754.000
42.93243 763.000
42.95238 821.000
42.97233 817.000
42.99227 827.000
43.01222 830.000
43.03217 898.000
43.05212 920.000
43.07206 862.000
43.09201 947.000
43.11196 976.000
43.13190 943.000
43.15185 915.000
43.17180 980.000
43.19174 956.000
43.21169 926.000
43.23164 939.000
43.25159 899.000
43.27153 859.000
43.29148 860.000
43.31143 877.000
43.33137 787.000
43.35132 778.000
43.37127 821.000
43.39121 765.000
43.41116 779.000
43.43111 738.000
43.45105 733.000
43.47100 738.000
43.49095 821.000
43.51090 870.000
43.53084 873.000
43.55079 873.000
43.57074 853.000
43.59068 897.000
43.61063 887.000
43.63058 847.000
43.65052 785.000
43.67047 776.000
43.69042 737.000
43.71037 723.000
43.73031 674.000
43.75026 675.000
43.77021 647.000
43.79015 611.000
43.81010 557.000
43.83005 544.000
43.84999 562.000
43.86994 512.000
43.88989 549.000
43.90984 493.000
43.92978 477.000
43.94973 554.000
43.96968 603.000
43.98962 512.000
44.00957 521.000
44.02952 531.000
44.04946 513.000
44.06941 521.000
44.08936 541.000
44.10930 533.000
44.12925 520.000
44.14920 492.000
44.16915 527.000
44.18909 504.000
44.20904 557.000
44.22899 502.000
44.24893 548.000
44.26888 521.000
44.28883 517.000
44.30877 563.000
44.32872 535.000
44.34867 519.000
44.36862 496.000
44.38856 480.000
44.40851 514.000
44.42846 533.000
44.44840 497.000
44.46835 479.000
44.48830 524.000
44.50824 519.000
44.52819 501.000
44.54814 533.000
44.56808 492.000
44.58803 528.000
44.60798 511.000
44.62793 510.000
44.64787 561.000
44.66782 506.000
44.68777 513.000
44.70771 496.000
44.72766 500.000
44.74761 527.000
44.76755 558.000
44.78750 511.000
44.80745 502.000
44.82740 486.000
44.84734 515.000
44.86729 509.000
44.88724 541.000
44.90718 536.000
44.92713 505.000
44.94708 507.000
44.96702 530.000
44.98697 531.000
45.00692 501.000
45.02686 535.000
45.04681 491.000
45.06676 543.000
45.08671 503.000
45.10665 550.000
45.12660 479.000
45.14655 523.000
45.16649 486.000
45.18644 515.000
45.20639 493.000
45.22633 554.000
45.24628 531.000
45.26623 450.000
45.28618 529.000
45.30612 519.000
45.32607 533.000
45.34602 484.000
45.36596 516.000
45.38591 511.000
45.40586 525.000
45.42580 505.000
45.44575 513.000
45.46570 515.000
45.48565 539.000
45.50559 513.000
45.52554 523.000
45.54549 518.000
45.56543 511.000
45.58538 490.000
45.60533 542.000
45.62527 540.000
45.64522 526.000
45.66517 531.000
45.68511 512.000
45.70506 518.000
45.72501 497.000
45.74496 482.000
45.76490 542.000
45.78485 489.000
45.80480 523.000
45.82474 485.000
45.84469 542.000
45.86464 506.000
45.88458 526.000
45.90453 534.000
45.92448 461.000
45.94443 534.000
45.96437 518.000
45.98432 518.000
46.00427 556.000
46.02421 512.000
46.04416 473.000
46.06411 492.000
46.08405 502.000
46.10400 536.000
46.12395 522.000
46.14389 568.000
46.16384 550.000
46.18379 536.000
46.20374 580.000
46.22368 604.000
46.24363 605.000
46.26358 597.000
46.28352 609.000
46.30347 608.000
46.32342 609.000
46.34336 578.000
46.36331 566.000
46.38326 601.000
46.40321 568.000
46.42315 577.000
46.44310 547.000
46.46305 531.000
46.48299 509.000
46.50294 557.000
46.52289 508.000
46.54283 527.000
46.56278 493.000
46.58273 515.000
46.60267 494.000
46.62262 526.000
46.64257 519.000
46.66252 488.000
46.68246 529.000
46.70241 495.000
46.72236 546.000
46.74230 525.000
46.76225 514.000
46.78220 505.000
46.80214 536.000
46.82209 547.000
46.84204 523.000
46.86199 537.000
46.88193 525.000
46.90188 551.000
46.92183 537.000
46.94177 465.000
46.96172 525.000
46.98167 495.000
47.00161 529.000
47.02156 488.000
47.04151 537.000
47.06146 500.000
47.08140 545.000
47.10135 509.000
47.12130 499.000
47.14124 490.000
47.16119 528.000
47.18114 478.000
47.20108 483.000
47.22103 515.000
47.24098 486.000
47.26092 513.000
47.28087 514.000
47.30082 487.000
47.32077 499.000
47.34071 482.000
47.36066 529.000
47.38061 495.000
47.40055 488.000
47.42050 527.000
47.44045 512.000
47.46039 524.000
47.48034 483.000
47.50029 480.000
47.52024 513.000
47.54018 511.000
47.56013 501.000
47.58008 524.000
47.60002 535.000
47.61997 519.000
47.63992 524.000
47.65986 518.000
47.67981 530.000
47.69976 577.000
47.71970 519.000
47.73965 539.000
47.75960 514.000
47.77955 476.000
47.79949 536.000
47.81944 554.000
47.83939 529.000
47.85933 526.000
47.87928 526.000
47.89923 558.000
47.91917 523.000
47.93912 565.000
47.95907 534.000
47.97902 579.000
47.99896 555.000
48.01891 607.000
48.03886 541.000
48.05880 583.000
48.07875 574.000
48.09870 602.000
48.11864 623.000
48.13859 597.000
48.15854 611.000
48.17848 559.000
48.19843 622.000
48.21838 573.000
48.23833 526.000
48.25827 573.000
48.27822 538.000
48.29817 563.000
48.31811 567.000
48.33806 505.000
48.35801 566.000
48.37795 531.000
48.39790 582.000
48.41785 520.000
48.43780 602.000
48.45774 592.000
48.47769 542.000
48.49764 644.000
48.51758 563.000
48.53753 643.000
48.55748 621.000
48.57742 654.000
48.59737 710.000
48.61732 746.000
48.63726 830.000
48.65721 899.000
48.67716 980.000
48.69711 1108.000
48.71705 1233.000
48.73700 1363.000
48.75695 1579.000
48.77689 1623.000
48.79684 1788.000
48.81679 1952.000
48.83673 2082.000
48.85668 2072.000
48.87663 2272.000
48.89658 2251.000
48.91652 2161.000
48.93647 2148.000
48.95642 1990.000
48.97636 1791.000
48.99631 1733.000
49.01626 1500.000
49.03620 1457.000
49.05615 1337.000
49.07610 1135.000
49.09605 995.000
49.11599 950.000
49.13594 827.000
49.15589 789.000
49.17583 675.000
49.19578 626.000
49.21573 662.000
49.23567 650.000
49.25562 595.000
49.27557 551.000
49.29551 613.000
49.31546 609.000
49.33541 551.000
49.35536 588.000
49.37530 531.000
49.39525 594.000
49.41520 579.000
49.43514 586.000
49.45509 530.000
49.47504 500.000
49.49498 546.000
49.51493 560.000
49.53488 591.000
49.55483 561.000
49.57477 564.000
49.59472 535.000
49.61467 545.000
49.63461 525.000
49.65456 553.000
49.67451 550.000
49.69445 518.000
49.71440 510.000
49.73435 527.000
49.75429 525.000
49.77424 524.000
49.79419 505.000
49.81414 502.000
49.83408 526.000
49.85403 529.000
49.87398 520.000
49.89392 538.000
49.91387 479.000
49.93382 498.000
49.95376 505.000
49.97371 546.000
49.99366 501.000
50.01361 520.000
50.03355 510.000
50.05350 491.000
50.07345 492.000
50.09339 482.000
50.11334 493.000
50.13329 503.000
50.15323 520.000
50.17318 534.000
50.19313 481.000
50.21307 520.000
50.23302 530.000
50.25297 515.000
50.27292 510.000
50.29286 480.000
50.31281 518.000
50.33276 511.000
50.35270 510.000
50.37265 510.000
50.39260 503.000
50.41254 527.000
50.43249 527.000
50.45244 490.000
50.47239 493.000
50.49233 508.000
50.51228 498.000
50.53223 544.000
50.55217 530.000
50.57212 490.000
50.59207 543.000
50.61201 502.000
50.63196 543.000
50.65191 527.000
50.67186 534.000
50.69180 494.000
50.71175 497.000
50.73170 526.000
50.75164 503.000
50.77159 569.000
50.79154 529.000
50.81148 499.000
50.83143 531.000
50.85138 510.000
50.87132 532.000
50.89127 503.000
50.91122 471.000
50.93117 512.000
50.95111 543.000
50.97106 544.000
50.99101 462.000
51.01095 516.000
51.03090 502.000
51.05085 528.000
51.07079 502.000
51.09074 525.000
51.11069 468.000
51.13064 526.000
51.15058 512.000
51.17053 541.000
51.19048 552.000
51.21042 548.000
51.23037 562.000
51.25032 542.000
51.27026 553.000
51.29021 539.000
51.31016 529.000
51.33010 594.000
51.35005 568.000
51.37000 554.000
51.38995 550.000
51.40989 577.000
51.42984 538.000
51.44979 534.000
51.46973 548.000
51.48968 557.000
51.50963 563.000
51.52957 532.000
51.54952 561.000
51.56947 522.000
51.58942 525.000
51.60936 548.000
51.62931 526.000
51.64926 518.000
51.66920 522.000
51.68915 521.000
51.70910 502.000
51.72904 519.000
51.74899 500.000
51.76894 500.000
51.78888 552.000
51.80883 528.000
51.82878 521.000
51.84873 531.000
51.86867 513.000
51.88862 551.000
51.90857 517.000
51.92851 541.000
51.94846 532.000
51.96841 540.000
51.98835 592.000
52.00830 570.000
52.02825 567.000
52.04820 595.000
52.06814 587.000
52.08809 613.000
52.10804 544.000
52.12798 615.000
52.14793 635.000
52.16788 581.000
52.18782 591.000
52.20777 620.000
52.22772 587.000
52.24767 569.000
52.26761 555.000
52.28756 557.000
52.30751 544.000
52.32745 517.000
52.34740 540.000
52.36735 520.000
52.38729 545.000
52.40724 558.000
52.42719 538.000
52.44713 554.000
52.46708 499.000
52.48703 525.000
52.50698 571.000
52.52692 472.000
52.54687 547.000
52.56682 531.000
52.58676 510.000
52.60671 537.000
52.62666 490.000
52.64660 517.000
52.66655 545.000
52.68650 500.000
52.70645 552.000
52.72639 534.000
52.74634 493.000
52.76629 528.000
52.78623 551.000
52.80618 575.000
52.82613 514.000
52.84607 565.000
52.86602 514.000
52.88597 526.000
52.90591 518.000
52.92586 512.000
52.94581 553.000
52.96576 512.000
52.98570 541.000
53.00565 562.000
53.02560 522.000
53.04554 547.000
53.06549 554.000
53.08544 584.000
53.10538 571.000
53.12533 519.000
53.14528 582.000
53.16523 608.000
53.18517 596.000
53.20512 661.000
53.22507 653.000
53.24501 633.000
53.26496 640.000
53.28491 642.000
53.30485 682.000
53.32480 726.000
53.34475 689.000
53.36469 717.000
53.38464 742.000
53.40459 725.000
53.42454 719.000
53.44448 731.000
53.46443 744.000
53.48438 725.000
53.50432 722.000
53.52427 734.000
53.54422 697.000
53.56416 741.000
53.58411 708.000
53.60406 698.000
53.62401 697.000
53.64395 708.000
53.66390 653.000
53.68385 660.000
53.70379 673.000
53.72374 633.000
53.74369 671.000
53.76363 599.000
53.78358 625.000
53.80353 611.000
53.82348 560.000
53.84342 577.000
53.86337 557.000
53.88332 586.000
53.90326 551.000
53.92321 560.000
53.94316 535.000
53.96310 511.000
53.98305 552.000
54.00300 584.000
54.02294 527.000
54.04289 524.000
54.06284 522.000
54.08279 464.000
54.10273 491.000
54.12268 548.000
54.14263 464.000
54.16257 491.000
54.18252 507.000
54.20247 518.000
54.22241 541.000
54.24236 519.000
54.26231 495.000
54.28226 497.000
54.30220 496.000
54.32215 512.000
54.34210 485.000
54.36204 490.000
54.38199 477.000
54.40194 495.000
54.42188 536.000
54.44183 514.000
54.46178 584.000
54.48172 524.000
54.50167 499.000
54.52162 471.000
54.54157 525.000
54.56151 537.000
54.58146 523.000
54.60141 540.000
54.62135 498.000
54.64130 523.000
54.66125 498.000
54.68119 533.000
54.70114 505.000
54.72109 521.000
54.74104 529.000
54.76098 517.000
54.78093 508.000
54.80088 549.000
54.82082 507.000
54.84077 501.000
54.86072 563.000
54.88066 529.000
54.90061 505.000
54.92056 487.000
54.94050 573.000
54.96045 535.000
54.98040 533.000
55.00035 543.000
55.02029 489.000
55.04024 505.000
55.06019 524.000
55.08013 504.000
55.10008 527.000
55.12003 547.000
55.13997 528.000
55.15992 498.000
55.17987 492.000
55.19982 525.000
55.21976 483.000
55.23971 544.000
55.25966 519.000
55.27960 527.000
55.29955 514.000
55.31950 507.000
55.33944 509.000
55.35939 514.000
55.37934 504.000
55.39929 509.000
55.41923 511.000
55.43918 486.000
55.45913 502.000
55.47907 516.000
55.49902 475.000
55.51897 524.000
55.53891 495.000
55.55886 497.000
55.57881 528.000
55.59875 510.000
55.61870 527.000
55.63865 521.000
55.65860 530.000
55.67854 500.000
55.69849 527.000
55.71844 544.000
55.73838 493.000
55.75833 507.000
55.77828 516.000
55.79822 507.000
55.81817 511.000
55.83812 544.000
55.85807 533.000
55.87801 511.000
55.89796 502.000
55.91791 484.000
55.93785 459.000
55.95780 525.000
55.97775 483.000
55.99769 518.000
56.01764 538.000
56.03759 510.000
56.05753 499.000
56.07748 524.000
56.09743 461.000
56.11738 505.000
56.13732 509.000
56.15727 531.000
56.17722 488.000
56.19716 497.000
56.21711 505.000
56.23706 483.000
56.25700 484.000
56.27695 531.000
56.29690 557.000
56.31685 540.000
56.33679 525.000
56.35674 518.000
56.37669 503.000
56.39663 513.000
56.41658 534.000
56.43653 507.000
56.45647 521.000
56.47642 579.000
56.49637 502.000
56.51631 554.000
56.53626 494.000
56.55621 541.000
56.57616 517.000
56.59610 514.000
56.61605 583.000
56.63600 538.000
56.65594 492.000
56.67589 560.000
56.69584 511.000
56.71578 531.000
56.73573 534.000
56.75568 505.000
56.77563 559.000
56.79557 560.000
56.81552 490.000
56.83547 588.000
56.85541 546.000
56.87536 573.000
56.89531 513.000
56.91525 554.000
56.93520 553.000
56.95515 550.000
56.97510 522.000
56.99504 531.000
57.01499 491.000
57.03494 505.000
57.05488 544.000
57.07483 522.000
57.09478 498.000
57.11472 506.000
57.13467 474.000
57.15462 494.000
57.17456 518.000
57.19451 518.000
57.21446 542.000
57.23441 509.000
57.25435 510.000
57.27430 509.000
57.29425 546.000
57.31419 529.000
57.33414 504.000
57.35409 513.000
57.37403 514.000
57.39398 502.000
57.41393 524.000
57.43388 510.000
57.45382 499.000
57.47377 559.000
57.49372 503.000
57.51366 504.000
57.53361 544.000
57.55356 491.000
57.57350 523.000
57.59345 520.000
57.61340 508.000
57.63334 532.000
57.65329 508.000
57.67324 493.000
57.69319 506.000
57.71313 497.000
57.73308 511.000
57.75303 527.000
57.77297 526.000
57.79292 546.000
57.81287 535.000
57.83281 524.000
57.85276 516.000
57.87271 528.000
57.89266 588.000
57.91260 525.000
57.93255 573.000
57.95250 576.000
57.97244 595.000
57.99239 615.000
58.01234 639.000
58.03228 679.000
58.05223 679.000
58.07218 751.000
58.09212 782.000
58.11207 817.000
58.13202 865.000
58.15197 884.000
58.17191 975.000
58.19186 1024.000
58.21181 1108.000
58.23175 1078.000
58.25170 1013.000
58.27165 1048.000
58.29159 1009.000
58.31154 1072.000
58.33149 966.000
58.35144 964.000
58.37138 864.000
58.39133 835.000
58.41128 780.000
58.43122 778.000
58.45117 734.000
58.47112 713.000
58.49106 686.000
58.51101 661.000
58.53096 635.000
58.55090 601.000
58.57085 587.000
58.59080 547.000
58.61075 564.000
58.63069 552.000
58.65064 554.000
58.67059 529.000
58.69053 585.000
58.71048 499.000
58.73043 551.000
58.75037 519.000
58.77032 544.000
58.79027 534.000
58.81022 516.000
58.83016 521.000
58.85011 550.000
58.87006 558.000
58.89000 502.000
58.90995 488.000
58.92990 534.000
58.94984 501.000
58.96979 477.000
58.98974 521.000
59.00969 514.000
59.02963 500.000
59.04958 498.000
59.06953 507.000
59.08947 508.000
59.10942 511.000
59.12937 534.000
59.14931 510.000
59.16926 465.000
59.18921 505.000
59.20915 520.000
59.22910 546.000
59.24905 490.000
59.26900 493.000
59.28894 520.000
59.30889 521.000
59.32884 536.000
59.34878 510.000
59.36873 517.000
59.38868 528.000
59.40862 499.000
59.42857 509.000
59.44852 549.000
59.46847 513.000
59.48841 521.000
59.50836 530.000
59.52831 518.000
59.54825 525.000
59.56820 503.000
59.58815 543.000
59.60809 543.000
59.62804 540.000
59.64799 525.000
59.66793 529.000
59.68788 508.000
59.70783 514.000
59.72778 483.000
59.74772 505.000
59.76767 537.000
59.78762 508.000
59.80756 526.000
59.82751 519.000
59.84746 501.000
59.86740 500.000
59.88735 563.000
59.90730 516.000
59.92725 502.000
59.94719 522.000
59.96714 520.000
59.98709 536.000
60.00703 543.000
60.02698 502.000
60.04693 607.000
60.06687 545.000
60.08682 484.000
60.10677 533.000
60.12671 548.000
60.14666 530.000
60.16661 548.000
60.18656 592.000
60.20650 559.000
60.22645 553.000
60.24640 533.000
60.26634 529.000
60.28629 555.000
60.30624 569.000
60.32618 561.000
60.34613 578.000
60.36608 502.000
60.38603 509.000
60.40597 513.000
60.42592 553.000
60.44587 522.000
60.46581 508.000
60.48576 542.000
60.50571 466.000
60.52565 563.000
60.54560 537.000
60.56555 547.000
60.58550 541.000
60.60544 489.000
60.62539 533.000
60.64534 541.000
60.66528 536.000
60.68523 518.000
60.70518 493.000
60.72512 547.000
60.74507 527.000
60.76502 574.000
60.78496 566.000
60.80491 528.000
60.82486 526.000
60.84481 549.000
60.86475 489.000
60.88470 552.000
60.90465 557.000
60.92459 505.000
60.94454 540.000
60.96449 533.000
60.98443 555.000
61.00438 532.000
61.02433 536.000
61.04428 518.000
61.06422 580.000
61.08417 523.000
61.10412 537.000
61.12406 548.000
61.14401 568.000
61.16396 543.000
61.18390 543.000
61.20385 561.000
61.22380 561.000
61.24374 617.000
61.26369 568.000
61.28364 549.000
61.30359 535.000
61.32353 630.000
61.34348 645.000
61.36343 691.000
61.38337 661.000
61.40332 768.000
61.42327 772.000
61.44321 874.000
61.46316 930.000
61.48311 1028.000
61.50306 1110.000
61.52300 1169.000
61.54295 1236.000
61.56290 1332.000
61.58284 1313.000
61.60279 1259.000
61.62274 1211.000
61.64268 1202.000
61.66263 1190.000
61.68258 1171.000
61.70252 1137.000
61.72247 1057.000
61.74242 1067.000
61.76237 989.000
61.78231 917.000
61.80226 904.000
61.82221 795.000
61.84215 832.000
61.86210 784.000
61.88205 725.000
61.90199 751.000
61.92194 646.000
61.94189 704.000
61.96184 691.000
61.98178 664.000
62.00173 657.000
62.02168 664.000
62.04162 664.000
62.06157 692.000
62.08152 709.000
62.10146 753.000
62.12141 777.000
62.14136 799.000
62.16131 785.000
62.18125 764.000
62.20120 829.000
62.22115 852.000
62.24109 842.000
62.26104 804.000
62.28099 857.000
62.30093 828.000
62.32088 885.000
62.34083 827.000
62.36077 873.000
62.38072 801.000
62.40067 850.000
62.42062 728.000
62.44056 821.000
62.46051 794.000
62.48046 820.000
62.50040 823.000
62.52035 786.000
62.54030 748.000
62.56024 776.000
62.58019 724.000
62.60014 813.000
62.62009 800.000
62.64003 767.000
62.65998 766.000
62.67993 734.000
62.69987 760.000
62.71982 757.000
62.73977 689.000
62.75971 716.000
62.77966 723.000
62.79961 769.000
62.81955 668.000
62.83950 670.000
62.85945 665.000
62.87940 631.000
62.89934 642.000
62.91929 615.000
62.93924 634.000
62.95918 611.000
62.97913 586.000
62.99908 601.000
63.01902 582.000
63.03897 569.000
63.05892 594.000
63.07887 553.000
63.09881 584.000
63.11876 545.000
63.13871 574.000
63.15865 586.000
63.17860 543.000
63.19855 553.000
63.21849 558.000
63.23844 570.000
63.25839 552.000
63.27833 552.000
63.29828 555.000
63.31823 528.000
63.33818 556.000
63.35812 523.000
63.37807 545.000
63.39802 527.000
63.41796 497.000
63.43791 563.000
63.45786 553.000
63.47780 561.000
63.49775 528.000
63.51770 556.000
63.53765 523.000
63.55759 564.000
63.57754 529.000
63.59749 508.000
63.61743 515.000
63.63738 533.000
63.65733 518.000
63.67727 518.000
63.69722 542.000
63.71717 577.000
63.73712 499.000
63.75706 541.000
63.77701 510.000
63.79696 548.000
63.81690 548.000
63.83685 558.000
63.85680 506.000
63.87674 564.000
63.89669 567.000
63.91664 546.000
63.93658 552.000
63.95653 510.000
63.97648 539.000
63.99643 522.000
64.01637 533.000
64.03632 546.000
64.05627 545.000
64.07621 547.000
64.09616 568.000
64.11611 533.000
64.13605 575.000
64.15600 603.000
64.17595 576.000
64.19590 620.000
64.21584 598.000
64.23579 612.000
64.25574 583.000
64.27568 661.000
64.29563 695.000
64.31558 745.000
64.33552 758.000
64.35547 728.000
64.37542 818.000
64.39536 810.000
64.41531 749.000
64.43526 726.000
64.45521 690.000
64.47515 776.000
64.49510 730.000
64.51505 721.000
64.53499 695.000
64.55494 765.000
64.57489 730.000
64.59483 703.000
64.61478 616.000
64.63473 683.000
64.65468 615.000
64.67462 635.000
64.69457 623.000
64.71452 568.000
64.73446 605.000
64.75441 559.000
64.77436 564.000
64.79430 573.000
64.81425 583.000
64.83420 591.000
64.85414 539.000
64.87409 560.000
64.89404 589.000
64.91399 559.000
64.93393 525.000
64.95388 578.000
64.97383 565.000
64.99377 582.000
65.01372 541.000
65.03367 541.000
65.05361 592.000
65.07356 548.000
65.09351 580.000
65.11346 581.000
65.13340 540.000
65.15335 614.000
65.17330 548.000
65.19324 564.000
65.21319 529.000
65.23314 548.000
65.25308 566.000
65.27303 561.000
65.29298 547.000
65.31293 569.000
65.33287 612.000
65.35282 616.000
65.37277 591.000
65.39271 636.000
65.41266 638.000
65.43261 673.000
65.45255 655.000
65.47250 694.000
65.49245 745.000
65.51239 744.000
65.53234 761.000
65.55229 821.000
65.57224 831.000
65.59218 861.000
65.61213 836.000
65.63208 851.000
65.65202 846.000
65.67197 871.000
65.69192 926.000
65.71186 919.000
65.73181 974.000
65.75176 960.000
65.77171 919.000
65.79165 915.000
65.81160 952.000
65.83155 927.000
65.85149 955.000
65.87144 918.000
65.89139 932.000
65.91133 881.000
65.93128 847.000
65.95123 873.000
65.97117 915.000
65.99112 844.000
66.01107 792.000
66.03102 835.000
66.05096 860.000
66.07091 857.000
66.09086 798.000
66.11080 832.000
66.13075 806.000
66.15070 844.000
66.17064 930.000
66.19059 905.000
66.21054 924.000
66.23049 1075.000
66.25043 921.000
66.27038 1009.000
66.29033 1041.000
66.31027 1080.000
66.33022 1091.000
66.35017 1052.000
66.37011 1096.000
66.39006 1102.000
66.41001 1079.000
66.42995 1009.000
66.44990 980.000
66.46985 921.000
66.48980 945.000
66.50974 877.000
66.52969 865.000
66.54964 876.000
66.56958 804.000
66.58953 796.000
66.60948 766.000
66.62942 771.000
66.64937 703.000
66.66932 765.000
66.68927 695.000
66.70921 670.000
66.72916 698.000
66.74911 687.000
66.76905 714.000
66.78900 710.000
66.80895 676.000
66.82889 689.000
66.84884 648.000
66.86879 631.000
66.88874 635.000
66.90868 685.000
66.92863 692.000
66.94858 673.000
66.96852 668.000
66.98847 630.000
67.00842 680.000
67.02836 642.000
67.04831 654.000
67.06826 591.000
67.08820 598.000
67.10815 604.000
67.12810 626.000
67.14805 624.000
67.16799 604.000
67.18794 610.000
67.20789 602.000
67.22783 617.000
67.24778 591.000
67.26773 564.000
67.28767 614.000
67.30762 574.000
67.32757 555.000
67.34752 578.000
67.36746 543.000
67.38741 553.000
67.40736 576.000
67.42730 603.000
67.44725 601.000
67.46720 565.000
67.48714 572.000
67.50709 558.000
67.52704 621.000
67.54698 597.000
67.56693 647.000
67.58688 615.000
67.60683 655.000
67.62677 615.000
67.64672 689.000
67.66667 678.000
67.68661 715.000
67.70656 760.000
67.72651 805.000
67.74645 814.000
67.76640 816.000
67.78635 839.000
67.80630 823.000
67.82624 894.000
67.84619 950.000
67.86614 954.000
67.88608 924.000
67.90603 947.000
67.92598 1016.000
67.94592 1037.000
67.96587 1020.000
67.98582 1075.000
68.00576 1044.000
68.02571 1090.000
68.04566 1013.000
68.06561 1107.000
68.08555 987.000
68.10550 1010.000
68.12545 1113.000
68.14539 967.000
68.16534 979.000
68.18529 923.000
68.20523 938.000
68.22518 946.000
68.24513 817.000
68.26508 862.000
68.28502 804.000
68.30497 717.000
68.32492 768.000
68.34486 710.000
68.36481 738.000
68.38476 717.000
68.40470 654.000
68.42465 694.000
68.44460 626.000
68.46455 606.000
68.48449 622.000
68.50444 563.000
68.52439 578.000
68.54433 577.000
68.56428 607.000
68.58423 583.000
68.60417 543.000
68.62412 535.000
68.64407 567.000
68.66401 521.000
68.68396 534.000
68.70391 559.000
68.72386 513.000
68.74380 575.000
68.76375 518.000
68.78370 544.000
68.80364 548.000
68.82359 549.000
68.84354 532.000
68.86348 559.000
68.88343 527.000
68.90338 586.000
68.92333 606.000
68.94327 570.000
68.96322 537.000
68.98317 497.000
69.00311 547.000
69.02306 571.000
69.04301 520.000
69.06295 560.000
69.08290 592.000
69.10285 521.000
69.12279 527.000
69.14274 570.000
69.16269 539.000
69.18264 526.000
69.20258 505.000
69.22253 507.000
69.24248 509.000
69.26242 520.000
69.28237 506.000
69.30232 525.000
69.32226 509.000
69.34221 507.000
69.36216 509.000
69.38211 493.000
69.40205 539.000
69.42200 502.000
69.44195 497.000
69.46189 507.000
69.48184 567.000
69.50179 523.000
69.52173 502.000
69.54168 529.000
69.56163 538.000
69.58157 534.000
69.60152 568.000
69.62147 518.000
69.64142 551.000
69.66136 529.000
69.68131 492.000
69.70126 520.000
69.72120 586.000
69.74115 524.000
69.76110 505.000
69.78104 533.000
69.80099 544.000
69.82094 511.000
69.84089 536.000
69.86083 542.000
69.88078 526.000
69.90073 547.000
69.92067 488.000
69.94062 511.000
69.96057 544.000
69.98051 563.000
70.00046 549.000
70.02041 531.000
70.04035 506.000
70.06030 517.000
70.08025 528.000
70.10020 540.000
70.12014 510.000
70.14009 545.000
70.16004 498.000
70.17998 514.000
70.19993 534.000
70.21988 565.000
70.23982 552.000
70.25977 540.000
70.27972 524.000
70.29967 509.000
70.31961 557.000
70.33956 540.000
70.35951 526.000
70.37945 534.000
70.39940 553.000
70.41935 529.000
70.43929 508.000
70.45924 515.000
70.47919 531.000
70.49914 521.000
70.51908 512.000
70.53903 506.000
70.55898 531.000
70.57892 522.000
70.59887 520.000
70.61882 512.000
70.63876 530.000
70.65871 540.000
70.67866 487.000
70.69860 505.000
70.71855 559.000
70.73850 553.000
70.75845 548.000
70.77839 549.000
70.79834 525.000
70.81829 517.000
70.83823 534.000
70.85818 524.000
70.87813 513.000
70.89807 545.000
70.91802 522.000
70.93797 519.000
70.95792 516.000
70.97786 579.000
70.99781 495.000
71.01776 511.000
71.03770 508.000
71.05765 490.000
71.07760 545.000
71.09754 495.000
71.11749 533.000
71.13744 536.000
71.15738 522.000
71.17733 513.000
71.19728 556.000
71.21723 515.000
71.23717 497.000
71.25712 549.000
71.27707 542.000
71.29701 559.000
71.31696 551.000
71.33691 536.000
71.35685 558.000
71.37680 511.000
71.39675 556.000
71.41670 529.000
71.43664 536.000
71.45659 535.000
71.47654 533.000
71.49648 528.000
71.51643 553.000
71.53638 535.000
71.55632 550.000
71.57627 520.000
71.59622 532.000
71.61616 532.000
71.63611 526.000
71.65606 545.000
71.67601 484.000
71.69595 571.000
71.71590 523.000
71.73585 577.000
71.75579 553.000
71.77574 562.000
71.79569 469.000
71.81563 579.000
71.83558 587.000
71.85553 539.000
71.87548 572.000
71.89542 544.000
71.91537 541.000
71.93532 526.000
71.95526 528.000
71.97521 532.000
71.99516 543.000
72.01510 580.000
72.03505 585.000
72.05500 546.000
72.07495 606.000
72.09489 562.000
72.11484 582.000
72.13479 607.000
72.15473 594.000
72.17468 594.000
72.19463 573.000
72.21457 624.000
72.23452 594.000
72.25447 700.000
72.27441 681.000
72.29436 731.000
72.31431 771.000
72.33426 762.000
72.35420 747.000
72.37415 726.000
72.39410 737.000
72.41404 779.000
72.43399 752.000
72.45394 761.000
72.47388 686.000
72.49383 705.000
72.51378 710.000
72.53373 721.000
72.55367 727.000
72.57362 700.000
72.59357 713.000
72.61351 681.000
72.63346 631.000
72.65341 602.000
72.67335 622.000
72.69330 587.000
72.71325 557.000
72.73319 589.000
72.75314 557.000
72.77309 533.000
72.79304 535.000
72.81298 553.000
72.83293 554.000
72.85288 545.000
72.87282 553.000
72.89277 557.000
72.91272 577.000
72.93266 536.000
72.95261 522.000
72.97256 506.000
72.99251 564.000
73.01245 549.000
73.03240 577.000
73.05235 529.000
73.07229 533.000
73.09224 552.000
73.11219 523.000
73.13213 544.000
73.15208 540.000
73.17203 538.000
73.19197 549.000
73.21192 549.000
73.23187 531.000
73.25182 552.000
73.27176 544.000
73.29171 505.000
73.31166 528.000
73.33160 561.000
73.35155 580.000
73.37150 520.000
73.39144 568.000
73.41139 582.000
73.43134 551.000
73.45129 535.000
73.47123 558.000
73.49118 519.000
73.51113 548.000
73.53107 500.000
73.55102 541.000
73.57097 519.000
73.59091 580.000
73.61086 542.000
73.63081 610.000
73.65076 597.000
73.67070 599.000
73.69065 558.000
73.71060 608.000
73.73054 609.000
73.75049 552.000
73.77044 587.000
73.79038 553.000
73.81033 624.000
73.83028 633.000
73.85022 601.000
73.87017 627.000
73.89012 588.000
73.91007 569.000
73.93001 541.000
73.94996 594.000
73.96991 524.000
73.98985 579.000
74.00980 561.000
74.02975 558.000
74.04969 593.000
74.06964 517.000
74.08959 560.000
74.10954 564.000
74.12948 517.000
74.14943 575.000
74.16938 538.000
74.18932 577.000
74.20927 549.000
74.22922 532.000
74.24916 533.000
74.26911 561.000
74.28906 567.000
74.30900 560.000
74.32895 531.000
74.34890 548.000
74.36885 524.000
74.38879 555.000
74.40874 493.000
74.42869 537.000
74.44863 553.000
74.46858 550.000
74.48853 530.000
74.50847 578.000
74.52842 568.000
74.54837 557.000
74.56832 546.000
74.58826 587.000
74.60821 588.000
74.62816 554.000
74.64810 568.000
74.66805 565.000
74.68800 599.000
74.70794 627.000
74.72789 605.000
74.74784 593.000
74.76778 576.000
74.78773 670.000
74.80768 623.000
74.82763 658.000
74.84757 670.000
74.86752 658.000
74.88747 729.000
74.90741 812.000
74.92736 832.000
74.94731 801.000
74.96725 848.000
74.98720 769.000
75.00715 833.000
75.02710 811.000
75.04704 857.000
75.06699 777.000
75.08694 791.000
75.10688 804.000
75.12683 869.000
75.14678 859.000
75.16672 837.000
75.18667 834.000
75.20662 885.000
75.22657 896.000
75.24651 831.000
75.26646 859.000
75.28641 827.000
75.30635 802.000
75.32630 830.000
75.34625 790.000
75.36619 796.000
75.38614 817.000
75.40609 703.000
75.42603 767.000
75.44598 754.000
75.46593 747.000
75.48588 693.000
75.50582 660.000
75.52577 690.000
75.54572 677.000
75.56566 647.000
75.58561 659.000
75.60556 627.000
75.62550 576.000
75.64545 633.000
75.66540 580.000
75.68535 601.000
75.70529 588.000
75.72524 573.000
75.74519 583.000
75.76513 555.000
75.78508 576.000
75.80503 583.000
75.82497 559.000
75.84492 550.000
75.86487 591.000
75.88481 562.000
75.90476 554.000
75.92471 625.000
75.94466 563.000
75.96460 564.000
75.98455 536.000
76.00450 583.000
76.02444 561.000
76.04439 564.000
76.06434 538.000
76.08428 534.000
76.10423 622.000
76.12418 567.000
76.14413 522.000
76.16407 524.000
76.18402 625.000
76.20397 560.000
76.22391 564.000
76.24386 580.000
76.26381 537.000
76.28375 556.000
76.30370 559.000
76.32365 545.000
76.34359 517.000
76.36354 567.000
76.38349 592.000
76.40344 538.000
76.42338 529.000
76.44333 497.000
76.46328 533.000
76.48322 459.000
76.50317 546.000
76.52312 536.000
76.54306 543.000
76.56301 528.000
76.58296 537.000
76.60291 548.000
76.62285 505.000
76.64280 533.000
76.66275 521.000
76.68269 514.000
76.70264 525.000
76.72259 526.000
76.74253 538.000
76.76248 574.000
76.78243 534.000
76.80238 525.000
76.82232 541.000
76.84227 566.000
76.86222 532.000
76.88216 516.000
76.90211 498.000
76.92206 532.000
76.94200 559.000
76.96195 541.000
76.98190 545.000
77.00184 536.000
77.02179 534.000
77.04174 504.000
77.06169 542.000
77.08163 491.000
77.10158 529.000
77.12153 504.000
77.14147 546.000
77.16142 517.000
77.18137 502.000
77.20131 539.000
77.22126 526.000
77.24121 523.000
77.26116 521.000
77.28110 512.000
77.30105 538.000
77.32100 507.000
77.34094 543.000
77.36089 498.000
77.38084 525.000
77.40078 522.000
77.42073 545.000
77.44068 520.000
77.46062 530.000
77.48057 523.000
77.50052 542.000
77.52047 541.000
77.54041 500.000
77.56036 550.000
77.58031 527.000
77.60025 570.000
77.62020 507.000
77.64015 521.000
77.66009 555.000
77.68004 533.000
77.69999 530.000
77.71994 579.000
77.73988 561.000
77.75983 541.000
77.77978 524.000
77.79972 536.000
77.81967 522.000
77.83962 534.000
77.85956 571.000
77.87951 539.000
77.89946 507.000
77.91940 604.000
77.93935 551.000
77.95930 521.000
77.97925 549.000
77.99919 554.000
78.01914 555.000
78.03909 535.000
78.05903 569.000
78.07898 566.000
78.09893 583.000
78.11887 556.000
78.13882 565.000
78.15877 586.000
78.17872 618.000
78.19866 561.000
78.21861 579.000
78.23856 584.000
78.25850 612.000
78.27845 638.000
78.29840 625.000
78.31834 559.000
78.33829 621.000
78.35824 584.000
78.37819 588.000
78.39813 615.000
78.41808 642.000
78.43803 635.000
78.45797 592.000
78.47792 604.000
78.49787 615.000
78.51781 584.000
78.53776 646.000
78.55771 643.000
78.57765 619.000
78.59760 630.000
78.61755 583.000
78.63750 623.000
78.65744 668.000
78.67739 603.000
78.69734 604.000
78.71728 621.000
78.73723 613.000
78.75718 532.000
78.77712 639.000
78.79707 612.000
78.81702 630.000
78.83697 578.000
78.85691 574.000
78.87686 561.000
78.89681 629.000
78.91675 571.000
78.93670 619.000
78.95665 604.000
78.97659 617.000
78.99654 611.000
79.01649 593.000
79.03643 592.000
79.05638 629.000
79.07633 619.000
79.09628 599.000
79.11622 566.000
79.13617 606.000
79.15612 575.000
79.17606 590.000
79.19601 638.000
79.21596 617.000
79.23590 589.000
79.25585 622.000
79.27580 542.000
79.29575 585.000
79.31569 636.000
79.33564 548.000
79.35559 573.000
79.37553 533.000
79.39548 571.000
79.41543 586.000
79.43537 543.000
79.45532 590.000
79.47527 537.000
79.49521 535.000
79.51516 549.000
79.53511 526.000
79.55506 544.000
79.57500 556.000
79.59495 493.000
79.61490 529.000
79.63484 520.000
79.65479 529.000
79.67474 556.000
79.69468 571.000
79.71463 546.000
79.73458 566.000
79.75453 543.000
79.77447 516.000
79.79442 550.000
79.81437 528.000
79.83431 502.000
79.85426 523.000
79.87421 557.000
79.89415 535.000
79.91410 578.000
79.93405 527.000
79.95399 521.000
79.97394 545.000
79.99389 527.000
80.01384 530.000
80.03378 535.000
80.05373 532.000
80.07368 565.000
80.09362 511.000
80.11357 534.000
80.13352 591.000
80.15346 585.000
80.17341 554.000
80.19336 571.000
80.21331 571.000
80.23325 602.000
80.25320 614.000
80.27315 624.000
80.29309 604.000
80.31304 622.000
80.33299 614.000
80.35293 635.000
80.37288 591.000
80.39283 606.000
80.41278 566.000
80.43272 592.000
80.45267 632.000
80.47262 556.000
80.49256 603.000
80.51251 555.000
80.53246 554.000
80.55240 562.000
80.57235 515.000
80.59230 567.000
80.61224 542.000
80.63219 560.000
80.65214 545.000
80.67209 575.000
80.69203 545.000
80.71198 525.000
80.73193 538.000
80.75187 561.000
80.77182 536.000
80.79177 571.000
80.81171 494.000
80.83166 544.000
80.85161 543.000
80.87156 539.000
80.89150 555.000
80.91145 543.000
80.93140 521.000
80.95134 526.000
80.97129 539.000
80.99124 564.000
81.01118 532.000
81.03113 515.000
81.05108 516.000
81.07102 542.000
81.09097 553.000
81.11092 505.000
81.13087 545.000
81.15081 531.000
81.17076 553.000
81.19071 490.000
81.21065 519.000
81.23060 548.000
81.25055 517.000
81.27049 534.000
81.29044 568.000
81.31039 555.000
81.33034 567.000
81.35028 507.000
81.37023 501.000
81.39018 559.000
81.41012 584.000
81.43007 505.000
81.45002 537.000
81.46996 516.000
81.48991 535.000
81.50986 558.000
81.52980 525.000
81.54975 522.000
81.56970 547.000
81.58965 547.000
81.60959 498.000
81.62954 553.000
81.64949 533.000
81.66943 530.000
81.68938 537.000
81.70933 490.000
81.72927 504.000
81.74922 522.000
81.76917 560.000
81.78912 537.000
81.80906 517.000
81.82901 563.000
81.84896 545.000
81.86890 564.000
81.88885 532.000
81.90880 530.000
81.92874 537.000
81.94869 562.000
81.96864 492.000
81.98859 542.000
82.00853 537.000
82.02848 524.000
82.04843 510.000
82.06837 495.000
82.08832 575.000
82.10827 538.000
82.12821 554.000
82.14816 532.000
82.16811 547.000
82.18805 544.000
82.20800 553.000
82.22795 554.000
82.24790 568.000
82.26784 614.000
82.28779 594.000
82.30774 606.000
82.32768 601.000
82.34763 631.000
82.36758 577.000
82.38752 617.000
82.40747 630.000
82.42742 607.000
82.44737 638.000
82.46731 655.000
82.48726 699.000
82.50721 653.000
82.52715 653.000
82.54710 703.000
82.56705 716.000
82.58699 648.000
82.60694 708.000
82.62689 693.000
82.64683 661.000
82.66678 638.000
82.68673 690.000
82.70668 705.000
82.72662 653.000
82.74657 661.000
82.76652 675.000
82.78646 680.000
82.80641 697.000
82.82636 661.000
82.84630 680.000
82.86625 622.000
82.88620 646.000
82.90615 654.000
82.92609 668.000
82.94604 690.000
82.96599 676.000
82.98593 703.000
83.00588 657.000
83.02583 615.000
83.04577 667.000
83.06572 625.000
83.08567 651.000
83.10561 604.000
83.12556 607.000
83.14551 644.000
83.16546 644.000
83.18540 621.000
83.20535 602.000
83.22530 609.000
83.24524 604.000
83.26519 621.000
83.28514 638.000
83.30508 596.000
83.32503 616.000
83.34498 574.000
83.36493 612.000
83.38487 566.000
83.40482 608.000
83.42477 619.000
83.44471 590.000
83.46466 585.000
83.48461 660.000
83.50455 621.000
83.52450 617.000
83.54445 633.000
83.56440 594.000
83.58434 706.000
83.60429 627.000
83.62424 621.000
83.64418 607.000
83.66413 603.000
83.68408 605.000
83.70402 615.000
83.72397 645.000
83.74392 606.000
83.76386 614.000
83.78381 641.000
83.80376 602.000
83.82371 617.000
83.84365 604.000
83.86360 627.000
83.88355 632.000
83.90349 580.000
83.92344 596.000
83.94339 628.000
83.96333 580.000
83.98328 583.000
84.00323 598.000
84.02318 574.000
84.04312 582.000
84.06307 543.000
84.08302 560.000
84.10296 549.000
84.12291 579.000
84.14286 535.000
84.16280 608.000
84.18275 567.000
84.20270 579.000
84.22264 582.000
84.24259 557.000
84.26254 579.000
84.28249 569.000
84.30243 593.000
84.32238 581.000
84.34233 522.000
84.36227 528.000
84.38222 542.000
84.40217 558.000
84.42211 497.000
84.44206 518.000
84.46201 526.000
84.48196 527.000
84.50190 567.000
84.52185 587.000
84.54180 562.000
84.56174 544.000
84.58169 511.000
84.60164 540.000
84.62158 566.000
84.64153 528.000
84.66148 560.000
84.68142 570.000
84.70137 534.000
84.72132 591.000
84.74127 602.000
84.76121 518.000
84.78116 575.000
84.80111 564.000
84.82105 563.000
84.84100 590.000
84.86095 530.000
84.88089 563.000
84.90084 609.000
84.92079 568.000
84.94074 528.000
84.96068 596.000
84.98063 564.000
85.00058 607.000
85.02052 555.000
85.04047 624.000
85.06042 548.000
85.08036 607.000
85.10031 548.000
85.12026 566.000
85.14021 587.000
85.16015 583.000
85.18010 525.000
85.20005 553.000
85.21999 549.000
85.23994 573.000
85.25989 581.000
85.27983 540.000
85.29978 547.000
85.31973 563.000
85.33967 530.000
85.35962 534.000
85.37957 511.000
85.39952 554.000
85.41946 512.000
85.43941 533.000
85.45936 532.000
85.47930 524.000
85.49925 547.000
85.51920 546.000
85.53914 516.000
85.55909 499.000
85.57904 547.000
85.59899 547.000
85.61893 525.000
85.63888 530.000
85.65883 510.000
85.67877 560.000
85.69872 492.000
85.71867 559.000
85.73861 521.000
85.75856 559.000
85.77851 533.000
85.79845 561.000
85.81840 515.000
85.83835 569.000
85.85830 495.000
85.87824 544.000
85.89819 569.000
85.91814 527.000
85.93808 530.000
85.95803 550.000
85.97798 486.000
85.99792 526.000
86.01787 582.000
86.03782 507.000
86.05777 529.000
86.07771 535.000
86.09766 552.000
86.11761 503.000
86.13755 496.000
86.15750 517.000
86.17745 526.000
86.19739 505.000
86.21734 545.000
86.23729 537.000
86.25723 516.000
86.27718 573.000
86.29713 554.000
86.31708 541.000
86.33702 572.000
86.35697 523.000
86.37692 548.000
86.39686 557.000
86.41681 483.000
86.43676 550.000
86.45670 560.000
86.47665 587.000
86.49660 567.000
86.51655 567.000
86.53649 548.000
86.55644 550.000
86.57639 527.000
86.59633 561.000
86.61628 562.000
86.63623 572.000
86.65617 555.000
86.67612 562.000
86.69607 627.000
86.71602 532.000
86.73596 570.000
86.75591 616.000
86.77586 558.000
86.79580 569.000
86.81575 610.000
86.83570 558.000
86.85564 573.000
86.87559 561.000
86.89554 539.000
86.91548 542.000
86.93543 595.000
86.95538 588.000
86.97533 598.000
86.99527 591.000
87.01522 564.000
87.03517 548.000
87.05511 582.000
87.07506 605.000
87.09501 538.000
87.11495 573.000
87.13490 571.000
87.15485 574.000
87.17480 554.000
87.19474 535.000
87.21469 596.000
87.23464 501.000
87.25458 578.000
87.27453 584.000
87.29448 555.000
87.31442 545.000
87.33437 551.000
87.35432 562.000
87.37426 547.000
87.39421 559.000
87.41416 545.000
87.43411 578.000
87.45405 576.000
87.47400 559.000
87.49395 577.000
87.51389 556.000
87.53384 551.000
87.55379 588.000
87.57373 535.000
87.59368 573.000
87.61363 588.000
87.63358 578.000
87.65352 564.000
87.67347 523.000
87.69342 544.000
87.71336 521.000
87.73331 530.000
87.75326 551.000
87.77320 552.000
87.79315 515.000
87.81310 513.000
87.83304 538.000
87.85299 543.000
87.87294 578.000
87.89289 573.000
87.91283 526.000
87.93278 544.000
87.95273 543.000
87.97267 572.000
87.99262 573.000
88.01257 549.000
88.03251 561.000
88.05246 532.000
88.07241 551.000
88.09236 586.000
88.11230 549.000
88.13225 578.000
88.15220 547.000
88.17214 508.000
88.19209 510.000
88.21204 556.000
88.23198 563.000
88.25193 546.000
88.27188 547.000
88.29183 543.000
88.31177 501.000
88.33172 519.000
88.35167 541.000
88.37161 540.000
88.39156 599.000
88.41151 555.000
88.43145 548.000
88.45140 553.000
88.47135 525.000
88.49129 574.000
88.51124 546.000
88.53119 499.000
88.55114 547.000
88.57108 563.000
88.59103 527.000
88.61098 498.000
88.63092 570.000
88.65087 557.000
88.67082 558.000
88.69076 535.000
88.71071 497.000
88.73066 541.000
88.75061 532.000
88.77055 564.000
88.79050 543.000
88.81045 479.000
88.83039 587.000
88.85034 539.000
88.87029 519.000
88.89023 532.000
88.91018 548.000
88.93013 532.000
88.95007 552.000
88.97002 529.000
88.98997 523.000
89.00992 563.000
89.02986 530.000
89.04981 542.000
89.06976 584.000
89.08970 567.000
89.10965 550.000
89.12960 514.000
89.14954 570.000
89.16949 555.000
89.18944 569.000
89.20939 541.000
89.22933 577.000
89.24928 606.000
89.26923 575.000
89.28917 541.000
89.30912 573.000
89.32907 583.000
89.34901 585.000
89.36896 634.000
89.38891 587.000
89.40885 568.000
89.42880 567.000
89.44875 605.000
89.46870 614.000
89.48864 630.000
89.50859 625.000
89.52854 606.000
89.54848 619.000
89.56843 596.000
89.58838 611.000
89.60832 643.000
89.62827 595.000
89.64822 620.000
89.66817 603.000
89.68811 663.000
89.70806 555.000
89.72801 607.000
89.74795 587.000
89.76790 601.000
89.78785 580.000
89.80779 551.000
89.82774 635.000
89.84769 592.000
89.86764 588.000
89.88758 586.000
89.90753 591.000
89.92748 600.000
89.94742 608.000
89.96737 682.000
89.98732 606.000
90.00726 592.000
