10.00000 181.000
10.01995 205.000
10.03989 171.000
10.05984 190.000
10.07979 174.000
10.09973 194.000
10.11968 196.000
10.13963 188.000
10.15958 207.000
10.17952 196.000
10.19947 195.000
10.21942 200.000
10.23936 187.000
10.25931 185.000
10.27926 191.000
10.29920 190.000
10.31915 190.000
10.33910 185.000
10.35905 216.000
10.37899 178.000
10.39894 192.000
10.41889 187.000
10.43883 190.000
10.45878 186.000
10.47873 203.000
10.49867 171.000
10.51862 208.000
10.53857 192.000
10.55851 194.000
10.57846 182.000
10.59841 180.000
10.61836 199.000
10.63830 210.000
10.65825 190.000
10.67820 189.000
10.69814 192.000
10.71809 166.000
10.73804 199.000
10.75798 197.000
10.77793 194.000
10.79788 173.000
10.81783 202.000
10.83777 199.000
10.85772 178.000
10.87767 179.000
10.89761 197.000
10.91756 177.000
10.93751 189.000
10.95745 185.000
10.97740 182.000
10.99735 201.000
11.01730 191.000
11.03724 186.000
11.05719 197.000
11.07714 195.000
11.09708 177.000
11.11703 191.000
11.13698 196.000
11.15692 200.000
11.17687 187.000
11.19682 173.000
11.21676 200.000
11.23671 207.000
11.25666 193.000
11.27661 153.000
11.29655 238.000
11.31650 176.000
11.33645 220.000
11.35639 198.000
11.37634 205.000
11.39629 185.000
11.41623 188.000
11.43618 189.000
11.45613 204.000
11.47608 200.000
11.49602 195.000
11.51597 207.000
11.53592 173.000
11.55586 213.000
11.57581 201.000
11.59576 199.000
11.61570 193.000
11.63565 206.000
11.65560 207.000
11.67554 179.000
11.69549 191.000
11.71544 207.000
11.73539 229.000
11.75533 193.000
11.77528 185.000
11.79523 194.000
11.81517 218.000
11.83512 195.000
11.85507 190.000
11.87501 201.000
11.89496 186.000
11.91491 177.000
11.93486 187.000
11.95480 185.000
11.97475 200.000
11.99470 195.000
12.01464 190.000
12.03459 177.000
12.05454 171.000
12.07448 198.000
12.09443 178.000
12.11438 205.000
12.13432 189.000
12.15427 215.000
12.17422 195.000
12.19417 209.000
12.21411 177.000
12.23406 195.000
12.25401 205.000
12.27395 203.000
12.29390 190.000
12.31385 166.000
12.33379 188.000
12.35374 178.000
12.37369 214.000
12.39364 199.000
12.41358 189.000
12.43353 204.000
12.45348 192.000
12.47342 172.000
12.49337 196.000
12.51332 181.000
12.53326 185.000
12.55321 233.000
12.57316 194.000
12.59311 200.000
12.61305 206.000
12.63300 228.000
12.65295 198.000
12.67289 206.000
12.69284 168.000
12.71279 197.000
12.73273 220.000
12.75268 197.000
12.77263 207.000
12.79257 214.000
12.81252 210.000
12.83247 206.000
12.85242 187.000
12.87236 210.000
12.89231 189.000
12.91226 194.000
12.93220 188.000
12.95215 198.000
12.97210 217.000
12.99204 213.000
13.01199 200.000
13.03194 198.000
13.05189 176.000
13.07183 196.000
13.09178 186.000
13.11173 185.000
13.13167 199.000
13.15162 205.000
13.17157 213.000
13.19151 195.000
13.21146 219.000
13.23141 198.000
13.25135 194.000
13.27130 172.000
13.29125 188.000
13.31120 204.000
13.33114 226.000
13.35109 180.000
13.37104 203.000
13.39098 178.000
13.41093 216.000
13.43088 177.000
13.45082 179.000
13.47077 166.000
13.49072 187.000
13.51067 198.000
13.53061 154.000
13.55056 196.000
13.57051 206.000
13.59045 179.000
13.61040 214.000
13.63035 189.000
13.65029 196.000
13.67024 187.000
13.69019 213.000
13.71013 201.000
13.73008 213.000
13.75003 218.000
13.76998 167.000
13.78992 187.000
13.80987 193.000
13.82982 215.000
13.84976 187.000
13.86971 193.000
13.88966 206.000
13.90960 180.000
13.92955 180.000
13.94950 195.000
13.96945 215.000
13.98939 206.000
14.00934 200.000
14.02929 195.000
14.04923 201.000
14.06918 197.000
14.08913 210.000
14.10907 216.000
14.12902 203.000
14.14897 219.000
14.16892 197.000
14.18886 230.000
14.20881 201.000
14.22876 177.000
14.24870 204.000
14.26865 195.000
14.28860 168.000
14.30854 180.000
14.32849 216.000
14.34844 190.000
14.36838 189.000
14.38833 210.000
14.40828 197.000
14.42823 204.000
14.44817 184.000
14.46812 200.000
14.48807 182.000
14.50801 195.000
14.52796 175.000
14.54791 191.000
14.56785 182.000
14.58780 187.000
14.60775 198.000
14.62770 209.000
14.64764 212.000
14.66759 215.000
14.68754 257.000
14.70748 197.000
14.72743 206.000
14.74738 236.000
14.76732 215.000
14.78727 166.000
14.80722 190.000
14.82716 214.000
14.84711 195.000
14.86706 206.000
14.88701 167.000
14.90695 217.000
14.92690 227.000
14.94685 193.000
14.96679 189.000
14.98674 216.000
15.00669 190.000
15.02663 205.000
15.04658 196.000
15.06653 225.000
15.08648 192.000
15.10642 195.000
15.12637 200.000
15.14632 190.000
15.16626 200.000
15.18621 219.000
15.20616 204.000
15.22610 214.000
15.24605 199.000
15.26600 206.000
15.28594 216.000
15.30589 200.000
15.32584 187.000
15.34579 176.000
15.36573 194.000
15.38568 191.000
15.40563 210.000
15.42557 183.000
15.44552 220.000
15.46547 206.000
15.48541 223.000
15.50536 195.000
15.52531 210.000
15.54526 184.000
15.56520 199.000
15.58515 226.000
15.60510 231.000
15.62504 232.000
15.64499 203.000
15.66494 230.000
15.68488 210.000
15.70483 213.000
15.72478 197.000
15.74472 243.000
15.76467 255.000
15.78462 238.000
15.80457 286.000
15.82451 250.000
15.84446 260.000
15.86441 282.000
15.88435 303.000
15.90430 312.000
15.92425 397.000
15.94419 366.000
15.96414 350.000
15.98409 310.000
16.00404 285.000
16.02398 264.000
16.04393 257.000
16.06388 263.000
16.08382 263.000
16.10377 259.000
16.12372 272.000
16.14366 320.000
16.16361 323.000
16.18356 353.000
16.20351 392.000
16.22345 393.000
16.24340 412.000
16.26335 441.000
16.28329 538.000
16.30324 564.000
16.32319 670.000
16.34313 772.000
16.36308 1031.000
16.38303 1260.000
16.40297 1525.000
16.42292 1986.000
16.44287 2533.000
16.46282 2682.000
16.48276 2481.000
16.50271 1947.000
16.52266 1418.000
16.54260 925.000
16.56255 622.000
16.58250 433.000
16.60244 359.000
16.62239 333.000
16.64234 292.000
16.66229 261.000
16.68223 257.000
16.70218 282.000
16.72213 250.000
16.74207 227.000
16.76202 237.000
16.78197 231.000
16.80191 230.000
16.82186 227.000
16.84181 218.000
16.86175 242.000
16.88170 230.000
16.90165 237.000
16.92160 254.000
16.94154 213.000
16.96149 234.000
16.98144 222.000
17.00138 222.000
17.02133 209.000
17.04128 187.000
17.06122 228.000
17.08117 232.000
17.10112 225.000
17.12107 236.000
17.14101 245.000
17.16096 239.000
17.18091 241.000
17.20085 215.000
17.22080 213.000
17.24075 250.000
17.26069 224.000
17.28064 196.000
17.30059 245.000
17.32053 225.000
17.34048 230.000
17.36043 232.000
17.38038 207.000
17.40032 227.000
17.42027 227.000
17.44022 210.000
17.46016 196.000
17.48011 200.000
17.50006 201.000
17.52000 223.000
17.53995 215.000
17.55990 215.000
17.57985 197.000
17.59979 215.000
17.61974 213.000
17.63969 235.000
17.65963 203.000
17.67958 230.000
17.69953 209.000
17.71947 227.000
17.73942 230.000
17.75937 191.000
17.77932 194.000
17.79926 189.000
17.81921 197.000
17.83916 196.000
17.85910 195.000
17.87905 154.000
17.89900 237.000
17.91894 215.000
17.93889 194.000
17.95884 202.000
17.97878 203.000
17.99873 201.000
18.01868 186.000
18.03863 197.000
18.05857 185.000
18.07852 203.000
18.09847 208.000
18.11841 186.000
18.13836 202.000
18.15831 206.000
18.17825 202.000
18.19820 195.000
18.21815 222.000
18.23810 199.000
18.25804 203.000
18.27799 182.000
18.29794 237.000
18.31788 209.000
18.33783 232.000
18.35778 208.000
18.37772 206.000
18.39767 220.000
18.41762 225.000
18.43756 270.000
18.45751 198.000
18.47746 191.000
18.49741 198.000
18.51735 203.000
18.53730 211.000
18.55725 208.000
18.57719 187.000
18.59714 215.000
18.61709 213.000
18.63703 195.000
18.65698 217.000
18.67693 198.000
18.69688 212.000
18.71682 194.000
18.73677 200.000
18.75672 184.000
18.77666 191.000
18.79661 198.000
18.81656 192.000
18.83650 201.000
18.85645 166.000
18.87640 208.000
18.89634 201.000
18.91629 189.000
18.93624 192.000
18.95619 199.000
18.97613 197.000
18.99608 183.000
19.01603 204.000
19.03597 209.000
19.05592 210.000
19.07587 207.000
19.09581 226.000
19.11576 196.000
19.13571 209.000
19.15566 207.000
19.17560 204.000
19.19555 209.000
19.21550 201.000
19.23544 204.000
19.25539 193.000
19.27534 224.000
19.29528 209.000
19.31523 212.000
19.33518 180.000
19.35513 198.000
19.37507 216.000
19.39502 177.000
19.41497 193.000
19.43491 204.000
19.45486 191.000
19.47481 200.000
19.49475 202.000
19.51470 248.000
19.53465 164.000
19.55459 197.000
19.57454 181.000
19.59449 205.000
19.61444 190.000
19.63438 218.000
19.65433 210.000
19.67428 206.000
19.69422 222.000
19.71417 186.000
19.73412 188.000
19.75406 201.000
19.77401 180.000
19.79396 187.000
19.81391 201.000
19.83385 193.000
19.85380 216.000
19.87375 169.000
19.89369 202.000
19.91364 182.000
19.93359 214.000
19.95353 184.000
19.97348 201.000
19.99343 216.000
20.01337 203.000
20.03332 214.000
20.05327 193.000
20.07322 212.000
20.09316 236.000
20.11311 196.000
20.13306 202.000
20.15300 204.000
20.17295 189.000
20.19290 197.000
20.21284 216.000
20.23279 208.000
20.25274 177.000
20.27269 232.000
20.29263 186.000
20.31258 186.000
20.33253 204.000
20.35247 199.000
20.37242 197.000
20.39237 199.000
20.41231 188.000
20.43226 193.000
20.45221 212.000
20.47215 183.000
20.49210 212.000
20.51205 201.000
20.53200 251.000
20.55194 212.000
20.57189 217.000
20.59184 240.000
20.61178 230.000
20.63173 233.000
20.65168 249.000
20.67162 238.000
20.69157 247.000
20.71152 277.000
20.73147 253.000
20.75141 294.000
20.77136 278.000
20.79131 302.000
20.81125 331.000
20.83120 322.000
20.85115 336.000
20.87109 362.000
20.89104 327.000
20.91099 293.000
20.93094 311.000
20.95088 292.000
20.97083 276.000
20.99078 285.000
21.01072 263.000
21.03067 223.000
21.05062 255.000
21.07056 216.000
21.09051 244.000
21.11046 239.000
21.13040 215.000
21.15035 234.000
21.17030 207.000
21.19025 235.000
21.21019 202.000
21.23014 202.000
21.25009 227.000
21.27003 227.000
21.28998 191.000
21.30993 195.000
21.32987 186.000
21.34982 202.000
21.36977 216.000
21.38972 199.000
21.40966 212.000
21.42961 198.000
21.44956 201.000
21.46950 209.000
21.48945 205.000
21.50940 226.000
21.52934 202.000
21.54929 210.000
21.56924 228.000
21.58918 184.000
21.60913 190.000
21.62908 199.000
21.64903 192.000
21.66897 198.000
21.68892 198.000
21.70887 187.000
21.72881 196.000
21.74876 221.000
21.76871 204.000
21.78865 217.000
21.80860 177.000
21.82855 193.000
21.84850 252.000
21.86844 205.000
21.88839 235.000
21.90834 196.000
21.92828 173.000
21.94823 178.000
21.96818 190.000
21.98812 210.000
22.00807 185.000
22.02802 204.000
22.04796 207.000
22.06791 216.000
22.08786 184.000
22.10781 220.000
22.12775 211.000
22.14770 185.000
22.16765 227.000
22.18759 209.000
22.20754 210.000
22.22749 216.000
22.24743 199.000
22.26738 219.000
22.28733 198.000
22.30728 187.000
22.32722 207.000
22.34717 202.000
22.36712 202.000
22.38706 192.000
22.40701 218.000
22.42696 219.000
22.44690 230.000
22.46685 209.000
22.48680 224.000
22.50675 183.000
22.52669 195.000
22.54664 195.000
22.56659 201.000
22.58653 199.000
22.60648 207.000
22.62643 213.000
22.64637 190.000
22.66632 208.000
22.68627 219.000
22.70621 218.000
22.72616 178.000
22.74611 198.000
22.76606 213.000
22.78600 176.000
22.80595 204.000
22.82590 210.000
22.84584 209.000
22.86579 200.000
22.88574 197.000
22.90568 181.000
22.92563 204.000
22.94558 194.000
22.96553 207.000
22.98547 206.000
23.00542 219.000
23.02537 181.000
23.04531 205.000
23.06526 196.000
23.08521 220.000
23.10515 214.000
23.12510 202.000
23.14505 226.000
23.16499 220.000
23.18494 225.000
23.20489 215.000
23.22484 255.000
23.24478 220.000
23.26473 201.000
23.28468 191.000
23.30462 203.000
23.32457 194.000
23.34452 206.000
23.36446 202.000
23.38441 188.000
23.40436 225.000
23.42431 189.000
23.44425 210.000
23.46420 193.000
23.48415 206.000
23.50409 219.000
23.52404 229.000
23.54399 194.000
23.56393 215.000
23.58388 225.000
23.60383 210.000
23.62377 205.000
23.64372 218.000
23.66367 185.000
23.68362 197.000
23.70356 210.000
23.72351 207.000
23.74346 203.000
23.76340 195.000
23.78335 201.000
23.80330 226.000
23.82324 213.000
23.84319 190.000
23.86314 210.000
23.88309 217.000
23.90303 206.000
23.92298 211.000
23.94293 196.000
23.96287 193.000
23.98282 201.000
24.00277 196.000
24.02271 210.000
24.04266 195.000
24.06261 204.000
24.08256 202.000
24.10250 215.000
24.12245 236.000
24.14240 218.000
24.16234 199.000
24.18229 212.000
24.20224 205.000
24.22218 209.000
24.24213 209.000
24.26208 195.000
24.28202 218.000
24.30197 205.000
24.32192 217.000
24.34187 197.000
24.36181 191.000
24.38176 203.000
24.40171 238.000
24.42165 191.000
24.44160 209.000
24.46155 196.000
24.48149 199.000
24.50144 205.000
24.52139 197.000
24.54134 214.000
24.56128 237.000
24.58123 197.000
24.60118 203.000
24.62112 200.000
24.64107 206.000
24.66102 206.000
24.68096 226.000
24.70091 242.000
24.72086 191.000
24.74080 196.000
24.76075 203.000
24.78070 203.000
24.80065 194.000
24.82059 242.000
24.84054 201.000
24.86049 199.000
24.88043 211.000
24.90038 194.000
24.92033 197.000
24.94027 225.000
24.96022 223.000
24.98017 240.000
25.00012 241.000
25.02006 210.000
25.04001 216.000
25.05996 200.000
25.07990 206.000
25.09985 178.000
25.11980 202.000
25.13974 189.000
25.15969 189.000
25.17964 204.000
25.19958 200.000
25.21953 203.000
25.23948 201.000
25.25943 212.000
25.27937 199.000
25.29932 237.000
25.31927 199.000
25.33921 226.000
25.35916 218.000
25.37911 205.000
25.39905 227.000
25.41900 193.000
25.43895 207.000
25.45890 193.000
25.47884 210.000
25.49879 200.000
25.51874 191.000
25.53868 195.000
25.55863 194.000
25.57858 193.000
25.59852 208.000
25.61847 177.000
25.63842 225.000
25.65837 213.000
25.67831 187.000
25.69826 224.000
25.71821 203.000
25.73815 204.000
25.75810 211.000
25.77805 192.000
25.79799 239.000
25.81794 205.000
25.83789 207.000
25.85783 198.000
25.87778 216.000
25.89773 205.000
25.91768 216.000
25.93762 187.000
25.95757 225.000
25.97752 210.000
25.99746 197.000
26.01741 206.000
26.03736 195.000
26.05730 201.000
26.07725 190.000
26.09720 209.000
26.11715 194.000
26.13709 205.000
26.15704 223.000
26.17699 208.000
26.19693 216.000
26.21688 225.000
26.23683 224.000
26.25677 214.000
26.27672 208.000
26.29667 222.000
26.31661 231.000
26.33656 222.000
26.35651 215.000
26.37646 211.000
26.39640 219.000
26.41635 232.000
26.43630 226.000
26.45624 228.000
26.47619 225.000
26.49614 238.000
26.51608 219.000
26.53603 234.000
26.55598 220.000
26.57593 225.000
26.59587 223.000
26.61582 223.000
26.63577 213.000
26.65571 212.000
26.67566 192.000
26.69561 210.000
26.71555 198.000
26.73550 223.000
26.75545 231.000
26.77539 217.000
26.79534 197.000
26.81529 207.000
26.83524 209.000
26.85518 189.000
26.87513 206.000
26.89508 201.000
26.91502 207.000
26.93497 223.000
26.95492 208.000
26.97486 191.000
26.99481 226.000
27.01476 228.000
27.03471 235.000
27.05465 241.000
27.07460 225.000
27.09455 219.000
27.11449 210.000
27.13444 213.000
27.15439 199.000
27.17433 209.000
27.19428 211.000
27.21423 186.000
27.23417 232.000
27.25412 230.000
27.27407 187.000
27.29402 198.000
27.31396 197.000
27.33391 202.000
27.35386 186.000
27.37380 195.000
27.39375 192.000
27.41370 223.000
27.43364 220.000
27.45359 211.000
27.47354 225.000
27.49349 215.000
27.51343 216.000
27.53338 189.000
27.55333 201.000
27.57327 199.000
27.59322 222.000
27.61317 206.000
27.63311 218.000
27.65306 216.000
27.67301 218.000
27.69296 225.000
27.71290 205.000
27.73285 202.000
27.75280 212.000
27.77274 199.000
27.79269 209.000
27.81264 216.000
27.83258 210.000
27.85253 190.000
27.87248 207.000
27.89242 219.000
27.91237 184.000
27.93232 203.000
27.95227 229.000
27.97221 201.000
27.99216 185.000
28.01211 194.000
28.03205 227.000
28.05200 229.000
28.07195 209.000
28.09189 193.000
28.11184 228.000
28.13179 225.000
28.15174 191.000
28.17168 208.000
28.19163 217.000
28.21158 242.000
28.23152 222.000
28.25147 200.000
28.27142 206.000
28.29136 215.000
28.31131 224.000
28.33126 212.000
28.35120 190.000
28.37115 196.000
28.39110 222.000
28.41105 202.000
28.43099 230.000
28.45094 228.000
28.47089 210.000
28.49083 221.000
28.51078 237.000
28.53073 208.000
28.55067 235.000
28.57062 212.000
28.59057 217.000
28.61052 208.000
28.63046 213.000
28.65041 211.000
28.67036 235.000
28.69030 205.000
28.71025 199.000
28.73020 203.000
28.75014 228.000
28.77009 207.000
28.79004 222.000
28.80998 222.000
28.82993 198.000
28.84988 212.000
28.86983 234.000
28.88977 210.000
28.90972 182.000
28.92967 209.000
28.94961 213.000
28.96956 194.000
28.98951 199.000
29.00945 216.000
29.02940 211.000
29.04935 218.000
29.06930 200.000
29.08924 216.000
29.10919 215.000
29.12914 220.000
29.14908 197.000
29.16903 233.000
29.18898 223.000
29.20892 229.000
29.22887 224.000
29.24882 188.000
29.26877 224.000
29.28871 219.000
29.30866 216.000
29.32861 243.000
29.34855 171.000
29.36850 218.000
29.38845 206.000
29.40839 191.000
29.42834 232.000
29.44829 228.000
29.46823 220.000
29.48818 222.000
29.50813 226.000
29.52808 224.000
29.54802 239.000
29.56797 223.000
29.58792 231.000
29.60786 199.000
29.62781 214.000
29.64776 218.000
29.66770 246.000
29.68765 208.000
29.70760 219.000
29.72755 211.000
29.74749 230.000
29.76744 247.000
29.78739 213.000
29.80733 228.000
29.82728 209.000
29.84723 214.000
29.86717 231.000
29.88712 193.000
29.90707 240.000
29.92701 204.000
29.94696 218.000
29.96691 221.000
29.98686 226.000
30.00680 220.000
30.02675 246.000
30.04670 223.000
30.06664 227.000
30.08659 230.000
30.10654 254.000
30.12648 247.000
30.14643 227.000
30.16638 253.000
30.18633 263.000
30.20627 254.000
30.22622 247.000
30.24617 266.000
30.26611 280.000
30.28606 287.000
30.30601 263.000
30.32595 290.000
30.34590 278.000
30.36585 252.000
30.38579 229.000
30.40574 260.000
30.42569 260.000
30.44564 224.000
30.46558 259.000
30.48553 214.000
30.50548 217.000
30.52542 245.000
30.54537 219.000
30.56532 222.000
30.58526 230.000
30.60521 217.000
30.62516 204.000
30.64511 263.000
30.66505 241.000
30.68500 235.000
30.70495 218.000
30.72489 213.000
30.74484 217.000
30.76479 200.000
30.78473 190.000
30.80468 185.000
30.82463 218.000
30.84458 236.000
30.86452 195.000
30.88447 201.000
30.90442 194.000
30.92436 243.000
30.94431 221.000
30.96426 202.000
30.98420 217.000
31.00415 211.000
31.02410 249.000
31.04404 200.000
31.06399 222.000
31.08394 226.000
31.10389 220.000
31.12383 187.000
31.14378 212.000
31.16373 201.000
31.18367 224.000
31.20362 202.000
31.22357 214.000
31.24351 240.000
31.26346 209.000
31.28341 223.000
31.30336 248.000
31.32330 222.000
31.34325 230.000
31.36320 214.000
31.38314 228.000
31.40309 205.000
31.42304 233.000
31.44298 192.000
31.46293 238.000
31.48288 237.000
31.50282 216.000
31.52277 196.000
31.54272 231.000
31.56267 228.000
31.58261 198.000
31.60256 231.000
31.62251 189.000
31.64245 225.000
31.66240 245.000
31.68235 210.000
31.70229 211.000
31.72224 253.000
31.74219 217.000
31.76214 209.000
31.78208 222.000
31.80203 220.000
31.82198 209.000
31.84192 275.000
31.86187 220.000
31.88182 251.000
31.90176 211.000
31.92171 223.000
31.94166 241.000
31.96160 206.000
31.98155 209.000
32.00150 239.000
32.02145 250.000
32.04139 240.000
32.06134 209.000
32.08129 217.000
32.10123 216.000
32.12118 243.000
32.14113 232.000
32.16107 231.000
32.18102 218.000
32.20097 233.000
32.22092 244.000
32.24086 217.000
32.26081 231.000
32.28076 222.000
32.30070 225.000
32.32065 234.000
32.34060 254.000
32.36054 227.000
32.38049 237.000
32.40044 249.000
32.42039 255.000
32.44033 290.000
32.46028 269.000
32.48023 303.000
32.50017 363.000
32.52012 353.000
32.54007 358.000
32.56001 370.000
32.57996 344.000
32.59991 353.000
32.61985 335.000
32.63980 295.000
32.65975 288.000
32.67970 264.000
32.69964 249.000
32.71959 235.000
32.73954 249.000
32.75948 191.000
32.77943 246.000
32.79938 239.000
32.81932 221.000
32.83927 256.000
32.85922 229.000
32.87917 248.000
32.89911 248.000
32.91906 235.000
32.93901 289.000
32.95895 229.000
32.97890 257.000
32.99885 260.000
33.01879 269.000
33.03874 269.000
33.05869 270.000
33.07863 293.000
33.09858 293.000
33.11853 328.000
33.13848 345.000
33.15842 375.000
33.17837 441.000
33.19832 496.000
33.21826 501.000
33.23821 572.000
33.25816 575.000
33.27810 527.000
33.29805 491.000
33.31800 445.000
33.33795 383.000
33.35789 372.000
33.37784 356.000
33.39779 305.000
33.41773 280.000
33.43768 272.000
33.45763 248.000
33.47757 229.000
33.49752 240.000
33.51747 210.000
33.53741 248.000
33.55736 235.000
33.57731 222.000
33.59726 235.000
33.61720 260.000
33.63715 243.000
33.65710 265.000
33.67704 266.000
33.69699 222.000
33.71694 236.000
33.73688 220.000
33.75683 232.000
33.77678 255.000
33.79673 247.000
33.81667 239.000
33.83662 220.000
33.85657 241.000
33.87651 251.000
33.89646 269.000
33.91641 231.000
33.93635 261.000
33.95630 247.000
33.97625 244.000
33.99620 270.000
34.01614 261.000
34.03609 266.000
34.05604 244.000
34.07598 292.000
34.09593 288.000
34.11588 274.000
34.13582 288.000
34.15577 283.000
34.17572 325.000
34.19566 354.000
34.21561 343.000
34.23556 354.000
34.25551 398.000
34.27545 360.000
34.29540 352.000
34.31535 392.000
34.33529 389.000
34.35524 396.000
34.37519 342.000
34.39513 326.000
34.41508 357.000
34.43503 323.000
34.45498 323.000
34.47492 312.000
34.49487 306.000
34.51482 314.000
34.53476 280.000
34.55471 329.000
34.57466 288.000
34.59460 266.000
34.61455 262.000
34.63450 268.000
34.65444 276.000
34.67439 283.000
34.69434 262.000
34.71429 269.000
34.73423 253.000
34.75418 309.000
34.77413 259.000
34.79407 273.000
34.81402 258.000
34.83397 270.000
34.85391 262.000
34.87386 283.000
34.89381 297.000
34.91376 299.000
34.93370 298.000
34.95365 354.000
34.97360 381.000
34.99354 411.000
35.01349 415.000
35.03344 404.000
35.05338 507.000
35.07333 518.000
35.09328 571.000
35.11322 548.000
35.13317 564.000
35.15312 548.000
35.17307 567.000
35.19301 560.000
35.21296 492.000
35.23291 498.000
35.25285 461.000
35.27280 484.000
35.29275 457.000
35.31269 451.000
35.33264 478.000
35.35259 501.000
35.37254 534.000
35.39248 627.000
35.41243 731.000
35.43238 890.000
35.45232 1053.000
35.47227 1190.000
35.49222 1223.000
35.51216 1394.000
35.53211 1566.000
35.55206 1747.000
35.57201 1878.000
35.59195 1826.000
35.61190 1727.000
35.63185 1659.000
35.65179 1515.000
35.67174 1389.000
35.69169 1231.000
35.71163 1045.000
35.73158 823.000
35.75153 685.000
35.77147 675.000
35.79142 496.000
35.81137 433.000
35.83132 419.000
35.85126 384.000
35.87121 349.000
35.89116 334.000
35.91110 300.000
35.93105 284.000
35.95100 321.000
35.97094 280.000
35.99089 286.000
36.01084 282.000
36.03079 270.000
36.05073 302.000
36.07068 270.000
36.09063 262.000
36.11057 274.000
36.13052 262.000
36.15047 287.000
36.17041 275.000
36.19036 273.000
36.21031 271.000
36.23025 300.000
36.25020 287.000
36.27015 327.000
36.29010 417.000
36.31004 382.000
36.32999 471.000
36.34994 489.000
36.36988 581.000
36.38983 676.000
36.40978 665.000
36.42972 743.000
36.44967 772.000
36.46962 748.000
36.48957 719.000
36.50951 723.000
36.52946 594.000
36.54941 620.000
36.56935 547.000
36.58930 479.000
36.60925 452.000
36.62919 408.000
36.64914 337.000
36.66909 308.000
36.68903 318.000
36.70898 276.000
36.72893 281.000
36.74888 296.000
36.76882 290.000
36.78877 257.000
36.80872 266.000
36.82866 280.000
36.84861 268.000
36.86856 267.000
36.88850 262.000
36.90845 272.000
36.92840 276.000
36.94835 268.000
36.96829 271.000
36.98824 290.000
37.00819 292.000
37.02813 301.000
37.04808 326.000
37.06803 314.000
37.08797 349.000
37.10792 346.000
37.12787 354.000
37.14781 359.000
37.16776 347.000
37.18771 297.000
37.20766 356.000
37.22760 310.000
37.24755 290.000
37.26750 295.000
37.28744 277.000
37.30739 256.000
37.32734 265.000
37.34728 235.000
37.36723 249.000
37.38718 265.000
37.40713 271.000
37.42707 227.000
37.44702 231.000
37.46697 216.000
37.48691 227.000
37.50686 216.000
37.52681 264.000
37.54675 246.000
37.56670 258.000
37.58665 220.000
37.60660 215.000
37.62654 226.000
37.64649 209.000
37.66644 228.000
37.68638 239.000
37.70633 208.000
37.72628 259.000
37.74622 241.000
37.76617 252.000
37.78612 228.000
37.80606 258.000
37.82601 222.000
37.84596 238.000
37.86591 233.000
37.88585 251.000
37.90580 228.000
37.92575 229.000
37.94569 220.000
37.96564 256.000
37.98559 234.000
38.00553 265.000
38.02548 240.000
38.04543 256.000
38.06538 245.000
38.08532 242.000
38.10527 237.000
38.12522 247.000
38.14516 269.000
38.16511 278.000
38.18506 276.000
38.20500 257.000
38.22495 276.000
38.24490 270.000
38.26484 266.000
38.28479 286.000
38.30474 269.000
38.32469 289.000
38.34463 295.000
38.36458 318.000
38.38453 315.000
38.40447 292.000
38.42442 327.000
38.44437 354.000
38.46431 379.000
38.48426 343.000
38.50421 357.000
38.52416 403.000
38.54410 519.000
38.56405 480.000
38.58400 619.000
38.60394 688.000
38.62389 830.000
38.64384 1046.000
38.66378 1156.000
38.68373 1387.000
38.70368 1439.000
38.72362 1499.000
38.74357 1631.000
38.76352 1577.000
38.78347 1430.000
38.80341 1452.000
38.82336 1323.000
38.84331 1182.000
38.86325 1030.000
38.88320 920.000
38.90315 808.000
38.92309 802.000
38.94304 771.000
38.96299 714.000
38.98294 671.000
39.00288 671.000
39.02283 666.000
39.04278 620.000
39.06272 565.000
39.08267 543.000
39.10262 472.000
39.12256 449.000
39.14251 403.000
39.16246 387.000
39.18241 330.000
39.20235 279.000
39.22230 291.000
39.24225 282.000
39.26219 304.000
39.28214 260.000
39.30209 273.000
39.32203 263.000
39.34198 237.000
39.36193 232.000
39.38187 293.000
39.40182 242.000
39.42177 256.000
39.44172 260.000
39.46166 218.000
39.48161 243.000
39.50156 264.000
39.52150 235.000
39.54145 256.000
39.56140 266.000
39.58134 253.000
39.60129 235.000
39.62124 228.000
39.64119 264.000
39.66113 238.000
39.68108 241.000
39.70103 243.000
39.72097 250.000
39.74092 249.000
39.76087 226.000
39.78081 223.000
39.80076 242.000
39.82071 241.000
39.84065 185.000
39.86060 228.000
39.88055 242.000
39.90050 221.000
39.92044 215.000
39.94039 210.000
39.96034 242.000
39.98028 253.000
40.00023 233.000
40.02018 218.000
40.04012 224.000
40.06007 210.000
40.08002 214.000
40.09997 216.000
40.11991 226.000
40.13986 237.000
40.15981 248.000
40.17975 262.000
40.19970 222.000
40.21965 226.000
40.23959 205.000
40.25954 236.000
40.27949 239.000
40.29943 226.000
40.31938 248.000
40.33933 215.000
40.35928 227.000
40.37922 241.000
40.39917 226.000
40.41912 235.000
40.43906 255.000
40.45901 210.000
40.47896 245.000
40.49890 246.000
40.51885 236.000
40.53880 254.000
40.55875 195.000
40.57869 236.000
40.59864 233.000
40.61859 250.000
40.63853 240.000
40.65848 223.000
40.67843 242.000
40.69837 232.000
40.71832 233.000
40.73827 236.000
40.75822 284.000
40.77816 274.000
40.79811 253.000
40.81806 233.000
40.83800 254.000
40.85795 257.000
40.87790 273.000
40.89784 267.000
40.91779 257.000
40.93774 282.000
40.95768 267.000
40.97763 263.000
40.99758 279.000
41.01753 283.000
41.03747 282.000
41.05742 282.000
41.07737 339.000
41.09731 305.000
41.11726 318.000
41.13721 336.000
41.15715 346.000
41.17710 373.000
41.19705 462.000
41.21700 499.000
41.23694 549.000
41.25689 592.000
41.27684 728.000
41.29678 1000.000
41.31673 1170.000
41.33668 1501.000
41.35662 1881.000
41.37657 2038.000
41.39652 2387.000
41.41646 2461.000
41.43641 2426.000
41.45636 2430.000
41.47631 2069.000
41.49625 1830.000
41.51620 1687.000
41.53615 1454.000
41.55609 1310.000
41.57604 1056.000
41.59599 849.000
41.61593 730.000
41.63588 580.000
41.65583 544.000
41.67578 453.000
41.69572 423.000
41.71567 470.000
41.73562 386.000
41.75556 384.000
41.77551 339.000
41.79546 368.000
41.81540 314.000
41.83535 342.000
41.85530 310.000
41.87524 329.000
41.89519 339.000
41.91514 353.000
41.93509 298.000
41.95503 298.000
41.97498 274.000
41.99493 311.000
42.01487 294.000
42.03482 298.000
42.05477 231.000
42.07471 291.000
42.09466 294.000
42.11461 264.000
42.13456 253.000
42.15450 263.000
42.17445 256.000
42.19440 239.000
42.21434 237.000
42.23429 256.000
42.25424 235.000
42.27418 217.000
42.29413 221.000
42.31408 255.000
42.33403 256.000
42.35397 215.000
42.37392 239.000
42.39387 238.000
42.41381 256.000
42.43376 208.000
42.45371 248.000
42.47365 221.000
42.49360 238.000
42.51355 199.000
42.53349 223.000
42.55344 240.000
42.57339 260.000
42.59334 247.000
42.61328 249.000
42.63323 229.000
42.65318 212.000
42.67312 242.000
42.69307 242.000
42.71302 234.000
42.73296 239.000
42.75291 238.000
42.77286 234.000
42.79281 229.000
42.81275 234.000
42.83270 282.000
42.85265 252.000
42.87259 257.000
42.89254 289.000
42.91249 288.000
42.93243 246.000
42.95238 282.000
42.97233 294.000
42.99227 323.000
43.01222 293.000
43.03217 313.000
43.05212 312.000
43.07206 329.000
43.09201 313.000
43.11196 336.000
43.13190 377.000
43.15185 354.000
43.17180 344.000
43.19174 339.000
43.21169 353.000
43.23164 264.000
43.25159 306.000
43.27153 310.000
43.29148 302.000
43.31143 301.000
43.33137 317.000
43.35132 254.000
43.37127 276.000
43.39121 264.000
43.41116 317.000
43.43111 258.000
43.45105 261.000
43.47100 262.000
43.49095 261.000
43.51090 261.000
43.53084 272.000
43.55079 245.000
43.57074 252.000
43.59068 239.000
43.61063 216.000
43.63058 213.000
43.65052 232.000
43.67047 220.000
43.69042 246.000
43.71037 227.000
43.73031 206.000
43.75026 224.000
43.77021 230.000
43.79015 221.000
43.81010 238.000
43.83005 203.000
43.84999 208.000
43.86994 248.000
43.88989 203.000
43.90984 226.000
43.92978 240.000
43.94973 196.000
43.96968 193.000
43.98962 199.000
44.00957 236.000
44.02952 246.000
44.04946 216.000
44.06941 233.000
44.08936 213.000
44.10930 235.000
44.12925 244.000
44.14920 199.000
44.16915 217.000
44.18909 218.000
44.20904 216.000
44.22899 241.000
44.24893 228.000
44.26888 240.000
44.28883 232.000
44.30877 194.000
44.32872 211.000
44.34867 217.000
44.36862 212.000
44.38856 217.000
44.40851 232.000
44.42846 236.000
44.44840 206.000
44.46835 220.000
44.48830 232.000
44.50824 230.000
44.52819 210.000
44.54814 197.000
44.56808 207.000
44.58803 196.000
44.60798 231.000
44.62793 192.000
44.64787 226.000
44.66782 256.000
44.68777 229.000
44.70771 234.000
44.72766 238.000
44.74761 272.000
44.76755 256.000
44.78750 258.000
44.80745 261.000
44.82740 266.000
44.84734 283.000
44.86729 272.000
44.88724 242.000
44.90718 266.000
44.92713 242.000
44.94708 272.000
44.96702 250.000
44.98697 260.000
45.00692 221.000
45.02686 248.000
45.04681 232.000
45.06676 229.000
45.08671 237.000
45.10665 222.000
45.12660 208.000
45.14655 223.000
45.16649 226.000
45.18644 240.000
45.20639 216.000
45.22633 207.000
45.24628 210.000
45.26623 202.000
45.28618 211.000
45.30612 200.000
45.32607 238.000
45.34602 237.000
45.36596 232.000
45.38591 230.000
45.40586 202.000
45.42580 224.000
45.44575 207.000
45.46570 209.000
45.48565 219.000
45.50559 225.000
45.52554 216.000
45.54549 222.000
45.56543 210.000
45.58538 217.000
45.60533 214.000
45.62527 214.000
45.64522 208.000
45.66517 224.000
45.68511 245.000
45.70506 210.000
45.72501 244.000
45.74496 221.000
45.76490 205.000
45.78485 241.000
45.80480 225.000
45.82474 228.000
45.84469 217.000
45.86464 219.000
45.88458 218.000
45.90453 185.000
45.92448 255.000
45.94443 226.000
45.96437 206.000
45.98432 226.000
46.00427 205.000
46.02421 231.000
46.04416 216.000
46.06411 239.000
46.08405 206.000
46.10400 227.000
46.12395 227.000
46.14389 213.000
46.16384 200.000
46.18379 210.000
46.20374 228.000
46.22368 215.000
46.24363 259.000
46.26358 233.000
46.28352 248.000
46.30347 244.000
46.32342 239.000
46.34336 251.000
46.36331 239.000
46.38326 218.000
46.40321 247.000
46.42315 249.000
46.44310 199.000
46.46305 245.000
46.48299 232.000
46.50294 236.000
46.52289 203.000
46.54283 235.000
46.56278 213.000
46.58273 232.000
46.60267 205.000
46.62262 252.000
46.64257 235.000
46.66252 227.000
46.68246 238.000
46.70241 184.000
46.72236 195.000
46.74230 216.000
46.76225 201.000
46.78220 225.000
46.80214 215.000
46.82209 226.000
46.84204 205.000
46.86199 234.000
46.88193 219.000
46.90188 221.000
46.92183 219.000
46.94177 239.000
46.96172 230.000
46.98167 248.000
47.00161 220.000
47.02156 209.000
47.04151 237.000
47.06146 205.000
47.08140 218.000
47.10135 204.000
47.12130 215.000
47.14124 208.000
47.16119 210.000
47.18114 209.000
47.20108 233.000
47.22103 216.000
47.24098 209.000
47.26092 233.000
47.28087 230.000
47.30082 222.000
47.32077 225.000
47.34071 217.000
47.36066 222.000
47.38061 227.000
47.40055 209.000
47.42050 213.000
47.44045 221.000
47.46039 235.000
47.48034 212.000
47.50029 227.000
47.52024 223.000
47.54018 228.000
47.56013 204.000
47.58008 236.000
47.60002 206.000
47.61997 226.000
47.63992 211.000
47.65986 212.000
47.67981 209.000
47.69976 213.000
47.71970 224.000
47.73965 235.000
47.75960 214.000
47.77955 226.000
47.79949 210.000
47.81944 235.000
47.83939 244.000
47.85933 228.000
47.87928 221.000
47.89923 238.000
47.91917 235.000
47.93912 224.000
47.95907 233.000
47.97902 219.000
47.99896 203.000
48.01891 224.000
48.03886 230.000
48.05880 224.000
48.07875 241.000
48.09870 233.000
48.11864 218.000
48.13859 208.000
48.15854 246.000
48.17848 220.000
48.19843 231.000
48.21838 196.000
48.23833 217.000
48.25827 220.000
48.27822 219.000
48.29817 219.000
48.31811 234.000
48.33806 240.000
48.35801 229.000
48.37795 213.000
48.39790 227.000
48.41785 246.000
48.43780 213.000
48.45774 218.000
48.47769 237.000
48.49764 272.000
48.51758 236.000
48.53753 236.000
48.55748 263.000
48.57742 280.000
48.59737 251.000
48.61732 291.000
48.63726 342.000
48.65721 307.000
48.67716 301.000
48.69711 363.000
48.71705 373.000
48.73700 393.000
48.75695 417.000
48.77689 458.000
48.79684 505.000
48.81679 562.000
48.83673 572.000
48.85668 636.000
48.87663 623.000
48.89658 583.000
48.91652 546.000
48.93647 498.000
48.95642 440.000
48.97636 456.000
48.99631 412.000
49.01626 395.000
49.03620 357.000
49.05615 366.000
49.07610 341.000
49.09605 267.000
49.11599 280.000
49.13594 282.000
49.15589 227.000
49.17583 259.000
49.19578 272.000
49.21573 252.000
49.23567 248.000
49.25562 237.000
49.27557 236.000
49.29551 231.000
49.31546 262.000
49.33541 197.000
49.35536 242.000
49.37530 242.000
49.39525 226.000
49.41520 236.000
49.43514 241.000
49.45509 237.000
49.47504 221.000
49.49498 225.000
49.51493 250.000
49.53488 228.000
49.55483 231.000
49.57477 240.000
49.59472 208.000
49.61467 215.000
49.63461 234.000
49.65456 227.000
49.67451 206.000
49.69445 240.000
49.71440 217.000
49.73435 205.000
49.75429 221.000
49.77424 227.000
49.79419 209.000
49.81414 200.000
49.83408 234.000
49.85403 204.000
49.87398 232.000
49.89392 241.000
49.91387 236.000
49.93382 223.000
49.95376 219.000
49.97371 224.000
49.99366 242.000
50.01361 221.000
50.03355 207.000
50.05350 205.000
50.07345 213.000
50.09339 229.000
50.11334 207.000
50.13329 246.000
50.15323 207.000
50.17318 215.000
50.19313 236.000
50.21307 202.000
50.23302 227.000
50.25297 221.000
50.27292 192.000
50.29286 205.000
50.31281 203.000
50.33276 236.000
50.35270 192.000
50.37265 204.000
50.39260 235.000
50.41254 234.000
50.43249 211.000
50.45244 239.000
50.47239 198.000
50.49233 218.000
50.51228 219.000
50.53223 222.000
50.55217 220.000
50.57212 220.000
50.59207 200.000
50.61201 221.000
50.63196 219.000
50.65191 222.000
50.67186 207.000
50.69180 185.000
50.71175 202.000
50.73170 214.000
50.75164 222.000
50.77159 247.000
50.79154 210.000
50.81148 201.000
50.83143 223.000
50.85138 226.000
50.87132 242.000
50.89127 245.000
50.91122 214.000
50.93117 245.000
50.95111 191.000
50.97106 223.000
50.99101 216.000
51.01095 191.000
51.03090 239.000
51.05085 201.000
51.07079 213.000
51.09074 223.000
51.11069 232.000
51.13064 217.000
51.15058 204.000
51.17053 252.000
51.19048 254.000
51.21042 258.000
51.23037 215.000
51.25032 224.000
51.27026 213.000
51.29021 221.000
51.31016 212.000
51.33010 215.000
51.35005 239.000
51.37000 232.000
51.38995 200.000
51.40989 199.000
51.42984 235.000
51.44979 240.000
51.46973 204.000
51.48968 208.000
51.50963 242.000
51.52957 220.000
51.54952 206.000
51.56947 242.000
51.58942 219.000
51.60936 184.000
51.62931 216.000
51.64926 232.000
51.66920 198.000
51.68915 192.000
51.70910 222.000
51.72904 222.000
51.74899 220.000
51.76894 238.000
51.78888 238.000
51.80883 224.000
51.82878 199.000
51.84873 198.000
51.86867 180.000
51.88862 204.000
51.90857 211.000
51.92851 206.000
51.94846 219.000
51.96841 241.000
51.98835 239.000
52.00830 217.000
52.02825 222.000
52.04820 213.000
52.06814 205.000
52.08809 210.000
52.10804 221.000
52.12798 200.000
52.14793 236.000
52.16788 228.000
52.18782 208.000
52.20777 220.000
52.22772 238.000
52.24767 234.000
52.26761 232.000
52.28756 217.000
52.30751 212.000
52.32745 231.000
52.34740 242.000
52.36735 225.000
52.38729 251.000
52.40724 239.000
52.42719 242.000
52.44713 196.000
52.46708 233.000
52.48703 246.000
52.50698 229.000
52.52692 230.000
52.54687 215.000
52.56682 247.000
52.58676 234.000
52.60671 204.000
52.62666 215.000
52.64660 240.000
52.66655 239.000
52.68650 235.000
52.70645 229.000
52.72639 210.000
52.74634 226.000
52.76629 223.000
52.78623 222.000
52.80618 225.000
52.82613 237.000
52.84607 256.000
52.86602 220.000
52.88597 232.000
52.90591 290.000
52.92586 297.000
52.94581 309.000
52.96576 312.000
52.98570 312.000
53.00565 318.000
53.02560 360.000
53.04554 413.000
53.06549 440.000
53.08544 486.000
53.10538 549.000
53.12533 538.000
53.14528 520.000
53.16523 431.000
53.18517 367.000
53.20512 399.000
53.22507 436.000
53.24501 404.000
53.26496 404.000
53.28491 397.000
53.30485 358.000
53.32480 341.000
53.34475 318.000
53.36469 314.000
53.38464 305.000
53.40459 310.000
53.42454 310.000
53.44448 266.000
53.46443 317.000
53.48438 322.000
53.50432 320.000
53.52427 306.000
53.54422 285.000
53.56416 307.000
53.58411 259.000
53.60406 268.000
53.62401 271.000
53.64395 278.000
53.66390 317.000
53.68385 281.000
53.70379 285.000
53.72374 284.000
53.74369 290.000
53.76363 267.000
53.78358 253.000
53.80353 262.000
53.82348 255.000
53.84342 211.000
53.86337 213.000
53.88332 235.000
53.90326 233.000
53.92321 268.000
53.94316 231.000
53.96310 251.000
53.98305 234.000
54.00300 254.000
54.02294 206.000
54.04289 234.000
54.06284 227.000
54.08279 223.000
54.10273 234.000
54.12268 228.000
54.14263 254.000
54.16257 208.000
54.18252 216.000
54.20247 212.000
54.22241 242.000
54.24236 199.000
54.26231 237.000
54.28226 209.000
54.30220 237.000
54.32215 211.000
54.34210 219.000
54.36204 203.000
54.38199 212.000
54.40194 229.000
54.42188 245.000
54.44183 227.000
54.46178 198.000
54.48172 221.000
54.50167 219.000
54.52162 230.000
54.54157 231.000
54.56151 238.000
54.58146 219.000
54.60141 207.000
54.62135 243.000
54.64130 231.000
54.66125 224.000
54.68119 213.000
54.70114 227.000
54.72109 212.000
54.74104 222.000
54.76098 214.000
54.78093 215.000
54.80088 194.000
54.82082 195.000
54.84077 203.000
54.86072 208.000
54.88066 221.000
54.90061 236.000
54.92056 191.000
54.94050 231.000
54.96045 205.000
54.98040 218.000
55.00035 207.000
55.02029 209.000
55.04024 236.000
55.06019 202.000
55.08013 245.000
55.10008 183.000
55.12003 238.000
55.13997 250.000
55.15992 200.000
55.17987 260.000
55.19982 226.000
55.21976 256.000
55.23971 218.000
55.25966 213.000
55.27960 206.000
55.29955 215.000
55.31950 205.000
55.33944 227.000
55.35939 205.000
55.37934 237.000
55.39929 234.000
55.41923 198.000
55.43918 240.000
55.45913 220.000
55.47907 198.000
55.49902 216.000
55.51897 203.000
55.53891 240.000
55.55886 230.000
55.57881 209.000
55.59875 216.000
55.61870 220.000
55.63865 220.000
55.65860 230.000
55.67854 209.000
55.69849 207.000
55.71844 236.000
55.73838 248.000
55.75833 239.000
55.77828 218.000
55.79822 216.000
55.81817 243.000
55.83812 236.000
55.85807 222.000
55.87801 240.000
55.89796 224.000
55.91791 213.000
55.93785 208.000
55.95780 212.000
55.97775 203.000
55.99769 237.000
56.01764 231.000
56.03759 221.000
56.05753 204.000
56.07748 191.000
56.09743 224.000
56.11738 238.000
56.13732 234.000
56.15727 214.000
56.17722 215.000
56.19716 245.000
56.21711 219.000
56.23706 207.000
56.25700 227.000
56.27695 237.000
56.29690 240.000
56.31685 234.000
56.33679 216.000
56.35674 214.000
56.37669 224.000
56.39663 215.000
56.41658 255.000
56.43653 208.000
56.45647 226.000
56.47642 229.000
56.49637 210.000
56.51631 220.000
56.53626 237.000
56.55621 217.000
56.57616 244.000
56.59610 235.000
56.61605 230.000
56.63600 214.000
56.65594 229.000
56.67589 235.000
56.69584 234.000
56.71578 220.000
56.73573 241.000
56.75568 243.000
56.77563 229.000
56.79557 223.000
56.81552 243.000
56.83547 228.000
56.85541 222.000
56.87536 244.000
56.89531 241.000
56.91525 234.000
56.93520 224.000
56.95515 227.000
56.97510 257.000
56.99504 249.000
57.01499 236.000
57.03494 229.000
57.05488 239.000
57.07483 237.000
57.09478 214.000
57.11472 255.000
57.13467 236.000
57.15462 261.000
57.17456 240.000
57.19451 257.000
57.21446 240.000
57.23441 233.000
57.25435 261.000
57.27430 235.000
57.29425 295.000
57.31419 255.000
57.33414 258.000
57.35409 268.000
57.37403 264.000
57.39398 242.000
57.41393 287.000
57.43388 315.000
57.45382 279.000
57.47377 296.000
57.49372 276.000
57.51366 279.000
57.53361 269.000
57.55356 299.000
57.57350 290.000
57.59345 288.000
57.61340 302.000
57.63334 315.000
57.65329 299.000
57.67324 368.000
57.69319 361.000
57.71313 451.000
57.73308 441.000
57.75303 480.000
57.77297 592.000
57.79292 691.000
57.81287 743.000
57.83281 784.000
57.85276 782.000
57.87271 703.000
57.89266 606.000
57.91260 571.000
57.93255 530.000
57.95250 532.000
57.97244 545.000
57.99239 594.000
58.01234 501.000
58.03228 454.000
58.05223 431.000
58.07218 375.000
58.09212 375.000
58.11207 345.000
58.13202 330.000
58.15197 349.000
58.17191 343.000
58.19186 373.000
58.21181 388.000
58.23175 383.000
58.25170 384.000
58.27165 402.000
58.29159 400.000
58.31154 409.000
58.33149 406.000
58.35144 357.000
58.37138 334.000
58.39133 341.000
58.41128 347.000
58.43122 324.000
58.45117 309.000
58.47112 327.000
58.49106 289.000
58.51101 324.000
58.53096 283.000
58.55090 271.000
58.57085 244.000
58.59080 285.000
58.61075 233.000
58.63069 247.000
58.65064 233.000
58.67059 262.000
58.69053 238.000
58.71048 224.000
58.73043 223.000
58.75037 222.000
58.77032 245.000
58.79027 220.000
58.81022 242.000
58.83016 228.000
58.85011 243.000
58.87006 241.000
58.89000 254.000
58.90995 252.000
58.92990 247.000
58.94984 214.000
58.96979 229.000
58.98974 261.000
59.00969 224.000
59.02963 229.000
59.04958 224.000
59.06953 238.000
59.08947 228.000
59.10942 229.000
59.12937 233.000
59.14931 227.000
59.16926 225.000
59.18921 236.000
59.20915 228.000
59.22910 241.000
59.24905 242.000
59.26900 213.000
59.28894 224.000
59.30889 199.000
59.32884 233.000
59.34878 216.000
59.36873 232.000
59.38868 231.000
59.40862 236.000
59.42857 208.000
59.44852 239.000
59.46847 208.000
59.48841 251.000
59.50836 248.000
59.52831 228.000
59.54825 214.000
59.56820 208.000
59.58815 197.000
59.60809 243.000
59.62804 253.000
59.64799 217.000
59.66793 245.000
59.68788 228.000
59.70783 246.000
59.72778 265.000
59.74772 235.000
59.76767 243.000
59.78762 205.000
59.80756 227.000
59.82751 199.000
59.84746 235.000
59.86740 234.000
59.88735 259.000
59.90730 223.000
59.92725 253.000
59.94719 237.000
59.96714 240.000
59.98709 274.000
60.00703 246.000
60.02698 223.000
60.04693 227.000
60.06687 239.000
60.08682 216.000
60.10677 241.000
60.12671 266.000
60.14666 221.000
60.16661 225.000
60.18656 252.000
60.20650 217.000
60.22645 204.000
60.24640 225.000
60.26634 259.000
60.28629 220.000
60.30624 248.000
60.32618 215.000
60.34613 244.000
60.36608 248.000
60.38603 231.000
60.40597 200.000
60.42592 220.000
60.44587 218.000
60.46581 227.000
60.48576 203.000
60.50571 256.000
60.52565 244.000
60.54560 252.000
60.56555 231.000
60.58550 247.000
60.60544 247.000
60.62539 250.000
60.64534 229.000
60.66528 241.000
60.68523 193.000
60.70518 242.000
60.72512 225.000
60.74507 221.000
60.76502 214.000
60.78496 220.000
60.80491 239.000
60.82486 230.000
60.84481 223.000
60.86475 243.000
60.88470 233.000
60.90465 248.000
60.92459 248.000
60.94454 216.000
60.96449 234.000
60.98443 266.000
61.00438 240.000
61.02433 191.000
61.04428 214.000
61.06422 214.000
61.08417 255.000
61.10412 253.000
61.12406 243.000
61.14401 279.000
61.16396 257.000
61.18390 252.000
61.20385 246.000
61.22380 235.000
61.24374 276.000
61.26369 258.000
61.28364 269.000
61.30359 289.000
61.32353 304.000
61.34348 285.000
61.36343 289.000
61.38337 282.000
61.40332 316.000
61.42327 323.000
61.44321 365.000
61.46316 344.000
61.48311 347.000
61.50306 396.000
61.52300 426.000
61.54295 500.000
61.56290 446.000
61.58284 518.000
61.60279 484.000
61.62274 507.000
61.64268 482.000
61.66263 477.000
61.68258 503.000
61.70252 513.000
61.72247 449.000
61.74242 478.000
61.76237 483.000
61.78231 494.000
61.80226 473.000
61.82221 459.000
61.84215 473.000
61.86210 424.000
61.88205 442.000
61.90199 442.000
61.92194 463.000
61.94189 474.000
61.96184 483.000
61.98178 473.000
62.00173 486.000
62.02168 516.000
62.04162 514.000
62.06157 510.000
62.08152 540.000
62.10146 488.000
62.12141 525.000
62.14136 525.000
62.16131 528.000
62.18125 503.000
62.20120 500.000
62.22115 447.000
62.24109 455.000
62.26104 434.000
62.28099 446.000
62.30093 413.000
62.32088 448.000
62.34083 366.000
62.36077 379.000
62.38072 355.000
62.40067 308.000
62.42062 354.000
62.44056 350.000
62.46051 343.000
62.48046 348.000
62.50040 355.000
62.52035 327.000
62.54030 296.000
62.56024 325.000
62.58019 313.000
62.60014 297.000
62.62009 298.000
62.64003 298.000
62.65998 300.000
62.67993 287.000
62.69987 287.000
62.71982 312.000
62.73977 290.000
62.75971 305.000
62.77966 303.000
62.79961 271.000
62.81955 320.000
62.83950 307.000
62.85945 274.000
62.87940 286.000
62.89934 313.000
62.91929 330.000
62.93924 308.000
62.95918 294.000
62.97913 277.000
62.99908 257.000
63.01902 285.000
63.03897 246.000
63.05892 301.000
63.07887 315.000
63.09881 287.000
63.11876 256.000
63.13871 235.000
63.15865 258.000
63.17860 263.000
63.19855 245.000
63.21849 254.000
63.23844 240.000
63.25839 217.000
63.27833 259.000
63.29828 254.000
63.31823 249.000
63.33818 254.000
63.35812 234.000
63.37807 278.000
63.39802 252.000
63.41796 225.000
63.43791 230.000
63.45786 206.000
63.47780 233.000
63.49775 211.000
63.51770 242.000
63.53765 183.000
63.55759 250.000
63.57754 245.000
63.59749 239.000
63.61743 252.000
63.63738 251.000
63.65733 199.000
63.67727 211.000
63.69722 247.000
63.71717 265.000
63.73712 218.000
63.75706 259.000
63.77701 242.000
63.79696 239.000
63.81690 209.000
63.83685 210.000
63.85680 267.000
63.87674 220.000
63.89669 259.000
63.91664 234.000
63.93658 208.000
63.95653 226.000
63.97648 208.000
63.99643 233.000
64.01637 221.000
64.03632 246.000
64.05627 223.000
64.07621 243.000
64.09616 219.000
64.11611 245.000
64.13605 244.000
64.15600 212.000
64.17595 218.000
64.19590 235.000
64.21584 245.000
64.23579 234.000
64.25574 242.000
64.27568 238.000
64.29563 236.000
64.31558 233.000
64.33552 260.000
64.35547 250.000
64.37542 280.000
64.39536 245.000
64.41531 227.000
64.43526 265.000
64.45521 244.000
64.47515 275.000
64.49510 250.000
64.51505 271.000
64.53499 257.000
64.55494 299.000
64.57489 290.000
64.59483 285.000
64.61478 301.000
64.63473 319.000
64.65468 327.000
64.67462 315.000
64.69457 323.000
64.71452 323.000
64.73446 325.000
64.75441 326.000
64.77436 314.000
64.79430 326.000
64.81425 331.000
64.83420 311.000
64.85414 301.000
64.87409 314.000
64.89404 287.000
64.91399 283.000
64.93393 292.000
64.95388 241.000
64.97383 282.000
64.99377 251.000
65.01372 256.000
65.03367 282.000
65.05361 241.000
65.07356 238.000
65.09351 258.000
65.11346 267.000
65.13340 252.000
65.15335 250.000
65.17330 229.000
65.19324 265.000
65.21319 260.000
65.23314 244.000
65.25308 259.000
65.27303 269.000
65.29298 249.000
65.31293 221.000
65.33287 254.000
65.35282 245.000
65.37277 229.000
65.39271 244.000
65.41266 257.000
65.43261 250.000
65.45255 240.000
65.47250 276.000
65.49245 254.000
65.51239 280.000
65.53234 265.000
65.55229 292.000
65.57224 276.000
65.59218 284.000
65.61213 309.000
65.63208 300.000
65.65202 339.000
65.67197 333.000
65.69192 316.000
65.71186 332.000
65.73181 329.000
65.75176 343.000
65.77171 363.000
65.79165 351.000
65.81160 332.000
65.83155 319.000
65.85149 333.000
65.87144 341.000
65.89139 370.000
65.91133 346.000
65.93128 305.000
65.95123 336.000
65.97117 323.000
65.99112 328.000
66.01107 318.000
66.03102 298.000
66.05096 317.000
66.07091 330.000
66.09086 321.000
66.11080 328.000
66.13075 302.000
66.15070 330.000
66.17064 279.000
66.19059 329.000
66.21054 328.000
66.23049 332.000
66.25043 371.000
66.27038 389.000
66.29033 395.000
66.31027 364.000
66.33022 397.000
66.35017 390.000
66.37011 388.000
66.39006 389.000
66.41001 404.000
66.42995 370.000
66.44990 366.000
66.46985 333.000
66.48980 317.000
66.50974 344.000
66.52969 299.000
66.54964 353.000
66.56958 304.000
66.58953 306.000
66.60948 292.000
66.62942 281.000
66.64937 293.000
66.66932 276.000
66.68927 260.000
66.70921 210.000
66.72916 239.000
66.74911 252.000
66.76905 252.000
66.78900 235.000
66.80895 214.000
66.82889 255.000
66.84884 256.000
66.86879 227.000
66.88874 252.000
66.90868 208.000
66.92863 251.000
66.94858 226.000
66.96852 263.000
66.98847 257.000
67.00842 202.000
67.02836 218.000
67.04831 253.000
67.06826 239.000
67.08820 216.000
67.10815 207.000
67.12810 224.000
67.14805 228.000
67.16799 224.000
67.18794 244.000
67.20789 231.000
67.22783 241.000
67.24778 208.000
67.26773 233.000
67.28767 221.000
67.30762 193.000
67.32757 248.000
67.34752 240.000
67.36746 228.000
67.38741 251.000
67.40736 213.000
67.42730 246.000
67.44725 266.000
67.46720 216.000
67.48714 225.000
67.50709 249.000
67.52704 245.000
67.54698 210.000
67.56693 239.000
67.58688 262.000
67.60683 248.000
67.62677 221.000
67.64672 268.000
67.66667 269.000
67.68661 252.000
67.70656 267.000
67.72651 238.000
67.74645 279.000
67.76640 272.000
67.78635 307.000
67.80630 318.000
67.82624 316.000
67.84619 340.000
67.86614 341.000
67.88608 342.000
67.90603 352.000
67.92598 327.000
67.94592 370.000
67.96587 401.000
67.98582 413.000
68.00576 397.000
68.02571 417.000
68.04566 412.000
68.06561 427.000
68.08555 425.000
68.10550 403.000
68.12545 401.000
68.14539 404.000
68.16534 408.000
68.18529 422.000
68.20523 444.000
68.22518 402.000
68.24513 448.000
68.26508 415.000
68.28502 413.000
68.30497 447.000
68.32492 412.000
68.34486 413.000
68.36481 416.000
68.38476 424.000
68.40470 401.000
68.42465 348.000
68.44460 348.000
68.46455 309.000
68.48449 326.000
68.50444 303.000
68.52439 312.000
68.54433 311.000
68.56428 311.000
68.58423 265.000
68.60417 307.000
68.62412 271.000
68.64407 244.000
68.66401 259.000
68.68396 265.000
68.70391 238.000
68.72386 222.000
68.74380 254.000
68.76375 267.000
68.78370 237.000
68.80364 214.000
68.82359 237.000
68.84354 247.000
68.86348 221.000
68.88343 242.000
68.90338 230.000
68.92333 197.000
68.94327 219.000
68.96322 242.000
68.98317 231.000
69.00311 233.000
69.02306 267.000
69.04301 228.000
69.06295 246.000
69.08290 228.000
69.10285 231.000
69.12279 242.000
69.14274 229.000
69.16269 220.000
69.18264 240.000
69.20258 229.000
69.22253 227.000
69.24248 223.000
69.26242 220.000
69.28237 216.000
69.30232 260.000
69.32226 208.000
69.34221 230.000
69.36216 228.000
69.38211 241.000
69.40205 255.000
69.42200 217.000
69.44195 205.000
69.46189 248.000
69.48184 224.000
69.50179 230.000
69.52173 221.000
69.54168 251.000
69.56163 258.000
69.58157 233.000
69.60152 259.000
69.62147 233.000
69.64142 226.000
69.66136 239.000
69.68131 261.000
69.70126 250.000
69.72120 269.000
69.74115 282.000
69.76110 257.000
69.78104 267.000
69.80099 231.000
69.82094 272.000
69.84089 266.000
69.86083 232.000
69.88078 262.000
69.90073 254.000
69.92067 272.000
69.94062 216.000
69.96057 242.000
69.98051 264.000
70.00046 245.000
70.02041 234.000
70.04035 257.000
70.06030 215.000
70.08025 240.000
70.10020 214.000
70.12014 210.000
70.14009 198.000
70.16004 230.000
70.17998 240.000
70.19993 237.000
70.21988 219.000
70.23982 230.000
70.25977 227.000
70.27972 222.000
70.29967 223.000
70.31961 232.000
70.33956 204.000
70.35951 217.000
70.37945 219.000
70.39940 206.000
70.41935 222.000
70.43929 227.000
70.45924 225.000
70.47919 212.000
70.49914 234.000
70.51908 195.000
70.53903 214.000
70.55898 198.000
70.57892 214.000
70.59887 236.000
70.61882 193.000
70.63876 228.000
70.65871 232.000
70.67866 253.000
70.69860 216.000
70.71855 218.000
70.73850 236.000
70.75845 219.000
70.77839 242.000
70.79834 232.000
70.81829 244.000
70.83823 221.000
70.85818 205.000
70.87813 209.000
70.89807 236.000
70.91802 230.000
70.93797 229.000
70.95792 217.000
70.97786 223.000
70.99781 229.000
71.01776 211.000
71.03770 201.000
71.05765 229.000
71.07760 239.000
71.09754 223.000
71.11749 267.000
71.13744 230.000
71.15738 198.000
71.17733 226.000
71.19728 219.000
71.21723 217.000
71.23717 218.000
71.25712 189.000
71.27707 238.000
71.29701 213.000
71.31696 226.000
71.33691 235.000
71.35685 236.000
71.37680 251.000
71.39675 272.000
71.41670 230.000
71.43664 239.000
71.45659 219.000
71.47654 241.000
71.49648 210.000
71.51643 231.000
71.53638 224.000
71.55632 230.000
71.57627 233.000
71.59622 263.000
71.61616 231.000
71.63611 225.000
71.65606 250.000
71.67601 250.000
71.69595 246.000
71.71590 230.000
71.73585 232.000
71.75579 237.000
71.77574 245.000
71.79569 235.000
71.81563 222.000
71.83558 257.000
71.85553 224.000
71.87548 238.000
71.89542 261.000
71.91537 236.000
71.93532 264.000
71.95526 259.000
71.97521 226.000
71.99516 271.000
72.01510 281.000
72.03505 248.000
72.05500 272.000
72.07495 285.000
72.09489 277.000
72.11484 307.000
72.13479 286.000
72.15473 321.000
72.17468 306.000
72.19463 330.000
72.21457 329.000
72.23452 333.000
72.25447 352.000
72.27441 392.000
72.29436 371.000
72.31431 363.000
72.33426 365.000
72.35420 375.000
72.37415 332.000
72.39410 368.000
72.41404 384.000
72.43399 367.000
72.45394 379.000
72.47388 353.000
72.49383 327.000
72.51378 307.000
72.53373 314.000
72.55367 346.000
72.57362 307.000
72.59357 329.000
72.61351 335.000
72.63346 288.000
72.65341 269.000
72.67335 294.000
72.69330 275.000
72.71325 257.000
72.73319 256.000
72.75314 250.000
72.77309 279.000
72.79304 243.000
72.81298 249.000
72.83293 247.000
72.85288 211.000
72.87282 243.000
72.89277 241.000
72.91272 266.000
72.93266 209.000
72.95261 210.000
72.97256 237.000
72.99251 241.000
73.01245 243.000
73.03240 256.000
73.05235 237.000
73.07229 267.000
73.09224 244.000
73.11219 226.000
73.13213 220.000
73.15208 206.000
73.17203 254.000
73.19197 249.000
73.21192 251.000
73.23187 225.000
73.25182 244.000
73.27176 239.000
73.29171 239.000
73.31166 252.000
73.33160 227.000
73.35155 248.000
73.37150 223.000
73.39144 233.000
73.41139 209.000
73.43134 233.000
73.45129 244.000
73.47123 247.000
73.49118 251.000
73.51113 233.000
73.53107 241.000
73.55102 231.000
73.57097 262.000
73.59091 216.000
73.61086 256.000
73.63081 254.000
73.65076 258.000
73.67070 246.000
73.69065 215.000
73.71060 216.000
73.73054 218.000
73.75049 217.000
73.77044 222.000
73.79038 250.000
73.81033 250.000
73.83028 235.000
73.85022 267.000
73.87017 240.000
73.89012 245.000
73.91007 254.000
73.93001 265.000
73.94996 249.000
73.96991 269.000
73.98985 281.000
74.00980 329.000
74.02975 293.000
74.04969 326.000
74.06964 306.000
74.08959 288.000
74.10954 297.000
74.12948 301.000
74.14943 337.000
74.16938 326.000
74.18932 311.000
74.20927 302.000
74.22922 280.000
74.24916 315.000
74.26911 282.000
74.28906 301.000
74.30900 286.000
74.32895 287.000
74.34890 272.000
74.36885 266.000
74.38879 284.000
74.40874 278.000
74.42869 254.000
74.44863 276.000
74.46858 277.000
74.48853 271.000
74.50847 224.000
74.52842 256.000
74.54837 272.000
74.56832 239.000
74.58826 247.000
74.60821 236.000
74.62816 258.000
74.64810 236.000
74.66805 264.000
74.68800 273.000
74.70794 258.000
74.72789 246.000
74.74784 243.000
74.76778 239.000
74.78773 260.000
74.80768 240.000
74.82763 279.000
74.84757 256.000
74.86752 290.000
74.88747 250.000
74.90741 264.000
74.92736 280.000
74.94731 299.000
74.96725 259.000
74.98720 320.000
75.00715 318.000
75.02710 307.000
75.04704 308.000
75.06699 282.000
75.08694 302.000
75.10688 315.000
75.12683 326.000
75.14678 330.000
75.16672 312.000
75.18667 305.000
75.20662 345.000
75.22657 313.000
75.24651 331.000
75.26646 322.000
75.28641 315.000
75.30635 292.000
75.32630 276.000
75.34625 311.000
75.36619 306.000
75.38614 270.000
75.40609 281.000
75.42603 312.000
75.44598 270.000
75.46593 265.000
75.48588 285.000
75.50582 274.000
75.52577 271.000
75.54572 276.000
75.56566 263.000
75.58561 257.000
75.60556 246.000
75.62550 268.000
75.64545 233.000
75.66540 225.000
75.68535 244.000
75.70529 269.000
75.72524 244.000
75.74519 224.000
75.76513 224.000
75.78508 223.000
75.80503 254.000
75.82497 242.000
75.84492 242.000
75.86487 263.000
75.88481 247.000
75.90476 238.000
75.92471 243.000
75.94466 235.000
75.96460 219.000
75.98455 234.000
76.00450 221.000
76.02444 224.000
76.04439 245.000
76.06434 228.000
76.08428 224.000
76.10423 226.000
76.12418 236.000
76.14413 246.000
76.16407 224.000
76.18402 220.000
76.20397 215.000
76.22391 233.000
76.24386 221.000
76.26381 233.000
76.28375 216.000
76.30370 237.000
76.32365 203.000
76.34359 219.000
76.36354 213.000
76.38349 208.000
76.40344 220.000
76.42338 224.000
76.44333 248.000
76.46328 227.000
76.48322 228.000
76.50317 219.000
76.52312 218.000
76.54306 206.000
76.56301 242.000
76.58296 230.000
76.60291 263.000
76.62285 221.000
76.64280 223.000
76.66275 201.000
76.68269 229.000
76.70264 227.000
76.72259 235.000
76.74253 234.000
76.76248 217.000
76.78243 224.000
76.80238 216.000
76.82232 244.000
76.84227 209.000
76.86222 229.000
76.88216 225.000
76.90211 211.000
76.92206 258.000
76.94200 247.000
76.96195 237.000
76.98190 232.000
77.00184 235.000
77.02179 253.000
77.04174 230.000
77.06169 265.000
77.08163 243.000
77.10158 253.000
77.12153 242.000
77.14147 253.000
77.16142 261.000
77.18137 263.000
77.20131 286.000
77.22126 284.000
77.24121 346.000
77.26116 333.000
77.28110 261.000
77.30105 324.000
77.32100 299.000
77.34094 317.000
77.36089 321.000
77.38084 313.000
77.40078 322.000
77.42073 307.000
77.44068 300.000
77.46062 313.000
77.48057 336.000
77.50052 311.000
77.52047 292.000
77.54041 293.000
77.56036 258.000
77.58031 305.000
77.60025 287.000
77.62020 298.000
77.64015 305.000
77.66009 266.000
77.68004 280.000
77.69999 281.000
77.71994 245.000
77.73988 276.000
77.75983 262.000
77.77978 256.000
77.79972 257.000
77.81967 265.000
77.83962 225.000
77.85956 248.000
77.87951 243.000
77.89946 253.000
77.91940 247.000
77.93935 247.000
77.95930 215.000
77.97925 228.000
77.99919 241.000
78.01914 238.000
78.03909 244.000
78.05903 198.000
78.07898 222.000
78.09893 236.000
78.11887 255.000
78.13882 230.000
78.15877 228.000
78.17872 249.000
78.19866 220.000
78.21861 210.000
78.23856 197.000
78.25850 225.000
78.27845 198.000
78.29840 226.000
78.31834 262.000
78.33829 216.000
78.35824 257.000
78.37819 247.000
78.39813 245.000
78.41808 235.000
78.43803 183.000
78.45797 227.000
78.47792 220.000
78.49787 229.000
78.51781 221.000
78.53776 209.000
78.55771 208.000
78.57765 234.000
78.59760 237.000
78.61755 239.000
78.63750 235.000
78.65744 213.000
78.67739 220.000
78.69734 251.000
78.71728 247.000
78.73723 224.000
78.75718 240.000
78.77712 243.000
78.79707 204.000
78.81702 242.000
78.83697 220.000
78.85691 232.000
78.87686 226.000
78.89681 244.000
78.91675 254.000
78.93670 211.000
78.95665 256.000
78.97659 233.000
78.99654 228.000
79.01649 259.000
79.03643 254.000
79.05638 250.000
79.07633 234.000
79.09628 234.000
79.11622 246.000
79.13617 254.000
79.15612 226.000
79.17606 229.000
79.19601 227.000
79.21596 271.000
79.23590 222.000
79.25585 233.000
79.27580 246.000
79.29575 243.000
79.31569 249.000
79.33564 222.000
79.35559 219.000
79.37553 246.000
79.39548 217.000
79.41543 231.000
79.43537 249.000
79.45532 220.000
79.47527 221.000
79.49521 238.000
79.51516 230.000
79.53511 212.000
79.55506 208.000
79.57500 227.000
79.59495 205.000
79.61490 258.000
79.63484 212.000
79.65479 227.000
79.67474 233.000
79.69468 250.000
79.71463 222.000
79.73458 226.000
79.75453 245.000
79.77447 232.000
79.79442 246.000
79.81437 232.000
79.83431 230.000
79.85426 221.000
79.87421 230.000
79.89415 225.000
79.91410 220.000
79.93405 214.000
79.95399 227.000
79.97394 219.000
79.99389 240.000
80.01384 220.000
80.03378 236.000
80.05373 229.000
80.07368 223.000
80.09362 261.000
80.11357 208.000
80.13352 228.000
80.15346 210.000
80.17341 241.000
80.19336 228.000
80.21331 230.000
80.23325 237.000
80.25320 243.000
80.27315 241.000
80.29309 244.000
80.31304 233.000
80.33299 255.000
80.35293 252.000
80.37288 263.000
80.39283 230.000
80.41278 248.000
80.43272 217.000
80.45267 264.000
80.47262 234.000
80.49256 226.000
80.51251 223.000
80.53246 228.000
80.55240 209.000
80.57235 236.000
80.59230 249.000
80.61224 265.000
80.63219 221.000
80.65214 226.000
80.67209 234.000
80.69203 214.000
80.71198 225.000
80.73193 226.000
80.75187 228.000
80.77182 215.000
80.79177 231.000
80.81171 224.000
80.83166 218.000
80.85161 217.000
80.87156 226.000
80.89150 234.000
80.91145 214.000
80.93140 220.000
80.95134 229.000
80.97129 215.000
80.99124 224.000
81.01118 227.000
81.03113 205.000
81.05108 199.000
81.07102 218.000
81.09097 225.000
81.11092 242.000
81.13087 230.000
81.15081 225.000
81.17076 209.000
81.19071 189.000
81.21065 201.000
81.23060 209.000
81.25055 221.000
81.27049 232.000
81.29044 237.000
81.31039 214.000
81.33034 217.000
81.35028 221.000
81.37023 227.000
81.39018 255.000
81.41012 234.000
81.43007 225.000
81.45002 228.000
81.46996 219.000
81.48991 223.000
81.50986 221.000
81.52980 260.000
81.54975 222.000
81.56970 229.000
81.58965 214.000
81.60959 214.000
81.62954 226.000
81.64949 234.000
81.66943 229.000
81.68938 213.000
81.70933 237.000
81.72927 235.000
81.74922 237.000
81.76917 193.000
81.78912 205.000
81.80906 223.000
81.82901 260.000
81.84896 223.000
81.86890 201.000
81.88885 221.000
81.90880 212.000
81.92874 224.000
81.94869 221.000
81.96864 216.000
81.98859 211.000
82.00853 211.000
82.02848 200.000
82.04843 248.000
82.06837 208.000
82.08832 223.000
82.10827 242.000
82.12821 259.000
82.14816 232.000
82.16811 227.000
82.18805 237.000
82.20800 219.000
82.22795 214.000
82.24790 247.000
82.26784 236.000
82.28779 228.000
82.30774 230.000
82.32768 215.000
82.34763 253.000
82.36758 236.000
82.38752 253.000
82.40747 284.000
82.42742 256.000
82.44737 244.000
82.46731 264.000
82.48726 265.000
82.50721 261.000
82.52715 247.000
82.54710 259.000
82.56705 255.000
82.58699 248.000
82.60694 260.000
82.62689 268.000
82.64683 260.000
82.66678 244.000
82.68673 276.000
82.70668 235.000
82.72662 293.000
82.74657 257.000
82.76652 264.000
82.78646 262.000
82.80641 265.000
82.82636 254.000
82.84630 280.000
82.86625 251.000
82.88620 233.000
82.90615 246.000
82.92609 267.000
82.94604 257.000
82.96599 264.000
82.98593 275.000
83.00588 238.000
83.02583 247.000
83.04577 252.000
83.06572 275.000
83.08567 269.000
83.10561 235.000
83.12556 272.000
83.14551 250.000
83.16546 262.000
83.18540 246.000
83.20535 273.000
83.22530 252.000
83.24524 221.000
83.26519 278.000
83.28514 239.000
83.30508 240.000
83.32503 257.000
83.34498 249.000
83.36493 260.000
83.38487 238.000
83.40482 256.000
83.42477 247.000
83.44471 266.000
83.46466 255.000
83.48461 232.000
83.50455 241.000
83.52450 250.000
83.54445 234.000
83.56440 246.000
83.58434 239.000
83.60429 254.000
83.62424 241.000
83.64418 248.000
83.66413 259.000
83.68408 267.000
83.70402 242.000
83.72397 244.000
83.74392 239.000
83.76386 264.000
83.78381 253.000
83.80376 277.000
83.82371 250.000
83.84365 276.000
83.86360 247.000
83.88355 244.000
83.90349 249.000
83.92344 252.000
83.94339 248.000
83.96333 245.000
83.98328 245.000
84.00323 243.000
84.02318 230.000
84.04312 234.000
84.06307 249.000
84.08302 242.000
84.10296 243.000
84.12291 247.000
84.14286 258.000
84.16280 230.000
84.18275 222.000
84.20270 248.000
84.22264 205.000
84.24259 234.000
84.26254 250.000
84.28249 242.000
84.30243 219.000
84.32238 243.000
84.34233 237.000
84.36227 238.000
84.38222 235.000
84.40217 214.000
84.42211 245.000
84.44206 237.000
84.46201 238.000
84.48196 223.000
84.50190 218.000
84.52185 214.000
84.54180 236.000
84.56174 257.000
84.58169 243.000
84.60164 225.000
84.62158 228.000
84.64153 233.000
84.66148 238.000
84.68142 228.000
84.70137 234.000
84.72132 221.000
84.74127 237.000
84.76121 232.000
84.78116 217.000
84.80111 223.000
84.82105 228.000
84.84100 240.000
84.86095 213.000
84.88089 228.000
84.90084 236.000
84.92079 250.000
84.94074 236.000
84.96068 243.000
84.98063 224.000
85.00058 223.000
85.02052 224.000
85.04047 232.000
85.06042 236.000
85.08036 230.000
85.10031 208.000
85.12026 208.000
85.14021 214.000
85.16015 223.000
85.18010 220.000
85.20005 221.000
85.21999 211.000
85.23994 224.000
85.25989 225.000
85.27983 235.000
85.29978 212.000
85.31973 215.000
85.33967 216.000
85.35962 213.000
85.37957 215.000
85.39952 197.000
85.41946 221.000
85.43941 186.000
85.45936 227.000
85.47930 241.000
85.49925 200.000
85.51920 223.000
85.53914 250.000
85.55909 210.000
85.57904 229.000
85.59899 237.000
85.61893 223.000
85.63888 210.000
85.65883 240.000
85.67877 222.000
85.69872 217.000
85.71867 253.000
85.73861 240.000
85.75856 222.000
85.77851 212.000
85.79845 226.000
85.81840 264.000
85.83835 187.000
85.85830 208.000
85.87824 239.000
85.89819 209.000
85.91814 231.000
85.93808 231.000
85.95803 259.000
85.97798 267.000
85.99792 209.000
86.01787 221.000
86.03782 258.000
86.05777 248.000
86.07771 267.000
86.09766 247.000
86.11761 269.000
86.13755 227.000
86.15750 254.000
86.17745 238.000
86.19739 217.000
86.21734 260.000
86.23729 237.000
86.25723 212.000
86.27718 220.000
86.29713 236.000
86.31708 234.000
86.33702 227.000
86.35697 261.000
86.37692 255.000
86.39686 242.000
86.41681 236.000
86.43676 234.000
86.45670 231.000
86.47665 227.000
86.49660 236.000
86.51655 238.000
86.53649 236.000
86.55644 251.000
86.57639 217.000
86.59633 237.000
86.61628 256.000
86.63623 235.000
86.65617 260.000
86.67612 216.000
86.69607 249.000
86.71602 235.000
86.73596 251.000
86.75591 253.000
86.77586 221.000
86.79580 267.000
86.81575 225.000
86.83570 227.000
86.85564 247.000
86.87559 224.000
86.89554 242.000
86.91548 222.000
86.93543 241.000
86.95538 254.000
86.97533 237.000
86.99527 232.000
87.01522 255.000
87.03517 244.000
87.05511 230.000
87.07506 218.000
87.09501 222.000
87.11495 222.000
87.13490 223.000
87.15485 225.000
87.17480 208.000
87.19474 247.000
87.21469 214.000
87.23464 263.000
87.25458 204.000
87.27453 190.000
87.29448 248.000
87.31442 225.000
87.33437 213.000
87.35432 229.000
87.37426 236.000
87.39421 197.000
87.41416 243.000
87.43411 238.000
87.45405 225.000
87.47400 235.000
87.49395 242.000
87.51389 221.000
87.53384 209.000
87.55379 238.000
87.57373 195.000
87.59368 234.000
87.61363 212.000
87.63358 234.000
87.65352 247.000
87.67347 225.000
87.69342 217.000
87.71336 219.000
87.73331 220.000
87.75326 229.000
87.77320 218.000
87.79315 236.000
87.81310 220.000
87.83304 238.000
87.85299 206.000
87.87294 258.000
87.89289 228.000
87.91283 213.000
87.93278 185.000
87.95273 219.000
87.97267 232.000
87.99262 223.000
88.01257 241.000
88.03251 237.000
88.05246 200.000
88.07241 216.000
88.09236 221.000
88.11230 238.000
88.13225 229.000
88.15220 214.000
88.17214 260.000
88.19209 209.000
88.21204 229.000
88.23198 227.000
88.25193 235.000
88.27188 241.000
88.29183 202.000
88.31177 236.000
88.33172 219.000
88.35167 214.000
88.37161 258.000
88.39156 205.000
88.41151 235.000
88.43145 240.000
88.45140 215.000
88.47135 227.000
88.49129 245.000
88.51124 238.000
88.53119 209.000
88.55114 214.000
88.57108 233.000
88.59103 229.000
88.61098 232.000
88.63092 207.000
88.65087 209.000
88.67082 224.000
88.69076 223.000
88.71071 201.000
88.73066 205.000
88.75061 217.000
88.77055 231.000
88.79050 234.000
88.81045 236.000
88.83039 259.000
88.85034 220.000
88.87029 215.000
88.89023 235.000
88.91018 206.000
88.93013 203.000
88.95007 275.000
88.97002 241.000
88.98997 198.000
89.00992 225.000
89.02986 217.000
89.04981 216.000
89.06976 266.000
89.08970 216.000
89.10965 206.000
89.12960 207.000
89.14954 207.000
89.16949 216.000
89.18944 225.000
89.20939 213.000
89.22933 214.000
89.24928 220.000
89.26923 223.000
89.28917 235.000
89.30912 208.000
89.32907 220.000
89.34901 227.000
89.36896 253.000
89.38891 223.000
89.40885 249.000
89.42880 246.000
89.44875 239.000
89.46870 253.000
89.48864 247.000
89.50859 249.000
89.52854 234.000
89.54848 268.000
89.56843 302.000
89.58838 246.000
89.60832 237.000
89.62827 234.000
89.64822 253.000
89.66817 275.000
89.68811 287.000
89.70806 260.000
89.72801 287.000
89.74795 289.000
89.76790 260.000
89.78785 309.000
89.80779 303.000
89.82774 296.000
89.84769 297.000
89.86764 273.000
89.88758 319.000
89.90753 318.000
89.92748 312.000
89.94742 327.000
89.96737 299.000
89.98732 295.000
90.00726 328.000
