10.00000 239.000
10.01995 265.000
10.03989 254.000
10.05984 257.000
10.07979 251.000
10.09973 263.000
10.11968 228.000
10.13963 256.000
10.15958 256.000
10.17952 283.000
10.19947 265.000
10.21942 284.000
10.23936 267.000
10.25931 241.000
10.27926 289.000
10.29920 252.000
10.31915 241.000
10.33910 234.000
10.35905 267.000
10.37899 281.000
10.39894 282.000
10.41889 272.000
10.43883 265.000
10.45878 236.000
10.47873 243.000
10.49867 253.000
10.51862 246.000
10.53857 257.000
10.55851 257.000
10.57846 241.000
10.59841 263.000
10.61836 234.000
10.63830 272.000
10.65825 251.000
10.67820 241.000
10.69814 241.000
10.71809 258.000
10.73804 241.000
10.75798 271.000
10.77793 264.000
10.79788 263.000
10.81783 240.000
10.83777 244.000
10.85772 270.000
10.87767 260.000
10.89761 295.000
10.91756 256.000
10.93751 233.000
10.95745 252.000
10.97740 245.000
10.99735 253.000
11.01730 279.000
11.03724 243.000
11.05719 243.000
11.07714 241.000
11.09708 261.000
11.11703 269.000
11.13698 231.000
11.15692 283.000
11.17687 268.000
11.19682 276.000
11.21676 231.000
11.23671 266.000
11.25666 240.000
11.27661 262.000
11.29655 259.000
11.31650 287.000
11.33645 291.000
11.35639 245.000
11.37634 269.000
11.39629 264.000
11.41623 267.000
11.43618 270.000
11.45613 242.000
11.47608 239.000
11.49602 256.000
11.51597 257.000
11.53592 268.000
11.55586 270.000
11.57581 246.000
11.59576 291.000
11.61570 242.000
11.63565 236.000
11.65560 235.000
11.67554 274.000
11.69549 261.000
11.71544 248.000
11.73539 263.000
11.75533 286.000
11.77528 269.000
11.79523 257.000
11.81517 278.000
11.83512 255.000
11.85507 221.000
11.87501 273.000
11.89496 260.000
11.91491 266.000
11.93486 274.000
11.95480 239.000
11.97475 261.000
11.99470 272.000
12.01464 267.000
12.03459 270.000
12.05454 258.000
12.07448 238.000
12.09443 268.000
12.11438 263.000
12.13432 262.000
12.15427 266.000
12.17422 256.000
12.19417 274.000
12.21411 268.000
12.23406 282.000
12.25401 262.000
12.27395 279.000
12.29390 266.000
12.31385 276.000
12.33379 274.000
12.35374 307.000
12.37369 309.000
12.39364 333.000
12.41358 326.000
12.43353 308.000
12.45348 323.000
12.47342 296.000
12.49337 301.000
12.51332 338.000
12.53326 342.000
12.55321 320.000
12.57316 347.000
12.59311 327.000
12.61305 331.000
12.63300 351.000
12.65295 351.000
12.67289 353.000
12.69284 310.000
12.71279 332.000
12.73273 346.000
12.75268 325.000
12.77263 314.000
12.79257 342.000
12.81252 318.000
12.83247 339.000
12.85242 304.000
12.87236 288.000
12.89231 319.000
12.91226 311.000
12.93220 333.000
12.95215 313.000
12.97210 294.000
12.99204 300.000
13.01199 306.000
13.03194 302.000
13.05189 309.000
13.07183 294.000
13.09178 303.000
13.11173 307.000
13.13167 312.000
13.15162 308.000
13.17157 290.000
13.19151 313.000
13.21146 305.000
13.23141 297.000
13.25135 311.000
13.27130 316.000
13.29125 288.000
13.31120 297.000
13.33114 258.000
13.35109 313.000
13.37104 312.000
13.39098 312.000
13.41093 270.000
13.43088 261.000
13.45082 325.000
13.47077 287.000
13.49072 283.000
13.51067 294.000
13.53061 308.000
13.55056 316.000
13.57051 293.000
13.59045 294.000
13.61040 285.000
13.63035 250.000
13.65029 317.000
13.67024 283.000
13.69019 276.000
13.71013 331.000
13.73008 290.000
13.75003 291.000
13.76998 301.000
13.78992 326.000
13.80987 333.000
13.82982 320.000
13.84976 267.000
13.86971 291.000
13.88966 291.000
13.90960 283.000
13.92955 290.000
13.94950 336.000
13.96945 312.000
13.98939 308.000
14.00934 304.000
14.02929 282.000
14.04923 286.000
14.06918 310.000
14.08913 336.000
14.10907 279.000
14.12902 316.000
14.14897 339.000
14.16892 329.000
14.18886 330.000
14.20881 293.000
14.22876 300.000
14.24870 313.000
14.26865 308.000
14.28860 304.000
14.30854 280.000
14.32849 284.000
14.34844 302.000
14.36838 290.000
14.38833 303.000
14.40828 286.000
14.42823 295.000
14.44817 269.000
14.46812 300.000
14.48807 326.000
14.50801 295.000
14.52796 299.000
14.54791 304.000
14.56785 275.000
14.58780 318.000
14.60775 296.000
14.62770 331.000
14.64764 283.000
14.66759 300.000
14.68754 267.000
14.70748 310.000
14.72743 289.000
14.74738 327.000
14.76732 319.000
14.78727 282.000
14.80722 297.000
14.82716 299.000
14.84711 313.000
14.86706 340.000
14.88701 337.000
14.90695 320.000
14.92690 381.000
14.94685 326.000
14.96679 354.000
14.98674 367.000
15.00669 313.000
15.02663 373.000
15.04658 361.000
15.06653 364.000
15.08648 334.000
15.10642 349.000
15.12637 322.000
15.14632 339.000
15.16626 352.000
15.18621 351.000
15.20616 379.000
15.22610 396.000
15.24605 370.000
15.26600 365.000
15.28594 398.000
15.30589 394.000
15.32584 377.000
15.34579 418.000
15.36573 407.000
15.38568 400.000
15.40563 393.000
15.42557 478.000
15.44552 468.000
15.46547 495.000
15.48541 553.000
15.50536 608.000
15.52531 674.000
15.54526 847.000
15.56520 1121.000
15.58515 1441.000
15.60510 2156.000
15.62504 3036.000
15.64499 4538.000
15.66494 6167.000
15.68488 7757.000
15.70483 8186.000
15.72478 7554.000
15.74472 5826.000
15.76467 4050.000
15.78462 2533.000
15.80457 1602.000
15.82451 1018.000
15.84446 787.000
15.86441 596.000
15.88435 491.000
15.90430 442.000
15.92425 376.000
15.94419 387.000
15.96414 383.000
15.98409 381.000
16.00404 339.000
16.02398 335.000
16.04393 317.000
16.06388 352.000
16.08382 313.000
16.10377 326.000
16.12372 325.000
16.14366 318.000
16.16361 302.000
16.18356 305.000
16.20351 340.000
16.22345 305.000
16.24340 326.000
16.26335 308.000
16.28329 314.000
16.30324 264.000
16.32319 296.000
16.34313 301.000
16.36308 323.000
16.38303 269.000
16.40297 273.000
16.42292 293.000
16.44287 294.000
16.46282 271.000
16.48276 255.000
16.50271 281.000
16.52266 298.000
16.54260 262.000
16.56255 247.000
16.58250 275.000
16.60244 274.000
16.62239 306.000
16.64234 270.000
16.66229 278.000
16.68223 249.000
16.70218 258.000
16.72213 260.000
16.74207 276.000
16.76202 282.000
16.78197 247.000
16.80191 279.000
16.82186 267.000
16.84181 262.000
16.86175 262.000
16.88170 250.000
16.90165 240.000
16.92160 285.000
16.94154 262.000
16.96149 259.000
16.98144 260.000
17.00138 282.000
17.02133 284.000
17.04128 284.000
17.06122 288.000
17.08117 292.000
17.10112 256.000
17.12107 265.000
17.14101 265.000
17.16096 272.000
17.18091 255.000
17.20085 249.000
17.22080 282.000
17.24075 276.000
17.26069 242.000
17.28064 290.000
17.30059 270.000
17.32053 241.000
17.34048 270.000
17.36043 250.000
17.38038 236.000
17.40032 260.000
17.42027 279.000
17.44022 260.000
17.46016 271.000
17.48011 245.000
17.50006 290.000
17.52000 259.000
17.53995 236.000
17.55990 251.000
17.57985 245.000
17.59979 254.000
17.61974 257.000
17.63969 230.000
17.65963 272.000
17.67958 268.000
17.69953 263.000
17.71947 294.000
17.73942 254.000
17.75937 278.000
17.77932 275.000
17.79926 281.000
17.81921 298.000
17.83916 272.000
17.85910 244.000
17.87905 263.000
17.89900 257.000
17.91894 255.000
17.93889 261.000
17.95884 275.000
17.97878 261.000
17.99873 272.000
18.01868 237.000
18.03863 240.000
18.05857 267.000
18.07852 264.000
18.09847 269.000
18.11841 269.000
18.13836 257.000
18.15831 272.000
18.17825 268.000
18.19820 287.000
18.21815 288.000
18.23810 238.000
18.25804 243.000
18.27799 272.000
18.29794 258.000
18.31788 280.000
18.33783 308.000
18.35778 235.000
18.37772 282.000
18.39767 282.000
18.41762 288.000
18.43756 276.000
18.45751 273.000
18.47746 277.000
18.49741 281.000
18.51735 269.000
18.53730 254.000
18.55725 250.000
18.57719 271.000
18.59714 289.000
18.61709 248.000
18.63703 282.000
18.65698 257.000
18.67693 249.000
18.69688 294.000
18.71682 289.000
18.73677 265.000
18.75672 265.000
18.77666 262.000
18.79661 257.000
18.81656 287.000
18.83650 277.000
18.85645 256.000
18.87640 254.000
18.89634 233.000
18.91629 280.000
18.93624 260.000
18.95619 278.000
18.97613 274.000
18.99608 282.000
19.01603 255.000
19.03597 267.000
19.05592 299.000
19.07587 287.000
19.09581 270.000
19.11576 249.000
19.13571 250.000
19.15566 253.000
19.17560 281.000
19.19555 247.000
19.21550 248.000
19.23544 267.000
19.25539 261.000
19.27534 263.000
19.29528 249.000
19.31523 267.000
19.33518 276.000
19.35513 257.000
19.37507 244.000
19.39502 276.000
19.41497 279.000
19.43491 257.000
19.45486 264.000
19.47481 292.000
19.49475 223.000
19.51470 272.000
19.53465 265.000
19.55459 289.000
19.57454 268.000
19.59449 253.000
19.61444 281.000
19.63438 285.000
19.65433 246.000
19.67428 245.000
19.69422 274.000
19.71417 250.000
19.73412 287.000
19.75406 257.000
19.77401 267.000
19.79396 280.000
19.81391 257.000
19.83385 262.000
19.85380 286.000
19.87375 301.000
19.89369 273.000
19.91364 255.000
19.93359 263.000
19.95353 276.000
19.97348 257.000
19.99343 278.000
20.01337 260.000
20.03332 307.000
20.05327 260.000
20.07322 268.000
20.09316 275.000
20.11311 288.000
20.13306 260.000
20.15300 247.000
20.17295 273.000
20.19290 284.000
20.21284 268.000
20.23279 269.000
20.25274 272.000
20.27269 257.000
20.29263 262.000
20.31258 250.000
20.33253 271.000
20.35247 272.000
20.37242 265.000
20.39237 268.000
20.41231 266.000
20.43226 261.000
20.45221 280.000
20.47215 266.000
20.49210 274.000
20.51205 267.000
20.53200 291.000
20.55194 290.000
20.57189 251.000
20.59184 237.000
20.61178 288.000
20.63173 281.000
20.65168 268.000
20.67162 259.000
20.69157 254.000
20.71152 259.000
20.73147 250.000
20.75141 289.000
20.77136 313.000
20.79131 259.000
20.81125 265.000
20.83120 279.000
20.85115 300.000
20.87109 252.000
20.89104 264.000
20.91099 284.000
20.93094 268.000
20.95088 269.000
20.97083 286.000
20.99078 272.000
21.01072 273.000
21.03067 295.000
21.05062 271.000
21.07056 285.000
21.09051 340.000
21.11046 343.000
21.13040 350.000
21.15035 315.000
21.17030 303.000
21.19025 324.000
21.21019 279.000
21.23014 269.000
21.25009 258.000
21.27003 258.000
21.28998 271.000
21.30993 238.000
21.32987 264.000
21.34982 291.000
21.36977 258.000
21.38972 277.000
21.40966 245.000
21.42961 261.000
21.44956 262.000
21.46950 239.000
21.48945 252.000
21.50940 277.000
21.52934 285.000
21.54929 281.000
21.56924 250.000
21.58918 298.000
21.60913 280.000
21.62908 260.000
21.64903 265.000
21.66897 258.000
21.68892 240.000
21.70887 275.000
21.72881 249.000
21.74876 266.000
21.76871 267.000
21.78865 251.000
21.80860 254.000
21.82855 259.000
21.84850 284.000
21.86844 237.000
21.88839 288.000
21.90834 268.000
21.92828 254.000
21.94823 271.000
21.96818 308.000
21.98812 263.000
22.00807 279.000
22.02802 255.000
22.04796 268.000
22.06791 278.000
22.08786 248.000
22.10781 286.000
22.12775 280.000
22.14770 234.000
22.16765 284.000
22.18759 279.000
22.20754 299.000
22.22749 266.000
22.24743 259.000
22.26738 291.000
22.28733 290.000
22.30728 246.000
22.32722 288.000
22.34717 272.000
22.36712 258.000
22.38706 243.000
22.40701 267.000
22.42696 278.000
22.44690 273.000
22.46685 266.000
22.48680 260.000
22.50675 280.000
22.52669 272.000
22.54664 261.000
22.56659 292.000
22.58653 286.000
22.60648 297.000
22.62643 271.000
22.64637 292.000
22.66632 274.000
22.68627 260.000
22.70621 278.000
22.72616 286.000
22.74611 278.000
22.76606 254.000
22.78600 273.000
22.80595 276.000
22.82590 267.000
22.84584 261.000
22.86579 279.000
22.88574 283.000
22.90568 275.000
22.92563 296.000
22.94558 272.000
22.96553 254.000
22.98547 279.000
23.00542 260.000
23.02537 290.000
23.04531 248.000
23.06526 308.000
23.08521 258.000
23.10515 294.000
23.12510 273.000
23.14505 270.000
23.16499 275.000
23.18494 257.000
23.20489 282.000
23.22484 302.000
23.24478 281.000
23.26473 266.000
23.28468 280.000
23.30462 285.000
23.32457 279.000
23.34452 247.000
23.36446 257.000
23.38441 255.000
23.40436 269.000
23.42431 296.000
23.44425 257.000
23.46420 284.000
23.48415 269.000
23.50409 281.000
23.52404 259.000
23.54399 301.000
23.56393 276.000
23.58388 274.000
23.60383 300.000
23.62377 285.000
23.64372 282.000
23.66367 284.000
23.68362 271.000
23.70356 284.000
23.72351 236.000
23.74346 272.000
23.76340 277.000
23.78335 290.000
23.80330 306.000
23.82324 267.000
23.84319 279.000
23.86314 254.000
23.88309 307.000
23.90303 281.000
23.92298 271.000
23.94293 268.000
23.96287 288.000
23.98282 269.000
24.00277 268.000
24.02271 248.000
24.04266 274.000
24.06261 252.000
24.08256 299.000
24.10250 284.000
24.12245 260.000
24.14240 264.000
24.16234 267.000
24.18229 312.000
24.20224 255.000
24.22218 269.000
24.24213 270.000
24.26208 277.000
24.28202 274.000
24.30197 254.000
24.32192 268.000
24.34187 287.000
24.36181 283.000
24.38176 298.000
24.40171 270.000
24.42165 282.000
24.44160 284.000
24.46155 292.000
24.48149 268.000
24.50144 275.000
24.52139 258.000
24.54134 278.000
24.56128 274.000
24.58123 281.000
24.60118 307.000
24.62112 281.000
24.64107 269.000
24.66102 279.000
24.68096 256.000
24.70091 297.000
24.72086 296.000
24.74080 268.000
24.76075 303.000
24.78070 301.000
24.80065 261.000
24.82059 310.000
24.84054 299.000
24.86049 272.000
24.88043 273.000
24.90038 255.000
24.92033 264.000
24.94027 277.000
24.96022 282.000
24.98017 238.000
25.00012 290.000
25.02006 282.000
25.04001 297.000
25.05996 286.000
25.07990 309.000
25.09985 277.000
25.11980 282.000
25.13974 297.000
25.15969 272.000
25.17964 287.000
25.19958 329.000
25.21953 296.000
25.23948 282.000
25.25943 277.000
25.27937 287.000
25.29932 283.000
25.31927 284.000
25.33921 286.000
25.35916 280.000
25.37911 307.000
25.39905 302.000
25.41900 311.000
25.43895 281.000
25.45890 295.000
25.47884 323.000
25.49879 319.000
25.51874 298.000
25.53868 262.000
25.55863 299.000
25.57858 302.000
25.59852 272.000
25.61847 307.000
25.63842 316.000
25.65837 326.000
25.67831 283.000
25.69826 352.000
25.71821 323.000
25.73815 295.000
25.75810 299.000
25.77805 270.000
25.79799 290.000
25.81794 315.000
25.83789 265.000
25.85783 282.000
25.87778 302.000
25.89773 298.000
25.91768 331.000
25.93762 261.000
25.95757 272.000
25.97752 291.000
25.99746 304.000
26.01741 265.000
26.03736 308.000
26.05730 305.000
26.07725 283.000
26.09720 287.000
26.11715 295.000
26.13709 294.000
26.15704 306.000
26.17699 304.000
26.19693 308.000
26.21688 313.000
26.23683 296.000
26.25677 288.000
26.27672 303.000
26.29667 286.000
26.31661 297.000
26.33656 265.000
26.35651 299.000
26.37646 279.000
26.39640 284.000
26.41635 274.000
26.43630 290.000
26.45624 314.000
26.47619 259.000
26.49614 285.000
26.51608 279.000
26.53603 315.000
26.55598 309.000
26.57593 276.000
26.59587 275.000
26.61582 330.000
26.63577 263.000
26.65571 313.000
26.67566 276.000
26.69561 287.000
26.71555 275.000
26.73550 287.000
26.75545 309.000
26.77539 279.000
26.79534 261.000
26.81529 312.000
26.83524 265.000
26.85518 295.000
26.87513 320.000
26.89508 295.000
26.91502 288.000
26.93497 295.000
26.95492 288.000
26.97486 304.000
26.99481 307.000
27.01476 300.000
27.03471 284.000
27.05465 292.000
27.07460 304.000
27.09455 293.000
27.11449 312.000
27.13444 292.000
27.15439 279.000
27.17433 299.000
27.19428 262.000
27.21423 308.000
27.23417 251.000
27.25412 313.000
27.27407 311.000
27.29402 286.000
27.31396 281.000
27.33391 260.000
27.35386 264.000
27.37380 292.000
27.39375 289.000
27.41370 285.000
27.43364 265.000
27.45359 292.000
27.47354 312.000
27.49349 305.000
27.51343 309.000
27.53338 277.000
27.55333 286.000
27.57327 298.000
27.59322 306.000
27.61317 327.000
27.63311 288.000
27.65306 300.000
27.67301 322.000
27.69296 298.000
27.71290 325.000
27.73285 260.000
27.75280 272.000
27.77274 300.000
27.79269 306.000
27.81264 334.000
27.83258 292.000
27.85253 291.000
27.87248 276.000
27.89242 260.000
27.91237 301.000
27.93232 304.000
27.95227 268.000
27.97221 300.000
27.99216 262.000
28.01211 322.000
28.03205 310.000
28.05200 254.000
28.07195 324.000
28.09189 291.000
28.11184 293.000
28.13179 280.000
28.15174 327.000
28.17168 316.000
28.19163 328.000
28.21158 312.000
28.23152 261.000
28.25147 294.000
28.27142 291.000
28.29136 298.000
28.31131 301.000
28.33126 285.000
28.35120 275.000
28.37115 284.000
28.39110 273.000
28.41105 307.000
28.43099 311.000
28.45094 266.000
28.47089 303.000
28.49083 306.000
28.51078 296.000
28.53073 326.000
28.55067 295.000
28.57062 307.000
28.59057 293.000
28.61052 288.000
28.63046 288.000
28.65041 287.000
28.67036 304.000
28.69030 323.000
28.71025 289.000
28.73020 311.000
28.75014 286.000
28.77009 317.000
28.79004 268.000
28.80998 298.000
28.82993 293.000
28.84988 292.000
28.86983 282.000
28.88977 276.000
28.90972 304.000
28.92967 274.000
28.94961 312.000
28.96956 297.000
28.98951 280.000
29.00945 317.000
29.02940 267.000
29.04935 285.000
29.06930 319.000
29.08924 323.000
29.10919 325.000
29.12914 331.000
29.14908 302.000
29.16903 285.000
29.18898 279.000
29.20892 289.000
29.22887 284.000
29.24882 302.000
29.26877 280.000
29.28871 303.000
29.30866 272.000
29.32861 316.000
29.34855 278.000
29.36850 309.000
29.38845 309.000
29.40839 280.000
29.42834 290.000
29.44829 308.000
29.46823 297.000
29.48818 298.000
29.50813 317.000
29.52808 307.000
29.54802 287.000
29.56797 341.000
29.58792 268.000
29.60786 301.000
29.62781 318.000
29.64776 270.000
29.66770 298.000
29.68765 299.000
29.70760 278.000
29.72755 314.000
29.74749 319.000
29.76744 335.000
29.78739 309.000
29.80733 283.000
29.82728 335.000
29.84723 347.000
29.86717 310.000
29.88712 304.000
29.90707 316.000
29.92701 284.000
29.94696 303.000
29.96691 304.000
29.98686 309.000
30.00680 327.000
30.02675 295.000
30.04670 307.000
30.06664 323.000
30.08659 304.000
30.10654 329.000
30.12648 296.000
30.14643 312.000
30.16638 328.000
30.18633 319.000
30.20627 353.000
30.22622 328.000
30.24617 313.000
30.26611 316.000
30.28606 332.000
30.30601 317.000
30.32595 349.000
30.34590 317.000
30.36585 299.000
30.38579 325.000
30.40574 332.000
30.42569 318.000
30.44564 301.000
30.46558 303.000
30.48553 320.000
30.50548 308.000
30.52542 331.000
30.54537 302.000
30.56532 302.000
30.58526 307.000
30.60521 328.000
30.62516 330.000
30.64511 301.000
30.66505 314.000
30.68500 315.000
30.70495 282.000
30.72489 319.000
30.74484 307.000
30.76479 321.000
30.78473 310.000
30.80468 302.000
30.82463 314.000
30.84458 314.000
30.86452 338.000
30.88447 309.000
30.90442 318.000
30.92436 301.000
30.94431 280.000
30.96426 306.000
30.98420 332.000
31.00415 284.000
31.02410 307.000
31.04404 318.000
31.06399 295.000
31.08394 300.000
31.10389 321.000
31.12383 304.000
31.14378 290.000
31.16373 303.000
31.18367 320.000
31.20362 347.000
31.22357 305.000
31.24351 294.000
31.26346 333.000
31.28341 318.000
31.30336 321.000
31.32330 345.000
31.34325 312.000
31.36320 303.000
31.38314 332.000
31.40309 301.000
31.42304 311.000
31.44298 327.000
31.46293 339.000
31.48288 353.000
31.50282 339.000
31.52277 341.000
31.54272 394.000
31.56267 419.000
31.58261 411.000
31.60256 449.000
31.62251 526.000
31.64245 570.000
31.66240 701.000
31.68235 736.000
31.70229 745.000
31.72224 875.000
31.74219 794.000
31.76214 842.000
31.78208 731.000
31.80203 701.000
31.82198 610.000
31.84192 519.000
31.86187 511.000
31.88182 366.000
31.90176 372.000
31.92171 413.000
31.94166 381.000
31.96160 348.000
31.98155 318.000
32.00150 354.000
32.02145 312.000
32.04139 343.000
32.06134 323.000
32.08129 301.000
32.10123 317.000
32.12118 333.000
32.14113 314.000
32.16107 324.000
32.18102 305.000
32.20097 312.000
32.22092 331.000
32.24086 290.000
32.26081 318.000
32.28076 303.000
32.30070 332.000
32.32065 319.000
32.34060 350.000
32.36054 324.000
32.38049 326.000
32.40044 307.000
32.42039 344.000
32.44033 370.000
32.46028 362.000
32.48023 445.000
32.50017 463.000
32.52012 514.000
32.54007 505.000
32.56001 435.000
32.57996 456.000
32.59991 445.000
32.61985 422.000
32.63980 341.000
32.65975 391.000
32.67970 344.000
32.69964 335.000
32.71959 325.000
32.73954 292.000
32.75948 316.000
32.77943 323.000
32.79938 291.000
32.81932 323.000
32.83927 328.000
32.85922 355.000
32.87917 297.000
32.89911 319.000
32.91906 291.000
32.93901 318.000
32.95895 279.000
32.97890 296.000
32.99885 329.000
33.01879 308.000
33.03874 284.000
33.05869 315.000
33.07863 307.000
33.09858 299.000
33.11853 307.000
33.13848 311.000
33.15842 315.000
33.17837 313.000
33.19832 329.000
33.21826 308.000
33.23821 345.000
33.25816 307.000
33.27810 292.000
33.29805 304.000
33.31800 319.000
33.33795 289.000
33.35789 292.000
33.37784 282.000
33.39779 288.000
33.41773 284.000
33.43768 312.000
33.45763 317.000
33.47757 282.000
33.49752 328.000
33.51747 296.000
33.53741 302.000
33.55736 309.000
33.57731 300.000
33.59726 289.000
33.61720 314.000
33.63715 313.000
33.65710 305.000
33.67704 291.000
33.69699 338.000
33.71694 344.000
33.73688 315.000
33.75683 278.000
33.77678 302.000
33.79673 296.000
33.81667 257.000
33.83662 321.000
33.85657 296.000
33.87651 321.000
33.89646 303.000
33.91641 305.000
33.93635 292.000
33.95630 322.000
33.97625 301.000
33.99620 357.000
34.01614 304.000
34.03609 291.000
34.05604 286.000
34.07598 294.000
34.09593 314.000
34.11588 304.000
34.13582 308.000
34.15577 315.000
34.17572 328.000
34.19566 282.000
34.21561 309.000
34.23556 303.000
34.25551 313.000
34.27545 310.000
34.29540 325.000
34.31535 308.000
34.33529 310.000
34.35524 320.000
34.37519 314.000
34.39513 327.000
34.41508 315.000
34.43503 314.000
34.45498 305.000
34.47492 305.000
34.49487 349.000
34.51482 280.000
34.53476 333.000
34.55471 313.000
34.57466 331.000
34.59460 303.000
34.61455 297.000
34.63450 309.000
34.65444 381.000
34.67439 292.000
34.69434 313.000
34.71429 311.000
34.73423 333.000
34.75418 326.000
34.77413 341.000
34.79407 342.000
34.81402 334.000
34.83397 359.000
34.85391 326.000
34.87386 343.000
34.89381 399.000
34.91376 349.000
34.93370 358.000
34.95365 365.000
34.97360 360.000
34.99354 367.000
35.01349 371.000
35.03344 342.000
35.05338 367.000
35.07333 342.000
35.09328 373.000
35.11322 352.000
35.13317 360.000
35.15312 358.000
35.17307 357.000
35.19301 416.000
35.21296 400.000
35.23291 371.000
35.25285 437.000
35.27280 457.000
35.29275 482.000
35.31269 522.000
35.33264 555.000
35.35259 605.000
35.37254 736.000
35.39248 843.000
35.41243 1005.000
35.43238 1214.000
35.45232 1405.000
35.47227 1429.000
35.49222 1529.000
35.51216 1890.000
35.53211 2356.000
35.55206 2280.000
35.57201 1968.000
35.59195 1656.000
35.61190 1605.000
35.63185 1463.000
35.65179 1284.000
35.67174 1110.000
35.69169 859.000
35.71163 746.000
35.73158 690.000
35.75153 653.000
35.77147 672.000
35.79142 742.000
35.81137 806.000
35.83132 931.000
35.85126 952.000
35.87121 1010.000
35.89116 982.000
35.91110 934.000
35.93105 805.000
35.95100 782.000
35.97094 757.000
35.99089 629.000
36.01084 620.000
36.03079 485.000
36.05073 426.000
36.07068 446.000
36.09063 405.000
36.11057 402.000
36.13052 388.000
36.15047 361.000
36.17041 352.000
36.19036 382.000
36.21031 375.000
36.23025 359.000
36.25020 342.000
36.27015 372.000
36.29010 313.000
36.31004 312.000
36.32999 328.000
36.34994 340.000
36.36988 322.000
36.38983 342.000
36.40978 301.000
36.42972 304.000
36.44967 347.000
36.46962 337.000
36.48957 352.000
36.50951 334.000
36.52946 342.000
36.54941 339.000
36.56935 366.000
36.58930 351.000
36.60925 326.000
36.62919 336.000
36.64914 351.000
36.66909 318.000
36.68903 304.000
36.70898 356.000
36.72893 364.000
36.74888 382.000
36.76882 398.000
36.78877 389.000
36.80872 354.000
36.82866 394.000
36.84861 356.000
36.86856 351.000
36.88850 316.000
36.90845 348.000
36.92840 348.000
36.94835 321.000
36.96829 339.000
36.98824 339.000
37.00819 324.000
37.02813 328.000
37.04808 326.000
37.06803 324.000
37.08797 342.000
37.10792 312.000
37.12787 319.000
37.14781 346.000
37.16776 304.000
37.18771 314.000
37.20766 337.000
37.22760 307.000
37.24755 335.000
37.26750 349.000
37.28744 346.000
37.30739 334.000
37.32734 333.000
37.34728 351.000
37.36723 332.000
37.38718 316.000
37.40713 331.000
37.42707 338.000
37.44702 312.000
37.46697 301.000
37.48691 347.000
37.50686 352.000
37.52681 332.000
37.54675 339.000
37.56670 339.000
37.58665 332.000
37.60660 307.000
37.62654 296.000
37.64649 309.000
37.66644 326.000
37.68638 314.000
37.70633 334.000
37.72628 310.000
37.74622 346.000
37.76617 320.000
37.78612 317.000
37.80606 340.000
37.82601 342.000
37.84596 347.000
37.86591 324.000
37.88585 360.000
37.90580 360.000
37.92575 313.000
37.94569 323.000
37.96564 300.000
37.98559 333.000
38.00553 340.000
38.02548 367.000
38.04543 340.000
38.06538 369.000
38.08532 346.000
38.10527 374.000
38.12522 350.000
38.14516 358.000
38.16511 386.000
38.18506 364.000
38.20500 384.000
38.22495 363.000
38.24490 357.000
38.26484 414.000
38.28479 380.000
38.30474 347.000
38.32469 381.000
38.34463 391.000
38.36458 406.000
38.38453 395.000
38.40447 399.000
38.42442 446.000
38.44437 450.000
38.46431 464.000
38.48426 447.000
38.50421 489.000
38.52416 534.000
38.54410 539.000
38.56405 582.000
38.58400 634.000
38.60394 702.000
38.62389 779.000
38.64384 974.000
38.66378 1084.000
38.68373 1370.000
38.70368 1736.000
38.72362 2031.000
38.74357 2126.000
38.76352 2124.000
38.78347 1843.000
38.80341 1769.000
38.82336 1723.000
38.84331 1652.000
38.86325 1630.000
38.88320 1362.000
38.90315 1276.000
38.92309 1107.000
38.94304 960.000
38.96299 799.000
38.98294 756.000
39.00288 757.000
39.02283 720.000
39.04278 657.000
39.06272 565.000
39.08267 534.000
39.10262 463.000
39.12256 500.000
39.14251 535.000
39.16246 551.000
39.18241 510.000
39.20235 532.000
39.22230 585.000
39.24225 590.000
39.26219 732.000
39.28214 838.000
39.30209 1008.000
39.32203 1111.000
39.34198 1320.000
39.36193 1461.000
39.38187 1494.000
39.40182 1490.000
39.42177 1395.000
39.44172 1259.000
39.46166 1210.000
39.48161 1122.000
39.50156 1046.000
39.52150 830.000
39.54145 691.000
39.56140 621.000
39.58134 555.000
39.60129 422.000
39.62124 429.000
39.64119 398.000
39.66113 370.000
39.68108 350.000
39.70103 410.000
39.72097 353.000
39.74092 326.000
39.76087 354.000
39.78081 350.000
39.80076 347.000
39.82071 339.000
39.84065 341.000
39.86060 355.000
39.88055 312.000
39.90050 293.000
39.92044 320.000
39.94039 274.000
39.96034 282.000
39.98028 319.000
40.00023 299.000
40.02018 308.000
40.04012 328.000
40.06007 332.000
40.08002 301.000
40.09997 318.000
40.11991 305.000
40.13986 319.000
40.15981 305.000
40.17975 324.000
40.19970 296.000
40.21965 306.000
40.23959 330.000
40.25954 272.000
40.27949 304.000
40.29943 298.000
40.31938 294.000
40.33933 329.000
40.35928 301.000
40.37922 284.000
40.39917 323.000
40.41912 297.000
40.43906 286.000
40.45901 289.000
40.47896 276.000
40.49890 292.000
40.51885 316.000
40.53880 284.000
40.55875 319.000
40.57869 323.000
40.59864 318.000
40.61859 273.000
40.63853 307.000
40.65848 287.000
40.67843 311.000
40.69837 288.000
40.71832 283.000
40.73827 286.000
40.75822 270.000
40.77816 312.000
40.79811 302.000
40.81806 279.000
40.83800 278.000
40.85795 261.000
40.87790 311.000
40.89784 288.000
40.91779 324.000
40.93774 276.000
40.95768 294.000
40.97763 293.000
40.99758 309.000
41.01753 288.000
41.03747 286.000
41.05742 280.000
41.07737 301.000
41.09731 285.000
41.11726 305.000
41.13721 301.000
41.15715 282.000
41.17710 292.000
41.19705 290.000
41.21700 286.000
41.23694 316.000
41.25689 266.000
41.27684 274.000
41.29678 304.000
41.31673 313.000
41.33668 294.000
41.35662 282.000
41.37657 336.000
41.39652 292.000
41.41646 295.000
41.43641 300.000
41.45636 299.000
41.47631 328.000
41.49625 289.000
41.51620 306.000
41.53615 289.000
41.55609 294.000
41.57604 281.000
41.59599 319.000
41.61593 297.000
41.63588 308.000
41.65583 289.000
41.67578 269.000
41.69572 285.000
41.71567 296.000
41.73562 277.000
41.75556 293.000
41.77551 283.000
41.79546 296.000
41.81540 278.000
41.83535 301.000
41.85530 309.000
41.87524 311.000
41.89519 258.000
41.91514 303.000
41.93509 263.000
41.95503 314.000
41.97498 298.000
41.99493 300.000
42.01487 274.000
42.03482 317.000
42.05477 300.000
42.07471 301.000
42.09466 273.000
42.11461 316.000
42.13456 301.000
42.15450 282.000
42.17445 314.000
42.19440 286.000
42.21434 281.000
42.23429 272.000
42.25424 292.000
42.27418 301.000
42.29413 310.000
42.31408 270.000
42.33403 297.000
42.35397 320.000
42.37392 298.000
42.39387 306.000
42.41381 294.000
42.43376 273.000
42.45371 288.000
42.47365 284.000
42.49360 297.000
42.51355 280.000
42.53349 318.000
42.55344 317.000
42.57339 274.000
42.59334 317.000
42.61328 298.000
42.63323 268.000
42.65318 318.000
42.67312 288.000
42.69307 283.000
42.71302 297.000
42.73296 297.000
42.75291 304.000
42.77286 309.000
42.79281 322.000
42.81275 266.000
42.83270 314.000
42.85265 285.000
42.87259 304.000
42.89254 304.000
42.91249 284.000
42.93243 325.000
42.95238 288.000
42.97233 287.000
42.99227 322.000
43.01222 280.000
43.03217 304.000
43.05212 316.000
43.07206 293.000
43.09201 337.000
43.11196 329.000
43.13190 313.000
43.15185 315.000
43.17180 340.000
43.19174 349.000
43.21169 342.000
43.23164 352.000
43.25159 358.000
43.27153 382.000
43.29148 475.000
43.31143 461.000
43.33137 509.000
43.35132 586.000
43.37127 582.000
43.39121 643.000
43.41116 717.000
43.43111 673.000
43.45105 743.000
43.47100 662.000
43.49095 632.000
43.51090 538.000
43.53084 558.000
43.55079 548.000
43.57074 482.000
43.59068 456.000
43.61063 416.000
43.63058 365.000
43.65052 363.000
43.67047 322.000
43.69042 341.000
43.71037 347.000
43.73031 309.000
43.75026 335.000
43.77021 312.000
43.79015 325.000
43.81010 306.000
43.83005 293.000
43.84999 291.000
43.86994 275.000
43.88989 294.000
43.90984 317.000
43.92978 301.000
43.94973 266.000
43.96968 297.000
43.98962 274.000
44.00957 275.000
44.02952 279.000
44.04946 289.000
44.06941 322.000
44.08936 302.000
44.10930 301.000
44.12925 303.000
44.14920 278.000
44.16915 300.000
44.18909 302.000
44.20904 310.000
44.22899 300.000
44.24893 298.000
44.26888 287.000
44.28883 292.000
44.30877 322.000
44.32872 309.000
44.34867 316.000
44.36862 297.000
44.38856 289.000
44.40851 270.000
44.42846 309.000
44.44840 318.000
44.46835 309.000
44.48830 303.000
44.50824 295.000
44.52819 276.000
44.54814 332.000
44.56808 301.000
44.58803 333.000
44.60798 291.000
44.62793 293.000
44.64787 266.000
44.66782 320.000
44.68777 281.000
44.70771 300.000
44.72766 292.000
44.74761 310.000
44.76755 290.000
44.78750 286.000
44.80745 325.000
44.82740 303.000
44.84734 287.000
44.86729 308.000
44.88724 288.000
44.90718 332.000
44.92713 307.000
44.94708 290.000
44.96702 308.000
44.98697 304.000
45.00692 311.000
45.02686 283.000
45.04681 324.000
45.06676 300.000
45.08671 310.000
45.10665 295.000
45.12660 294.000
45.14655 322.000
45.16649 292.000
45.18644 273.000
45.20639 315.000
45.22633 312.000
45.24628 336.000
45.26623 286.000
45.28618 293.000
45.30612 324.000
45.32607 285.000
45.34602 308.000
45.36596 292.000
45.38591 295.000
45.40586 276.000
45.42580 304.000
45.44575 311.000
45.46570 259.000
45.48565 295.000
45.50559 282.000
45.52554 291.000
45.54549 273.000
45.56543 275.000
45.58538 299.000
45.60533 305.000
45.62527 296.000
45.64522 294.000
45.66517 295.000
45.68511 311.000
45.70506 288.000
45.72501 258.000
45.74496 310.000
45.76490 303.000
45.78485 271.000
45.80480 301.000
45.82474 292.000
45.84469 313.000
45.86464 309.000
45.88458 279.000
45.90453 299.000
45.92448 316.000
45.94443 291.000
45.96437 284.000
45.98432 279.000
46.00427 294.000
46.02421 280.000
46.04416 287.000
46.06411 294.000
46.08405 295.000
46.10400 287.000
46.12395 315.000
46.14389 337.000
46.16384 321.000
46.18379 292.000
46.20374 304.000
46.22368 309.000
46.24363 351.000
46.26358 315.000
46.28352 316.000
46.30347 296.000
46.32342 333.000
46.34336 301.000
46.36331 362.000
46.38326 337.000
46.40321 306.000
46.42315 323.000
46.44310 305.000
46.46305 312.000
46.48299 285.000
46.50294 302.000
46.52289 317.000
46.54283 290.000
46.56278 260.000
46.58273 288.000
46.60267 305.000
46.62262 301.000
46.64257 294.000
46.66252 259.000
46.68246 289.000
46.70241 283.000
46.72236 291.000
46.74230 281.000
46.76225 300.000
46.78220 320.000
46.80214 267.000
46.82209 278.000
46.84204 312.000
46.86199 247.000
46.88193 253.000
46.90188 303.000
46.92183 289.000
46.94177 313.000
46.96172 318.000
46.98167 283.000
47.00161 253.000
47.02156 293.000
47.04151 278.000
47.06146 271.000
47.08140 279.000
47.10135 283.000
47.12130 282.000
47.14124 260.000
47.16119 286.000
47.18114 309.000
47.20108 328.000
47.22103 279.000
47.24098 309.000
47.26092 292.000
47.28087 274.000
47.30082 277.000
47.32077 318.000
47.34071 283.000
47.36066 282.000
47.38061 261.000
47.40055 286.000
47.42050 291.000
47.44045 309.000
47.46039 282.000
47.48034 319.000
47.50029 283.000
47.52024 263.000
47.54018 290.000
47.56013 315.000
47.58008 299.000
47.60002 277.000
47.61997 265.000
47.63992 281.000
47.65986 280.000
47.67981 299.000
47.69976 276.000
47.71970 291.000
47.73965 289.000
47.75960 340.000
47.77955 288.000
47.79949 315.000
47.81944 295.000
47.83939 294.000
47.85933 295.000
47.87928 297.000
47.89923 309.000
47.91917 289.000
47.93912 313.000
47.95907 308.000
47.97902 316.000
47.99896 279.000
48.01891 302.000
48.03886 305.000
48.05880 323.000
48.07875 352.000
48.09870 325.000
48.11864 322.000
48.13859 349.000
48.15854 340.000
48.17848 331.000
48.19843 328.000
48.21838 313.000
48.23833 356.000
48.25827 374.000
48.27822 399.000
48.29817 364.000
48.31811 386.000
48.33806 424.000
48.35801 397.000
48.37795 429.000
48.39790 432.000
48.41785 436.000
48.43780 489.000
48.45774 570.000
48.47769 564.000
48.49764 690.000
48.51758 827.000
48.53753 859.000
48.55748 1043.000
48.57742 1182.000
48.59737 1315.000
48.61732 1445.000
48.63726 1604.000
48.65721 1713.000
48.67716 1680.000
48.69711 1584.000
48.71705 1558.000
48.73700 1431.000
48.75695 1295.000
48.77689 1217.000
48.79684 1172.000
48.81679 1036.000
48.83673 867.000
48.85668 816.000
48.87663 698.000
48.89658 593.000
48.91652 506.000
48.93647 525.000
48.95642 442.000
48.97636 433.000
48.99631 407.000
49.01626 374.000
49.03620 360.000
49.05615 349.000
49.07610 352.000
49.09605 336.000
49.11599 340.000
49.13594 349.000
49.15589 328.000
49.17583 323.000
49.19578 319.000
49.21573 307.000
49.23567 308.000
49.25562 292.000
49.27557 308.000
49.29551 286.000
49.31546 311.000
49.33541 305.000
49.35536 333.000
49.37530 255.000
49.39525 315.000
49.41520 313.000
49.43514 310.000
49.45509 311.000
49.47504 318.000
49.49498 274.000
49.51493 289.000
49.53488 285.000
49.55483 302.000
49.57477 280.000
49.59472 312.000
49.61467 312.000
49.63461 305.000
49.65456 314.000
49.67451 297.000
49.69445 278.000
49.71440 287.000
49.73435 304.000
49.75429 315.000
49.77424 309.000
49.79419 337.000
49.81414 284.000
49.83408 291.000
49.85403 265.000
49.87398 272.000
49.89392 281.000
49.91387 287.000
49.93382 307.000
49.95376 282.000
49.97371 285.000
49.99366 286.000
50.01361 282.000
50.03355 301.000
50.05350 289.000
50.07345 263.000
50.09339 309.000
50.11334 322.000
50.13329 283.000
50.15323 285.000
50.17318 300.000
50.19313 279.000
50.21307 267.000
50.23302 288.000
50.25297 238.000
50.27292 278.000
50.29286 310.000
50.31281 244.000
50.33276 301.000
50.35270 286.000
50.37265 271.000
50.39260 283.000
50.41254 289.000
50.43249 254.000
50.45244 290.000
50.47239 298.000
50.49233 271.000
50.51228 301.000
50.53223 283.000
50.55217 299.000
50.57212 291.000
50.59207 259.000
50.61201 308.000
50.63196 293.000
50.65191 294.000
50.67186 296.000
50.69180 267.000
50.71175 315.000
50.73170 264.000
50.75164 274.000
50.77159 312.000
50.79154 308.000
50.81148 292.000
50.83143 275.000
50.85138 276.000
50.87132 267.000
50.89127 282.000
50.91122 283.000
50.93117 285.000
50.95111 287.000
50.97106 288.000
50.99101 316.000
51.01095 290.000
51.03090 284.000
51.05085 279.000
51.07079 275.000
51.09074 310.000
51.11069 271.000
51.13064 299.000
51.15058 299.000
51.17053 278.000
51.19048 266.000
51.21042 262.000
51.23037 267.000
51.25032 305.000
51.27026 328.000
51.29021 274.000
51.31016 283.000
51.33010 297.000
51.35005 307.000
51.37000 302.000
51.38995 305.000
51.40989 281.000
51.42984 278.000
51.44979 322.000
51.46973 285.000
51.48968 302.000
51.50963 277.000
51.52957 289.000
51.54952 314.000
51.56947 286.000
51.58942 312.000
51.60936 289.000
51.62931 287.000
51.64926 288.000
51.66920 292.000
51.68915 289.000
51.70910 290.000
51.72904 278.000
51.74899 270.000
51.76894 278.000
51.78888 289.000
51.80883 266.000
51.82878 295.000
51.84873 265.000
51.86867 304.000
51.88862 279.000
51.90857 256.000
51.92851 278.000
51.94846 289.000
51.96841 245.000
51.98835 310.000
52.00830 301.000
52.02825 254.000
52.04820 287.000
52.06814 294.000
52.08809 277.000
52.10804 275.000
52.12798 281.000
52.14793 283.000
52.16788 296.000
52.18782 281.000
52.20777 278.000
52.22772 272.000
52.24767 285.000
52.26761 303.000
52.28756 296.000
52.30751 239.000
52.32745 280.000
52.34740 293.000
52.36735 289.000
52.38729 260.000
52.40724 276.000
52.42719 273.000
52.44713 304.000
52.46708 302.000
52.48703 296.000
52.50698 271.000
52.52692 275.000
52.54687 280.000
52.56682 276.000
52.58676 283.000
52.60671 285.000
52.62666 311.000
52.64660 295.000
52.66655 271.000
52.68650 287.000
52.70645 285.000
52.72639 304.000
52.74634 275.000
52.76629 282.000
52.78623 284.000
52.80618 310.000
52.82613 271.000
52.84607 272.000
52.86602 287.000
52.88597 275.000
52.90591 257.000
52.92586 268.000
52.94581 294.000
52.96576 290.000
52.98570 269.000
53.00565 292.000
53.02560 254.000
53.04554 291.000
53.06549 291.000
53.08544 292.000
53.10538 275.000
53.12533 290.000
53.14528 295.000
53.16523 303.000
53.18517 261.000
53.20512 280.000
53.22507 289.000
53.24501 297.000
53.26496 291.000
53.28491 321.000
53.30485 312.000
53.32480 300.000
53.34475 270.000
53.36469 319.000
53.38464 323.000
53.40459 307.000
53.42454 319.000
53.44448 344.000
53.46443 359.000
53.48438 379.000
53.50432 421.000
53.52427 410.000
53.54422 413.000
53.56416 411.000
53.58411 388.000
53.60406 382.000
53.62401 382.000
53.64395 384.000
53.66390 403.000
53.68385 360.000
53.70379 366.000
53.72374 348.000
53.74369 332.000
53.76363 335.000
53.78358 326.000
53.80353 301.000
53.82348 288.000
53.84342 299.000
53.86337 303.000
53.88332 301.000
53.90326 316.000
53.92321 267.000
53.94316 306.000
53.96310 328.000
53.98305 263.000
54.00300 307.000
54.02294 274.000
54.04289 319.000
54.06284 274.000
54.08279 271.000
54.10273 263.000
54.12268 250.000
54.14263 335.000
54.16257 283.000
54.18252 263.000
54.20247 286.000
54.22241 252.000
54.24236 266.000
54.26231 284.000
54.28226 284.000
54.30220 262.000
54.32215 305.000
54.34210 265.000
54.36204 291.000
54.38199 269.000
54.40194 287.000
54.42188 265.000
54.44183 281.000
54.46178 258.000
54.48172 292.000
54.50167 286.000
54.52162 312.000
54.54157 286.000
54.56151 292.000
54.58146 274.000
54.60141 272.000
54.62135 306.000
54.64130 280.000
54.66125 272.000
54.68119 307.000
54.70114 280.000
54.72109 279.000
54.74104 240.000
54.76098 307.000
54.78093 288.000
54.80088 260.000
54.82082 285.000
54.84077 288.000
54.86072 296.000
54.88066 235.000
54.90061 287.000
54.92056 261.000
54.94050 297.000
54.96045 300.000
54.98040 293.000
55.00035 273.000
55.02029 276.000
55.04024 324.000
55.06019 259.000
55.08013 279.000
55.10008 262.000
55.12003 261.000
55.13997 329.000
55.15992 275.000
55.17987 275.000
55.19982 255.000
55.21976 303.000
55.23971 264.000
55.25966 270.000
55.27960 270.000
55.29955 280.000
55.31950 265.000
55.33944 277.000
55.35939 275.000
55.37934 295.000
55.39929 269.000
55.41923 304.000
55.43918 282.000
55.45913 288.000
55.47907 269.000
55.49902 275.000
55.51897 273.000
55.53891 265.000
55.55886 261.000
55.57881 275.000
55.59875 285.000
55.61870 276.000
55.63865 295.000
55.65860 286.000
55.67854 277.000
55.69849 275.000
55.71844 270.000
55.73838 332.000
55.75833 284.000
55.77828 322.000
55.79822 299.000
55.81817 263.000
55.83812 285.000
55.85807 287.000
55.87801 265.000
55.89796 253.000
55.91791 318.000
55.93785 265.000
55.95780 266.000
55.97775 283.000
55.99769 288.000
56.01764 298.000
56.03759 277.000
56.05753 290.000
56.07748 302.000
56.09743 292.000
56.11738 274.000
56.13732 271.000
56.15727 268.000
56.17722 280.000
56.19716 292.000
56.21711 262.000
56.23706 298.000
56.25700 293.000
56.27695 281.000
56.29690 272.000
56.31685 286.000
56.33679 277.000
56.35674 298.000
56.37669 308.000
56.39663 301.000
56.41658 282.000
56.43653 288.000
56.45647 270.000
56.47642 269.000
56.49637 298.000
56.51631 292.000
56.53626 272.000
56.55621 285.000
56.57616 272.000
56.59610 253.000
56.61605 292.000
56.63600 302.000
56.65594 302.000
56.67589 287.000
56.69584 303.000
56.71578 272.000
56.73573 308.000
56.75568 278.000
56.77563 281.000
56.79557 313.000
56.81552 270.000
56.83547 304.000
56.85541 302.000
56.87536 283.000
56.89531 287.000
56.91525 288.000
56.93520 307.000
56.95515 266.000
56.97510 284.000
56.99504 290.000
57.01499 285.000
57.03494 275.000
57.05488 285.000
57.07483 324.000
57.09478 281.000
57.11472 276.000
57.13467 265.000
57.15462 268.000
57.17456 288.000
57.19451 297.000
57.21446 281.000
57.23441 266.000
57.25435 282.000
57.27430 335.000
57.29425 314.000
57.31419 301.000
57.33414 304.000
57.35409 326.000
57.37403 286.000
57.39398 277.000
57.41393 316.000
57.43388 302.000
57.45382 295.000
57.47377 267.000
57.49372 297.000
57.51366 299.000
57.53361 307.000
57.55356 270.000
57.57350 320.000
57.59345 290.000
57.61340 290.000
57.63334 285.000
57.65329 298.000
57.67324 315.000
57.69319 276.000
57.71313 301.000
57.73308 295.000
57.75303 254.000
57.77297 305.000
57.79292 260.000
57.81287 303.000
57.83281 293.000
57.85276 280.000
57.87271 299.000
57.89266 273.000
57.91260 275.000
57.93255 271.000
57.95250 311.000
57.97244 278.000
57.99239 301.000
58.01234 311.000
58.03228 290.000
58.05223 334.000
58.07218 315.000
58.09212 308.000
58.11207 320.000
58.13202 310.000
58.15197 333.000
58.17191 353.000
58.19186 349.000
58.21181 390.000
58.23175 410.000
58.25170 454.000
58.27165 449.000
58.29159 476.000
58.31154 462.000
58.33149 469.000
58.35144 461.000
58.37138 401.000
58.39133 468.000
58.41128 389.000
58.43122 397.000
58.45117 394.000
58.47112 402.000
58.49106 354.000
58.51101 359.000
58.53096 378.000
58.55090 336.000
58.57085 345.000
58.59080 315.000
58.61075 315.000
58.63069 300.000
58.65064 306.000
58.67059 306.000
58.69053 285.000
58.71048 281.000
58.73043 291.000
58.75037 308.000
58.77032 275.000
58.79027 291.000
58.81022 299.000
58.83016 289.000
58.85011 285.000
58.87006 295.000
58.89000 278.000
58.90995 293.000
58.92990 273.000
58.94984 279.000
58.96979 288.000
58.98974 284.000
59.00969 286.000
59.02963 266.000
59.04958 275.000
59.06953 306.000
59.08947 291.000
59.10942 253.000
59.12937 273.000
59.14931 263.000
59.16926 276.000
59.18921 267.000
59.20915 277.000
59.22910 294.000
59.24905 303.000
59.26900 280.000
59.28894 263.000
59.30889 279.000
59.32884 264.000
59.34878 303.000
59.36873 261.000
59.38868 282.000
59.40862 280.000
59.42857 298.000
59.44852 240.000
59.46847 277.000
59.48841 254.000
59.50836 286.000
59.52831 280.000
59.54825 285.000
59.56820 282.000
59.58815 283.000
59.60809 286.000
59.62804 275.000
59.64799 313.000
59.66793 283.000
59.68788 280.000
59.70783 268.000
59.72778 278.000
59.74772 275.000
59.76767 292.000
59.78762 318.000
59.80756 276.000
59.82751 284.000
59.84746 299.000
59.86740 290.000
59.88735 287.000
59.90730 266.000
59.92725 288.000
59.94719 295.000
59.96714 251.000
59.98709 259.000
60.00703 260.000
60.02698 311.000
60.04693 270.000
60.06687 297.000
60.08682 243.000
60.10677 304.000
60.12671 302.000
60.14666 261.000
60.16661 268.000
60.18656 235.000
60.20650 285.000
60.22645 279.000
60.24640 282.000
60.26634 272.000
60.28629 268.000
60.30624 296.000
60.32618 289.000
60.34613 301.000
60.36608 286.000
60.38603 287.000
60.40597 267.000
60.42592 276.000
60.44587 270.000
60.46581 315.000
60.48576 283.000
60.50571 272.000
60.52565 256.000
60.54560 301.000
60.56555 323.000
60.58550 280.000
60.60544 277.000
60.62539 289.000
60.64534 280.000
60.66528 274.000
60.68523 287.000
60.70518 311.000
60.72512 305.000
60.74507 280.000
60.76502 267.000
60.78496 297.000
60.80491 258.000
60.82486 283.000
60.84481 321.000
60.86475 295.000
60.88470 305.000
60.90465 278.000
60.92459 289.000
60.94454 327.000
60.96449 343.000
60.98443 270.000
61.00438 283.000
61.02433 302.000
61.04428 271.000
61.06422 324.000
61.08417 314.000
61.10412 329.000
61.12406 336.000
61.14401 316.000
61.16396 320.000
61.18390 334.000
61.20385 347.000
61.22380 326.000
61.24374 337.000
61.26369 344.000
61.28364 348.000
61.30359 331.000
61.32353 337.000
61.34348 360.000
61.36343 362.000
61.38337 413.000
61.40332 404.000
61.42327 446.000
61.44321 499.000
61.46316 520.000
61.48311 536.000
61.50306 591.000
61.52300 637.000
61.54295 748.000
61.56290 759.000
61.58284 711.000
61.60279 761.000
61.62274 715.000
61.64268 775.000
61.66263 738.000
61.68258 787.000
61.70252 797.000
61.72247 794.000
61.74242 744.000
61.76237 737.000
61.78231 627.000
61.80226 669.000
61.82221 583.000
61.84215 618.000
61.86210 600.000
61.88205 552.000
61.90199 503.000
61.92194 487.000
61.94189 456.000
61.96184 420.000
61.98178 427.000
62.00173 349.000
62.02168 386.000
62.04162 354.000
62.06157 361.000
62.08152 326.000
62.10146 343.000
62.12141 323.000
62.14136 323.000
62.16131 336.000
62.18125 327.000
62.20120 330.000
62.22115 312.000
62.24109 284.000
62.26104 314.000
62.28099 295.000
62.30093 322.000
62.32088 309.000
62.34083 306.000
62.36077 291.000
62.38072 333.000
62.40067 324.000
62.42062 331.000
62.44056 303.000
62.46051 285.000
62.48046 300.000
62.50040 315.000
62.52035 288.000
62.54030 278.000
62.56024 323.000
62.58019 264.000
62.60014 285.000
62.62009 313.000
62.64003 271.000
62.65998 331.000
62.67993 333.000
62.69987 286.000
62.71982 294.000
62.73977 292.000
62.75971 301.000
62.77966 324.000
62.79961 292.000
62.81955 256.000
62.83950 273.000
62.85945 305.000
62.87940 324.000
62.89934 307.000
62.91929 287.000
62.93924 314.000
62.95918 305.000
62.97913 328.000
62.99908 309.000
63.01902 284.000
63.03897 298.000
63.05892 314.000
63.07887 315.000
63.09881 271.000
63.11876 309.000
63.13871 291.000
63.15865 304.000
63.17860 297.000
63.19855 314.000
63.21849 306.000
63.23844 313.000
63.25839 316.000
63.27833 301.000
63.29828 291.000
63.31823 317.000
63.33818 308.000
63.35812 299.000
63.37807 260.000
63.39802 300.000
63.41796 250.000
63.43791 262.000
63.45786 307.000
63.47780 300.000
63.49775 303.000
63.51770 290.000
63.53765 248.000
63.55759 302.000
63.57754 303.000
63.59749 299.000
63.61743 300.000
63.63738 277.000
63.65733 303.000
63.67727 292.000
63.69722 343.000
63.71717 272.000
63.73712 289.000
63.75706 285.000
63.77701 278.000
63.79696 296.000
63.81690 275.000
63.83685 270.000
63.85680 292.000
63.87674 276.000
63.89669 320.000
63.91664 304.000
63.93658 302.000
63.95653 310.000
63.97648 322.000
63.99643 305.000
64.01637 313.000
64.03632 316.000
64.05627 320.000
64.07621 311.000
64.09616 297.000
64.11611 327.000
64.13605 312.000
64.15600 317.000
64.17595 333.000
64.19590 332.000
64.21584 319.000
64.23579 355.000
64.25574 319.000
64.27568 386.000
64.29563 415.000
64.31558 412.000
64.33552 397.000
64.35547 463.000
64.37542 449.000
64.39536 481.000
64.41531 540.000
64.43526 558.000
64.45521 604.000
64.47515 615.000
64.49510 567.000
64.51505 616.000
64.53499 541.000
64.55494 555.000
64.57489 509.000
64.59483 492.000
64.61478 485.000
64.63473 499.000
64.65468 469.000
64.67462 456.000
64.69457 459.000
64.71452 402.000
64.73446 385.000
64.75441 388.000
64.77436 411.000
64.79430 375.000
64.81425 353.000
64.83420 336.000
64.85414 351.000
64.87409 339.000
64.89404 284.000
64.91399 329.000
64.93393 296.000
64.95388 317.000
64.97383 309.000
64.99377 323.000
65.01372 326.000
65.03367 312.000
65.05361 289.000
65.07356 327.000
65.09351 331.000
65.11346 300.000
65.13340 303.000
65.15335 292.000
65.17330 287.000
65.19324 274.000
65.21319 278.000
65.23314 326.000
65.25308 279.000
65.27303 326.000
65.29298 303.000
65.31293 289.000
65.33287 284.000
65.35282 299.000
65.37277 284.000
65.39271 307.000
65.41266 307.000
65.43261 298.000
65.45255 307.000
65.47250 326.000
65.49245 294.000
65.51239 318.000
65.53234 326.000
65.55229 290.000
65.57224 318.000
65.59218 347.000
65.61213 358.000
65.63208 333.000
65.65202 310.000
65.67197 364.000
65.69192 346.000
65.71186 349.000
65.73181 403.000
65.75176 389.000
65.77171 380.000
65.79165 418.000
65.81160 439.000
65.83155 445.000
65.85149 471.000
65.87144 437.000
65.89139 499.000
65.91133 427.000
65.93128 454.000
65.95123 428.000
65.97117 483.000
65.99112 449.000
66.01107 467.000
66.03102 450.000
66.05096 476.000
66.07091 436.000
66.09086 462.000
66.11080 479.000
66.13075 483.000
66.15070 542.000
66.17064 587.000
66.19059 544.000
66.21054 601.000
66.23049 553.000
66.25043 516.000
66.27038 527.000
66.29033 444.000
66.31027 500.000
66.33022 499.000
66.35017 492.000
66.37011 491.000
66.39006 503.000
66.41001 512.000
66.42995 491.000
66.44990 464.000
66.46985 411.000
66.48980 424.000
66.50974 376.000
66.52969 399.000
66.54964 389.000
66.56958 389.000
66.58953 378.000
66.60948 400.000
66.62942 405.000
66.64937 406.000
66.66932 423.000
66.68927 420.000
66.70921 453.000
66.72916 436.000
66.74911 507.000
66.76905 462.000
66.78900 497.000
66.80895 539.000
66.82889 465.000
66.84884 475.000
66.86879 475.000
66.88874 468.000
66.90868 460.000
66.92863 463.000
66.94858 448.000
66.96852 427.000
66.98847 471.000
67.00842 427.000
67.02836 432.000
67.04831 393.000
67.06826 405.000
67.08820 379.000
67.10815 407.000
67.12810 363.000
67.14805 354.000
67.16799 333.000
67.18794 367.000
67.20789 333.000
67.22783 330.000
67.24778 309.000
67.26773 307.000
67.28767 319.000
67.30762 305.000
67.32757 314.000
67.34752 293.000
67.36746 338.000
67.38741 311.000
67.40736 316.000
67.42730 331.000
67.44725 319.000
67.46720 298.000
67.48714 278.000
67.50709 290.000
67.52704 322.000
67.54698 301.000
67.56693 269.000
67.58688 284.000
67.60683 298.000
67.62677 305.000
67.64672 311.000
67.66667 292.000
67.68661 286.000
67.70656 289.000
67.72651 327.000
67.74645 344.000
67.76640 326.000
67.78635 341.000
67.80630 349.000
67.82624 383.000
67.84619 377.000
67.86614 379.000
67.88608 397.000
67.90603 393.000
67.92598 436.000
67.94592 408.000
67.96587 427.000
67.98582 425.000
68.00576 432.000
68.02571 440.000
68.04566 468.000
68.06561 450.000
68.08555 482.000
68.10550 553.000
68.12545 527.000
68.14539 525.000
68.16534 526.000
68.18529 453.000
68.20523 436.000
68.22518 441.000
68.24513 404.000
68.26508 389.000
68.28502 386.000
68.30497 391.000
68.32492 397.000
68.34486 408.000
68.36481 365.000
68.38476 381.000
68.40470 371.000
68.42465 362.000
68.44460 345.000
68.46455 323.000
68.48449 273.000
68.50444 299.000
68.52439 294.000
68.54433 294.000
68.56428 312.000
68.58423 325.000
68.60417 273.000
68.62412 272.000
68.64407 289.000
68.66401 311.000
68.68396 288.000
68.70391 303.000
68.72386 277.000
68.74380 304.000
68.76375 304.000
68.78370 305.000
68.80364 277.000
68.82359 291.000
68.84354 258.000
68.86348 283.000
68.88343 295.000
68.90338 285.000
68.92333 331.000
68.94327 280.000
68.96322 300.000
68.98317 269.000
69.00311 255.000
69.02306 278.000
69.04301 274.000
69.06295 267.000
69.08290 286.000
69.10285 306.000
69.12279 286.000
69.14274 291.000
69.16269 276.000
69.18264 304.000
69.20258 291.000
69.22253 298.000
69.24248 270.000
69.26242 291.000
69.28237 270.000
69.30232 296.000
69.32226 294.000
69.34221 297.000
69.36216 277.000
69.38211 278.000
69.40205 274.000
69.42200 281.000
69.44195 263.000
69.46189 261.000
69.48184 273.000
69.50179 251.000
69.52173 269.000
69.54168 269.000
69.56163 272.000
69.58157 291.000
69.60152 315.000
69.62147 252.000
69.64142 244.000
69.66136 289.000
69.68131 308.000
69.70126 302.000
69.72120 268.000
69.74115 277.000
69.76110 284.000
69.78104 262.000
69.80099 282.000
69.82094 260.000
69.84089 276.000
69.86083 273.000
69.88078 280.000
69.90073 297.000
69.92067 288.000
69.94062 276.000
69.96057 284.000
69.98051 271.000
70.00046 276.000
70.02041 300.000
70.04035 263.000
70.06030 256.000
70.08025 273.000
70.10020 288.000
70.12014 296.000
70.14009 267.000
70.16004 255.000
70.17998 284.000
70.19993 261.000
70.21988 266.000
70.23982 276.000
70.25977 246.000
70.27972 267.000
70.29967 284.000
70.31961 267.000
70.33956 292.000
70.35951 292.000
70.37945 290.000
70.39940 250.000
70.41935 269.000
70.43929 296.000
70.45924 290.000
70.47919 290.000
70.49914 294.000
70.51908 281.000
70.53903 272.000
70.55898 290.000
70.57892 281.000
70.59887 291.000
70.61882 281.000
70.63876 245.000
70.65871 240.000
70.67866 310.000
70.69860 264.000
70.71855 315.000
70.73850 294.000
70.75845 268.000
70.77839 278.000
70.79834 259.000
70.81829 289.000
70.83823 263.000
70.85818 287.000
70.87813 284.000
70.89807 298.000
70.91802 271.000
70.93797 256.000
70.95792 241.000
70.97786 249.000
70.99781 255.000
71.01776 271.000
71.03770 293.000
71.05765 284.000
71.07760 280.000
71.09754 277.000
71.11749 247.000
71.13744 276.000
71.15738 268.000
71.17733 249.000
71.19728 249.000
71.21723 281.000
71.23717 266.000
71.25712 279.000
71.27707 246.000
71.29701 287.000
71.31696 297.000
71.33691 277.000
71.35685 248.000
71.37680 294.000
71.39675 293.000
71.41670 284.000
71.43664 295.000
71.45659 263.000
71.47654 291.000
71.49648 282.000
71.51643 284.000
71.53638 293.000
71.55632 281.000
71.57627 279.000
71.59622 294.000
71.61616 282.000
71.63611 281.000
71.65606 334.000
71.67601 262.000
71.69595 307.000
71.71590 314.000
71.73585 282.000
71.75579 290.000
71.77574 299.000
71.79569 269.000
71.81563 296.000
71.83558 274.000
71.85553 322.000
71.87548 271.000
71.89542 236.000
71.91537 278.000
71.93532 293.000
71.95526 264.000
71.97521 275.000
71.99516 292.000
72.01510 269.000
72.03505 283.000
72.05500 269.000
72.07495 259.000
72.09489 296.000
72.11484 315.000
72.13479 300.000
72.15473 257.000
72.17468 283.000
72.19463 290.000
72.21457 282.000
72.23452 320.000
72.25447 331.000
72.27441 289.000
72.29436 314.000
72.31431 293.000
72.33426 339.000
72.35420 372.000
72.37415 389.000
72.39410 345.000
72.41404 381.000
72.43399 345.000
72.45394 374.000
72.47388 322.000
72.49383 331.000
72.51378 341.000
72.53373 336.000
72.55367 309.000
72.57362 295.000
72.59357 300.000
72.61351 324.000
72.63346 301.000
72.65341 315.000
72.67335 308.000
72.69330 305.000
72.71325 272.000
72.73319 266.000
72.75314 285.000
72.77309 297.000
72.79304 308.000
72.81298 304.000
72.83293 287.000
72.85288 275.000
72.87282 288.000
72.89277 271.000
72.91272 267.000
72.93266 296.000
72.95261 268.000
72.97256 252.000
72.99251 287.000
73.01245 278.000
73.03240 280.000
73.05235 303.000
73.07229 260.000
73.09224 310.000
73.11219 249.000
73.13213 309.000
73.15208 278.000
73.17203 303.000
73.19197 286.000
73.21192 303.000
73.23187 264.000
73.25182 274.000
73.27176 313.000
73.29171 295.000
73.31166 285.000
73.33160 274.000
73.35155 275.000
73.37150 296.000
73.39144 309.000
73.41139 319.000
73.43134 300.000
73.45129 337.000
73.47123 320.000
73.49118 304.000
73.51113 319.000
73.53107 356.000
73.55102 347.000
73.57097 291.000
73.59091 348.000
73.61086 343.000
73.63081 344.000
73.65076 373.000
73.67070 371.000
73.69065 388.000
73.71060 348.000
73.73054 356.000
73.75049 340.000
73.77044 332.000
73.79038 358.000
73.81033 364.000
73.83028 336.000
73.85022 341.000
73.87017 309.000
73.89012 316.000
73.91007 316.000
73.93001 311.000
73.94996 293.000
73.96991 301.000
73.98985 296.000
74.00980 302.000
74.02975 289.000
74.04969 271.000
74.06964 301.000
74.08959 276.000
74.10954 303.000
74.12948 294.000
74.14943 283.000
74.16938 286.000
74.18932 273.000
74.20927 282.000
74.22922 272.000
74.24916 286.000
74.26911 288.000
74.28906 291.000
74.30900 281.000
74.32895 301.000
74.34890 301.000
74.36885 280.000
74.38879 313.000
74.40874 296.000
74.42869 281.000
74.44863 307.000
74.46858 279.000
74.48853 270.000
74.50847 271.000
74.52842 274.000
74.54837 268.000
74.56832 304.000
74.58826 265.000
74.60821 244.000
74.62816 286.000
74.64810 274.000
74.66805 296.000
74.68800 278.000
74.70794 317.000
74.72789 317.000
74.74784 280.000
74.76778 282.000
74.78773 282.000
74.80768 289.000
74.82763 292.000
74.84757 282.000
74.86752 312.000
74.88747 291.000
74.90741 336.000
74.92736 335.000
74.94731 351.000
74.96725 357.000
74.98720 386.000
75.00715 399.000
75.02710 401.000
75.04704 362.000
75.06699 377.000
75.08694 355.000
75.10688 330.000
75.12683 323.000
75.14678 354.000
75.16672 347.000
75.18667 359.000
75.20662 374.000
75.22657 369.000
75.24651 389.000
75.26646 384.000
75.28641 373.000
75.30635 363.000
75.32630 345.000
75.34625 375.000
75.36619 336.000
75.38614 294.000
75.40609 350.000
75.42603 318.000
75.44598 339.000
75.46593 323.000
75.48588 310.000
75.50582 309.000
75.52577 330.000
75.54572 317.000
75.56566 290.000
75.58561 317.000
75.60556 308.000
75.62550 302.000
75.64545 303.000
75.66540 289.000
75.68535 292.000
75.70529 313.000
75.72524 279.000
75.74519 294.000
75.76513 289.000
75.78508 303.000
75.80503 313.000
75.82497 300.000
75.84492 260.000
75.86487 294.000
75.88481 292.000
75.90476 288.000
75.92471 314.000
75.94466 279.000
75.96460 270.000
75.98455 332.000
76.00450 286.000
76.02444 298.000
76.04439 290.000
76.06434 306.000
76.08428 277.000
76.10423 302.000
76.12418 286.000
76.14413 275.000
76.16407 298.000
76.18402 278.000
76.20397 295.000
76.22391 285.000
76.24386 327.000
76.26381 306.000
76.28375 299.000
76.30370 309.000
76.32365 301.000
76.34359 284.000
76.36354 287.000
76.38349 268.000
76.40344 271.000
76.42338 284.000
76.44333 306.000
76.46328 282.000
76.48322 272.000
76.50317 307.000
76.52312 276.000
76.54306 264.000
76.56301 303.000
76.58296 276.000
76.60291 286.000
76.62285 253.000
76.64280 320.000
76.66275 295.000
76.68269 286.000
76.70264 315.000
76.72259 287.000
76.74253 294.000
76.76248 307.000
76.78243 289.000
76.80238 275.000
76.82232 299.000
76.84227 295.000
76.86222 281.000
76.88216 242.000
76.90211 257.000
76.92206 292.000
76.94200 282.000
76.96195 273.000
76.98190 265.000
77.00184 272.000
77.02179 260.000
77.04174 273.000
77.06169 307.000
77.08163 294.000
77.10158 272.000
77.12153 275.000
77.14147 279.000
77.16142 302.000
77.18137 280.000
77.20131 285.000
77.22126 276.000
77.24121 264.000
77.26116 279.000
77.28110 303.000
77.30105 262.000
77.32100 301.000
77.34094 285.000
77.36089 278.000
77.38084 287.000
77.40078 341.000
77.42073 274.000
77.44068 246.000
77.46062 271.000
77.48057 314.000
77.50052 342.000
77.52047 312.000
77.54041 346.000
77.56036 308.000
77.58031 350.000
77.60025 324.000
77.62020 355.000
77.64015 347.000
77.66009 323.000
77.68004 395.000
77.69999 340.000
77.71994 354.000
77.73988 360.000
77.75983 368.000
77.77978 354.000
77.79972 363.000
77.81967 362.000
77.83962 344.000
77.85956 379.000
77.87951 358.000
77.89946 322.000
77.91940 334.000
77.93935 354.000
77.95930 355.000
77.97925 362.000
77.99919 330.000
78.01914 319.000
78.03909 330.000
78.05903 394.000
78.07898 362.000
78.09893 355.000
78.11887 370.000
78.13882 335.000
78.15877 323.000
78.17872 383.000
78.19866 353.000
78.21861 351.000
78.23856 334.000
78.25850 358.000
78.27845 366.000
78.29840 363.000
78.31834 346.000
78.33829 333.000
78.35824 323.000
78.37819 328.000
78.39813 313.000
78.41808 341.000
78.43803 368.000
78.45797 327.000
78.47792 339.000
78.49787 315.000
78.51781 285.000
78.53776 313.000
78.55771 305.000
78.57765 329.000
78.59760 320.000
78.61755 312.000
78.63750 302.000
78.65744 299.000
78.67739 269.000
78.69734 272.000
78.71728 281.000
78.73723 277.000
78.75718 286.000
78.77712 289.000
78.79707 306.000
78.81702 291.000
78.83697 291.000
78.85691 254.000
78.87686 292.000
78.89681 281.000
78.91675 315.000
78.93670 269.000
78.95665 269.000
78.97659 276.000
78.99654 270.000
79.01649 283.000
79.03643 285.000
79.05638 278.000
79.07633 254.000
79.09628 277.000
79.11622 271.000
79.13617 290.000
79.15612 271.000
79.17606 296.000
79.19601 276.000
79.21596 267.000
79.23590 285.000
79.25585 288.000
79.27580 269.000
79.29575 279.000
79.31569 285.000
79.33564 239.000
79.35559 272.000
79.37553 292.000
79.39548 261.000
79.41543 277.000
79.43537 274.000
79.45532 261.000
79.47527 285.000
79.49521 303.000
79.51516 282.000
79.53511 262.000
79.55506 237.000
79.57500 277.000
79.59495 298.000
79.61490 293.000
79.63484 297.000
79.65479 286.000
79.67474 272.000
79.69468 252.000
79.71463 295.000
79.73458 290.000
79.75453 278.000
79.77447 283.000
79.79442 285.000
79.81437 251.000
79.83431 261.000
79.85426 273.000
79.87421 255.000
79.89415 288.000
79.91410 275.000
79.93405 263.000
79.95399 291.000
79.97394 259.000
79.99389 278.000
80.01384 277.000
80.03378 262.000
80.05373 268.000
80.07368 318.000
80.09362 274.000
80.11357 298.000
80.13352 268.000
80.15346 315.000
80.17341 290.000
80.19336 316.000
80.21331 301.000
80.23325 302.000
80.25320 319.000
80.27315 316.000
80.29309 278.000
80.31304 287.000
80.33299 310.000
80.35293 285.000
80.37288 283.000
80.39283 289.000
80.41278 272.000
80.43272 287.000
80.45267 296.000
80.47262 261.000
80.49256 290.000
80.51251 319.000
80.53246 309.000
80.55240 303.000
80.57235 320.000
80.59230 333.000
80.61224 302.000
80.63219 275.000
80.65214 253.000
80.67209 266.000
80.69203 239.000
80.71198 280.000
80.73193 298.000
80.75187 294.000
80.77182 267.000
80.79177 272.000
80.81171 309.000
80.83166 274.000
80.85161 255.000
80.87156 255.000
80.89150 256.000
80.91145 296.000
80.93140 265.000
80.95134 299.000
80.97129 307.000
80.99124 300.000
81.01118 273.000
81.03113 263.000
81.05108 267.000
81.07102 285.000
81.09097 281.000
81.11092 253.000
81.13087 287.000
81.15081 276.000
81.17076 297.000
81.19071 263.000
81.21065 286.000
81.23060 279.000
81.25055 272.000
81.27049 296.000
81.29044 266.000
81.31039 303.000
81.33034 295.000
81.35028 256.000
81.37023 242.000
81.39018 304.000
81.41012 267.000
81.43007 287.000
81.45002 270.000
81.46996 278.000
81.48991 294.000
81.50986 263.000
81.52980 287.000
81.54975 281.000
81.56970 311.000
81.58965 276.000
81.60959 298.000
81.62954 266.000
81.64949 325.000
81.66943 280.000
81.68938 292.000
81.70933 291.000
81.72927 260.000
81.74922 262.000
81.76917 282.000
81.78912 287.000
81.80906 268.000
81.82901 285.000
81.84896 251.000
81.86890 260.000
81.88885 291.000
81.90880 312.000
81.92874 273.000
81.94869 268.000
81.96864 292.000
81.98859 267.000
82.00853 299.000
82.02848 267.000
82.04843 301.000
82.06837 273.000
82.08832 293.000
82.10827 290.000
82.12821 264.000
82.14816 290.000
82.16811 303.000
82.18805 284.000
82.20800 305.000
82.22795 317.000
82.24790 314.000
82.26784 300.000
82.28779 299.000
82.30774 347.000
82.32768 288.000
82.34763 269.000
82.36758 335.000
82.38752 295.000
82.40747 300.000
82.42742 333.000
82.44737 338.000
82.46731 284.000
82.48726 336.000
82.50721 325.000
82.52715 330.000
82.54710 326.000
82.56705 275.000
82.58699 281.000
82.60694 304.000
82.62689 278.000
82.64683 295.000
82.66678 300.000
82.68673 299.000
82.70668 309.000
82.72662 254.000
82.74657 294.000
82.76652 270.000
82.78646 283.000
82.80641 316.000
82.82636 307.000
82.84630 283.000
82.86625 279.000
82.88620 301.000
82.90615 300.000
82.92609 294.000
82.94604 279.000
82.96599 304.000
82.98593 318.000
83.00588 305.000
83.02583 289.000
83.04577 278.000
83.06572 290.000
83.08567 321.000
83.10561 295.000
83.12556 345.000
83.14551 303.000
83.16546 301.000
83.18540 330.000
83.20535 319.000
83.22530 325.000
83.24524 290.000
83.26519 311.000
83.28514 323.000
83.30508 303.000
83.32503 297.000
83.34498 285.000
83.36493 309.000
83.38487 292.000
83.40482 327.000
83.42477 287.000
83.44471 323.000
83.46466 303.000
83.48461 330.000
83.50455 334.000
83.52450 314.000
83.54445 335.000
83.56440 298.000
83.58434 318.000
83.60429 316.000
83.62424 337.000
83.64418 308.000
83.66413 313.000
83.68408 313.000
83.70402 300.000
83.72397 304.000
83.74392 328.000
83.76386 287.000
83.78381 320.000
83.80376 335.000
83.82371 297.000
83.84365 285.000
83.86360 281.000
83.88355 306.000
83.90349 287.000
83.92344 268.000
83.94339 295.000
83.96333 273.000
83.98328 315.000
84.00323 273.000
84.02318 276.000
84.04312 304.000
84.06307 280.000
84.08302 280.000
84.10296 298.000
84.12291 272.000
84.14286 298.000
84.16280 313.000
84.18275 268.000
84.20270 294.000
84.22264 312.000
84.24259 270.000
84.26254 280.000
84.28249 283.000
84.30243 297.000
84.32238 310.000
84.34233 318.000
84.36227 269.000
84.38222 260.000
84.40217 301.000
84.42211 298.000
84.44206 276.000
84.46201 309.000
84.48196 331.000
84.50190 297.000
84.52185 305.000
84.54180 314.000
84.56174 337.000
84.58169 323.000
84.60164 342.000
84.62158 358.000
84.64153 333.000
84.66148 378.000
84.68142 335.000
84.70137 355.000
84.72132 328.000
84.74127 381.000
84.76121 352.000
84.78116 351.000
84.80111 393.000
84.82105 325.000
84.84100 374.000
84.86095 342.000
84.88089 338.000
84.90084 326.000
84.92079 341.000
84.94074 330.000
84.96068 314.000
84.98063 317.000
85.00058 309.000
85.02052 337.000
85.04047 299.000
85.06042 296.000
85.08036 296.000
85.10031 311.000
85.12026 306.000
85.14021 302.000
85.16015 310.000
85.18010 307.000
85.20005 278.000
85.21999 300.000
85.23994 311.000
85.25989 277.000
85.27983 305.000
85.29978 261.000
85.31973 297.000
85.33967 273.000
85.35962 296.000
85.37957 250.000
85.39952 265.000
85.41946 248.000
85.43941 276.000
85.45936 265.000
85.47930 288.000
85.49925 301.000
85.51920 272.000
85.53914 274.000
85.55909 267.000
85.57904 283.000
85.59899 282.000
85.61893 249.000
85.63888 254.000
85.65883 279.000
85.67877 264.000
85.69872 275.000
85.71867 266.000
85.73861 265.000
85.75856 297.000
85.77851 279.000
85.79845 281.000
85.81840 281.000
85.83835 292.000
85.85830 281.000
85.87824 297.000
85.89819 258.000
85.91814 282.000
85.93808 292.000
85.95803 281.000
85.97798 277.000
85.99792 287.000
86.01787 278.000
86.03782 286.000
86.05777 272.000
86.07771 268.000
86.09766 286.000
86.11761 286.000
86.13755 300.000
86.15750 289.000
86.17745 270.000
86.19739 282.000
86.21734 282.000
86.23729 272.000
86.25723 276.000
86.27718 284.000
86.29713 294.000
86.31708 294.000
86.33702 285.000
86.35697 270.000
86.37692 274.000
86.39686 299.000
86.41681 299.000
86.43676 300.000
86.45670 298.000
86.47665 273.000
86.49660 316.000
86.51655 293.000
86.53649 283.000
86.55644 281.000
86.57639 315.000
86.59633 294.000
86.61628 283.000
86.63623 268.000
86.65617 286.000
86.67612 297.000
86.69607 270.000
86.71602 265.000
86.73596 321.000
86.75591 304.000
86.77586 264.000
86.79580 257.000
86.81575 307.000
86.83570 267.000
86.85564 302.000
86.87559 293.000
86.89554 301.000
86.91548 285.000
86.93543 278.000
86.95538 267.000
86.97533 290.000
86.99527 276.000
87.01522 279.000
87.03517 297.000
87.05511 300.000
87.07506 294.000
87.09501 266.000
87.11495 275.000
87.13490 276.000
87.15485 269.000
87.17480 272.000
87.19474 285.000
87.21469 252.000
87.23464 247.000
87.25458 302.000
87.27453 291.000
87.29448 264.000
87.31442 261.000
87.33437 282.000
87.35432 286.000
87.37426 293.000
87.39421 265.000
87.41416 271.000
87.43411 285.000
87.45405 269.000
87.47400 264.000
87.49395 264.000
87.51389 284.000
87.53384 245.000
87.55379 256.000
87.57373 290.000
87.59368 266.000
87.61363 244.000
87.63358 255.000
87.65352 256.000
87.67347 270.000
87.69342 286.000
87.71336 268.000
87.73331 268.000
87.75326 295.000
87.77320 256.000
87.79315 267.000
87.81310 294.000
87.83304 268.000
87.85299 273.000
87.87294 289.000
87.89289 295.000
87.91283 270.000
87.93278 277.000
87.95273 262.000
87.97267 285.000
87.99262 277.000
88.01257 248.000
88.03251 268.000
88.05246 258.000
88.07241 288.000
88.09236 280.000
88.11230 274.000
88.13225 253.000
88.15220 264.000
88.17214 279.000
88.19209 242.000
88.21204 253.000
88.23198 271.000
88.25193 282.000
88.27188 265.000
88.29183 288.000
88.31177 279.000
88.33172 280.000
88.35167 250.000
88.37161 251.000
88.39156 288.000
88.41151 267.000
88.43145 253.000
88.45140 289.000
88.47135 273.000
88.49129 260.000
88.51124 287.000
88.53119 276.000
88.55114 299.000
88.57108 254.000
88.59103 270.000
88.61098 302.000
88.63092 257.000
88.65087 261.000
88.67082 274.000
88.69076 258.000
88.71071 283.000
88.73066 269.000
88.75061 269.000
88.77055 268.000
88.79050 305.000
88.81045 261.000
88.83039 290.000
88.85034 255.000
88.87029 274.000
88.89023 270.000
88.91018 275.000
88.93013 272.000
88.95007 222.000
88.97002 265.000
88.98997 253.000
89.00992 293.000
89.02986 280.000
89.04981 278.000
89.06976 272.000
89.08970 274.000
89.10965 284.000
89.12960 243.000
89.14954 253.000
89.16949 264.000
89.18944 304.000
89.20939 287.000
89.22933 274.000
89.24928 291.000
89.26923 308.000
89.28917 254.000
89.30912 257.000
89.32907 270.000
89.34901 253.000
89.36896 242.000
89.38891 282.000
89.40885 275.000
89.42880 250.000
89.44875 288.000
89.46870 291.000
89.48864 250.000
89.50859 260.000
89.52854 297.000
89.54848 277.000
89.56843 302.000
89.58838 278.000
89.60832 277.000
89.62827 250.000
89.64822 298.000
89.66817 290.000
89.68811 262.000
89.70806 309.000
89.72801 311.000
89.74795 281.000
89.76790 313.000
89.78785 300.000
89.80779 314.000
89.82774 322.000
89.84769 325.000
89.86764 292.000
89.88758 309.000
89.90753 281.000
89.92748 329.000
89.94742 319.000
89.96737 319.000
89.98732 326.000
90.00726 292.000
