10.00000 133.000
10.01995 141.000
10.03989 99.000
10.05984 118.000
10.07979 120.000
10.09973 124.000
10.11968 135.000
10.13963 146.000
10.15958 126.000
10.17952 115.000
10.19947 111.000
10.21942 118.000
10.23936 139.000
10.25931 104.000
10.27926 111.000
10.29920 118.000
10.31915 113.000
10.33910 118.000
10.35905 121.000
10.37899 122.000
10.39894 121.000
10.41889 130.000
10.43883 132.000
10.45878 111.000
10.47873 84.000
10.49867 113.000
10.51862 112.000
10.53857 118.000
10.55851 113.000
10.57846 100.000
10.59841 113.000
10.61836 125.000
10.63830 103.000
10.65825 115.000
10.67820 139.000
10.69814 130.000
10.71809 129.000
10.73804 116.000
10.75798 120.000
10.77793 143.000
10.79788 107.000
10.81783 116.000
10.83777 116.000
10.85772 118.000
10.87767 100.000
10.89761 130.000
10.91756 131.000
10.93751 98.000
10.95745 106.000
10.97740 129.000
10.99735 127.000
11.01730 114.000
11.03724 95.000
11.05719 107.000
11.07714 133.000
11.09708 120.000
11.11703 119.000
11.13698 108.000
11.15692 131.000
11.17687 123.000
11.19682 124.000
11.21676 124.000
11.23671 110.000
11.25666 115.000
11.27661 109.000
11.29655 131.000
11.31650 106.000
11.33645 131.000
11.35639 123.000
11.37634 126.000
11.39629 104.000
11.41623 125.000
11.43618 114.000
11.45613 106.000
11.47608 112.000
11.49602 95.000
11.51597 107.000
11.53592 112.000
11.55586 129.000
11.57581 106.000
11.59576 132.000
11.61570 114.000
11.63565 138.000
11.65560 124.000
11.67554 110.000
11.69549 119.000
11.71544 119.000
11.73539 123.000
11.75533 107.000
11.77528 118.000
11.79523 115.000
11.81517 122.000
11.83512 99.000
11.85507 120.000
11.87501 109.000
11.89496 128.000
11.91491 130.000
11.93486 127.000
11.95480 116.000
11.97475 128.000
11.99470 124.000
12.01464 112.000
12.03459 116.000
12.05454 115.000
12.07448 108.000
12.09443 120.000
12.11438 123.000
12.13432 129.000
12.15427 116.000
12.17422 116.000
12.19417 110.000
12.21411 122.000
12.23406 113.000
12.25401 125.000
12.27395 119.000
12.29390 119.000
12.31385 125.000
12.33379 122.000
12.35374 122.000
12.37369 125.000
12.39364 110.000
12.41358 117.000
12.43353 152.000
12.45348 130.000
12.47342 121.000
12.49337 131.000
12.51332 138.000
12.53326 132.000
12.55321 132.000
12.57316 122.000
12.59311 126.000
12.61305 151.000
12.63300 150.000
12.65295 147.000
12.67289 124.000
12.69284 125.000
12.71279 133.000
12.73273 126.000
12.75268 118.000
12.77263 114.000
12.79257 113.000
12.81252 141.000
12.83247 122.000
12.85242 128.000
12.87236 131.000
12.89231 127.000
12.91226 109.000
12.93220 122.000
12.95215 104.000
12.97210 112.000
12.99204 113.000
13.01199 112.000
13.03194 110.000
13.05189 148.000
13.07183 135.000
13.09178 138.000
13.11173 133.000
13.13167 125.000
13.15162 123.000
13.17157 118.000
13.19151 144.000
13.21146 132.000
13.23141 116.000
13.25135 121.000
13.27130 113.000
13.29125 139.000
13.31120 136.000
13.33114 122.000
13.35109 123.000
13.37104 120.000
13.39098 134.000
13.41093 129.000
13.43088 121.000
13.45082 111.000
13.47077 118.000
13.49072 126.000
13.51067 119.000
13.53061 130.000
13.55056 133.000
13.57051 117.000
13.59045 129.000
13.61040 146.000
13.63035 114.000
13.65029 114.000
13.67024 126.000
13.69019 136.000
13.71013 130.000
13.73008 143.000
13.75003 120.000
13.76998 119.000
13.78992 136.000
13.80987 122.000
13.82982 128.000
13.84976 128.000
13.86971 149.000
13.88966 116.000
13.90960 138.000
13.92955 117.000
13.94950 136.000
13.96945 103.000
13.98939 121.000
14.00934 137.000
14.02929 137.000
14.04923 136.000
14.06918 117.000
14.08913 127.000
14.10907 137.000
14.12902 110.000
14.14897 132.000
14.16892 120.000
14.18886 135.000
14.20881 125.000
14.22876 131.000
14.24870 124.000
14.26865 131.000
14.28860 127.000
14.30854 134.000
14.32849 124.000
14.34844 125.000
14.36838 125.000
14.38833 126.000
14.40828 112.000
14.42823 124.000
14.44817 128.000
14.46812 148.000
14.48807 153.000
14.50801 122.000
14.52796 112.000
14.54791 114.000
14.56785 146.000
14.58780 126.000
14.60775 122.000
14.62770 143.000
14.64764 125.000
14.66759 107.000
14.68754 134.000
14.70748 148.000
14.72743 150.000
14.74738 127.000
14.76732 137.000
14.78727 128.000
14.80722 144.000
14.82716 130.000
14.84711 144.000
14.86706 127.000
14.88701 137.000
14.90695 124.000
14.92690 131.000
14.94685 133.000
14.96679 150.000
14.98674 129.000
15.00669 141.000
15.02663 147.000
15.04658 140.000
15.06653 169.000
15.08648 147.000
15.10642 148.000
15.12637 136.000
15.14632 158.000
15.16626 170.000
15.18621 167.000
15.20616 171.000
15.22610 159.000
15.24605 151.000
15.26600 160.000
15.28594 166.000
15.30589 166.000
15.32584 189.000
15.34579 187.000
15.36573 214.000
15.38568 196.000
15.40563 211.000
15.42557 222.000
15.44552 235.000
15.46547 219.000
15.48541 254.000
15.50536 268.000
15.52531 297.000
15.54526 349.000
15.56520 407.000
15.58515 447.000
15.60510 636.000
15.62504 853.000
15.64499 1294.000
15.66494 1927.000
15.68488 3103.000
15.70483 5024.000
15.72478 7436.000
15.74472 8370.000
15.76467 7099.000
15.78462 5080.000
15.80457 2874.000
15.82451 1460.000
15.84446 850.000
15.86441 555.000
15.88435 427.000
15.90430 373.000
15.92425 303.000
15.94419 270.000
15.96414 287.000
15.98409 222.000
16.00404 215.000
16.02398 203.000
16.04393 193.000
16.06388 176.000
16.08382 159.000
16.10377 188.000
16.12372 186.000
16.14366 165.000
16.16361 152.000
16.18356 176.000
16.20351 134.000
16.22345 145.000
16.24340 178.000
16.26335 140.000
16.28329 133.000
16.30324 151.000
16.32319 168.000
16.34313 132.000
16.36308 124.000
16.38303 137.000
16.40297 143.000
16.42292 160.000
16.44287 146.000
16.46282 134.000
16.48276 133.000
16.50271 141.000
16.52266 156.000
16.54260 150.000
16.56255 126.000
16.58250 119.000
16.60244 133.000
16.62239 125.000
16.64234 137.000
16.66229 138.000
16.68223 121.000
16.70218 111.000
16.72213 133.000
16.74207 129.000
16.76202 141.000
16.78197 123.000
16.80191 116.000
16.82186 139.000
16.84181 138.000
16.86175 142.000
16.88170 138.000
16.90165 133.000
16.92160 136.000
16.94154 131.000
16.96149 123.000
16.98144 153.000
17.00138 123.000
17.02133 101.000
17.04128 116.000
17.06122 144.000
17.08117 134.000
17.10112 136.000
17.12107 124.000
17.14101 129.000
17.16096 114.000
17.18091 107.000
17.20085 127.000
17.22080 110.000
17.24075 127.000
17.26069 129.000
17.28064 122.000
17.30059 115.000
17.32053 120.000
17.34048 122.000
17.36043 124.000
17.38038 123.000
17.40032 117.000
17.42027 144.000
17.44022 142.000
17.46016 97.000
17.48011 107.000
17.50006 127.000
17.52000 115.000
17.53995 117.000
17.55990 136.000
17.57985 119.000
17.59979 128.000
17.61974 119.000
17.63969 123.000
17.65963 131.000
17.67958 123.000
17.69953 141.000
17.71947 117.000
17.73942 128.000
17.75937 141.000
17.77932 126.000
17.79926 132.000
17.81921 149.000
17.83916 133.000
17.85910 142.000
17.87905 140.000
17.89900 138.000
17.91894 127.000
17.93889 117.000
17.95884 127.000
17.97878 127.000
17.99873 120.000
18.01868 122.000
18.03863 118.000
18.05857 137.000
18.07852 143.000
18.09847 125.000
18.11841 145.000
18.13836 153.000
18.15831 146.000
18.17825 142.000
18.19820 154.000
18.21815 182.000
18.23810 208.000
18.25804 240.000
18.27799 309.000
18.29794 439.000
18.31788 588.000
18.33783 680.000
18.35778 705.000
18.37772 645.000
18.39767 604.000
18.41762 456.000
18.43756 353.000
18.45751 291.000
18.47746 260.000
18.49741 210.000
18.51735 184.000
18.53730 160.000
18.55725 160.000
18.57719 156.000
18.59714 149.000
18.61709 145.000
18.63703 140.000
18.65698 124.000
18.67693 142.000
18.69688 146.000
18.71682 127.000
18.73677 121.000
18.75672 125.000
18.77666 145.000
18.79661 110.000
18.81656 117.000
18.83650 133.000
18.85645 129.000
18.87640 112.000
18.89634 142.000
18.91629 120.000
18.93624 124.000
18.95619 135.000
18.97613 120.000
18.99608 138.000
19.01603 138.000
19.03597 123.000
19.05592 115.000
19.07587 122.000
19.09581 123.000
19.11576 129.000
19.13571 123.000
19.15566 103.000
19.17560 113.000
19.19555 115.000
19.21550 125.000
19.23544 120.000
19.25539 150.000
19.27534 139.000
19.29528 107.000
19.31523 112.000
19.33518 137.000
19.35513 123.000
19.37507 97.000
19.39502 116.000
19.41497 120.000
19.43491 108.000
19.45486 109.000
19.47481 116.000
19.49475 125.000
19.51470 114.000
19.53465 141.000
19.55459 104.000
19.57454 126.000
19.59449 148.000
19.61444 112.000
19.63438 125.000
19.65433 123.000
19.67428 115.000
19.69422 152.000
19.71417 107.000
19.73412 117.000
19.75406 123.000
19.77401 124.000
19.79396 118.000
19.81391 117.000
19.83385 105.000
19.85380 128.000
19.87375 115.000
19.89369 120.000
19.91364 126.000
19.93359 135.000
19.95353 124.000
19.97348 119.000
19.99343 121.000
20.01337 104.000
20.03332 118.000
20.05327 115.000
20.07322 118.000
20.09316 118.000
20.11311 124.000
20.13306 108.000
20.15300 127.000
20.17295 127.000
20.19290 138.000
20.21284 120.000
20.23279 134.000
20.25274 149.000
20.27269 119.000
20.29263 143.000
20.31258 128.000
20.33253 133.000
20.35247 118.000
20.37242 109.000
20.39237 137.000
20.41231 118.000
20.43226 124.000
20.45221 127.000
20.47215 101.000
20.49210 134.000
20.51205 129.000
20.53200 136.000
20.55194 131.000
20.57189 131.000
20.59184 101.000
20.61178 105.000
20.63173 125.000
20.65168 126.000
20.67162 127.000
20.69157 129.000
20.71152 123.000
20.73147 127.000
20.75141 104.000
20.77136 158.000
20.79131 124.000
20.81125 119.000
20.83120 112.000
20.85115 126.000
20.87109 142.000
20.89104 120.000
20.91099 127.000
20.93094 141.000
20.95088 129.000
20.97083 131.000
20.99078 132.000
21.01072 126.000
21.03067 132.000
21.05062 128.000
21.07056 126.000
21.09051 126.000
21.11046 128.000
21.13040 118.000
21.15035 121.000
21.17030 136.000
21.19025 130.000
21.21019 129.000
21.23014 135.000
21.25009 143.000
21.27003 137.000
21.28998 139.000
21.30993 149.000
21.32987 142.000
21.34982 150.000
21.36977 122.000
21.38972 139.000
21.40966 142.000
21.42961 141.000
21.44956 128.000
21.46950 145.000
21.48945 123.000
21.50940 123.000
21.52934 127.000
21.54929 133.000
21.56924 114.000
21.58918 127.000
21.60913 117.000
21.62908 114.000
21.64903 123.000
21.66897 106.000
21.68892 130.000
21.70887 121.000
21.72881 119.000
21.74876 136.000
21.76871 115.000
21.78865 142.000
21.80860 122.000
21.82855 112.000
21.84850 125.000
21.86844 117.000
21.88839 137.000
21.90834 119.000
21.92828 129.000
21.94823 113.000
21.96818 119.000
21.98812 122.000
22.00807 100.000
22.02802 126.000
22.04796 134.000
22.06791 136.000
22.08786 115.000
22.10781 111.000
22.12775 144.000
22.14770 135.000
22.16765 140.000
22.18759 130.000
22.20754 132.000
22.22749 127.000
22.24743 126.000
22.26738 143.000
22.28733 163.000
22.30728 132.000
22.32722 140.000
22.34717 131.000
22.36712 131.000
22.38706 131.000
22.40701 125.000
22.42696 135.000
22.44690 132.000
22.46685 125.000
22.48680 130.000
22.50675 155.000
22.52669 116.000
22.54664 137.000
22.56659 117.000
22.58653 143.000
22.60648 136.000
22.62643 111.000
22.64637 137.000
22.66632 108.000
22.68627 122.000
22.70621 136.000
22.72616 131.000
22.74611 127.000
22.76606 140.000
22.78600 132.000
22.80595 138.000
22.82590 137.000
22.84584 112.000
22.86579 129.000
22.88574 110.000
22.90568 135.000
22.92563 139.000
22.94558 127.000
22.96553 141.000
22.98547 133.000
23.00542 131.000
23.02537 134.000
23.04531 143.000
23.06526 132.000
23.08521 130.000
23.10515 128.000
23.12510 116.000
23.14505 133.000
23.16499 166.000
23.18494 164.000
23.20489 127.000
23.22484 113.000
23.24478 132.000
23.26473 133.000
23.28468 112.000
23.30462 138.000
23.32457 136.000
23.34452 126.000
23.36446 128.000
23.38441 140.000
23.40436 120.000
23.42431 124.000
23.44425 128.000
23.46420 139.000
23.48415 126.000
23.50409 139.000
23.52404 125.000
23.54399 116.000
23.56393 149.000
23.58388 168.000
23.60383 120.000
23.62377 136.000
23.64372 128.000
23.66367 153.000
23.68362 133.000
23.70356 157.000
23.72351 112.000
23.74346 126.000
23.76340 142.000
23.78335 123.000
23.80330 125.000
23.82324 131.000
23.84319 120.000
23.86314 113.000
23.88309 121.000
23.90303 124.000
23.92298 130.000
23.94293 127.000
23.96287 114.000
23.98282 125.000
24.00277 159.000
24.02271 131.000
24.04266 122.000
24.06261 161.000
24.08256 151.000
24.10250 139.000
24.12245 131.000
24.14240 132.000
24.16234 143.000
24.18229 127.000
24.20224 121.000
24.22218 119.000
24.24213 134.000
24.26208 142.000
24.28202 139.000
24.30197 122.000
24.32192 132.000
24.34187 145.000
24.36181 129.000
24.38176 132.000
24.40171 126.000
24.42165 134.000
24.44160 118.000
24.46155 136.000
24.48149 163.000
24.50144 119.000
24.52139 166.000
24.54134 157.000
24.56128 150.000
24.58123 134.000
24.60118 159.000
24.62112 145.000
24.64107 136.000
24.66102 126.000
24.68096 118.000
24.70091 148.000
24.72086 137.000
24.74080 134.000
24.76075 124.000
24.78070 139.000
24.80065 140.000
24.82059 145.000
24.84054 122.000
24.86049 112.000
24.88043 147.000
24.90038 156.000
24.92033 129.000
24.94027 127.000
24.96022 154.000
24.98017 140.000
25.00012 137.000
25.02006 152.000
25.04001 143.000
25.05996 157.000
25.07990 169.000
25.09985 116.000
25.11980 152.000
25.13974 145.000
25.15969 132.000
25.17964 147.000
25.19958 115.000
25.21953 132.000
25.23948 125.000
25.25943 165.000
25.27937 131.000
25.29932 127.000
25.31927 147.000
25.33921 141.000
25.35916 128.000
25.37911 144.000
25.39905 159.000
25.41900 148.000
25.43895 156.000
25.45890 150.000
25.47884 126.000
25.49879 127.000
25.51874 139.000
25.53868 120.000
25.55863 124.000
25.57858 157.000
25.59852 125.000
25.61847 125.000
25.63842 141.000
25.65837 148.000
25.67831 145.000
25.69826 138.000
25.71821 138.000
25.73815 133.000
25.75810 151.000
25.77805 147.000
25.79799 141.000
25.81794 121.000
25.83789 144.000
25.85783 142.000
25.87778 131.000
25.89773 132.000
25.91768 133.000
25.93762 140.000
25.95757 122.000
25.97752 145.000
25.99746 130.000
26.01741 141.000
26.03736 126.000
26.05730 123.000
26.07725 113.000
26.09720 161.000
26.11715 143.000
26.13709 129.000
26.15704 123.000
26.17699 142.000
26.19693 148.000
26.21688 129.000
26.23683 156.000
26.25677 149.000
26.27672 123.000
26.29667 143.000
26.31661 131.000
26.33656 137.000
26.35651 146.000
26.37646 143.000
26.39640 135.000
26.41635 146.000
26.43630 147.000
26.45624 144.000
26.47619 160.000
26.49614 144.000
26.51608 131.000
26.53603 126.000
26.55598 140.000
26.57593 131.000
26.59587 136.000
26.61582 117.000
26.63577 129.000
26.65571 143.000
26.67566 145.000
26.69561 146.000
26.71555 150.000
26.73550 135.000
26.75545 149.000
26.77539 143.000
26.79534 146.000
26.81529 161.000
26.83524 159.000
26.85518 121.000
26.87513 149.000
26.89508 149.000
26.91502 134.000
26.93497 127.000
26.95492 119.000
26.97486 155.000
26.99481 134.000
27.01476 144.000
27.03471 132.000
27.05465 148.000
27.07460 157.000
27.09455 121.000
27.11449 139.000
27.13444 141.000
27.15439 145.000
27.17433 146.000
27.19428 137.000
27.21423 152.000
27.23417 130.000
27.25412 166.000
27.27407 133.000
27.29402 142.000
27.31396 151.000
27.33391 135.000
27.35386 157.000
27.37380 137.000
27.39375 135.000
27.41370 136.000
27.43364 138.000
27.45359 122.000
27.47354 159.000
27.49349 151.000
27.51343 125.000
27.53338 142.000
27.55333 148.000
27.57327 134.000
27.59322 129.000
27.61317 145.000
27.63311 156.000
27.65306 155.000
27.67301 138.000
27.69296 140.000
27.71290 151.000
27.73285 130.000
27.75280 125.000
27.77274 163.000
27.79269 161.000
27.81264 129.000
27.83258 162.000
27.85253 151.000
27.87248 145.000
27.89242 131.000
27.91237 142.000
27.93232 143.000
27.95227 137.000
27.97221 143.000
27.99216 137.000
28.01211 135.000
28.03205 141.000
28.05200 143.000
28.07195 142.000
28.09189 133.000
28.11184 146.000
28.13179 132.000
28.15174 156.000
28.17168 156.000
28.19163 141.000
28.21158 148.000
28.23152 145.000
28.25147 139.000
28.27142 159.000
28.29136 156.000
28.31131 143.000
28.33126 140.000
28.35120 131.000
28.37115 132.000
28.39110 140.000
28.41105 143.000
28.43099 138.000
28.45094 144.000
28.47089 141.000
28.49083 139.000
28.51078 159.000
28.53073 130.000
28.55067 145.000
28.57062 147.000
28.59057 123.000
28.61052 145.000
28.63046 135.000
28.65041 155.000
28.67036 143.000
28.69030 131.000
28.71025 131.000
28.73020 166.000
28.75014 144.000
28.77009 140.000
28.79004 148.000
28.80998 117.000
28.82993 147.000
28.84988 155.000
28.86983 169.000
28.88977 106.000
28.90972 158.000
28.92967 144.000
28.94961 147.000
28.96956 133.000
28.98951 151.000
29.00945 131.000
29.02940 145.000
29.04935 138.000
29.06930 157.000
29.08924 160.000
29.10919 172.000
29.12914 148.000
29.14908 142.000
29.16903 162.000
29.18898 138.000
29.20892 144.000
29.22887 155.000
29.24882 142.000
29.26877 134.000
29.28871 153.000
29.30866 149.000
29.32861 154.000
29.34855 148.000
29.36850 158.000
29.38845 151.000
29.40839 150.000
29.42834 154.000
29.44829 154.000
29.46823 141.000
29.48818 172.000
29.50813 138.000
29.52808 139.000
29.54802 139.000
29.56797 145.000
29.58792 164.000
29.60786 160.000
29.62781 159.000
29.64776 125.000
29.66770 147.000
29.68765 145.000
29.70760 159.000
29.72755 153.000
29.74749 148.000
29.76744 166.000
29.78739 149.000
29.80733 147.000
29.82728 185.000
29.84723 178.000
29.86717 164.000
29.88712 156.000
29.90707 166.000
29.92701 148.000
29.94696 154.000
29.96691 155.000
29.98686 156.000
30.00680 154.000
30.02675 192.000
30.04670 253.000
30.06664 232.000
30.08659 353.000
30.10654 397.000
30.12648 454.000
30.14643 575.000
30.16638 585.000
30.18633 655.000
30.20627 640.000
30.22622 613.000
30.24617 599.000
30.26611 497.000
30.28606 442.000
30.30601 397.000
30.32595 344.000
30.34590 313.000
30.36585 233.000
30.38579 225.000
30.40574 218.000
30.42569 180.000
30.44564 169.000
30.46558 196.000
30.48553 189.000
30.50548 171.000
30.52542 163.000
30.54537 167.000
30.56532 144.000
30.58526 169.000
30.60521 160.000
30.62516 150.000
30.64511 146.000
30.66505 176.000
30.68500 141.000
30.70495 156.000
30.72489 159.000
30.74484 158.000
30.76479 143.000
30.78473 154.000
30.80468 137.000
30.82463 138.000
30.84458 150.000
30.86452 162.000
30.88447 151.000
30.90442 144.000
30.92436 150.000
30.94431 152.000
30.96426 156.000
30.98420 130.000
31.00415 140.000
31.02410 143.000
31.04404 164.000
31.06399 165.000
31.08394 144.000
31.10389 146.000
31.12383 166.000
31.14378 155.000
31.16373 144.000
31.18367 163.000
31.20362 136.000
31.22357 122.000
31.24351 162.000
31.26346 161.000
31.28341 155.000
31.30336 163.000
31.32330 147.000
31.34325 155.000
31.36320 152.000
31.38314 180.000
31.40309 164.000
31.42304 147.000
31.44298 164.000
31.46293 152.000
31.48288 159.000
31.50282 173.000
31.52277 159.000
31.54272 179.000
31.56267 175.000
31.58261 172.000
31.60256 164.000
31.62251 160.000
31.64245 176.000
31.66240 219.000
31.68235 248.000
31.70229 259.000
31.72224 332.000
31.74219 404.000
31.76214 557.000
31.78208 716.000
31.80203 738.000
31.82198 643.000
31.84192 579.000
31.86187 511.000
31.88182 487.000
31.90176 421.000
31.92171 283.000
31.94166 237.000
31.96160 230.000
31.98155 182.000
32.00150 157.000
32.02145 200.000
32.04139 167.000
32.06134 149.000
32.08129 146.000
32.10123 144.000
32.12118 149.000
32.14113 166.000
32.16107 138.000
32.18102 160.000
32.20097 164.000
32.22092 138.000
32.24086 133.000
32.26081 170.000
32.28076 165.000
32.30070 155.000
32.32065 141.000
32.34060 147.000
32.36054 158.000
32.38049 142.000
32.40044 159.000
32.42039 152.000
32.44033 130.000
32.46028 134.000
32.48023 139.000
32.50017 158.000
32.52012 158.000
32.54007 135.000
32.56001 141.000
32.57996 135.000
32.59991 132.000
32.61985 143.000
32.63980 149.000
32.65975 130.000
32.67970 157.000
32.69964 147.000
32.71959 132.000
32.73954 136.000
32.75948 161.000
32.77943 157.000
32.79938 147.000
32.81932 130.000
32.83927 142.000
32.85922 117.000
32.87917 137.000
32.89911 140.000
32.91906 153.000
32.93901 146.000
32.95895 158.000
32.97890 141.000
32.99885 139.000
33.01879 140.000
33.03874 145.000
33.05869 125.000
33.07863 140.000
33.09858 128.000
33.11853 132.000
33.13848 168.000
33.15842 145.000
33.17837 148.000
33.19832 125.000
33.21826 143.000
33.23821 149.000
33.25816 151.000
33.27810 152.000
33.29805 131.000
33.31800 133.000
33.33795 144.000
33.35789 140.000
33.37784 138.000
33.39779 135.000
33.41773 138.000
33.43768 164.000
33.45763 153.000
33.47757 148.000
33.49752 130.000
33.51747 146.000
33.53741 154.000
33.55736 132.000
33.57731 141.000
33.59726 142.000
33.61720 154.000
33.63715 144.000
33.65710 153.000
33.67704 151.000
33.69699 147.000
33.71694 151.000
33.73688 160.000
33.75683 148.000
33.77678 148.000
33.79673 136.000
33.81667 143.000
33.83662 142.000
33.85657 161.000
33.87651 121.000
33.89646 136.000
33.91641 150.000
33.93635 129.000
33.95630 160.000
33.97625 139.000
33.99620 154.000
34.01614 124.000
34.03609 146.000
34.05604 166.000
34.07598 146.000
34.09593 146.000
34.11588 144.000
34.13582 148.000
34.15577 125.000
34.17572 138.000
34.19566 149.000
34.21561 144.000
34.23556 130.000
34.25551 156.000
34.27545 122.000
34.29540 163.000
34.31535 139.000
34.33529 157.000
34.35524 163.000
34.37519 188.000
34.39513 128.000
34.41508 130.000
34.43503 153.000
34.45498 151.000
34.47492 151.000
34.49487 149.000
34.51482 155.000
34.53476 153.000
34.55471 157.000
34.57466 167.000
34.59460 146.000
34.61455 130.000
34.63450 154.000
34.65444 172.000
34.67439 170.000
34.69434 142.000
34.71429 133.000
34.73423 155.000
34.75418 167.000
34.77413 138.000
34.79407 145.000
34.81402 157.000
34.83397 162.000
34.85391 139.000
34.87386 148.000
34.89381 145.000
34.91376 173.000
34.93370 147.000
34.95365 148.000
34.97360 153.000
34.99354 160.000
35.01349 172.000
35.03344 167.000
35.05338 149.000
35.07333 159.000
35.09328 164.000
35.11322 180.000
35.13317 162.000
35.15312 185.000
35.17307 193.000
35.19301 155.000
35.21296 165.000
35.23291 170.000
35.25285 177.000
35.27280 180.000
35.29275 216.000
35.31269 230.000
35.33264 242.000
35.35259 247.000
35.37254 328.000
35.39248 376.000
35.41243 465.000
35.43238 618.000
35.45232 807.000
35.47227 993.000
35.49222 1191.000
35.51216 1451.000
35.53211 1553.000
35.55206 1688.000
35.57201 1745.000
35.59195 1765.000
35.61190 1593.000
35.63185 1489.000
35.65179 1273.000
35.67174 1084.000
35.69169 922.000
35.71163 825.000
35.73158 706.000
35.75153 546.000
35.77147 475.000
35.79142 426.000
35.81137 389.000
35.83132 345.000
35.85126 318.000
35.87121 276.000
35.89116 308.000
35.91110 270.000
35.93105 313.000
35.95100 375.000
35.97094 518.000
35.99089 837.000
36.01084 1178.000
36.03079 1178.000
36.05073 827.000
36.07068 641.000
36.09063 646.000
36.11057 707.000
36.13052 648.000
36.15047 395.000
36.17041 276.000
36.19036 258.000
36.21031 217.000
36.23025 176.000
36.25020 197.000
36.27015 183.000
36.29010 199.000
36.31004 198.000
36.32999 200.000
36.34994 191.000
36.36988 200.000
36.38983 176.000
36.40978 199.000
36.42972 180.000
36.44967 180.000
36.46962 186.000
36.48957 190.000
36.50951 171.000
36.52946 214.000
36.54941 210.000
36.56935 161.000
36.58930 201.000
36.60925 165.000
36.62919 157.000
36.64914 173.000
36.66909 174.000
36.68903 164.000
36.70898 192.000
36.72893 172.000
36.74888 166.000
36.76882 164.000
36.78877 143.000
36.80872 173.000
36.82866 172.000
36.84861 187.000
36.86856 219.000
36.88850 218.000
36.90845 277.000
36.92840 252.000
36.94835 259.000
36.96829 239.000
36.98824 242.000
37.00819 256.000
37.02813 311.000
37.04808 297.000
37.06803 310.000
37.08797 324.000
37.10792 358.000
37.12787 421.000
37.14781 538.000
37.16776 728.000
37.18771 995.000
37.20766 1640.000
37.22760 2137.000
37.24755 1907.000
37.26750 1577.000
37.28744 1418.000
37.30739 1464.000
37.32734 1474.000
37.34728 1148.000
37.36723 934.000
37.38718 694.000
37.40713 504.000
37.42707 408.000
37.44702 317.000
37.46697 333.000
37.48691 271.000
37.50686 279.000
37.52681 250.000
37.54675 265.000
37.56670 279.000
37.58665 239.000
37.60660 245.000
37.62654 218.000
37.64649 205.000
37.66644 209.000
37.68638 189.000
37.70633 197.000
37.72628 184.000
37.74622 204.000
37.76617 194.000
37.78612 179.000
37.80606 162.000
37.82601 196.000
37.84596 186.000
37.86591 183.000
37.88585 145.000
37.90580 159.000
37.92575 147.000
37.94569 154.000
37.96564 158.000
37.98559 126.000
38.00553 153.000
38.02548 155.000
38.04543 173.000
38.06538 144.000
38.08532 139.000
38.10527 156.000
38.12522 152.000
38.14516 136.000
38.16511 147.000
38.18506 135.000
38.20500 130.000
38.22495 127.000
38.24490 158.000
38.26484 165.000
38.28479 127.000
38.30474 153.000
38.32469 126.000
38.34463 155.000
38.36458 155.000
38.38453 128.000
38.40447 148.000
38.42442 141.000
38.44437 145.000
38.46431 121.000
38.48426 121.000
38.50421 154.000
38.52416 156.000
38.54410 150.000
38.56405 176.000
38.58400 167.000
38.60394 160.000
38.62389 150.000
38.64384 135.000
38.66378 150.000
38.68373 164.000
38.70368 167.000
38.72362 134.000
38.74357 147.000
38.76352 151.000
38.78347 123.000
38.80341 142.000
38.82336 173.000
38.84331 154.000
38.86325 139.000
38.88320 155.000
38.90315 125.000
38.92309 142.000
38.94304 146.000
38.96299 148.000
38.98294 151.000
39.00288 190.000
39.02283 171.000
39.04278 172.000
39.06272 164.000
39.08267 171.000
39.10262 164.000
39.12256 164.000
39.14251 154.000
39.16246 177.000
39.18241 166.000
39.20235 161.000
39.22230 175.000
39.24225 167.000
39.26219 196.000
39.28214 202.000
39.30209 209.000
39.32203 224.000
39.34198 220.000
39.36193 268.000
39.38187 300.000
39.40182 313.000
39.42177 379.000
39.44172 428.000
39.46166 587.000
39.48161 876.000
39.50156 1300.000
39.52150 1765.000
39.54145 1850.000
39.56140 1404.000
39.58134 1042.000
39.60129 1021.000
39.62124 1078.000
39.64119 992.000
39.66113 815.000
39.68108 542.000
39.70103 407.000
39.72097 275.000
39.74092 226.000
39.76087 215.000
39.78081 216.000
39.80076 188.000
39.82071 191.000
39.84065 188.000
39.86060 196.000
39.88055 153.000
39.90050 145.000
39.92044 166.000
39.94039 166.000
39.96034 162.000
39.98028 151.000
40.00023 145.000
40.02018 124.000
40.04012 150.000
40.06007 148.000
40.08002 155.000
40.09997 165.000
40.11991 137.000
40.13986 139.000
40.15981 170.000
40.17975 125.000
40.19970 151.000
40.21965 158.000
40.23959 139.000
40.25954 169.000
40.27949 149.000
40.29943 125.000
40.31938 116.000
40.33933 135.000
40.35928 145.000
40.37922 150.000
40.39917 149.000
40.41912 148.000
40.43906 144.000
40.45901 143.000
40.47896 142.000
40.49890 144.000
40.51885 146.000
40.53880 149.000
40.55875 142.000
40.57869 134.000
40.59864 140.000
40.61859 144.000
40.63853 144.000
40.65848 160.000
40.67843 162.000
40.69837 118.000
40.71832 131.000
40.73827 145.000
40.75822 163.000
40.77816 150.000
40.79811 127.000
40.81806 146.000
40.83800 149.000
40.85795 131.000
40.87790 132.000
40.89784 118.000
40.91779 161.000
40.93774 122.000
40.95768 141.000
40.97763 113.000
40.99758 153.000
41.01753 141.000
41.03747 131.000
41.05742 140.000
41.07737 135.000
41.09731 127.000
41.11726 154.000
41.13721 124.000
41.15715 140.000
41.17710 140.000
41.19705 147.000
41.21700 134.000
41.23694 133.000
41.25689 132.000
41.27684 144.000
41.29678 112.000
41.31673 150.000
41.33668 141.000
41.35662 169.000
41.37657 124.000
41.39652 135.000
41.41646 147.000
41.43641 137.000
41.45636 132.000
41.47631 143.000
41.49625 114.000
41.51620 141.000
41.53615 130.000
41.55609 135.000
41.57604 146.000
41.59599 132.000
41.61593 154.000
41.63588 126.000
41.65583 133.000
41.67578 135.000
41.69572 141.000
41.71567 168.000
41.73562 129.000
41.75556 156.000
41.77551 152.000
41.79546 131.000
41.81540 149.000
41.83535 143.000
41.85530 147.000
41.87524 153.000
41.89519 127.000
41.91514 142.000
41.93509 123.000
41.95503 149.000
41.97498 157.000
41.99493 145.000
42.01487 135.000
42.03482 159.000
42.05477 158.000
42.07471 146.000
42.09466 146.000
42.11461 150.000
42.13456 150.000
42.15450 144.000
42.17445 152.000
42.19440 145.000
42.21434 152.000
42.23429 155.000
42.25424 147.000
42.27418 171.000
42.29413 165.000
42.31408 146.000
42.33403 141.000
42.35397 136.000
42.37392 141.000
42.39387 157.000
42.41381 150.000
42.43376 170.000
42.45371 135.000
42.47365 138.000
42.49360 158.000
42.51355 163.000
42.53349 177.000
42.55344 149.000
42.57339 147.000
42.59334 141.000
42.61328 172.000
42.63323 151.000
42.65318 163.000
42.67312 183.000
42.69307 167.000
42.71302 193.000
42.73296 169.000
42.75291 172.000
42.77286 180.000
42.79281 185.000
42.81275 179.000
42.83270 188.000
42.85265 182.000
42.87259 162.000
42.89254 196.000
42.91249 208.000
42.93243 182.000
42.95238 216.000
42.97233 252.000
42.99227 227.000
43.01222 265.000
43.03217 297.000
43.05212 322.000
43.07206 368.000
43.09201 474.000
43.11196 550.000
43.13190 562.000
43.15185 611.000
43.17180 732.000
43.19174 979.000
43.21169 1310.000
43.23164 2052.000
43.25159 3170.000
43.27153 3952.000
43.29148 3145.000
43.31143 2128.000
43.33137 1767.000
43.35132 1857.000
43.37127 2240.000
43.39121 2227.000
43.41116 1622.000
43.43111 1120.000
43.45105 783.000
43.47100 669.000
43.49095 572.000
43.51090 625.000
43.53084 591.000
43.55079 744.000
43.57074 820.000
43.59068 818.000
43.61063 714.000
43.63058 586.000
43.65052 520.000
43.67047 540.000
43.69042 493.000
43.71037 482.000
43.73031 410.000
43.75026 313.000
43.77021 280.000
43.79015 212.000
43.81010 209.000
43.83005 203.000
43.84999 204.000
43.86994 185.000
43.88989 194.000
43.90984 180.000
43.92978 161.000
43.94973 163.000
43.96968 160.000
43.98962 170.000
44.00957 153.000
44.02952 151.000
44.04946 154.000
44.06941 141.000
44.08936 164.000
44.10930 164.000
44.12925 166.000
44.14920 145.000
44.16915 148.000
44.18909 132.000
44.20904 174.000
44.22899 145.000
44.24893 169.000
44.26888 147.000
44.28883 145.000
44.30877 151.000
44.32872 147.000
44.34867 131.000
44.36862 167.000
44.38856 168.000
44.40851 137.000
44.42846 129.000
44.44840 149.000
44.46835 152.000
44.48830 153.000
44.50824 127.000
44.52819 141.000
44.54814 166.000
44.56808 161.000
44.58803 152.000
44.60798 162.000
44.62793 148.000
44.64787 173.000
44.66782 151.000
44.68777 161.000
44.70771 152.000
44.72766 145.000
44.74761 155.000
44.76755 167.000
44.78750 155.000
44.80745 150.000
44.82740 155.000
44.84734 154.000
44.86729 165.000
44.88724 147.000
44.90718 161.000
44.92713 162.000
44.94708 166.000
44.96702 165.000
44.98697 170.000
45.00692 162.000
45.02686 189.000
45.04681 184.000
45.06676 193.000
45.08671 155.000
45.10665 185.000
45.12660 169.000
45.14655 193.000
45.16649 194.000
45.18644 180.000
45.20639 219.000
45.22633 211.000
45.24628 188.000
45.26623 201.000
45.28618 203.000
45.30612 181.000
45.32607 182.000
45.34602 169.000
45.36596 172.000
45.38591 164.000
45.40586 179.000
45.42580 169.000
45.44575 163.000
45.46570 164.000
45.48565 154.000
45.50559 161.000
45.52554 171.000
45.54549 158.000
45.56543 153.000
45.58538 148.000
45.60533 158.000
45.62527 149.000
45.64522 159.000
45.66517 147.000
45.68511 161.000
45.70506 126.000
45.72501 137.000
45.74496 137.000
45.76490 141.000
45.78485 140.000
45.80480 138.000
45.82474 146.000
45.84469 134.000
45.86464 141.000
45.88458 143.000
45.90453 119.000
45.92448 144.000
45.94443 116.000
45.96437 126.000
45.98432 126.000
46.00427 140.000
46.02421 137.000
46.04416 123.000
46.06411 125.000
46.08405 117.000
46.10400 141.000
46.12395 135.000
46.14389 129.000
46.16384 146.000
46.18379 145.000
46.20374 127.000
46.22368 131.000
46.24363 133.000
46.26358 123.000
46.28352 141.000
46.30347 149.000
46.32342 117.000
46.34336 131.000
46.36331 136.000
46.38326 115.000
46.40321 138.000
46.42315 138.000
46.44310 140.000
46.46305 125.000
46.48299 126.000
46.50294 120.000
46.52289 133.000
46.54283 124.000
46.56278 113.000
46.58273 124.000
46.60267 129.000
46.62262 146.000
46.64257 146.000
46.66252 117.000
46.68246 133.000
46.70241 127.000
46.72236 150.000
46.74230 116.000
46.76225 140.000
46.78220 109.000
46.80214 119.000
46.82209 125.000
46.84204 127.000
46.86199 143.000
46.88193 126.000
46.90188 123.000
46.92183 128.000
46.94177 135.000
46.96172 130.000
46.98167 140.000
47.00161 115.000
47.02156 123.000
47.04151 124.000
47.06146 151.000
47.08140 148.000
47.10135 125.000
47.12130 142.000
47.14124 145.000
47.16119 129.000
47.18114 135.000
47.20108 160.000
47.22103 154.000
47.24098 155.000
47.26092 122.000
47.28087 101.000
47.30082 139.000
47.32077 149.000
47.34071 135.000
47.36066 125.000
47.38061 159.000
47.40055 146.000
47.42050 156.000
47.44045 161.000
47.46039 134.000
47.48034 140.000
47.50029 163.000
47.52024 151.000
47.54018 127.000
47.56013 127.000
47.58008 124.000
47.60002 146.000
47.61997 126.000
47.63992 130.000
47.65986 149.000
47.67981 132.000
47.69976 135.000
47.71970 174.000
47.73965 142.000
47.75960 116.000
47.77955 137.000
47.79949 139.000
47.81944 140.000
47.83939 137.000
47.85933 131.000
47.87928 152.000
47.89923 122.000
47.91917 134.000
47.93912 136.000
47.95907 132.000
47.97902 126.000
47.99896 150.000
48.01891 131.000
48.03886 135.000
48.05880 143.000
48.07875 119.000
48.09870 137.000
48.11864 127.000
48.13859 158.000
48.15854 152.000
48.17848 156.000
48.19843 170.000
48.21838 134.000
48.23833 140.000
48.25827 153.000
48.27822 157.000
48.29817 162.000
48.31811 174.000
48.33806 174.000
48.35801 159.000
48.37795 153.000
48.39790 165.000
48.41785 143.000
48.43780 187.000
48.45774 183.000
48.47769 212.000
48.49764 182.000
48.51758 203.000
48.53753 234.000
48.55748 218.000
48.57742 227.000
48.59737 268.000
48.61732 291.000
48.63726 294.000
48.65721 314.000
48.67716 370.000
48.69711 459.000
48.71705 561.000
48.73700 722.000
48.75695 1007.000
48.77689 1229.000
48.79684 1432.000
48.81679 1335.000
48.83673 1163.000
48.85668 929.000
48.87663 796.000
48.89658 842.000
48.91652 882.000
48.93647 856.000
48.95642 709.000
48.97636 558.000
48.99631 426.000
49.01626 303.000
49.03620 274.000
49.05615 252.000
49.07610 272.000
49.09605 205.000
49.11599 200.000
49.13594 178.000
49.15589 183.000
49.17583 163.000
49.19578 162.000
49.21573 174.000
49.23567 155.000
49.25562 162.000
49.27557 156.000
49.29551 152.000
49.31546 148.000
49.33541 150.000
49.35536 148.000
49.37530 162.000
49.39525 120.000
49.41520 160.000
49.43514 148.000
49.45509 126.000
49.47504 159.000
49.49498 128.000
49.51493 129.000
49.53488 144.000
49.55483 160.000
49.57477 139.000
49.59472 141.000
49.61467 148.000
49.63461 167.000
49.65456 126.000
49.67451 133.000
49.69445 129.000
49.71440 118.000
49.73435 140.000
49.75429 159.000
49.77424 136.000
49.79419 127.000
49.81414 144.000
49.83408 141.000
49.85403 140.000
49.87398 130.000
49.89392 128.000
49.91387 129.000
49.93382 133.000
49.95376 121.000
49.97371 144.000
49.99366 139.000
50.01361 135.000
50.03355 151.000
50.05350 143.000
50.07345 124.000
50.09339 143.000
50.11334 131.000
50.13329 115.000
50.15323 142.000
50.17318 144.000
50.19313 122.000
50.21307 107.000
50.23302 119.000
50.25297 131.000
50.27292 120.000
50.29286 138.000
50.31281 134.000
50.33276 127.000
50.35270 119.000
50.37265 117.000
50.39260 148.000
50.41254 135.000
50.43249 144.000
50.45244 132.000
50.47239 120.000
50.49233 133.000
50.51228 135.000
50.53223 143.000
50.55217 137.000
50.57212 101.000
50.59207 116.000
50.61201 127.000
50.63196 142.000
50.65191 133.000
50.67186 138.000
50.69180 133.000
50.71175 139.000
50.73170 122.000
50.75164 121.000
50.77159 123.000
50.79154 152.000
50.81148 119.000
50.83143 112.000
50.85138 121.000
50.87132 102.000
50.89127 130.000
50.91122 115.000
50.93117 139.000
50.95111 126.000
50.97106 116.000
50.99101 130.000
51.01095 131.000
51.03090 109.000
51.05085 119.000
51.07079 124.000
51.09074 128.000
51.11069 125.000
51.13064 131.000
51.15058 123.000
51.17053 130.000
51.19048 138.000
51.21042 125.000
51.23037 127.000
51.25032 146.000
51.27026 114.000
51.29021 120.000
51.31016 124.000
51.33010 147.000
51.35005 156.000
51.37000 122.000
51.38995 119.000
51.40989 117.000
51.42984 123.000
51.44979 118.000
51.46973 113.000
51.48968 110.000
51.50963 126.000
51.52957 136.000
51.54952 121.000
51.56947 116.000
51.58942 124.000
51.60936 110.000
51.62931 135.000
51.64926 139.000
51.66920 122.000
51.68915 141.000
51.70910 123.000
51.72904 142.000
51.74899 132.000
51.76894 135.000
51.78888 129.000
51.80883 129.000
51.82878 115.000
51.84873 143.000
51.86867 132.000
51.88862 108.000
51.90857 147.000
51.92851 144.000
51.94846 136.000
51.96841 132.000
51.98835 116.000
52.00830 129.000
52.02825 130.000
52.04820 133.000
52.06814 148.000
52.08809 132.000
52.10804 129.000
52.12798 129.000
52.14793 139.000
52.16788 130.000
52.18782 112.000
52.20777 116.000
52.22772 154.000
52.24767 140.000
52.26761 166.000
52.28756 119.000
52.30751 143.000
52.32745 122.000
52.34740 134.000
52.36735 122.000
52.38729 118.000
52.40724 114.000
52.42719 117.000
52.44713 116.000
52.46708 125.000
52.48703 125.000
52.50698 145.000
52.52692 108.000
52.54687 138.000
52.56682 145.000
52.58676 117.000
52.60671 134.000
52.62666 145.000
52.64660 110.000
52.66655 137.000
52.68650 136.000
52.70645 117.000
52.72639 130.000
52.74634 141.000
52.76629 156.000
52.78623 147.000
52.80618 130.000
52.82613 133.000
52.84607 132.000
52.86602 132.000
52.88597 125.000
52.90591 147.000
52.92586 168.000
52.94581 122.000
52.96576 134.000
52.98570 123.000
53.00565 142.000
53.02560 160.000
53.04554 122.000
53.06549 149.000
53.08544 143.000
53.10538 123.000
53.12533 144.000
53.14528 134.000
53.16523 128.000
53.18517 131.000
53.20512 123.000
53.22507 133.000
53.24501 129.000
53.26496 114.000
53.28491 131.000
53.30485 147.000
53.32480 129.000
53.34475 125.000
53.36469 145.000
53.38464 150.000
53.40459 167.000
53.42454 156.000
53.44448 147.000
53.46443 160.000
53.48438 163.000
53.50432 182.000
53.52427 194.000
53.54422 181.000
53.56416 204.000
53.58411 206.000
53.60406 202.000
53.62401 216.000
53.64395 198.000
53.66390 229.000
53.68385 204.000
53.70379 229.000
53.72374 228.000
53.74369 207.000
53.76363 194.000
53.78358 173.000
53.80353 196.000
53.82348 159.000
53.84342 155.000
53.86337 172.000
53.88332 165.000
53.90326 156.000
53.92321 142.000
53.94316 139.000
53.96310 164.000
53.98305 144.000
54.00300 132.000
54.02294 159.000
54.04289 157.000
54.06284 142.000
54.08279 133.000
54.10273 126.000
54.12268 122.000
54.14263 146.000
54.16257 111.000
54.18252 105.000
54.20247 115.000
54.22241 126.000
54.24236 141.000
54.26231 138.000
54.28226 141.000
54.30220 126.000
54.32215 125.000
54.34210 140.000
54.36204 120.000
54.38199 144.000
54.40194 124.000
54.42188 114.000
54.44183 124.000
54.46178 134.000
54.48172 113.000
54.50167 134.000
54.52162 128.000
54.54157 113.000
54.56151 138.000
54.58146 142.000
54.60141 124.000
54.62135 131.000
54.64130 110.000
54.66125 133.000
54.68119 147.000
54.70114 123.000
54.72109 114.000
54.74104 123.000
54.76098 142.000
54.78093 129.000
54.80088 124.000
54.82082 124.000
54.84077 126.000
54.86072 126.000
54.88066 105.000
54.90061 135.000
54.92056 116.000
54.94050 128.000
54.96045 149.000
54.98040 128.000
55.00035 127.000
55.02029 124.000
55.04024 122.000
55.06019 139.000
55.08013 126.000
55.10008 113.000
55.12003 130.000
55.13997 112.000
55.15992 125.000
55.17987 145.000
55.19982 101.000
55.21976 102.000
55.23971 138.000
55.25966 133.000
55.27960 145.000
55.29955 135.000
55.31950 129.000
55.33944 139.000
55.35939 129.000
55.37934 130.000
55.39929 132.000
55.41923 149.000
55.43918 126.000
55.45913 141.000
55.47907 137.000
55.49902 141.000
55.51897 137.000
55.53891 129.000
55.55886 121.000
55.57881 133.000
55.59875 129.000
55.61870 126.000
55.63865 126.000
55.65860 126.000
55.67854 119.000
55.69849 143.000
55.71844 130.000
55.73838 115.000
55.75833 143.000
55.77828 134.000
55.79822 120.000
55.81817 133.000
55.83812 113.000
55.85807 109.000
55.87801 130.000
55.89796 119.000
55.91791 113.000
55.93785 119.000
55.95780 121.000
55.97775 131.000
55.99769 122.000
56.01764 106.000
56.03759 131.000
56.05753 139.000
56.07748 108.000
56.09743 118.000
56.11738 129.000
56.13732 128.000
56.15727 129.000
56.17722 126.000
56.19716 125.000
56.21711 134.000
56.23706 126.000
56.25700 131.000
56.27695 117.000
56.29690 131.000
56.31685 118.000
56.33679 138.000
56.35674 142.000
56.37669 139.000
56.39663 136.000
56.41658 127.000
56.43653 134.000
56.45647 114.000
56.47642 150.000
56.49637 118.000
56.51631 140.000
56.53626 133.000
56.55621 119.000
56.57616 128.000
56.59610 107.000
56.61605 141.000
56.63600 145.000
56.65594 138.000
56.67589 140.000
56.69584 122.000
56.71578 148.000
56.73573 150.000
56.75568 172.000
56.77563 148.000
56.79557 149.000
56.81552 147.000
56.83547 160.000
56.85541 171.000
56.87536 169.000
56.89531 191.000
56.91525 204.000
56.93520 248.000
56.95515 253.000
56.97510 275.000
56.99504 281.000
57.01499 316.000
57.03494 382.000
57.05488 335.000
57.07483 401.000
57.09478 435.000
57.11472 445.000
57.13467 474.000
57.15462 474.000
57.17456 471.000
57.19451 496.000
57.21446 436.000
57.23441 487.000
57.25435 502.000
57.27430 424.000
57.29425 436.000
57.31419 386.000
57.33414 345.000
57.35409 374.000
57.37403 303.000
57.39398 300.000
57.41393 287.000
57.43388 271.000
57.45382 267.000
57.47377 213.000
57.49372 207.000
57.51366 182.000
57.53361 199.000
57.55356 184.000
57.57350 178.000
57.59345 186.000
57.61340 173.000
57.63334 188.000
57.65329 146.000
57.67324 172.000
57.69319 149.000
57.71313 149.000
57.73308 133.000
57.75303 141.000
57.77297 143.000
57.79292 145.000
57.81287 149.000
57.83281 174.000
57.85276 132.000
57.87271 156.000
57.89266 137.000
57.91260 138.000
57.93255 145.000
57.95250 151.000
57.97244 139.000
57.99239 146.000
58.01234 131.000
58.03228 144.000
58.05223 141.000
58.07218 124.000
58.09212 131.000
58.11207 136.000
58.13202 132.000
58.15197 135.000
58.17191 126.000
58.19186 140.000
58.21181 120.000
58.23175 131.000
58.25170 130.000
58.27165 128.000
58.29159 135.000
58.31154 132.000
58.33149 129.000
58.35144 120.000
58.37138 138.000
58.39133 105.000
58.41128 130.000
58.43122 136.000
58.45117 122.000
58.47112 148.000
58.49106 129.000
58.51101 124.000
58.53096 132.000
58.55090 132.000
58.57085 120.000
58.59080 126.000
58.61075 125.000
58.63069 116.000
58.65064 129.000
58.67059 147.000
58.69053 109.000
58.71048 140.000
58.73043 125.000
58.75037 111.000
58.77032 144.000
58.79027 104.000
58.81022 136.000
58.83016 124.000
58.85011 139.000
58.87006 127.000
58.89000 119.000
58.90995 123.000
58.92990 120.000
58.94984 145.000
58.96979 137.000
58.98974 119.000
59.00969 144.000
59.02963 136.000
59.04958 143.000
59.06953 133.000
59.08947 134.000
59.10942 144.000
59.12937 120.000
59.14931 139.000
59.16926 119.000
59.18921 126.000
59.20915 141.000
59.22910 114.000
59.24905 134.000
59.26900 101.000
59.28894 135.000
59.30889 121.000
59.32884 132.000
59.34878 135.000
59.36873 117.000
59.38868 146.000
59.40862 117.000
59.42857 135.000
59.44852 115.000
59.46847 130.000
59.48841 130.000
59.50836 149.000
59.52831 115.000
59.54825 146.000
59.56820 124.000
59.58815 124.000
59.60809 119.000
59.62804 141.000
59.64799 121.000
59.66793 125.000
59.68788 124.000
59.70783 125.000
59.72778 145.000
59.74772 111.000
59.76767 122.000
59.78762 121.000
59.80756 130.000
59.82751 122.000
59.84746 136.000
59.86740 131.000
59.88735 123.000
59.90730 143.000
59.92725 127.000
59.94719 130.000
59.96714 124.000
59.98709 126.000
60.00703 123.000
60.02698 140.000
60.04693 120.000
60.06687 131.000
60.08682 126.000
60.10677 139.000
60.12671 124.000
60.14666 128.000
60.16661 138.000
60.18656 127.000
60.20650 117.000
60.22645 139.000
60.24640 141.000
60.26634 122.000
60.28629 131.000
60.30624 129.000
60.32618 136.000
60.34613 120.000
60.36608 136.000
60.38603 133.000
60.40597 130.000
60.42592 133.000
60.44587 115.000
60.46581 121.000
60.48576 124.000
60.50571 135.000
60.52565 137.000
60.54560 136.000
60.56555 140.000
60.58550 143.000
60.60544 141.000
60.62539 135.000
60.64534 138.000
60.66528 135.000
60.68523 116.000
60.70518 117.000
60.72512 150.000
60.74507 148.000
60.76502 119.000
60.78496 131.000
60.80491 157.000
60.82486 122.000
60.84481 116.000
60.86475 119.000
60.88470 125.000
60.90465 128.000
60.92459 133.000
60.94454 139.000
60.96449 137.000
60.98443 121.000
61.00438 127.000
61.02433 133.000
61.04428 150.000
61.06422 158.000
61.08417 120.000
61.10412 143.000
61.12406 135.000
61.14401 114.000
61.16396 131.000
61.18390 140.000
61.20385 125.000
61.22380 138.000
61.24374 152.000
61.26369 114.000
61.28364 134.000
61.30359 129.000
61.32353 147.000
61.34348 123.000
61.36343 143.000
61.38337 138.000
61.40332 161.000
61.42327 150.000
61.44321 129.000
61.46316 141.000
61.48311 138.000
61.50306 186.000
61.52300 148.000
61.54295 164.000
61.56290 171.000
61.58284 152.000
61.60279 176.000
61.62274 166.000
61.64268 197.000
61.66263 189.000
61.68258 191.000
61.70252 219.000
61.72247 210.000
61.74242 238.000
61.76237 240.000
61.78231 249.000
61.80226 316.000
61.82221 330.000
61.84215 409.000
61.86210 467.000
61.88205 520.000
61.90199 565.000
61.92194 546.000
61.94189 473.000
61.96184 408.000
61.98178 411.000
62.00173 350.000
62.02168 361.000
62.04162 408.000
62.06157 382.000
62.08152 348.000
62.10146 347.000
62.12141 309.000
62.14136 268.000
62.16131 260.000
62.18125 218.000
62.20120 226.000
62.22115 172.000
62.24109 190.000
62.26104 192.000
62.28099 178.000
62.30093 175.000
62.32088 203.000
62.34083 190.000
62.36077 183.000
62.38072 208.000
62.40067 182.000
62.42062 205.000
62.44056 187.000
62.46051 217.000
62.48046 262.000
62.50040 205.000
62.52035 233.000
62.54030 281.000
62.56024 306.000
62.58019 338.000
62.60014 345.000
62.62009 400.000
62.64003 407.000
62.65998 439.000
62.67993 489.000
62.69987 551.000
62.71982 620.000
62.73977 663.000
62.75971 768.000
62.77966 905.000
62.79961 1181.000
62.81955 1433.000
62.83950 1426.000
62.85945 1416.000
62.87940 1351.000
62.89934 1344.000
62.91929 1198.000
62.93924 1043.000
62.95918 990.000
62.97913 995.000
62.99908 947.000
63.01902 949.000
63.03897 869.000
63.05892 772.000
63.07887 820.000
63.09881 624.000
63.11876 488.000
63.13871 458.000
63.15865 381.000
63.17860 338.000
63.19855 285.000
63.21849 282.000
63.23844 225.000
63.25839 240.000
63.27833 238.000
63.29828 219.000
63.31823 188.000
63.33818 215.000
63.35812 163.000
63.37807 186.000
63.39802 185.000
63.41796 186.000
63.43791 160.000
63.45786 154.000
63.47780 157.000
63.49775 173.000
63.51770 170.000
63.53765 149.000
63.55759 130.000
63.57754 161.000
63.59749 160.000
63.61743 153.000
63.63738 155.000
63.65733 148.000
63.67727 135.000
63.69722 139.000
63.71717 168.000
63.73712 132.000
63.75706 168.000
63.77701 142.000
63.79696 133.000
63.81690 134.000
63.83685 127.000
63.85680 138.000
63.87674 130.000
63.89669 138.000
63.91664 131.000
63.93658 136.000
63.95653 133.000
63.97648 151.000
63.99643 170.000
64.01637 139.000
64.03632 138.000
64.05627 138.000
64.07621 136.000
64.09616 138.000
64.11611 121.000
64.13605 157.000
64.15600 125.000
64.17595 121.000
64.19590 164.000
64.21584 116.000
64.23579 115.000
64.25574 145.000
64.27568 149.000
64.29563 134.000
64.31558 139.000
64.33552 149.000
64.35547 138.000
64.37542 144.000
64.39536 162.000
64.41531 127.000
64.43526 165.000
64.45521 167.000
64.47515 173.000
64.49510 173.000
64.51505 162.000
64.53499 152.000
64.55494 163.000
64.57489 175.000
64.59483 186.000
64.61478 212.000
64.63473 197.000
64.65468 225.000
64.67462 251.000
64.69457 333.000
64.71452 379.000
64.73446 529.000
64.75441 636.000
64.77436 628.000
64.79430 586.000
64.81425 411.000
64.83420 318.000
64.85414 252.000
64.87409 282.000
64.89404 295.000
64.91399 366.000
64.93393 386.000
64.95388 391.000
64.97383 355.000
64.99377 340.000
65.01372 219.000
65.03367 203.000
65.05361 196.000
65.07356 145.000
65.09351 172.000
65.11346 165.000
65.13340 160.000
65.15335 131.000
65.17330 150.000
65.19324 130.000
65.21319 151.000
65.23314 153.000
65.25308 134.000
65.27303 135.000
65.29298 139.000
65.31293 129.000
65.33287 144.000
65.35282 132.000
65.37277 121.000
65.39271 153.000
65.41266 137.000
65.43261 130.000
65.45255 127.000
65.47250 128.000
65.49245 126.000
65.51239 147.000
65.53234 145.000
65.55229 132.000
65.57224 117.000
65.59218 141.000
65.61213 146.000
65.63208 135.000
65.65202 134.000
65.67197 132.000
65.69192 135.000
65.71186 144.000
65.73181 132.000
65.75176 132.000
65.77171 161.000
65.79165 145.000
65.81160 152.000
65.83155 137.000
65.85149 129.000
65.87144 169.000
65.89139 150.000
65.91133 143.000
65.93128 158.000
65.95123 148.000
65.97117 156.000
65.99112 127.000
66.01107 157.000
66.03102 141.000
66.05096 149.000
66.07091 130.000
66.09086 167.000
66.11080 143.000
66.13075 142.000
66.15070 157.000
66.17064 173.000
66.19059 166.000
66.21054 174.000
66.23049 156.000
66.25043 184.000
66.27038 182.000
66.29033 150.000
66.31027 171.000
66.33022 154.000
66.35017 160.000
66.37011 166.000
66.39006 170.000
66.41001 164.000
66.42995 162.000
66.44990 184.000
66.46985 171.000
66.48980 189.000
66.50974 176.000
66.52969 184.000
66.54964 172.000
66.56958 182.000
66.58953 181.000
66.60948 179.000
66.62942 173.000
66.64937 150.000
66.66932 147.000
66.68927 180.000
66.70921 145.000
66.72916 147.000
66.74911 163.000
66.76905 153.000
66.78900 173.000
66.80895 141.000
66.82889 157.000
66.84884 149.000
66.86879 160.000
66.88874 165.000
66.90868 186.000
66.92863 168.000
66.94858 173.000
66.96852 188.000
66.98847 183.000
67.00842 199.000
67.02836 234.000
67.04831 269.000
67.06826 308.000
67.08820 396.000
67.10815 413.000
67.12810 494.000
67.14805 439.000
67.16799 338.000
67.18794 304.000
67.20789 273.000
67.22783 228.000
67.24778 251.000
67.26773 279.000
67.28767 287.000
67.30762 298.000
67.32757 273.000
67.34752 301.000
67.36746 246.000
67.38741 214.000
67.40736 179.000
67.42730 169.000
67.44725 173.000
67.46720 151.000
67.48714 157.000
67.50709 143.000
67.52704 143.000
67.54698 136.000
67.56693 132.000
67.58688 144.000
67.60683 131.000
67.62677 127.000
67.64672 135.000
67.66667 131.000
67.68661 148.000
67.70656 117.000
67.72651 135.000
67.74645 126.000
67.76640 128.000
67.78635 137.000
67.80630 139.000
67.82624 111.000
67.84619 117.000
67.86614 121.000
67.88608 127.000
67.90603 143.000
67.92598 120.000
67.94592 128.000
67.96587 141.000
67.98582 112.000
68.00576 119.000
68.02571 128.000
68.04566 115.000
68.06561 130.000
68.08555 110.000
68.10550 109.000
68.12545 129.000
68.14539 123.000
68.16534 119.000
68.18529 126.000
68.20523 128.000
68.22518 136.000
68.24513 101.000
68.26508 127.000
68.28502 119.000
68.30497 118.000
68.32492 113.000
68.34486 128.000
68.36481 114.000
68.38476 115.000
68.40470 115.000
68.42465 114.000
68.44460 126.000
68.46455 130.000
68.48449 114.000
68.50444 134.000
68.52439 118.000
68.54433 108.000
68.56428 101.000
68.58423 134.000
68.60417 144.000
68.62412 129.000
68.64407 116.000
68.66401 112.000
68.68396 124.000
68.70391 113.000
68.72386 139.000
68.74380 126.000
68.76375 115.000
68.78370 125.000
68.80364 137.000
68.82359 140.000
68.84354 135.000
68.86348 121.000
68.88343 112.000
68.90338 129.000
68.92333 112.000
68.94327 120.000
68.96322 129.000
68.98317 133.000
69.00311 109.000
69.02306 124.000
69.04301 119.000
69.06295 117.000
69.08290 132.000
69.10285 123.000
69.12279 114.000
69.14274 136.000
69.16269 109.000
69.18264 134.000
69.20258 120.000
69.22253 124.000
69.24248 130.000
69.26242 109.000
69.28237 129.000
69.30232 109.000
69.32226 116.000
69.34221 114.000
69.36216 107.000
69.38211 145.000
69.40205 122.000
69.42200 139.000
69.44195 131.000
69.46189 139.000
69.48184 129.000
69.50179 127.000
69.52173 152.000
69.54168 126.000
69.56163 123.000
69.58157 159.000
69.60152 124.000
69.62147 130.000
69.64142 116.000
69.66136 110.000
69.68131 131.000
69.70126 123.000
69.72120 115.000
69.74115 114.000
69.76110 127.000
69.78104 135.000
69.80099 136.000
69.82094 131.000
69.84089 120.000
69.86083 139.000
69.88078 117.000
69.90073 115.000
69.92067 118.000
69.94062 116.000
69.96057 128.000
69.98051 120.000
70.00046 118.000
70.02041 106.000
70.04035 134.000
70.06030 119.000
70.08025 116.000
70.10020 121.000
70.12014 132.000
70.14009 118.000
70.16004 132.000
70.17998 117.000
70.19993 116.000
70.21988 125.000
70.23982 123.000
70.25977 107.000
70.27972 114.000
70.29967 113.000
70.31961 138.000
70.33956 108.000
70.35951 125.000
70.37945 127.000
70.39940 125.000
70.41935 124.000
70.43929 112.000
70.45924 133.000
70.47919 130.000
70.49914 129.000
70.51908 114.000
70.53903 139.000
70.55898 136.000
70.57892 102.000
70.59887 134.000
70.61882 131.000
70.63876 111.000
70.65871 114.000
70.67866 115.000
70.69860 123.000
70.71855 134.000
70.73850 115.000
70.75845 130.000
70.77839 127.000
70.79834 111.000
70.81829 114.000
70.83823 122.000
70.85818 128.000
70.87813 140.000
70.89807 124.000
70.91802 126.000
70.93797 117.000
70.95792 142.000
70.97786 133.000
70.99781 124.000
71.01776 125.000
71.03770 138.000
71.05765 149.000
71.07760 121.000
71.09754 127.000
71.11749 149.000
71.13744 134.000
71.15738 132.000
71.17733 125.000
71.19728 139.000
71.21723 141.000
71.23717 153.000
71.25712 147.000
71.27707 150.000
71.29701 133.000
71.31696 137.000
71.33691 145.000
71.35685 149.000
71.37680 147.000
71.39675 149.000
71.41670 147.000
71.43664 149.000
71.45659 139.000
71.47654 141.000
71.49648 147.000
71.51643 118.000
71.53638 133.000
71.55632 125.000
71.57627 111.000
71.59622 152.000
71.61616 136.000
71.63611 108.000
71.65606 133.000
71.67601 137.000
71.69595 120.000
71.71590 128.000
71.73585 137.000
71.75579 149.000
71.77574 122.000
71.79569 112.000
71.81563 115.000
71.83558 110.000
71.85553 121.000
71.87548 108.000
71.89542 138.000
71.91537 126.000
71.93532 118.000
71.95526 118.000
71.97521 105.000
71.99516 105.000
72.01510 107.000
72.03505 120.000
72.05500 124.000
72.07495 111.000
72.09489 150.000
72.11484 140.000
72.13479 126.000
72.15473 119.000
72.17468 130.000
72.19463 114.000
72.21457 126.000
72.23452 114.000
72.25447 140.000
72.27441 115.000
72.29436 107.000
72.31431 109.000
72.33426 128.000
72.35420 153.000
72.37415 122.000
72.39410 116.000
72.41404 113.000
72.43399 128.000
72.45394 99.000
72.47388 128.000
72.49383 120.000
72.51378 137.000
72.53373 112.000
72.55367 108.000
72.57362 115.000
72.59357 146.000
72.61351 109.000
72.63346 136.000
72.65341 107.000
72.67335 124.000
72.69330 118.000
72.71325 113.000
72.73319 121.000
72.75314 113.000
72.77309 113.000
72.79304 127.000
72.81298 126.000
72.83293 114.000
72.85288 142.000
72.87282 125.000
72.89277 142.000
72.91272 120.000
72.93266 118.000
72.95261 126.000
72.97256 124.000
72.99251 98.000
73.01245 122.000
73.03240 126.000
73.05235 123.000
73.07229 132.000
73.09224 149.000
73.11219 133.000
73.13213 121.000
73.15208 99.000
73.17203 124.000
73.19197 112.000
73.21192 115.000
73.23187 94.000
73.25182 123.000
73.27176 118.000
73.29171 136.000
73.31166 103.000
73.33160 133.000
73.35155 130.000
73.37150 116.000
73.39144 125.000
73.41139 122.000
73.43134 132.000
73.45129 145.000
73.47123 142.000
73.49118 129.000
73.51113 137.000
73.53107 133.000
73.55102 132.000
73.57097 134.000
73.59091 156.000
73.61086 147.000
73.63081 113.000
73.65076 136.000
73.67070 151.000
73.69065 138.000
73.71060 124.000
73.73054 128.000
73.75049 136.000
73.77044 158.000
73.79038 149.000
73.81033 153.000
73.83028 147.000
73.85022 161.000
73.87017 154.000
73.89012 176.000
73.91007 228.000
73.93001 224.000
73.94996 248.000
73.96991 267.000
73.98985 246.000
74.00980 277.000
74.02975 209.000
74.04969 200.000
74.06964 186.000
74.08959 217.000
74.10954 211.000
74.12948 254.000
74.14943 207.000
74.16938 245.000
74.18932 229.000
74.20927 249.000
74.22922 236.000
74.24916 220.000
74.26911 218.000
74.28906 206.000
74.30900 209.000
74.32895 204.000
74.34890 202.000
74.36885 178.000
74.38879 230.000
74.40874 198.000
74.42869 180.000
74.44863 178.000
74.46858 178.000
74.48853 174.000
74.50847 184.000
74.52842 178.000
74.54837 168.000
74.56832 154.000
74.58826 136.000
74.60821 149.000
74.62816 141.000
74.64810 152.000
74.66805 162.000
74.68800 155.000
74.70794 158.000
74.72789 152.000
74.74784 128.000
74.76778 138.000
74.78773 140.000
74.80768 123.000
74.82763 149.000
74.84757 113.000
74.86752 141.000
74.88747 153.000
74.90741 127.000
74.92736 157.000
74.94731 159.000
74.96725 136.000
74.98720 167.000
75.00715 136.000
75.02710 146.000
75.04704 152.000
75.06699 185.000
75.08694 158.000
75.10688 163.000
75.12683 152.000
75.14678 212.000
75.16672 180.000
75.18667 197.000
75.20662 195.000
75.22657 188.000
75.24651 216.000
75.26646 198.000
75.28641 293.000
75.30635 305.000
75.32630 361.000
75.34625 432.000
75.36619 493.000
75.38614 510.000
75.40609 498.000
75.42603 395.000
75.44598 371.000
75.46593 365.000
75.48588 278.000
75.50582 309.000
75.52577 303.000
75.54572 315.000
75.56566 321.000
75.58561 332.000
75.60556 327.000
75.62550 351.000
75.64545 286.000
75.66540 257.000
75.68535 269.000
75.70529 228.000
75.72524 218.000
75.74519 195.000
75.76513 167.000
75.78508 170.000
75.80503 161.000
75.82497 148.000
75.84492 157.000
75.86487 147.000
75.88481 155.000
75.90476 159.000
75.92471 151.000
75.94466 132.000
75.96460 141.000
75.98455 132.000
76.00450 165.000
76.02444 121.000
76.04439 150.000
76.06434 147.000
76.08428 145.000
76.10423 118.000
76.12418 115.000
76.14413 134.000
76.16407 138.000
76.18402 154.000
76.20397 125.000
76.22391 139.000
76.24386 143.000
76.26381 128.000
76.28375 149.000
76.30370 121.000
76.32365 140.000
76.34359 160.000
76.36354 181.000
76.38349 200.000
76.40344 200.000
76.42338 181.000
76.44333 173.000
76.46328 153.000
76.48322 147.000
76.50317 144.000
76.52312 121.000
76.54306 154.000
76.56301 147.000
76.58296 139.000
76.60291 164.000
76.62285 151.000
76.64280 163.000
76.66275 146.000
76.68269 127.000
76.70264 149.000
76.72259 119.000
76.74253 140.000
76.76248 130.000
76.78243 110.000
76.80238 129.000
76.82232 129.000
76.84227 126.000
76.86222 134.000
76.88216 132.000
76.90211 129.000
76.92206 113.000
76.94200 121.000
76.96195 121.000
76.98190 153.000
77.00184 116.000
77.02179 137.000
77.04174 127.000
77.06169 118.000
77.08163 126.000
77.10158 133.000
77.12153 127.000
77.14147 148.000
77.16142 132.000
77.18137 117.000
77.20131 137.000
77.22126 127.000
77.24121 136.000
77.26116 138.000
77.28110 133.000
77.30105 142.000
77.32100 112.000
77.34094 107.000
77.36089 129.000
77.38084 152.000
77.40078 129.000
77.42073 111.000
77.44068 130.000
77.46062 126.000
77.48057 148.000
77.50052 113.000
77.52047 133.000
77.54041 136.000
77.56036 118.000
77.58031 131.000
77.60025 127.000
77.62020 150.000
77.64015 136.000
77.66009 130.000
77.68004 139.000
77.69999 122.000
77.71994 132.000
77.73988 140.000
77.75983 171.000
77.77978 158.000
77.79972 148.000
77.81967 144.000
77.83962 144.000
77.85956 183.000
77.87951 188.000
77.89946 201.000
77.91940 232.000
77.93935 204.000
77.95930 207.000
77.97925 245.000
77.99919 233.000
78.01914 181.000
78.03909 211.000
78.05903 191.000
78.07898 187.000
78.09893 185.000
78.11887 204.000
78.13882 184.000
78.15877 190.000
78.17872 210.000
78.19866 194.000
78.21861 191.000
78.23856 190.000
78.25850 160.000
78.27845 181.000
78.29840 139.000
78.31834 146.000
78.33829 146.000
78.35824 149.000
78.37819 137.000
78.39813 150.000
78.41808 157.000
78.43803 135.000
78.45797 156.000
78.47792 153.000
78.49787 151.000
78.51781 181.000
78.53776 172.000
78.55771 207.000
78.57765 236.000
78.59760 251.000
78.61755 220.000
78.63750 231.000
78.65744 229.000
78.67739 184.000
78.69734 174.000
78.71728 180.000
78.73723 170.000
78.75718 169.000
78.77712 179.000
78.79707 180.000
78.81702 183.000
78.83697 168.000
78.85691 195.000
78.87686 184.000
78.89681 159.000
78.91675 166.000
78.93670 177.000
78.95665 148.000
78.97659 143.000
78.99654 150.000
79.01649 143.000
79.03643 153.000
79.05638 148.000
79.07633 145.000
79.09628 152.000
79.11622 155.000
79.13617 165.000
79.15612 179.000
79.17606 200.000
79.19601 160.000
79.21596 183.000
79.23590 174.000
79.25585 209.000
79.27580 234.000
79.29575 280.000
79.31569 299.000
79.33564 407.000
79.35559 398.000
79.37553 384.000
79.39548 309.000
79.41543 270.000
79.43537 288.000
79.45532 239.000
79.47527 260.000
79.49521 245.000
79.51516 258.000
79.53511 288.000
79.55506 249.000
79.57500 298.000
79.59495 307.000
79.61490 297.000
79.63484 264.000
79.65479 225.000
79.67474 221.000
79.69468 210.000
79.71463 190.000
79.73458 218.000
79.75453 161.000
79.77447 189.000
79.79442 162.000
79.81437 157.000
79.83431 165.000
79.85426 147.000
79.87421 130.000
79.89415 154.000
79.91410 151.000
79.93405 146.000
79.95399 152.000
79.97394 147.000
79.99389 133.000
80.01384 172.000
80.03378 145.000
80.05373 125.000
80.07368 138.000
80.09362 136.000
80.11357 127.000
80.13352 119.000
80.15346 128.000
80.17341 117.000
80.19336 122.000
80.21331 120.000
80.23325 107.000
80.25320 150.000
80.27315 132.000
80.29309 126.000
80.31304 115.000
80.33299 126.000
80.35293 123.000
80.37288 154.000
80.39283 132.000
80.41278 124.000
80.43272 136.000
80.45267 111.000
80.47262 130.000
80.49256 120.000
80.51251 114.000
80.53246 105.000
80.55240 107.000
80.57235 102.000
80.59230 130.000
80.61224 126.000
80.63219 124.000
80.65214 133.000
80.67209 113.000
80.69203 139.000
80.71198 123.000
80.73193 117.000
80.75187 114.000
80.77182 129.000
80.79177 121.000
80.81171 115.000
80.83166 126.000
80.85161 134.000
80.87156 142.000
80.89150 117.000
80.91145 136.000
80.93140 110.000
80.95134 111.000
80.97129 112.000
80.99124 130.000
81.01118 117.000
81.03113 116.000
81.05108 123.000
81.07102 114.000
81.09097 110.000
81.11092 115.000
81.13087 123.000
81.15081 125.000
81.17076 117.000
81.19071 135.000
81.21065 123.000
81.23060 140.000
81.25055 125.000
81.27049 118.000
81.29044 145.000
81.31039 153.000
81.33034 161.000
81.35028 124.000
81.37023 143.000
81.39018 131.000
81.41012 105.000
81.43007 112.000
81.45002 139.000
81.46996 111.000
81.48991 126.000
81.50986 130.000
81.52980 147.000
81.54975 156.000
81.56970 110.000
81.58965 143.000
81.60959 119.000
81.62954 124.000
81.64949 130.000
81.66943 137.000
81.68938 114.000
81.70933 133.000
81.72927 136.000
81.74922 132.000
81.76917 108.000
81.78912 130.000
81.80906 118.000
81.82901 98.000
81.84896 126.000
81.86890 117.000
81.88885 137.000
81.90880 124.000
81.92874 119.000
81.94869 121.000
81.96864 103.000
81.98859 133.000
82.00853 126.000
82.02848 115.000
82.04843 130.000
82.06837 117.000
82.08832 133.000
82.10827 125.000
82.12821 129.000
82.14816 133.000
82.16811 115.000
82.18805 121.000
82.20800 106.000
82.22795 137.000
82.24790 127.000
82.26784 104.000
82.28779 130.000
82.30774 119.000
82.32768 132.000
82.34763 137.000
82.36758 152.000
82.38752 118.000
82.40747 136.000
82.42742 123.000
82.44737 125.000
82.46731 137.000
82.48726 123.000
82.50721 154.000
82.52715 111.000
82.54710 133.000
82.56705 118.000
82.58699 125.000
82.60694 136.000
82.62689 115.000
82.64683 116.000
82.66678 136.000
82.68673 143.000
82.70668 116.000
82.72662 105.000
82.74657 128.000
82.76652 110.000
82.78646 122.000
82.80641 114.000
82.82636 113.000
82.84630 115.000
82.86625 140.000
82.88620 107.000
82.90615 129.000
82.92609 139.000
82.94604 134.000
82.96599 111.000
82.98593 130.000
83.00588 118.000
83.02583 105.000
83.04577 122.000
83.06572 127.000
83.08567 137.000
83.10561 140.000
83.12556 122.000
83.14551 122.000
83.16546 110.000
83.18540 109.000
83.20535 119.000
83.22530 125.000
83.24524 129.000
83.26519 118.000
83.28514 119.000
83.30508 119.000
83.32503 114.000
83.34498 119.000
83.36493 116.000
83.38487 123.000
83.40482 124.000
83.42477 146.000
83.44471 128.000
83.46466 123.000
83.48461 130.000
83.50455 118.000
83.52450 115.000
83.54445 130.000
83.56440 113.000
83.58434 142.000
83.60429 105.000
83.62424 138.000
83.64418 125.000
83.66413 115.000
83.68408 106.000
83.70402 124.000
83.72397 113.000
83.74392 122.000
83.76386 127.000
83.78381 114.000
83.80376 102.000
83.82371 129.000
83.84365 129.000
83.86360 119.000
83.88355 118.000
83.90349 129.000
83.92344 116.000
83.94339 115.000
83.96333 117.000
83.98328 118.000
84.00323 124.000
84.02318 117.000
84.04312 119.000
84.06307 113.000
84.08302 139.000
84.10296 115.000
84.12291 123.000
84.14286 111.000
84.16280 107.000
84.18275 116.000
84.20270 104.000
84.22264 133.000
84.24259 132.000
84.26254 114.000
84.28249 123.000
84.30243 114.000
84.32238 134.000
84.34233 128.000
84.36227 130.000
84.38222 116.000
84.40217 126.000
84.42211 117.000
84.44206 113.000
84.46201 113.000
84.48196 102.000
84.50190 132.000
84.52185 122.000
84.54180 108.000
84.56174 127.000
84.58169 120.000
84.60164 120.000
84.62158 125.000
84.64153 121.000
84.66148 131.000
84.68142 106.000
84.70137 130.000
84.72132 142.000
84.74127 128.000
84.76121 148.000
84.78116 155.000
84.80111 133.000
84.82105 140.000
84.84100 154.000
84.86095 132.000
84.88089 121.000
84.90084 163.000
84.92079 156.000
84.94074 160.000
84.96068 169.000
84.98063 149.000
85.00058 154.000
85.02052 171.000
85.04047 215.000
85.06042 224.000
85.08036 202.000
85.10031 231.000
85.12026 275.000
85.14021 249.000
85.16015 242.000
85.18010 193.000
85.20005 206.000
85.21999 189.000
85.23994 180.000
85.25989 176.000
85.27983 170.000
85.29978 181.000
85.31973 172.000
85.33967 177.000
85.35962 171.000
85.37957 170.000
85.39952 188.000
85.41946 191.000
85.43941 191.000
85.45936 166.000
85.47930 157.000
85.49925 114.000
85.51920 156.000
85.53914 144.000
85.55909 125.000
85.57904 122.000
85.59899 127.000
85.61893 149.000
85.63888 145.000
85.65883 119.000
85.67877 126.000
85.69872 136.000
85.71867 103.000
85.73861 109.000
85.75856 127.000
85.77851 146.000
85.79845 118.000
85.81840 109.000
85.83835 116.000
85.85830 111.000
85.87824 111.000
85.89819 129.000
85.91814 128.000
85.93808 119.000
85.95803 97.000
85.97798 122.000
85.99792 125.000
86.01787 122.000
86.03782 116.000
86.05777 146.000
86.07771 121.000
86.09766 126.000
86.11761 118.000
86.13755 119.000
86.15750 134.000
86.17745 129.000
86.19739 126.000
86.21734 136.000
86.23729 108.000
86.25723 108.000
86.27718 141.000
86.29713 127.000
86.31708 146.000
86.33702 121.000
86.35697 148.000
86.37692 141.000
86.39686 126.000
86.41681 129.000
86.43676 134.000
86.45670 131.000
86.47665 117.000
86.49660 125.000
86.51655 136.000
86.53649 110.000
86.55644 165.000
86.57639 124.000
86.59633 131.000
86.61628 110.000
86.63623 124.000
86.65617 141.000
86.67612 121.000
86.69607 121.000
86.71602 130.000
86.73596 114.000
86.75591 114.000
86.77586 134.000
86.79580 117.000
86.81575 125.000
86.83570 125.000
86.85564 119.000
86.87559 162.000
86.89554 142.000
86.91548 135.000
86.93543 132.000
86.95538 169.000
86.97533 155.000
86.99527 135.000
87.01522 140.000
87.03517 150.000
87.05511 144.000
87.07506 138.000
87.09501 157.000
87.11495 152.000
87.13490 160.000
87.15485 158.000
87.17480 143.000
87.19474 154.000
87.21469 166.000
87.23464 173.000
87.25458 141.000
87.27453 135.000
87.29448 139.000
87.31442 135.000
87.33437 138.000
87.35432 153.000
87.37426 143.000
87.39421 138.000
87.41416 135.000
87.43411 137.000
87.45405 151.000
87.47400 128.000
87.49395 121.000
87.51389 118.000
87.53384 135.000
87.55379 144.000
87.57373 120.000
87.59368 115.000
87.61363 114.000
87.63358 134.000
87.65352 133.000
87.67347 130.000
87.69342 137.000
87.71336 133.000
87.73331 156.000
87.75326 117.000
87.77320 134.000
87.79315 114.000
87.81310 130.000
87.83304 129.000
87.85299 139.000
87.87294 126.000
87.89289 106.000
87.91283 102.000
87.93278 117.000
87.95273 132.000
87.97267 130.000
87.99262 130.000
88.01257 117.000
88.03251 129.000
88.05246 123.000
88.07241 125.000
88.09236 129.000
88.11230 137.000
88.13225 120.000
88.15220 124.000
88.17214 116.000
88.19209 110.000
88.21204 133.000
88.23198 126.000
88.25193 127.000
88.27188 122.000
88.29183 127.000
88.31177 118.000
88.33172 126.000
88.35167 120.000
88.37161 119.000
88.39156 118.000
88.41151 117.000
88.43145 117.000
88.45140 110.000
88.47135 120.000
88.49129 123.000
88.51124 145.000
88.53119 116.000
88.55114 119.000
88.57108 133.000
88.59103 134.000
88.61098 116.000
88.63092 106.000
88.65087 123.000
88.67082 121.000
88.69076 105.000
88.71071 128.000
88.73066 107.000
88.75061 124.000
88.77055 112.000
88.79050 131.000
88.81045 101.000
88.83039 119.000
88.85034 122.000
88.87029 110.000
88.89023 132.000
88.91018 145.000
88.93013 118.000
88.95007 110.000
88.97002 130.000
88.98997 130.000
89.00992 115.000
89.02986 132.000
89.04981 104.000
89.06976 107.000
89.08970 132.000
89.10965 108.000
89.12960 128.000
89.14954 129.000
89.16949 115.000
89.18944 113.000
89.20939 123.000
89.22933 122.000
89.24928 106.000
89.26923 108.000
89.28917 140.000
89.30912 115.000
89.32907 132.000
89.34901 128.000
89.36896 102.000
89.38891 150.000
89.40885 119.000
89.42880 131.000
89.44875 132.000
89.46870 130.000
89.48864 138.000
89.50859 133.000
89.52854 141.000
89.54848 117.000
89.56843 131.000
89.58838 149.000
89.60832 130.000
89.62827 143.000
89.64822 119.000
89.66817 129.000
89.68811 143.000
89.70806 160.000
89.72801 152.000
89.74795 164.000
89.76790 168.000
89.78785 161.000
89.80779 173.000
89.82774 143.000
89.84769 153.000
89.86764 184.000
89.88758 162.000
89.90753 164.000
89.92748 189.000
89.94742 175.000
89.96737 188.000
89.98732 171.000
90.00726 202.000
