10.00000 110.000
10.01995 95.000
10.03989 98.000
10.05984 84.000
10.07979 104.000
10.09973 98.000
10.11968 90.000
10.13963 104.000
10.15958 109.000
10.17952 100.000
10.19947 105.000
10.21942 95.000
10.23936 83.000
10.25931 112.000
10.27926 88.000
10.29920 114.000
10.31915 84.000
10.33910 82.000
10.35905 96.000
10.37899 104.000
10.39894 100.000
10.41889 94.000
10.43883 104.000
10.45878 89.000
10.47873 84.000
10.49867 95.000
10.51862 96.000
10.53857 108.000
10.55851 107.000
10.57846 91.000
10.59841 112.000
10.61836 102.000
10.63830 121.000
10.65825 96.000
10.67820 95.000
10.69814 101.000
10.71809 87.000
10.73804 102.000
10.75798 98.000
10.77793 104.000
10.79788 122.000
10.81783 116.000
10.83777 101.000
10.85772 118.000
10.87767 106.000
10.89761 98.000
10.91756 97.000
10.93751 106.000
10.95745 97.000
10.97740 86.000
10.99735 122.000
11.01730 103.000
11.03724 108.000
11.05719 102.000
11.07714 100.000
11.09708 129.000
11.11703 110.000
11.13698 124.000
11.15692 107.000
11.17687 111.000
11.19682 115.000
11.21676 119.000
11.23671 105.000
11.25666 123.000
11.27661 108.000
11.29655 106.000
11.31650 113.000
11.33645 112.000
11.35639 109.000
11.37634 113.000
11.39629 102.000
11.41623 110.000
11.43618 115.000
11.45613 116.000
11.47608 96.000
11.49602 104.000
11.51597 116.000
11.53592 102.000
11.55586 92.000
11.57581 91.000
11.59576 100.000
11.61570 108.000
11.63565 99.000
11.65560 115.000
11.67554 152.000
11.69549 110.000
11.71544 98.000
11.73539 114.000
11.75533 90.000
11.77528 109.000
11.79523 108.000
11.81517 115.000
11.83512 112.000
11.85507 107.000
11.87501 122.000
11.89496 125.000
11.91491 121.000
11.93486 106.000
11.95480 110.000
11.97475 93.000
11.99470 105.000
12.01464 119.000
12.03459 102.000
12.05454 121.000
12.07448 123.000
12.09443 128.000
12.11438 113.000
12.13432 105.000
12.15427 123.000
12.17422 101.000
12.19417 129.000
12.21411 110.000
12.23406 109.000
12.25401 116.000
12.27395 121.000
12.29390 121.000
12.31385 116.000
12.33379 109.000
12.35374 110.000
12.37369 120.000
12.39364 141.000
12.41358 122.000
12.43353 128.000
12.45348 109.000
12.47342 108.000
12.49337 124.000
12.51332 126.000
12.53326 125.000
12.55321 118.000
12.57316 127.000
12.59311 120.000
12.61305 131.000
12.63300 143.000
12.65295 120.000
12.67289 133.000
12.69284 126.000
12.71279 123.000
12.73273 138.000
12.75268 137.000
12.77263 128.000
12.79257 121.000
12.81252 128.000
12.83247 123.000
12.85242 133.000
12.87236 120.000
12.89231 135.000
12.91226 151.000
12.93220 125.000
12.95215 142.000
12.97210 112.000
12.99204 120.000
13.01199 140.000
13.03194 134.000
13.05189 122.000
13.07183 130.000
13.09178 113.000
13.11173 120.000
13.13167 133.000
13.15162 115.000
13.17157 122.000
13.19151 135.000
13.21146 95.000
13.23141 129.000
13.25135 138.000
13.27130 125.000
13.29125 112.000
13.31120 142.000
13.33114 160.000
13.35109 127.000
13.37104 157.000
13.39098 113.000
13.41093 136.000
13.43088 143.000
13.45082 112.000
13.47077 166.000
13.49072 150.000
13.51067 146.000
13.53061 152.000
13.55056 141.000
13.57051 133.000
13.59045 151.000
13.61040 125.000
13.63035 145.000
13.65029 148.000
13.67024 143.000
13.69019 133.000
13.71013 139.000
13.73008 141.000
13.75003 131.000
13.76998 156.000
13.78992 141.000
13.80987 128.000
13.82982 145.000
13.84976 138.000
13.86971 126.000
13.88966 157.000
13.90960 133.000
13.92955 140.000
13.94950 133.000
13.96945 141.000
13.98939 143.000
14.00934 144.000
14.02929 134.000
14.04923 144.000
14.06918 128.000
14.08913 160.000
14.10907 142.000
14.12902 136.000
14.14897 147.000
14.16892 154.000
14.18886 141.000
14.20881 126.000
14.22876 122.000
14.24870 143.000
14.26865 161.000
14.28860 154.000
14.30854 157.000
14.32849 164.000
14.34844 152.000
14.36838 161.000
14.38833 151.000
14.40828 155.000
14.42823 128.000
14.44817 166.000
14.46812 154.000
14.48807 164.000
14.50801 156.000
14.52796 152.000
14.54791 136.000
14.56785 146.000
14.58780 158.000
14.60775 163.000
14.62770 165.000
14.64764 178.000
14.66759 146.000
14.68754 172.000
14.70748 156.000
14.72743 135.000
14.74738 166.000
14.76732 163.000
14.78727 168.000
14.80722 190.000
14.82716 167.000
14.84711 150.000
14.86706 174.000
14.88701 188.000
14.90695 156.000
14.92690 187.000
14.94685 165.000
14.96679 157.000
14.98674 184.000
15.00669 149.000
15.02663 182.000
15.04658 157.000
15.06653 161.000
15.08648 171.000
15.10642 155.000
15.12637 175.000
15.14632 156.000
15.16626 165.000
15.18621 172.000
15.20616 187.000
15.22610 174.000
15.24605 192.000
15.26600 166.000
15.28594 177.000
15.30589 178.000
15.32584 166.000
15.34579 175.000
15.36573 179.000
15.38568 190.000
15.40563 183.000
15.42557 183.000
15.44552 179.000
15.46547 176.000
15.48541 178.000
15.50536 186.000
15.52531 195.000
15.54526 185.000
15.56520 176.000
15.58515 184.000
15.60510 184.000
15.62504 198.000
15.64499 228.000
15.66494 177.000
15.68488 213.000
15.70483 185.000
15.72478 194.000
15.74472 154.000
15.76467 190.000
15.78462 183.000
15.80457 189.000
15.82451 180.000
15.84446 194.000
15.86441 188.000
15.88435 214.000
15.90430 202.000
15.92425 203.000
15.94419 215.000
15.96414 219.000
15.98409 206.000
16.00404 207.000
16.02398 236.000
16.04393 225.000
16.06388 204.000
16.08382 192.000
16.10377 237.000
16.12372 213.000
16.14366 191.000
16.16361 210.000
16.18356 229.000
16.20351 228.000
16.22345 219.000
16.24340 208.000
16.26335 214.000
16.28329 219.000
16.30324 261.000
16.32319 229.000
16.34313 261.000
16.36308 226.000
16.38303 224.000
16.40297 249.000
16.42292 240.000
16.44287 241.000
16.46282 223.000
16.48276 240.000
16.50271 269.000
16.52266 264.000
16.54260 269.000
16.56255 260.000
16.58250 273.000
16.60244 266.000
16.62239 271.000
16.64234 250.000
16.66229 223.000
16.68223 232.000
16.70218 237.000
16.72213 272.000
16.74207 261.000
16.76202 230.000
16.78197 242.000
16.80191 256.000
16.82186 262.000
16.84181 235.000
16.86175 248.000
16.88170 212.000
16.90165 266.000
16.92160 250.000
16.94154 253.000
16.96149 262.000
16.98144 230.000
17.00138 254.000
17.02133 275.000
17.04128 260.000
17.06122 247.000
17.08117 263.000
17.10112 255.000
17.12107 284.000
17.14101 267.000
17.16096 263.000
17.18091 262.000
17.20085 267.000
17.22080 274.000
17.24075 253.000
17.26069 270.000
17.28064 265.000
17.30059 257.000
17.32053 257.000
17.34048 287.000
17.36043 277.000
17.38038 291.000
17.40032 285.000
17.42027 270.000
17.44022 261.000
17.46016 277.000
17.48011 288.000
17.50006 278.000
17.52000 311.000
17.53995 288.000
17.55990 318.000
17.57985 292.000
17.59979 312.000
17.61974 280.000
17.63969 279.000
17.65963 271.000
17.67958 311.000
17.69953 287.000
17.71947 323.000
17.73942 348.000
17.75937 308.000
17.77932 294.000
17.79926 317.000
17.81921 299.000
17.83916 333.000
17.85910 314.000
17.87905 309.000
17.89900 302.000
17.91894 320.000
17.93889 341.000
17.95884 339.000
17.97878 276.000
17.99873 303.000
18.01868 308.000
18.03863 332.000
18.05857 282.000
18.07852 318.000
18.09847 301.000
18.11841 369.000
18.13836 307.000
18.15831 326.000
18.17825 331.000
18.19820 293.000
18.21815 354.000
18.23810 342.000
18.25804 285.000
18.27799 336.000
18.29794 318.000
18.31788 328.000
18.33783 344.000
18.35778 352.000
18.37772 346.000
18.39767 319.000
18.41762 309.000
18.43756 356.000
18.45751 339.000
18.47746 352.000
18.49741 317.000
18.51735 338.000
18.53730 332.000
18.55725 335.000
18.57719 333.000
18.59714 336.000
18.61709 352.000
18.63703 360.000
18.65698 348.000
18.67693 298.000
18.69688 329.000
18.71682 357.000
18.73677 327.000
18.75672 322.000
18.77666 334.000
18.79661 357.000
18.81656 375.000
18.83650 397.000
18.85645 334.000
18.87640 382.000
18.89634 404.000
18.91629 363.000
18.93624 388.000
18.95619 368.000
18.97613 343.000
18.99608 377.000
19.01603 408.000
19.03597 344.000
19.05592 397.000
19.07587 366.000
19.09581 406.000
19.11576 368.000
19.13571 403.000
19.15566 391.000
19.17560 392.000
19.19555 388.000
19.21550 400.000
19.23544 396.000
19.25539 406.000
19.27534 438.000
19.29528 378.000
19.31523 395.000
19.33518 388.000
19.35513 404.000
19.37507 403.000
19.39502 421.000
19.41497 373.000
19.43491 374.000
19.45486 381.000
19.47481 402.000
19.49475 433.000
19.51470 413.000
19.53465 415.000
19.55459 410.000
19.57454 368.000
19.59449 403.000
19.61444 428.000
19.63438 412.000
19.65433 430.000
19.67428 407.000
19.69422 384.000
19.71417 376.000
19.73412 411.000
19.75406 404.000
19.77401 397.000
19.79396 418.000
19.81391 439.000
19.83385 485.000
19.85380 411.000
19.87375 406.000
19.89369 430.000
19.91364 399.000
19.93359 411.000
19.95353 408.000
19.97348 462.000
19.99343 430.000
20.01337 410.000
20.03332 409.000
20.05327 414.000
20.07322 451.000
20.09316 468.000
20.11311 462.000
20.13306 417.000
20.15300 408.000
20.17295 468.000
20.19290 446.000
20.21284 425.000
20.23279 426.000
20.25274 486.000
20.27269 494.000
20.29263 455.000
20.31258 437.000
20.33253 485.000
20.35247 462.000
20.37242 525.000
20.39237 481.000
20.41231 506.000
20.43226 471.000
20.45221 472.000
20.47215 482.000
20.49210 479.000
20.51205 523.000
20.53200 477.000
20.55194 536.000
20.57189 475.000
20.59184 546.000
20.61178 513.000
20.63173 557.000
20.65168 547.000
20.67162 521.000
20.69157 491.000
20.71152 514.000
20.73147 521.000
20.75141 534.000
20.77136 515.000
20.79131 511.000
20.81125 546.000
20.83120 530.000
20.85115 513.000
20.87109 503.000
20.89104 509.000
20.91099 480.000
20.93094 534.000
20.95088 470.000
20.97083 462.000
20.99078 476.000
21.01072 500.000
21.03067 471.000
21.05062 470.000
21.07056 499.000
21.09051 473.000
21.11046 507.000
21.13040 464.000
21.15035 473.000
21.17030 487.000
21.19025 461.000
21.21019 477.000
21.23014 509.000
21.25009 490.000
21.27003 472.000
21.28998 482.000
21.30993 444.000
21.32987 527.000
21.34982 472.000
21.36977 501.000
21.38972 501.000
21.40966 520.000
21.42961 499.000
21.44956 480.000
21.46950 486.000
21.48945 488.000
21.50940 477.000
21.52934 497.000
21.54929 523.000
21.56924 485.000
21.58918 556.000
21.60913 503.000
21.62908 539.000
21.64903 493.000
21.66897 492.000
21.68892 527.000
21.70887 477.000
21.72881 537.000
21.74876 564.000
21.76871 504.000
21.78865 503.000
21.80860 490.000
21.82855 536.000
21.84850 532.000
21.86844 524.000
21.88839 531.000
21.90834 510.000
21.92828 514.000
21.94823 560.000
21.96818 557.000
21.98812 528.000
22.00807 513.000
22.02802 544.000
22.04796 546.000
22.06791 507.000
22.08786 551.000
22.10781 540.000
22.12775 539.000
22.14770 520.000
22.16765 490.000
22.18759 510.000
22.20754 573.000
22.22749 554.000
22.24743 516.000
22.26738 538.000
22.28733 569.000
22.30728 556.000
22.32722 535.000
22.34717 559.000
22.36712 544.000
22.38706 560.000
22.40701 551.000
22.42696 515.000
22.44690 568.000
22.46685 548.000
22.48680 547.000
22.50675 518.000
22.52669 543.000
22.54664 544.000
22.56659 514.000
22.58653 569.000
22.60648 570.000
22.62643 564.000
22.64637 535.000
22.66632 555.000
22.68627 595.000
22.70621 551.000
22.72616 593.000
22.74611 588.000
22.76606 554.000
22.78600 550.000
22.80595 559.000
22.82590 570.000
22.84584 636.000
22.86579 557.000
22.88574 560.000
22.90568 604.000
22.92563 582.000
22.94558 587.000
22.96553 615.000
22.98547 573.000
23.00542 617.000
23.02537 545.000
23.04531 581.000
23.06526 615.000
23.08521 582.000
23.10515 562.000
23.12510 574.000
23.14505 589.000
23.16499 589.000
23.18494 571.000
23.20489 588.000
23.22484 557.000
23.24478 583.000
23.26473 595.000
23.28468 622.000
23.30462 620.000
23.32457 611.000
23.34452 617.000
23.36446 579.000
23.38441 599.000
23.40436 607.000
23.42431 573.000
23.44425 628.000
23.46420 597.000
23.48415 613.000
23.50409 576.000
23.52404 653.000
23.54399 640.000
23.56393 625.000
23.58388 616.000
23.60383 601.000
23.62377 602.000
23.64372 597.000
23.66367 619.000
23.68362 585.000
23.70356 647.000
23.72351 648.000
23.74346 593.000
23.76340 597.000
23.78335 615.000
23.80330 617.000
23.82324 657.000
23.84319 591.000
23.86314 652.000
23.88309 625.000
23.90303 586.000
23.92298 638.000
23.94293 623.000
23.96287 635.000
23.98282 638.000
24.00277 596.000
24.02271 660.000
24.04266 655.000
24.06261 616.000
24.08256 631.000
24.10250 593.000
24.12245 628.000
24.14240 624.000
24.16234 646.000
24.18229 598.000
24.20224 635.000
24.22218 626.000
24.24213 612.000
24.26208 656.000
24.28202 675.000
24.30197 596.000
24.32192 673.000
24.34187 647.000
24.36181 628.000
24.38176 679.000
24.40171 665.000
24.42165 688.000
24.44160 644.000
24.46155 690.000
24.48149 652.000
24.50144 666.000
24.52139 722.000
24.54134 704.000
24.56128 712.000
24.58123 722.000
24.60118 749.000
24.62112 709.000
24.64107 739.000
24.66102 719.000
24.68096 710.000
24.70091 748.000
24.72086 696.000
24.74080 712.000
24.76075 758.000
24.78070 710.000
24.80065 685.000
24.82059 666.000
24.84054 721.000
24.86049 703.000
24.88043 632.000
24.90038 686.000
24.92033 658.000
24.94027 669.000
24.96022 694.000
24.98017 717.000
25.00012 746.000
25.02006 646.000
25.04001 683.000
25.05996 741.000
25.07990 687.000
25.09985 701.000
25.11980 702.000
25.13974 682.000
25.15969 692.000
25.17964 697.000
25.19958 693.000
25.21953 670.000
25.23948 661.000
25.25943 713.000
25.27937 691.000
25.29932 750.000
25.31927 729.000
25.33921 675.000
25.35916 699.000
25.37911 740.000
25.39905 742.000
25.41900 784.000
25.43895 715.000
25.45890 732.000
25.47884 707.000
25.49879 708.000
25.51874 664.000
25.53868 699.000
25.55863 719.000
25.57858 682.000
25.59852 676.000
25.61847 726.000
25.63842 739.000
25.65837 709.000
25.67831 767.000
25.69826 738.000
25.71821 760.000
25.73815 732.000
25.75810 778.000
25.77805 769.000
25.79799 781.000
25.81794 749.000
25.83789 705.000
25.85783 749.000
25.87778 722.000
25.89773 792.000
25.91768 770.000
25.93762 742.000
25.95757 721.000
25.97752 742.000
25.99746 783.000
26.01741 772.000
26.03736 802.000
26.05730 764.000
26.07725 777.000
26.09720 791.000
26.11715 802.000
26.13709 796.000
26.15704 719.000
26.17699 783.000
26.19693 777.000
26.21688 761.000
26.23683 786.000
26.25677 774.000
26.27672 778.000
26.29667 761.000
26.31661 827.000
26.33656 790.000
26.35651 800.000
26.37646 829.000
26.39640 758.000
26.41635 798.000
26.43630 795.000
26.45624 803.000
26.47619 778.000
26.49614 815.000
26.51608 807.000
26.53603 778.000
26.55598 832.000
26.57593 823.000
26.59587 820.000
26.61582 832.000
26.63577 817.000
26.65571 791.000
26.67566 770.000
26.69561 794.000
26.71555 754.000
26.73550 827.000
26.75545 799.000
26.77539 815.000
26.79534 813.000
26.81529 828.000
26.83524 834.000
26.85518 845.000
26.87513 815.000
26.89508 822.000
26.91502 878.000
26.93497 841.000
26.95492 821.000
26.97486 793.000
26.99481 829.000
27.01476 811.000
27.03471 847.000
27.05465 845.000
27.07460 834.000
27.09455 847.000
27.11449 836.000
27.13444 848.000
27.15439 885.000
27.17433 852.000
27.19428 847.000
27.21423 818.000
27.23417 849.000
27.25412 811.000
27.27407 872.000
27.29402 848.000
27.31396 797.000
27.33391 866.000
27.35386 872.000
27.37380 838.000
27.39375 864.000
27.41370 858.000
27.43364 832.000
27.45359 883.000
27.47354 919.000
27.49349 876.000
27.51343 881.000
27.53338 807.000
27.55333 860.000
27.57327 863.000
27.59322 926.000
27.61317 867.000
27.63311 822.000
27.65306 869.000
27.67301 856.000
27.69296 810.000
27.71290 878.000
27.73285 905.000
27.75280 860.000
27.77274 847.000
27.79269 885.000
27.81264 899.000
27.83258 913.000
27.85253 895.000
27.87248 825.000
27.89242 848.000
27.91237 916.000
27.93232 879.000
27.95227 909.000
27.97221 869.000
27.99216 872.000
28.01211 888.000
28.03205 919.000
28.05200 865.000
28.07195 920.000
28.09189 856.000
28.11184 942.000
28.13179 952.000
28.15174 884.000
28.17168 831.000
28.19163 874.000
28.21158 926.000
28.23152 933.000
28.25147 927.000
28.27142 908.000
28.29136 937.000
28.31131 941.000
28.33126 906.000
28.35120 942.000
28.37115 924.000
28.39110 867.000
28.41105 896.000
28.43099 919.000
28.45094 911.000
28.47089 941.000
28.49083 940.000
28.51078 874.000
28.53073 941.000
28.55067 937.000
28.57062 919.000
28.59057 991.000
28.61052 949.000
28.63046 952.000
28.65041 934.000
28.67036 953.000
28.69030 919.000
28.71025 939.000
28.73020 999.000
28.75014 990.000
28.77009 1021.000
28.79004 982.000
28.80998 1080.000
28.82993 1071.000
28.84988 1077.000
28.86983 1091.000
28.88977 1155.000
28.90972 1159.000
28.92967 1106.000
28.94961 1176.000
28.96956 1251.000
28.98951 1289.000
29.00945 1263.000
29.02940 1291.000
29.04935 1312.000
29.06930 1275.000
29.08924 1238.000
29.10919 1192.000
29.12914 1201.000
29.14908 1163.000
29.16903 1109.000
29.18898 1061.000
29.20892 1062.000
29.22887 1072.000
29.24882 1016.000
29.26877 1050.000
29.28871 1003.000
29.30866 1006.000
29.32861 914.000
29.34855 927.000
29.36850 940.000
29.38845 978.000
29.40839 917.000
29.42834 981.000
29.44829 950.000
29.46823 974.000
29.48818 929.000
29.50813 925.000
29.52808 936.000
29.54802 891.000
29.56797 915.000
29.58792 997.000
29.60786 925.000
29.62781 987.000
29.64776 947.000
29.66770 912.000
29.68765 945.000
29.70760 975.000
29.72755 925.000
29.74749 931.000
29.76744 944.000
29.78739 925.000
29.80733 956.000
29.82728 975.000
29.84723 952.000
29.86717 919.000
29.88712 944.000
29.90707 904.000
29.92701 967.000
29.94696 939.000
29.96691 912.000
29.98686 926.000
30.00680 936.000
30.02675 953.000
30.04670 950.000
30.06664 983.000
30.08659 952.000
30.10654 980.000
30.12648 984.000
30.14643 927.000
30.16638 929.000
30.18633 940.000
30.20627 937.000
30.22622 905.000
30.24617 879.000
30.26611 968.000
30.28606 886.000
30.30601 931.000
30.32595 903.000
30.34590 924.000
30.36585 925.000
30.38579 966.000
30.40574 907.000
30.42569 990.000
30.44564 952.000
30.46558 976.000
30.48553 864.000
30.50548 925.000
30.52542 943.000
30.54537 913.000
30.56532 937.000
30.58526 944.000
30.60521 930.000
30.62516 1017.000
30.64511 956.000
30.66505 917.000
30.68500 952.000
30.70495 932.000
30.72489 937.000
30.74484 909.000
30.76479 929.000
30.78473 897.000
30.80468 899.000
30.82463 861.000
30.84458 906.000
30.86452 957.000
30.88447 922.000
30.90442 978.000
30.92436 959.000
30.94431 894.000
30.96426 916.000
30.98420 947.000
31.00415 906.000
31.02410 887.000
31.04404 916.000
31.06399 934.000
31.08394 904.000
31.10389 952.000
31.12383 959.000
31.14378 931.000
31.16373 931.000
31.18367 895.000
31.20362 981.000
31.22357 908.000
31.24351 907.000
31.26346 876.000
31.28341 873.000
31.30336 959.000
31.32330 959.000
31.34325 897.000
31.36320 932.000
31.38314 915.000
31.40309 933.000
31.42304 927.000
31.44298 974.000
31.46293 905.000
31.48288 908.000
31.50282 943.000
31.52277 895.000
31.54272 844.000
31.56267 920.000
31.58261 914.000
31.60256 922.000
31.62251 946.000
31.64245 893.000
31.66240 890.000
31.68235 940.000
31.70229 917.000
31.72224 876.000
31.74219 962.000
31.76214 919.000
31.78208 924.000
31.80203 906.000
31.82198 995.000
31.84192 933.000
31.86187 948.000
31.88182 986.000
31.90176 972.000
31.92171 990.000
31.94166 1019.000
31.96160 1032.000
31.98155 1060.000
32.00150 1085.000
32.02145 1067.000
32.04139 1019.000
32.06134 1058.000
32.08129 1026.000
32.10123 1002.000
32.12118 1005.000
32.14113 1063.000
32.16107 1045.000
32.18102 957.000
32.20097 981.000
32.22092 962.000
32.24086 926.000
32.26081 946.000
32.28076 907.000
32.30070 935.000
32.32065 880.000
32.34060 858.000
32.36054 901.000
32.38049 886.000
32.40044 891.000
32.42039 887.000
32.44033 902.000
32.46028 861.000
32.48023 916.000
32.50017 889.000
32.52012 853.000
32.54007 869.000
32.56001 879.000
32.57996 934.000
32.59991 910.000
32.61985 916.000
32.63980 819.000
32.65975 870.000
32.67970 890.000
32.69964 850.000
32.71959 838.000
32.73954 921.000
32.75948 894.000
32.77943 903.000
32.79938 842.000
32.81932 875.000
32.83927 830.000
32.85922 854.000
32.87917 878.000
32.89911 851.000
32.91906 843.000
32.93901 815.000
32.95895 842.000
32.97890 864.000
32.99885 883.000
33.01879 864.000
33.03874 881.000
33.05869 830.000
33.07863 913.000
33.09858 817.000
33.11853 868.000
33.13848 883.000
33.15842 844.000
33.17837 900.000
33.19832 831.000
33.21826 866.000
33.23821 857.000
33.25816 865.000
33.27810 886.000
33.29805 847.000
33.31800 909.000
33.33795 825.000
33.35789 858.000
33.37784 784.000
33.39779 856.000
33.41773 856.000
33.43768 854.000
33.45763 854.000
33.47757 876.000
33.49752 859.000
33.51747 873.000
33.53741 849.000
33.55736 888.000
33.57731 879.000
33.59726 897.000
33.61720 900.000
33.63715 855.000
33.65710 849.000
33.67704 917.000
33.69699 882.000
33.71694 894.000
33.73688 881.000
33.75683 809.000
33.77678 889.000
33.79673 867.000
33.81667 846.000
33.83662 844.000
33.85657 827.000
33.87651 871.000
33.89646 932.000
33.91641 880.000
33.93635 832.000
33.95630 937.000
33.97625 884.000
33.99620 868.000
34.01614 862.000
34.03609 936.000
34.05604 890.000
34.07598 907.000
34.09593 950.000
34.11588 932.000
34.13582 894.000
34.15577 981.000
34.17572 951.000
34.19566 1013.000
34.21561 1049.000
34.23556 968.000
34.25551 981.000
34.27545 1031.000
34.29540 1078.000
34.31535 1079.000
34.33529 1053.000
34.35524 1140.000
34.37519 1146.000
34.39513 1173.000
34.41508 1096.000
34.43503 1127.000
34.45498 1165.000
34.47492 1127.000
34.49487 1133.000
34.51482 1135.000
34.53476 1094.000
34.55471 1063.000
34.57466 1108.000
34.59460 1050.000
34.61455 1054.000
34.63450 1051.000
34.65444 1038.000
34.67439 1041.000
34.69434 1040.000
34.71429 1012.000
34.73423 982.000
34.75418 1133.000
34.77413 1109.000
34.79407 1074.000
34.81402 1165.000
34.83397 1192.000
34.85391 1427.000
34.87386 1500.000
34.89381 1431.000
34.91376 1561.000
34.93370 1663.000
34.95365 1804.000
34.97360 1909.000
34.99354 2111.000
35.01349 2248.000
35.03344 2390.000
35.05338 2588.000
35.07333 2606.000
35.09328 2857.000
35.11322 2868.000
35.13317 2863.000
35.15312 2786.000
35.17307 2678.000
35.19301 2621.000
35.21296 2506.000
35.23291 2268.000
35.25285 2077.000
35.27280 1949.000
35.29275 1776.000
35.31269 1603.000
35.33264 1425.000
35.35259 1345.000
35.37254 1216.000
35.39248 1261.000
35.41243 1145.000
35.43238 1063.000
35.45232 1003.000
35.47227 963.000
35.49222 918.000
35.51216 956.000
35.53211 945.000
35.55206 942.000
35.57201 852.000
35.59195 887.000
35.61190 870.000
35.63185 829.000
35.65179 823.000
35.67174 888.000
35.69169 879.000
35.71163 898.000
35.73158 856.000
35.75153 891.000
35.77147 858.000
35.79142 879.000
35.81137 895.000
35.83132 837.000
35.85126 848.000
35.87121 875.000
35.89116 893.000
35.91110 848.000
35.93105 865.000
35.95100 861.000
35.97094 848.000
35.99089 932.000
36.01084 860.000
36.03079 829.000
36.05073 826.000
36.07068 857.000
36.09063 913.000
36.11057 915.000
36.13052 870.000
36.15047 907.000
36.17041 934.000
36.19036 956.000
36.21031 965.000
36.23025 956.000
36.25020 954.000
36.27015 987.000
36.29010 1007.000
36.31004 987.000
36.32999 1040.000
36.34994 1018.000
36.36988 1070.000
36.38983 1217.000
36.40978 1233.000
36.42972 1401.000
36.44967 1473.000
36.46962 1696.000
36.48957 1843.000
36.50951 2048.000
36.52946 2335.000
36.54941 2720.000
36.56935 3050.000
36.58930 3441.000
36.60925 3856.000
36.62919 4152.000
36.64914 4403.000
36.66909 4634.000
36.68903 4693.000
36.70898 4667.000
36.72893 4673.000
36.74888 4451.000
36.76882 4192.000
36.78877 3765.000
36.80872 3454.000
36.82866 2973.000
36.84861 2636.000
36.86856 2342.000
36.88850 1957.000
36.90845 1759.000
36.92840 1490.000
36.94835 1375.000
36.96829 1246.000
36.98824 1148.000
37.00819 1103.000
37.02813 1016.000
37.04808 1006.000
37.06803 989.000
37.08797 893.000
37.10792 861.000
37.12787 891.000
37.14781 939.000
37.16776 874.000
37.18771 903.000
37.20766 863.000
37.22760 913.000
37.24755 957.000
37.26750 903.000
37.28744 877.000
37.30739 872.000
37.32734 860.000
37.34728 843.000
37.36723 886.000
37.38718 831.000
37.40713 885.000
37.42707 881.000
37.44702 861.000
37.46697 865.000
37.48691 891.000
37.50686 855.000
37.52681 893.000
37.54675 881.000
37.56670 802.000
37.58665 913.000
37.60660 884.000
37.62654 885.000
37.64649 923.000
37.66644 911.000
37.68638 933.000
37.70633 980.000
37.72628 958.000
37.74622 1035.000
37.76617 955.000
37.78612 988.000
37.80606 1035.000
37.82601 1074.000
37.84596 1067.000
37.86591 1094.000
37.88585 1104.000
37.90580 1106.000
37.92575 1138.000
37.94569 1136.000
37.96564 1301.000
37.98559 1370.000
38.00553 1436.000
38.02548 1451.000
38.04543 1562.000
38.06538 1701.000
38.08532 1781.000
38.10527 1913.000
38.12522 2007.000
38.14516 2179.000
38.16511 2170.000
38.18506 2279.000
38.20500 2399.000
38.22495 2502.000
38.24490 2378.000
38.26484 2489.000
38.28479 2389.000
38.30474 2325.000
38.32469 2235.000
38.34463 2156.000
38.36458 2012.000
38.38453 1966.000
38.40447 1790.000
38.42442 1705.000
38.44437 1544.000
38.46431 1519.000
38.48426 1380.000
38.50421 1354.000
38.52416 1261.000
38.54410 1320.000
38.56405 1324.000
38.58400 1342.000
38.60394 1301.000
38.62389 1341.000
38.64384 1354.000
38.66378 1398.000
38.68373 1324.000
38.70368 1320.000
38.72362 1326.000
38.74357 1427.000
38.76352 1384.000
38.78347 1385.000
38.80341 1330.000
38.82336 1264.000
38.84331 1238.000
38.86325 1126.000
38.88320 1084.000
38.90315 1093.000
38.92309 1072.000
38.94304 1038.000
38.96299 933.000
38.98294 929.000
39.00288 936.000
39.02283 879.000
39.04278 887.000
39.06272 868.000
39.08267 918.000
39.10262 872.000
39.12256 834.000
39.14251 838.000
39.16246 822.000
39.18241 829.000
39.20235 816.000
39.22230 829.000
39.24225 771.000
39.26219 777.000
39.28214 842.000
39.30209 825.000
39.32203 778.000
39.34198 809.000
39.36193 786.000
39.38187 820.000
39.40182 726.000
39.42177 832.000
39.44172 848.000
39.46166 759.000
39.48161 807.000
39.50156 820.000
39.52150 795.000
39.54145 820.000
39.56140 807.000
39.58134 802.000
39.60129 789.000
39.62124 793.000
39.64119 797.000
39.66113 825.000
39.68108 819.000
39.70103 822.000
39.72097 761.000
39.74092 759.000
39.76087 839.000
39.78081 763.000
39.80076 791.000
39.82071 849.000
39.84065 809.000
39.86060 862.000
39.88055 849.000
39.90050 790.000
39.92044 730.000
39.94039 790.000
39.96034 788.000
39.98028 741.000
40.00023 811.000
40.02018 735.000
40.04012 797.000
40.06007 769.000
40.08002 774.000
40.09997 797.000
40.11991 800.000
40.13986 815.000
40.15981 802.000
40.17975 807.000
40.19970 783.000
40.21965 851.000
40.23959 818.000
40.25954 758.000
40.27949 837.000
40.29943 789.000
40.31938 749.000
40.33933 768.000
40.35928 790.000
40.37922 756.000
40.39917 816.000
40.41912 779.000
40.43906 781.000
40.45901 794.000
40.47896 773.000
40.49890 806.000
40.51885 834.000
40.53880 832.000
40.55875 778.000
40.57869 815.000
40.59864 798.000
40.61859 811.000
40.63853 852.000
40.65848 747.000
40.67843 826.000
40.69837 788.000
40.71832 817.000
40.73827 839.000
40.75822 816.000
40.77816 863.000
40.79811 796.000
40.81806 835.000
40.83800 853.000
40.85795 813.000
40.87790 842.000
40.89784 837.000
40.91779 865.000
40.93774 886.000
40.95768 857.000
40.97763 838.000
40.99758 842.000
41.01753 873.000
41.03747 909.000
41.05742 847.000
41.07737 852.000
41.09731 862.000
41.11726 917.000
41.13721 900.000
41.15715 886.000
41.17710 869.000
41.19705 898.000
41.21700 889.000
41.23694 869.000
41.25689 896.000
41.27684 883.000
41.29678 926.000
41.31673 932.000
41.33668 883.000
41.35662 1004.000
41.37657 990.000
41.39652 977.000
41.41646 956.000
41.43641 984.000
41.45636 951.000
41.47631 999.000
41.49625 966.000
41.51620 939.000
41.53615 958.000
41.55609 1000.000
41.57604 980.000
41.59599 962.000
41.61593 902.000
41.63588 1007.000
41.65583 1020.000
41.67578 1012.000
41.69572 1016.000
41.71567 1022.000
41.73562 980.000
41.75556 1060.000
41.77551 1049.000
41.79546 1001.000
41.81540 1013.000
41.83535 1066.000
41.85530 1060.000
41.87524 1062.000
41.89519 1078.000
41.91514 1068.000
41.93509 1078.000
41.95503 1086.000
41.97498 1187.000
41.99493 1109.000
42.01487 1088.000
42.03482 1202.000
42.05477 1173.000
42.07471 1103.000
42.09466 1172.000
42.11461 1172.000
42.13456 1193.000
42.15450 1207.000
42.17445 1317.000
42.19440 1305.000
42.21434 1283.000
42.23429 1357.000
42.25424 1310.000
42.27418 1424.000
42.29413 1443.000
42.31408 1507.000
42.33403 1581.000
42.35397 1591.000
42.37392 1685.000
42.39387 1739.000
42.41381 1739.000
42.43376 1815.000
42.45371 1865.000
42.47365 1938.000
42.49360 1977.000
42.51355 2148.000
42.53349 2159.000
42.55344 2188.000
42.57339 2253.000
42.59334 2290.000
42.61328 2506.000
42.63323 2594.000
42.65318 2635.000
42.67312 2640.000
42.69307 2613.000
42.71302 2600.000
42.73296 2673.000
42.75291 2683.000
42.77286 2661.000
42.79281 2744.000
42.81275 2764.000
42.83270 2632.000
42.85265 2640.000
42.87259 2655.000
42.89254 2600.000
42.91249 2518.000
42.93243 2373.000
42.95238 2363.000
42.97233 2299.000
42.99227 2310.000
43.01222 2228.000
43.03217 2126.000
43.05212 2087.000
43.07206 2040.000
43.09201 1857.000
43.11196 1816.000
43.13190 1766.000
43.15185 1689.000
43.17180 1747.000
43.19174 1639.000
43.21169 1603.000
43.23164 1590.000
43.25159 1500.000
43.27153 1467.000
43.29148 1352.000
43.31143 1435.000
43.33137 1405.000
43.35132 1353.000
43.37127 1350.000
43.39121 1213.000
43.41116 1274.000
43.43111 1243.000
43.45105 1240.000
43.47100 1174.000
43.49095 1143.000
43.51090 1090.000
43.53084 1141.000
43.55079 1064.000
43.57074 1016.000
43.59068 988.000
43.61063 929.000
43.63058 984.000
43.65052 925.000
43.67047 943.000
43.69042 923.000
43.71037 884.000
43.73031 885.000
43.75026 873.000
43.77021 884.000
43.79015 816.000
43.81010 809.000
43.83005 844.000
43.84999 829.000
43.86994 830.000
43.88989 796.000
43.90984 823.000
43.92978 842.000
43.94973 813.000
43.96968 774.000
43.98962 730.000
44.00957 811.000
44.02952 826.000
44.04946 760.000
44.06941 800.000
44.08936 745.000
44.10930 788.000
44.12925 792.000
44.14920 740.000
44.16915 774.000
44.18909 752.000
44.20904 727.000
44.22899 805.000
44.24893 740.000
44.26888 769.000
44.28883 744.000
44.30877 747.000
44.32872 726.000
44.34867 768.000
44.36862 770.000
44.38856 755.000
44.40851 772.000
44.42846 753.000
44.44840 743.000
44.46835 717.000
44.48830 683.000
44.50824 734.000
44.52819 727.000
44.54814 705.000
44.56808 757.000
44.58803 724.000
44.60798 742.000
44.62793 702.000
44.64787 723.000
44.66782 744.000
44.68777 738.000
44.70771 732.000
44.72766 724.000
44.74761 726.000
44.76755 764.000
44.78750 717.000
44.80745 759.000
44.82740 704.000
44.84734 737.000
44.86729 748.000
44.88724 700.000
44.90718 710.000
44.92713 769.000
44.94708 744.000
44.96702 741.000
44.98697 735.000
45.00692 712.000
45.02686 717.000
45.04681 790.000
45.06676 710.000
45.08671 711.000
45.10665 739.000
45.12660 689.000
45.14655 775.000
45.16649 710.000
45.18644 699.000
45.20639 712.000
45.22633 742.000
45.24628 701.000
45.26623 737.000
45.28618 678.000
45.30612 710.000
45.32607 731.000
45.34602 741.000
45.36596 716.000
45.38591 707.000
45.40586 711.000
45.42580 722.000
45.44575 706.000
45.46570 716.000
45.48565 713.000
45.50559 709.000
45.52554 719.000
45.54549 715.000
45.56543 718.000
45.58538 728.000
45.60533 693.000
45.62527 725.000
45.64522 730.000
45.66517 749.000
45.68511 727.000
45.70506 730.000
45.72501 719.000
45.74496 712.000
45.76490 722.000
45.78485 711.000
45.80480 748.000
45.82474 745.000
45.84469 706.000
45.86464 734.000
45.88458 751.000
45.90453 749.000
45.92448 744.000
45.94443 777.000
45.96437 729.000
45.98432 782.000
46.00427 790.000
46.02421 703.000
46.04416 719.000
46.06411 663.000
46.08405 713.000
46.10400 729.000
46.12395 672.000
46.14389 681.000
46.16384 673.000
46.18379 714.000
46.20374 681.000
46.22368 691.000
46.24363 649.000
46.26358 648.000
46.28352 695.000
46.30347 689.000
46.32342 636.000
46.34336 751.000
46.36331 709.000
46.38326 665.000
46.40321 707.000
46.42315 701.000
46.44310 690.000
46.46305 712.000
46.48299 660.000
46.50294 689.000
46.52289 707.000
46.54283 695.000
46.56278 640.000
46.58273 678.000
46.60267 673.000
46.62262 647.000
46.64257 676.000
46.66252 684.000
46.68246 669.000
46.70241 650.000
46.72236 694.000
46.74230 661.000
46.76225 708.000
46.78220 689.000
46.80214 679.000
46.82209 679.000
46.84204 698.000
46.86199 739.000
46.88193 679.000
46.90188 672.000
46.92183 669.000
46.94177 663.000
46.96172 644.000
46.98167 654.000
47.00161 658.000
47.02156 650.000
47.04151 697.000
47.06146 654.000
47.08140 587.000
47.10135 663.000
47.12130 627.000
47.14124 714.000
47.16119 653.000
47.18114 651.000
47.20108 650.000
47.22103 677.000
47.24098 660.000
47.26092 645.000
47.28087 715.000
47.30082 663.000
47.32077 674.000
47.34071 672.000
47.36066 680.000
47.38061 713.000
47.40055 695.000
47.42050 687.000
47.44045 686.000
47.46039 686.000
47.48034 659.000
47.50029 680.000
47.52024 672.000
47.54018 689.000
47.56013 672.000
47.58008 686.000
47.60002 761.000
47.61997 693.000
47.63992 681.000
47.65986 712.000
47.67981 755.000
47.69976 738.000
47.71970 751.000
47.73965 780.000
47.75960 777.000
47.77955 740.000
47.79949 720.000
47.81944 713.000
47.83939 748.000
47.85933 708.000
47.87928 739.000
47.89923 675.000
47.91917 726.000
47.93912 698.000
47.95907 718.000
47.97902 706.000
47.99896 674.000
48.01891 673.000
48.03886 699.000
48.05880 733.000
48.07875 697.000
48.09870 688.000
48.11864 695.000
48.13859 739.000
48.15854 738.000
48.17848 712.000
48.19843 656.000
48.21838 698.000
48.23833 716.000
48.25827 745.000
48.27822 682.000
48.29817 754.000
48.31811 716.000
48.33806 742.000
48.35801 754.000
48.37795 816.000
48.39790 755.000
48.41785 733.000
48.43780 832.000
48.45774 856.000
48.47769 915.000
48.49764 917.000
48.51758 977.000
48.53753 947.000
48.55748 963.000
48.57742 1002.000
48.59737 1028.000
48.61732 1106.000
48.63726 1020.000
48.65721 1030.000
48.67716 1089.000
48.69711 1037.000
48.71705 1067.000
48.73700 1054.000
48.75695 1005.000
48.77689 973.000
48.79684 989.000
48.81679 918.000
48.83673 907.000
48.85668 941.000
48.87663 903.000
48.89658 811.000
48.91652 835.000
48.93647 806.000
48.95642 798.000
48.97636 748.000
48.99631 784.000
49.01626 753.000
49.03620 775.000
49.05615 768.000
49.07610 738.000
49.09605 731.000
49.11599 699.000
49.13594 708.000
49.15589 746.000
49.17583 749.000
49.19578 705.000
49.21573 728.000
49.23567 728.000
49.25562 693.000
49.27557 703.000
49.29551 679.000
49.31546 674.000
49.33541 696.000
49.35536 673.000
49.37530 721.000
49.39525 685.000
49.41520 683.000
49.43514 616.000
49.45509 670.000
49.47504 686.000
49.49498 685.000
49.51493 741.000
49.53488 682.000
49.55483 683.000
49.57477 667.000
49.59472 677.000
49.61467 653.000
49.63461 648.000
49.65456 628.000
49.67451 667.000
49.69445 670.000
49.71440 602.000
49.73435 616.000
49.75429 709.000
49.77424 673.000
49.79419 651.000
49.81414 640.000
49.83408 654.000
49.85403 643.000
49.87398 609.000
49.89392 662.000
49.91387 666.000
49.93382 686.000
49.95376 617.000
49.97371 670.000
49.99366 658.000
50.01361 677.000
50.03355 683.000
50.05350 625.000
50.07345 643.000
50.09339 623.000
50.11334 642.000
50.13329 651.000
50.15323 614.000
50.17318 647.000
50.19313 654.000
50.21307 593.000
50.23302 640.000
50.25297 606.000
50.27292 641.000
50.29286 666.000
50.31281 679.000
50.33276 659.000
50.35270 662.000
50.37265 684.000
50.39260 618.000
50.41254 639.000
50.43249 628.000
50.45244 654.000
50.47239 636.000
50.49233 672.000
50.51228 645.000
50.53223 679.000
50.55217 613.000
50.57212 623.000
50.59207 607.000
50.61201 625.000
50.63196 624.000
50.65191 642.000
50.67186 641.000
50.69180 627.000
50.71175 656.000
50.73170 636.000
50.75164 654.000
50.77159 656.000
50.79154 645.000
50.81148 719.000
50.83143 653.000
50.85138 627.000
50.87132 727.000
50.89127 625.000
50.91122 648.000
50.93117 699.000
50.95111 675.000
50.97106 673.000
50.99101 688.000
51.01095 636.000
51.03090 661.000
51.05085 640.000
51.07079 694.000
51.09074 641.000
51.11069 644.000
51.13064 670.000
51.15058 607.000
51.17053 661.000
51.19048 657.000
51.21042 595.000
51.23037 613.000
51.25032 610.000
51.27026 659.000
51.29021 656.000
51.31016 696.000
51.33010 639.000
51.35005 654.000
51.37000 610.000
51.38995 595.000
51.40989 634.000
51.42984 645.000
51.44979 666.000
51.46973 687.000
51.48968 701.000
51.50963 682.000
51.52957 701.000
51.54952 637.000
51.56947 694.000
51.58942 679.000
51.60936 700.000
51.62931 669.000
51.64926 673.000
51.66920 709.000
51.68915 707.000
51.70910 776.000
51.72904 762.000
51.74899 762.000
51.76894 790.000
51.78888 810.000
51.80883 741.000
51.82878 761.000
51.84873 774.000
51.86867 777.000
51.88862 710.000
51.90857 715.000
51.92851 735.000
51.94846 714.000
51.96841 701.000
51.98835 693.000
52.00830 693.000
52.02825 685.000
52.04820 638.000
52.06814 671.000
52.08809 650.000
52.10804 707.000
52.12798 678.000
52.14793 688.000
52.16788 621.000
52.18782 649.000
52.20777 662.000
52.22772 693.000
52.24767 734.000
52.26761 672.000
52.28756 664.000
52.30751 662.000
52.32745 644.000
52.34740 676.000
52.36735 642.000
52.38729 666.000
52.40724 612.000
52.42719 633.000
52.44713 662.000
52.46708 677.000
52.48703 683.000
52.50698 661.000
52.52692 737.000
52.54687 697.000
52.56682 672.000
52.58676 675.000
52.60671 703.000
52.62666 744.000
52.64660 775.000
52.66655 704.000
52.68650 728.000
52.70645 719.000
52.72639 707.000
52.74634 785.000
52.76629 799.000
52.78623 766.000
52.80618 798.000
52.82613 778.000
52.84607 742.000
52.86602 796.000
52.88597 780.000
52.90591 804.000
52.92586 773.000
52.94581 755.000
52.96576 748.000
52.98570 747.000
53.00565 733.000
53.02560 697.000
53.04554 703.000
53.06549 708.000
53.08544 728.000
53.10538 728.000
53.12533 691.000
53.14528 680.000
53.16523 718.000
53.18517 693.000
53.20512 701.000
53.22507 730.000
53.24501 666.000
53.26496 720.000
53.28491 622.000
53.30485 675.000
53.32480 673.000
53.34475 611.000
53.36469 680.000
53.38464 666.000
53.40459 628.000
53.42454 589.000
53.44448 644.000
53.46443 662.000
53.48438 626.000
53.50432 611.000
53.52427 668.000
53.54422 610.000
53.56416 649.000
53.58411 630.000
53.60406 631.000
53.62401 608.000
53.64395 620.000
53.66390 596.000
53.68385 640.000
53.70379 657.000
53.72374 612.000
53.74369 672.000
53.76363 668.000
53.78358 615.000
53.80353 582.000
53.82348 627.000
53.84342 632.000
53.86337 599.000
53.88332 658.000
53.90326 603.000
53.92321 619.000
53.94316 639.000
53.96310 625.000
53.98305 574.000
54.00300 587.000
54.02294 624.000
54.04289 616.000
54.06284 603.000
54.08279 615.000
54.10273 641.000
54.12268 604.000
54.14263 606.000
54.16257 659.000
54.18252 647.000
54.20247 670.000
54.22241 617.000
54.24236 617.000
54.26231 658.000
54.28226 659.000
54.30220 670.000
54.32215 598.000
54.34210 618.000
54.36204 648.000
54.38199 627.000
54.40194 633.000
54.42188 630.000
54.44183 615.000
54.46178 593.000
54.48172 612.000
54.50167 603.000
54.52162 615.000
54.54157 647.000
54.56151 647.000
54.58146 657.000
54.60141 637.000
54.62135 583.000
54.64130 606.000
54.66125 608.000
54.68119 655.000
54.70114 637.000
54.72109 615.000
54.74104 585.000
54.76098 628.000
54.78093 642.000
54.80088 654.000
54.82082 610.000
54.84077 609.000
54.86072 626.000
54.88066 583.000
54.90061 641.000
54.92056 592.000
54.94050 631.000
54.96045 624.000
54.98040 581.000
55.00035 620.000
55.02029 586.000
55.04024 557.000
55.06019 609.000
55.08013 605.000
55.10008 650.000
55.12003 635.000
55.13997 584.000
55.15992 667.000
55.17987 616.000
55.19982 633.000
55.21976 614.000
55.23971 597.000
55.25966 584.000
55.27960 638.000
55.29955 624.000
55.31950 613.000
55.33944 628.000
55.35939 658.000
55.37934 648.000
55.39929 640.000
55.41923 604.000
55.43918 576.000
55.45913 691.000
55.47907 630.000
55.49902 591.000
55.51897 641.000
55.53891 597.000
55.55886 585.000
55.57881 658.000
55.59875 628.000
55.61870 623.000
55.63865 605.000
55.65860 614.000
55.67854 610.000
55.69849 646.000
55.71844 631.000
55.73838 577.000
55.75833 664.000
55.77828 604.000
55.79822 587.000
55.81817 602.000
55.83812 640.000
55.85807 558.000
55.87801 624.000
55.89796 619.000
55.91791 624.000
55.93785 627.000
55.95780 627.000
55.97775 618.000
55.99769 591.000
56.01764 610.000
56.03759 617.000
56.05753 663.000
56.07748 620.000
56.09743 623.000
56.11738 639.000
56.13732 619.000
56.15727 617.000
56.17722 658.000
56.19716 624.000
56.21711 648.000
56.23706 687.000
56.25700 578.000
56.27695 606.000
56.29690 625.000
56.31685 645.000
56.33679 612.000
56.35674 639.000
56.37669 611.000
56.39663 628.000
56.41658 620.000
56.43653 564.000
56.45647 629.000
56.47642 577.000
56.49637 626.000
56.51631 641.000
56.53626 607.000
56.55621 650.000
56.57616 618.000
56.59610 605.000
56.61605 616.000
56.63600 606.000
56.65594 630.000
56.67589 649.000
56.69584 629.000
56.71578 617.000
56.73573 614.000
56.75568 639.000
56.77563 629.000
56.79557 684.000
56.81552 584.000
56.83547 616.000
56.85541 624.000
56.87536 620.000
56.89531 646.000
56.91525 617.000
56.93520 640.000
56.95515 623.000
56.97510 635.000
56.99504 624.000
57.01499 644.000
57.03494 615.000
57.05488 609.000
57.07483 636.000
57.09478 591.000
57.11472 630.000
57.13467 654.000
57.15462 627.000
57.17456 618.000
57.19451 635.000
57.21446 621.000
57.23441 582.000
57.25435 610.000
57.27430 635.000
57.29425 582.000
57.31419 629.000
57.33414 643.000
57.35409 673.000
57.37403 660.000
57.39398 608.000
57.41393 617.000
57.43388 688.000
57.45382 641.000
57.47377 624.000
57.49372 617.000
57.51366 642.000
57.53361 667.000
57.55356 670.000
57.57350 649.000
57.59345 663.000
57.61340 648.000
57.63334 705.000
57.65329 650.000
57.67324 682.000
57.69319 697.000
57.71313 703.000
57.73308 746.000
57.75303 724.000
57.77297 762.000
57.79292 776.000
57.81287 779.000
57.83281 770.000
57.85276 840.000
57.87271 851.000
57.89266 876.000
57.91260 869.000
57.93255 887.000
57.95250 839.000
57.97244 836.000
57.99239 800.000
58.01234 822.000
58.03228 774.000
58.05223 760.000
58.07218 820.000
58.09212 773.000
58.11207 742.000
58.13202 720.000
58.15197 695.000
58.17191 671.000
58.19186 667.000
58.21181 678.000
58.23175 647.000
58.25170 639.000
58.27165 636.000
58.29159 683.000
58.31154 666.000
58.33149 634.000
58.35144 635.000
58.37138 629.000
58.39133 637.000
58.41128 625.000
58.43122 636.000
58.45117 658.000
58.47112 612.000
58.49106 643.000
58.51101 569.000
58.53096 577.000
58.55090 689.000
58.57085 629.000
58.59080 628.000
58.61075 642.000
58.63069 622.000
58.65064 654.000
58.67059 597.000
58.69053 609.000
58.71048 641.000
58.73043 638.000
58.75037 621.000
58.77032 659.000
58.79027 622.000
58.81022 610.000
58.83016 641.000
58.85011 621.000
58.87006 651.000
58.89000 613.000
58.90995 622.000
58.92990 634.000
58.94984 647.000
58.96979 625.000
58.98974 643.000
59.00969 631.000
59.02963 627.000
59.04958 630.000
59.06953 668.000
59.08947 564.000
59.10942 575.000
59.12937 639.000
59.14931 585.000
59.16926 595.000
59.18921 608.000
59.20915 573.000
59.22910 644.000
59.24905 673.000
59.26900 628.000
59.28894 628.000
59.30889 631.000
59.32884 586.000
59.34878 602.000
59.36873 668.000
59.38868 625.000
59.40862 598.000
59.42857 606.000
59.44852 629.000
59.46847 609.000
59.48841 601.000
59.50836 622.000
59.52831 669.000
59.54825 622.000
59.56820 632.000
59.58815 610.000
59.60809 636.000
59.62804 603.000
59.64799 657.000
59.66793 662.000
59.68788 632.000
59.70783 633.000
59.72778 631.000
59.74772 647.000
59.76767 618.000
59.78762 650.000
59.80756 649.000
59.82751 631.000
59.84746 665.000
59.86740 614.000
59.88735 683.000
59.90730 663.000
59.92725 624.000
59.94719 603.000
59.96714 621.000
59.98709 651.000
60.00703 599.000
60.02698 624.000
60.04693 632.000
60.06687 648.000
60.08682 651.000
60.10677 604.000
60.12671 692.000
60.14666 619.000
60.16661 681.000
60.18656 605.000
60.20650 625.000
60.22645 618.000
60.24640 663.000
60.26634 652.000
60.28629 656.000
60.30624 628.000
60.32618 600.000
60.34613 635.000
60.36608 630.000
60.38603 612.000
60.40597 647.000
60.42592 636.000
60.44587 637.000
60.46581 651.000
60.48576 678.000
60.50571 689.000
60.52565 659.000
60.54560 693.000
60.56555 696.000
60.58550 647.000
60.60544 644.000
60.62539 698.000
60.64534 665.000
60.66528 645.000
60.68523 673.000
60.70518 657.000
60.72512 668.000
60.74507 687.000
60.76502 679.000
60.78496 743.000
60.80491 696.000
60.82486 670.000
60.84481 659.000
60.86475 699.000
60.88470 693.000
60.90465 677.000
60.92459 691.000
60.94454 745.000
60.96449 748.000
60.98443 765.000
61.00438 789.000
61.02433 749.000
61.04428 826.000
61.06422 783.000
61.08417 869.000
61.10412 895.000
61.12406 903.000
61.14401 949.000
61.16396 1021.000
61.18390 1014.000
61.20385 1059.000
61.22380 1141.000
61.24374 1125.000
61.26369 1124.000
61.28364 1119.000
61.30359 1087.000
61.32353 1093.000
61.34348 1159.000
61.36343 1079.000
61.38337 1018.000
61.40332 1074.000
61.42327 1057.000
61.44321 1085.000
61.46316 1094.000
61.48311 1038.000
61.50306 981.000
61.52300 997.000
61.54295 1060.000
61.56290 1019.000
61.58284 1019.000
61.60279 973.000
61.62274 1085.000
61.64268 1080.000
61.66263 1077.000
61.68258 1165.000
61.70252 1140.000
61.72247 1105.000
61.74242 1097.000
61.76237 1131.000
61.78231 1161.000
61.80226 1251.000
61.82221 1234.000
61.84215 1246.000
61.86210 1250.000
61.88205 1327.000
61.90199 1347.000
61.92194 1407.000
61.94189 1349.000
61.96184 1454.000
61.98178 1505.000
62.00173 1556.000
62.02168 1570.000
62.04162 1588.000
62.06157 1670.000
62.08152 1585.000
62.10146 1737.000
62.12141 1628.000
62.14136 1597.000
62.16131 1729.000
62.18125 1806.000
62.20120 1870.000
62.22115 1818.000
62.24109 1716.000
62.26104 1801.000
62.28099 1760.000
62.30093 1710.000
62.32088 1748.000
62.34083 1698.000
62.36077 1669.000
62.38072 1526.000
62.40067 1595.000
62.42062 1543.000
62.44056 1475.000
62.46051 1433.000
62.48046 1382.000
62.50040 1340.000
62.52035 1259.000
62.54030 1294.000
62.56024 1248.000
62.58019 1207.000
62.60014 1100.000
62.62009 1086.000
62.64003 1036.000
62.65998 1012.000
62.67993 1022.000
62.69987 1005.000
62.71982 915.000
62.73977 953.000
62.75971 905.000
62.77966 879.000
62.79961 894.000
62.81955 879.000
62.83950 843.000
62.85945 851.000
62.87940 836.000
62.89934 815.000
62.91929 843.000
62.93924 866.000
62.95918 830.000
62.97913 779.000
62.99908 795.000
63.01902 811.000
63.03897 810.000
63.05892 775.000
63.07887 767.000
63.09881 723.000
63.11876 807.000
63.13871 742.000
63.15865 776.000
63.17860 757.000
63.19855 705.000
63.21849 683.000
63.23844 712.000
63.25839 719.000
63.27833 697.000
63.29828 730.000
63.31823 712.000
63.33818 656.000
63.35812 719.000
63.37807 715.000
63.39802 693.000
63.41796 646.000
63.43791 658.000
63.45786 633.000
63.47780 711.000
63.49775 690.000
63.51770 701.000
63.53765 651.000
63.55759 679.000
63.57754 628.000
63.59749 643.000
63.61743 692.000
63.63738 650.000
63.65733 672.000
63.67727 622.000
63.69722 604.000
63.71717 665.000
63.73712 694.000
63.75706 608.000
63.77701 647.000
63.79696 666.000
63.81690 634.000
63.83685 670.000
63.85680 728.000
63.87674 686.000
63.89669 678.000
63.91664 644.000
63.93658 751.000
63.95653 699.000
63.97648 692.000
63.99643 643.000
64.01637 642.000
64.03632 639.000
64.05627 673.000
64.07621 605.000
64.09616 668.000
64.11611 690.000
64.13605 658.000
64.15600 637.000
64.17595 673.000
64.19590 655.000
64.21584 649.000
64.23579 665.000
64.25574 674.000
64.27568 643.000
64.29563 605.000
64.31558 614.000
64.33552 642.000
64.35547 613.000
64.37542 666.000
64.39536 686.000
64.41531 697.000
64.43526 677.000
64.45521 671.000
64.47515 632.000
64.49510 653.000
64.51505 682.000
64.53499 661.000
64.55494 640.000
64.57489 650.000
64.59483 699.000
64.61478 678.000
64.63473 665.000
64.65468 638.000
64.67462 664.000
64.69457 682.000
64.71452 649.000
64.73446 689.000
64.75441 657.000
64.77436 642.000
64.79430 676.000
64.81425 713.000
64.83420 668.000
64.85414 699.000
64.87409 721.000
64.89404 724.000
64.91399 690.000
64.93393 716.000
64.95388 709.000
64.97383 706.000
64.99377 740.000
65.01372 773.000
65.03367 778.000
65.05361 790.000
65.07356 774.000
65.09351 789.000
65.11346 797.000
65.13340 811.000
65.15335 861.000
65.17330 840.000
65.19324 844.000
65.21319 839.000
65.23314 824.000
65.25308 847.000
65.27303 850.000
65.29298 835.000
65.31293 892.000
65.33287 835.000
65.35282 818.000
65.37277 838.000
65.39271 854.000
65.41266 861.000
65.43261 885.000
65.45255 811.000
65.47250 819.000
65.49245 819.000
65.51239 873.000
65.53234 807.000
65.55229 790.000
65.57224 768.000
65.59218 752.000
65.61213 751.000
65.63208 770.000
65.65202 766.000
65.67197 711.000
65.69192 724.000
65.71186 681.000
65.73181 701.000
65.75176 702.000
65.77171 689.000
65.79165 649.000
65.81160 656.000
65.83155 678.000
65.85149 697.000
65.87144 681.000
65.89139 716.000
65.91133 722.000
65.93128 725.000
65.95123 684.000
65.97117 693.000
65.99112 761.000
66.01107 779.000
66.03102 825.000
66.05096 749.000
66.07091 818.000
66.09086 819.000
66.11080 821.000
66.13075 842.000
66.15070 849.000
66.17064 877.000
66.19059 880.000
66.21054 770.000
66.23049 810.000
66.25043 838.000
66.27038 792.000
66.29033 870.000
66.31027 781.000
66.33022 801.000
66.35017 809.000
66.37011 751.000
66.39006 731.000
66.41001 738.000
66.42995 723.000
66.44990 716.000
66.46985 715.000
66.48980 699.000
66.50974 677.000
66.52969 696.000
66.54964 643.000
66.56958 688.000
66.58953 656.000
66.60948 651.000
66.62942 638.000
66.64937 651.000
66.66932 674.000
66.68927 625.000
66.70921 607.000
66.72916 641.000
66.74911 599.000
66.76905 685.000
66.78900 678.000
66.80895 658.000
66.82889 650.000
66.84884 651.000
66.86879 622.000
66.88874 608.000
66.90868 695.000
66.92863 645.000
66.94858 627.000
66.96852 651.000
66.98847 672.000
67.00842 672.000
67.02836 701.000
67.04831 654.000
67.06826 675.000
67.08820 668.000
67.10815 684.000
67.12810 757.000
67.14805 705.000
67.16799 702.000
67.18794 730.000
67.20789 756.000
67.22783 715.000
67.24778 717.000
67.26773 799.000
67.28767 785.000
67.30762 769.000
67.32757 776.000
67.34752 801.000
67.36746 831.000
67.38741 774.000
67.40736 847.000
67.42730 904.000
67.44725 844.000
67.46720 819.000
67.48714 893.000
67.50709 866.000
67.52704 915.000
67.54698 889.000
67.56693 915.000
67.58688 911.000
67.60683 860.000
67.62677 879.000
67.64672 849.000
67.66667 806.000
67.68661 874.000
67.70656 859.000
67.72651 821.000
67.74645 771.000
67.76640 810.000
67.78635 771.000
67.80630 777.000
67.82624 747.000
67.84619 775.000
67.86614 729.000
67.88608 747.000
67.90603 709.000
67.92598 712.000
67.94592 667.000
67.96587 674.000
67.98582 673.000
68.00576 669.000
68.02571 633.000
68.04566 686.000
68.06561 554.000
68.08555 605.000
68.10550 698.000
68.12545 617.000
68.14539 673.000
68.16534 581.000
68.18529 628.000
68.20523 605.000
68.22518 618.000
68.24513 641.000
68.26508 608.000
68.28502 648.000
68.30497 593.000
68.32492 610.000
68.34486 614.000
68.36481 587.000
68.38476 622.000
68.40470 598.000
68.42465 611.000
68.44460 577.000
68.46455 573.000
68.48449 595.000
68.50444 596.000
68.52439 616.000
68.54433 579.000
68.56428 635.000
68.58423 618.000
68.60417 602.000
68.62412 596.000
68.64407 573.000
68.66401 619.000
68.68396 589.000
68.70391 586.000
68.72386 539.000
68.74380 590.000
68.76375 570.000
68.78370 600.000
68.80364 607.000
68.82359 585.000
68.84354 577.000
68.86348 598.000
68.88343 615.000
68.90338 602.000
68.92333 573.000
68.94327 596.000
68.96322 548.000
68.98317 603.000
69.00311 570.000
69.02306 589.000
69.04301 593.000
69.06295 574.000
69.08290 603.000
69.10285 571.000
69.12279 629.000
69.14274 604.000
69.16269 584.000
69.18264 586.000
69.20258 567.000
69.22253 590.000
69.24248 621.000
69.26242 611.000
69.28237 577.000
69.30232 556.000
69.32226 570.000
69.34221 552.000
69.36216 552.000
69.38211 572.000
69.40205 592.000
69.42200 586.000
69.44195 609.000
69.46189 581.000
69.48184 620.000
69.50179 575.000
69.52173 583.000
69.54168 601.000
69.56163 603.000
69.58157 541.000
69.60152 583.000
69.62147 598.000
69.64142 566.000
69.66136 634.000
69.68131 572.000
69.70126 586.000
69.72120 529.000
69.74115 552.000
69.76110 588.000
69.78104 615.000
69.80099 592.000
69.82094 618.000
69.84089 575.000
69.86083 566.000
69.88078 565.000
69.90073 592.000
69.92067 622.000
69.94062 577.000
69.96057 606.000
69.98051 575.000
70.00046 607.000
70.02041 597.000
70.04035 596.000
70.06030 611.000
70.08025 587.000
70.10020 628.000
70.12014 600.000
70.14009 571.000
70.16004 583.000
70.17998 629.000
70.19993 558.000
70.21988 574.000
70.23982 572.000
70.25977 576.000
70.27972 589.000
70.29967 661.000
70.31961 602.000
70.33956 549.000
70.35951 585.000
70.37945 536.000
70.39940 622.000
70.41935 577.000
70.43929 586.000
70.45924 563.000
70.47919 598.000
70.49914 585.000
70.51908 600.000
70.53903 578.000
70.55898 636.000
70.57892 570.000
70.59887 609.000
70.61882 621.000
70.63876 644.000
70.65871 561.000
70.67866 603.000
70.69860 557.000
70.71855 599.000
70.73850 584.000
70.75845 587.000
70.77839 574.000
70.79834 590.000
70.81829 613.000
70.83823 564.000
70.85818 590.000
70.87813 616.000
70.89807 572.000
70.91802 563.000
70.93797 601.000
70.95792 628.000
70.97786 602.000
70.99781 612.000
71.01776 568.000
71.03770 593.000
71.05765 593.000
71.07760 574.000
71.09754 615.000
71.11749 558.000
71.13744 578.000
71.15738 555.000
71.17733 557.000
71.19728 581.000
71.21723 575.000
71.23717 604.000
71.25712 666.000
71.27707 576.000
71.29701 584.000
71.31696 624.000
71.33691 599.000
71.35685 608.000
71.37680 615.000
71.39675 661.000
71.41670 612.000
71.43664 617.000
71.45659 607.000
71.47654 647.000
71.49648 610.000
71.51643 606.000
71.53638 596.000
71.55632 621.000
71.57627 587.000
71.59622 593.000
71.61616 580.000
71.63611 626.000
71.65606 610.000
71.67601 636.000
71.69595 570.000
71.71590 649.000
71.73585 639.000
71.75579 600.000
71.77574 650.000
71.79569 638.000
71.81563 632.000
71.83558 613.000
71.85553 697.000
71.87548 624.000
71.89542 618.000
71.91537 663.000
71.93532 582.000
71.95526 629.000
71.97521 653.000
71.99516 696.000
72.01510 702.000
72.03505 713.000
72.05500 712.000
72.07495 757.000
72.09489 722.000
72.11484 776.000
72.13479 722.000
72.15473 699.000
72.17468 687.000
72.19463 710.000
72.21457 692.000
72.23452 739.000
72.25447 685.000
72.27441 693.000
72.29436 664.000
72.31431 730.000
72.33426 739.000
72.35420 634.000
72.37415 697.000
72.39410 734.000
72.41404 661.000
72.43399 657.000
72.45394 657.000
72.47388 642.000
72.49383 656.000
72.51378 641.000
72.53373 665.000
72.55367 655.000
72.57362 632.000
72.59357 624.000
72.61351 672.000
72.63346 604.000
72.65341 571.000
72.67335 634.000
72.69330 600.000
72.71325 675.000
72.73319 632.000
72.75314 630.000
72.77309 613.000
72.79304 663.000
72.81298 647.000
72.83293 596.000
72.85288 642.000
72.87282 683.000
72.89277 634.000
72.91272 623.000
72.93266 640.000
72.95261 653.000
72.97256 634.000
72.99251 627.000
73.01245 606.000
73.03240 615.000
73.05235 639.000
73.07229 620.000
73.09224 642.000
73.11219 667.000
73.13213 605.000
73.15208 610.000
73.17203 593.000
73.19197 630.000
73.21192 615.000
73.23187 653.000
73.25182 666.000
73.27176 644.000
73.29171 688.000
73.31166 639.000
73.33160 643.000
73.35155 662.000
73.37150 711.000
73.39144 650.000
73.41139 618.000
73.43134 652.000
73.45129 643.000
73.47123 633.000
73.49118 661.000
73.51113 638.000
73.53107 643.000
73.55102 647.000
73.57097 665.000
73.59091 648.000
73.61086 631.000
73.63081 649.000
73.65076 644.000
73.67070 647.000
73.69065 644.000
73.71060 678.000
73.73054 680.000
73.75049 656.000
73.77044 647.000
73.79038 638.000
73.81033 711.000
73.83028 610.000
73.85022 683.000
73.87017 651.000
73.89012 674.000
73.91007 721.000
73.93001 701.000
73.94996 662.000
73.96991 659.000
73.98985 681.000
74.00980 709.000
74.02975 690.000
74.04969 668.000
74.06964 675.000
74.08959 699.000
74.10954 697.000
74.12948 719.000
74.14943 684.000
74.16938 739.000
74.18932 705.000
74.20927 723.000
74.22922 753.000
74.24916 730.000
74.26911 740.000
74.28906 781.000
74.30900 737.000
74.32895 853.000
74.34890 758.000
74.36885 764.000
74.38879 834.000
74.40874 928.000
74.42869 861.000
74.44863 869.000
74.46858 886.000
74.48853 931.000
74.50847 913.000
74.52842 942.000
74.54837 986.000
74.56832 986.000
74.58826 992.000
74.60821 983.000
74.62816 1051.000
74.64810 1008.000
74.66805 1011.000
74.68800 1037.000
74.70794 1072.000
74.72789 1034.000
74.74784 1077.000
74.76778 1065.000
74.78773 949.000
74.80768 1048.000
74.82763 1104.000
74.84757 1057.000
74.86752 1054.000
74.88747 1061.000
74.90741 1022.000
74.92736 1001.000
74.94731 959.000
74.96725 986.000
74.98720 960.000
75.00715 996.000
75.02710 952.000
75.04704 939.000
75.06699 959.000
75.08694 903.000
75.10688 891.000
75.12683 902.000
75.14678 915.000
75.16672 900.000
75.18667 897.000
75.20662 761.000
75.22657 821.000
75.24651 854.000
75.26646 800.000
75.28641 778.000
75.30635 755.000
75.32630 752.000
75.34625 765.000
75.36619 773.000
75.38614 726.000
75.40609 740.000
75.42603 761.000
75.44598 752.000
75.46593 716.000
75.48588 766.000
75.50582 739.000
75.52577 774.000
75.54572 773.000
75.56566 742.000
75.58561 707.000
75.60556 723.000
75.62550 679.000
75.64545 715.000
75.66540 675.000
75.68535 677.000
75.70529 698.000
75.72524 689.000
75.74519 647.000
75.76513 676.000
75.78508 720.000
75.80503 698.000
75.82497 655.000
75.84492 650.000
75.86487 657.000
75.88481 644.000
75.90476 655.000
75.92471 672.000
75.94466 635.000
75.96460 642.000
75.98455 648.000
76.00450 640.000
76.02444 561.000
76.04439 611.000
76.06434 614.000
76.08428 607.000
76.10423 620.000
76.12418 622.000
76.14413 624.000
76.16407 646.000
76.18402 590.000
76.20397 630.000
76.22391 609.000
76.24386 595.000
76.26381 625.000
76.28375 607.000
76.30370 574.000
76.32365 618.000
76.34359 574.000
76.36354 619.000
76.38349 612.000
76.40344 582.000
76.42338 626.000
76.44333 610.000
76.46328 571.000
76.48322 640.000
76.50317 591.000
76.52312 547.000
76.54306 568.000
76.56301 656.000
76.58296 630.000
76.60291 573.000
76.62285 630.000
76.64280 574.000
76.66275 617.000
76.68269 615.000
76.70264 588.000
76.72259 602.000
76.74253 628.000
76.76248 628.000
76.78243 592.000
76.80238 609.000
76.82232 590.000
76.84227 598.000
76.86222 673.000
76.88216 557.000
76.90211 598.000
76.92206 604.000
76.94200 621.000
76.96195 583.000
76.98190 561.000
77.00184 610.000
77.02179 537.000
77.04174 613.000
77.06169 625.000
77.08163 638.000
77.10158 580.000
77.12153 598.000
77.14147 595.000
77.16142 599.000
77.18137 638.000
77.20131 606.000
77.22126 601.000
77.24121 628.000
77.26116 635.000
77.28110 591.000
77.30105 571.000
77.32100 581.000
77.34094 581.000
77.36089 619.000
77.38084 558.000
77.40078 584.000
77.42073 589.000
77.44068 602.000
77.46062 570.000
77.48057 611.000
77.50052 613.000
77.52047 581.000
77.54041 634.000
77.56036 571.000
77.58031 615.000
77.60025 579.000
77.62020 625.000
77.64015 553.000
77.66009 603.000
77.68004 552.000
77.69999 593.000
77.71994 566.000
77.73988 578.000
77.75983 564.000
77.77978 579.000
77.79972 591.000
77.81967 611.000
77.83962 545.000
77.85956 579.000
77.87951 593.000
77.89946 616.000
77.91940 571.000
77.93935 640.000
77.95930 629.000
77.97925 585.000
77.99919 600.000
78.01914 594.000
78.03909 584.000
78.05903 621.000
78.07898 632.000
78.09893 614.000
78.11887 630.000
78.13882 633.000
78.15877 647.000
78.17872 651.000
78.19866 620.000
78.21861 634.000
78.23856 700.000
78.25850 679.000
78.27845 663.000
78.29840 699.000
78.31834 757.000
78.33829 762.000
78.35824 725.000
78.37819 788.000
78.39813 832.000
78.41808 859.000
78.43803 924.000
78.45797 902.000
78.47792 940.000
78.49787 998.000
78.51781 984.000
78.53776 989.000
78.55771 1027.000
78.57765 1064.000
78.59760 1091.000
78.61755 1115.000
78.63750 1112.000
78.65744 1116.000
78.67739 1065.000
78.69734 1074.000
78.71728 1071.000
78.73723 986.000
78.75718 1072.000
78.77712 1001.000
78.79707 975.000
78.81702 938.000
78.83697 912.000
78.85691 883.000
78.87686 936.000
78.89681 833.000
78.91675 841.000
78.93670 777.000
78.95665 742.000
78.97659 775.000
78.99654 759.000
79.01649 733.000
79.03643 702.000
79.05638 724.000
79.07633 670.000
79.09628 662.000
79.11622 662.000
79.13617 645.000
79.15612 651.000
79.17606 641.000
79.19601 662.000
79.21596 625.000
79.23590 643.000
79.25585 615.000
79.27580 611.000
79.29575 586.000
79.31569 622.000
79.33564 630.000
79.35559 571.000
79.37553 616.000
79.39548 635.000
79.41543 625.000
79.43537 606.000
79.45532 552.000
79.47527 604.000
79.49521 632.000
79.51516 580.000
79.53511 620.000
79.55506 551.000
79.57500 591.000
79.59495 575.000
79.61490 590.000
79.63484 585.000
79.65479 606.000
79.67474 602.000
79.69468 598.000
79.71463 624.000
79.73458 607.000
79.75453 561.000
79.77447 578.000
79.79442 579.000
79.81437 606.000
79.83431 570.000
79.85426 613.000
79.87421 647.000
79.89415 570.000
79.91410 584.000
79.93405 605.000
79.95399 592.000
79.97394 610.000
79.99389 598.000
80.01384 626.000
80.03378 582.000
80.05373 632.000
80.07368 640.000
80.09362 612.000
80.11357 610.000
80.13352 649.000
80.15346 638.000
80.17341 678.000
80.19336 625.000
80.21331 642.000
80.23325 636.000
80.25320 627.000
80.27315 605.000
80.29309 591.000
80.31304 593.000
80.33299 614.000
80.35293 601.000
80.37288 606.000
80.39283 603.000
80.41278 595.000
80.43272 563.000
80.45267 655.000
80.47262 587.000
80.49256 612.000
80.51251 596.000
80.53246 567.000
80.55240 629.000
80.57235 591.000
80.59230 582.000
80.61224 597.000
80.63219 626.000
80.65214 571.000
80.67209 580.000
80.69203 567.000
80.71198 573.000
80.73193 587.000
80.75187 622.000
80.77182 615.000
80.79177 608.000
80.81171 597.000
80.83166 595.000
80.85161 602.000
80.87156 626.000
80.89150 593.000
80.91145 589.000
80.93140 604.000
80.95134 594.000
80.97129 578.000
80.99124 594.000
81.01118 610.000
81.03113 598.000
81.05108 607.000
81.07102 586.000
81.09097 533.000
81.11092 567.000
81.13087 573.000
81.15081 609.000
81.17076 559.000
81.19071 610.000
81.21065 568.000
81.23060 593.000
81.25055 575.000
81.27049 612.000
81.29044 618.000
81.31039 582.000
81.33034 611.000
81.35028 574.000
81.37023 586.000
81.39018 547.000
81.41012 540.000
81.43007 611.000
81.45002 593.000
81.46996 593.000
81.48991 609.000
81.50986 593.000
81.52980 568.000
81.54975 603.000
81.56970 591.000
81.58965 618.000
81.60959 605.000
81.62954 589.000
81.64949 575.000
81.66943 590.000
81.68938 599.000
81.70933 590.000
81.72927 612.000
81.74922 587.000
81.76917 624.000
81.78912 579.000
81.80906 631.000
81.82901 581.000
81.84896 543.000
81.86890 578.000
81.88885 613.000
81.90880 610.000
81.92874 651.000
81.94869 618.000
81.96864 594.000
81.98859 617.000
82.00853 596.000
82.02848 599.000
82.04843 601.000
82.06837 645.000
82.08832 614.000
82.10827 613.000
82.12821 601.000
82.14816 681.000
82.16811 628.000
82.18805 677.000
82.20800 633.000
82.22795 631.000
82.24790 648.000
82.26784 657.000
82.28779 669.000
82.30774 651.000
82.32768 634.000
82.34763 659.000
82.36758 661.000
82.38752 675.000
82.40747 688.000
82.42742 641.000
82.44737 711.000
82.46731 688.000
82.48726 693.000
82.50721 621.000
82.52715 690.000
82.54710 693.000
82.56705 659.000
82.58699 685.000
82.60694 648.000
82.62689 670.000
82.64683 677.000
82.66678 634.000
82.68673 644.000
82.70668 670.000
82.72662 617.000
82.74657 640.000
82.76652 663.000
82.78646 610.000
82.80641 636.000
82.82636 659.000
82.84630 663.000
82.86625 602.000
82.88620 633.000
82.90615 635.000
82.92609 642.000
82.94604 603.000
82.96599 628.000
82.98593 622.000
83.00588 588.000
83.02583 614.000
83.04577 590.000
83.06572 576.000
83.08567 642.000
83.10561 558.000
83.12556 610.000
83.14551 591.000
83.16546 636.000
83.18540 568.000
83.20535 605.000
83.22530 574.000
83.24524 580.000
83.26519 564.000
83.28514 655.000
83.30508 575.000
83.32503 620.000
83.34498 579.000
83.36493 651.000
83.38487 593.000
83.40482 611.000
83.42477 656.000
83.44471 600.000
83.46466 624.000
83.48461 609.000
83.50455 645.000
83.52450 626.000
83.54445 629.000
83.56440 636.000
83.58434 623.000
83.60429 603.000
83.62424 649.000
83.64418 631.000
83.66413 671.000
83.68408 668.000
83.70402 638.000
83.72397 650.000
83.74392 656.000
83.76386 618.000
83.78381 639.000
83.80376 613.000
83.82371 685.000
83.84365 638.000
83.86360 657.000
83.88355 640.000
83.90349 628.000
83.92344 619.000
83.94339 649.000
83.96333 615.000
83.98328 635.000
84.00323 622.000
84.02318 580.000
84.04312 641.000
84.06307 621.000
84.08302 577.000
84.10296 637.000
84.12291 574.000
84.14286 556.000
84.16280 567.000
84.18275 613.000
84.20270 570.000
84.22264 580.000
84.24259 562.000
84.26254 602.000
84.28249 554.000
84.30243 594.000
84.32238 607.000
84.34233 569.000
84.36227 591.000
84.38222 596.000
84.40217 597.000
84.42211 562.000
84.44206 613.000
84.46201 625.000
84.48196 570.000
84.50190 593.000
84.52185 606.000
84.54180 550.000
84.56174 558.000
84.58169 598.000
84.60164 605.000
84.62158 527.000
84.64153 550.000
84.66148 577.000
84.68142 604.000
84.70137 603.000
84.72132 590.000
84.74127 579.000
84.76121 594.000
84.78116 544.000
84.80111 557.000
84.82105 533.000
84.84100 538.000
84.86095 610.000
84.88089 595.000
84.90084 555.000
84.92079 564.000
84.94074 578.000
84.96068 561.000
84.98063 597.000
85.00058 594.000
85.02052 573.000
85.04047 562.000
85.06042 557.000
85.08036 579.000
85.10031 552.000
85.12026 570.000
85.14021 528.000
85.16015 586.000
85.18010 600.000
85.20005 611.000
85.21999 561.000
85.23994 561.000
85.25989 609.000
85.27983 608.000
85.29978 607.000
85.31973 597.000
85.33967 629.000
85.35962 567.000
85.37957 563.000
85.39952 603.000
85.41946 618.000
85.43941 575.000
85.45936 583.000
85.47930 615.000
85.49925 596.000
85.51920 555.000
85.53914 529.000
85.55909 547.000
85.57904 546.000
85.59899 602.000
85.61893 587.000
85.63888 587.000
85.65883 580.000
85.67877 584.000
85.69872 639.000
85.71867 570.000
85.73861 570.000
85.75856 605.000
85.77851 567.000
85.79845 581.000
85.81840 564.000
85.83835 598.000
85.85830 578.000
85.87824 574.000
85.89819 573.000
85.91814 605.000
85.93808 581.000
85.95803 547.000
85.97798 554.000
85.99792 576.000
86.01787 563.000
86.03782 565.000
86.05777 601.000
86.07771 617.000
86.09766 572.000
86.11761 568.000
86.13755 554.000
86.15750 584.000
86.17745 518.000
86.19739 562.000
86.21734 546.000
86.23729 576.000
86.25723 591.000
86.27718 577.000
86.29713 574.000
86.31708 542.000
86.33702 577.000
86.35697 555.000
86.37692 590.000
86.39686 561.000
86.41681 584.000
86.43676 614.000
86.45670 562.000
86.47665 602.000
86.49660 573.000
86.51655 600.000
86.53649 585.000
86.55644 595.000
86.57639 593.000
86.59633 584.000
86.61628 604.000
86.63623 608.000
86.65617 616.000
86.67612 626.000
86.69607 618.000
86.71602 616.000
86.73596 562.000
86.75591 557.000
86.77586 601.000
86.79580 632.000
86.81575 578.000
86.83570 574.000
86.85564 677.000
86.87559 614.000
86.89554 657.000
86.91548 603.000
86.93543 622.000
86.95538 612.000
86.97533 605.000
86.99527 673.000
87.01522 631.000
87.03517 671.000
87.05511 656.000
87.07506 595.000
87.09501 626.000
87.11495 580.000
87.13490 623.000
87.15485 640.000
87.17480 588.000
87.19474 624.000
87.21469 624.000
87.23464 570.000
87.25458 618.000
87.27453 558.000
87.29448 610.000
87.31442 599.000
87.33437 596.000
87.35432 613.000
87.37426 589.000
87.39421 602.000
87.41416 578.000
87.43411 586.000
87.45405 613.000
87.47400 574.000
87.49395 581.000
87.51389 582.000
87.53384 610.000
87.55379 548.000
87.57373 597.000
87.59368 570.000
87.61363 583.000
87.63358 604.000
87.65352 586.000
87.67347 580.000
87.69342 610.000
87.71336 586.000
87.73331 587.000
87.75326 577.000
87.77320 540.000
87.79315 625.000
87.81310 571.000
87.83304 606.000
87.85299 590.000
87.87294 604.000
87.89289 622.000
87.91283 568.000
87.93278 564.000
87.95273 590.000
87.97267 634.000
87.99262 570.000
88.01257 597.000
88.03251 588.000
88.05246 581.000
88.07241 575.000
88.09236 601.000
88.11230 655.000
88.13225 562.000
88.15220 596.000
88.17214 616.000
88.19209 592.000
88.21204 589.000
88.23198 603.000
88.25193 574.000
88.27188 591.000
88.29183 620.000
88.31177 594.000
88.33172 559.000
88.35167 613.000
88.37161 626.000
88.39156 584.000
88.41151 572.000
88.43145 571.000
88.45140 623.000
88.47135 584.000
88.49129 607.000
88.51124 561.000
88.53119 600.000
88.55114 592.000
88.57108 630.000
88.59103 594.000
88.61098 587.000
88.63092 603.000
88.65087 580.000
88.67082 604.000
88.69076 616.000
88.71071 629.000
88.73066 602.000
88.75061 636.000
88.77055 632.000
88.79050 596.000
88.81045 601.000
88.83039 636.000
88.85034 614.000
88.87029 612.000
88.89023 629.000
88.91018 593.000
88.93013 610.000
88.95007 596.000
88.97002 610.000
88.98997 674.000
89.00992 625.000
89.02986 611.000
89.04981 596.000
89.06976 616.000
89.08970 630.000
89.10965 627.000
89.12960 635.000
89.14954 605.000
89.16949 628.000
89.18944 575.000
89.20939 609.000
89.22933 615.000
89.24928 600.000
89.26923 611.000
89.28917 592.000
89.30912 607.000
89.32907 539.000
89.34901 611.000
89.36896 593.000
89.38891 624.000
89.40885 602.000
89.42880 639.000
89.44875 615.000
89.46870 551.000
89.48864 614.000
89.50859 558.000
89.52854 621.000
89.54848 629.000
89.56843 594.000
89.58838 625.000
89.60832 626.000
89.62827 562.000
89.64822 577.000
89.66817 607.000
89.68811 572.000
89.70806 608.000
89.72801 584.000
89.74795 562.000
89.76790 566.000
89.78785 597.000
89.80779 610.000
89.82774 575.000
89.84769 568.000
89.86764 625.000
89.88758 609.000
89.90753 620.000
89.92748 579.000
89.94742 576.000
89.96737 596.000
89.98732 598.000
90.00726 604.000
