10.00000 247.000
10.01995 260.000
10.03989 258.000
10.05984 261.000
10.07979 240.000
10.09973 247.000
10.11968 264.000
10.13963 221.000
10.15958 238.000
10.17952 244.000
10.19947 245.000
10.21942 250.000
10.23936 260.000
10.25931 277.000
10.27926 251.000
10.29920 260.000
10.31915 259.000
10.33910 257.000
10.35905 258.000
10.37899 238.000
10.39894 262.000
10.41889 240.000
10.43883 261.000
10.45878 260.000
10.47873 249.000
10.49867 232.000
10.51862 257.000
10.53857 230.000
10.55851 272.000
10.57846 257.000
10.59841 245.000
10.61836 262.000
10.63830 235.000
10.65825 239.000
10.67820 238.000
10.69814 226.000
10.71809 257.000
10.73804 244.000
10.75798 247.000
10.77793 258.000
10.79788 272.000
10.81783 226.000
10.83777 256.000
10.85772 248.000
10.87767 221.000
10.89761 244.000
10.91756 255.000
10.93751 234.000
10.95745 221.000
10.97740 259.000
10.99735 245.000
11.01730 268.000
11.03724 215.000
11.05719 235.000
11.07714 243.000
11.09708 237.000
11.11703 234.000
11.13698 243.000
11.15692 257.000
11.17687 265.000
11.19682 231.000
11.21676 234.000
11.23671 250.000
11.25666 263.000
11.27661 254.000
11.29655 236.000
11.31650 251.000
11.33645 246.000
11.35639 220.000
11.37634 253.000
11.39629 272.000
11.41623 245.000
11.43618 255.000
11.45613 274.000
11.47608 278.000
11.49602 253.000
11.51597 235.000
11.53592 273.000
11.55586 245.000
11.57581 230.000
11.59576 238.000
11.61570 249.000
11.63565 215.000
11.65560 244.000
11.67554 244.000
11.69549 257.000
11.71544 213.000
11.73539 255.000
11.75533 261.000
11.77528 240.000
11.79523 239.000
11.81517 233.000
11.83512 232.000
11.85507 266.000
11.87501 247.000
11.89496 252.000
11.91491 283.000
11.93486 246.000
11.95480 260.000
11.97475 230.000
11.99470 256.000
12.01464 249.000
12.03459 247.000
12.05454 268.000
12.07448 247.000
12.09443 229.000
12.11438 226.000
12.13432 258.000
12.15427 216.000
12.17422 238.000
12.19417 245.000
12.21411 227.000
12.23406 237.000
12.25401 244.000
12.27395 244.000
12.29390 238.000
12.31385 212.000
12.33379 227.000
12.35374 225.000
12.37369 239.000
12.39364 252.000
12.41358 236.000
12.43353 245.000
12.45348 259.000
12.47342 264.000
12.49337 286.000
12.51332 255.000
12.53326 235.000
12.55321 262.000
12.57316 226.000
12.59311 246.000
12.61305 250.000
12.63300 242.000
12.65295 263.000
12.67289 253.000
12.69284 230.000
12.71279 251.000
12.73273 219.000
12.75268 217.000
12.77263 215.000
12.79257 260.000
12.81252 245.000
12.83247 250.000
12.85242 249.000
12.87236 217.000
12.89231 212.000
12.91226 264.000
12.93220 235.000
12.95215 254.000
12.97210 246.000
12.99204 240.000
13.01199 243.000
13.03194 241.000
13.05189 259.000
13.07183 259.000
13.09178 217.000
13.11173 238.000
13.13167 248.000
13.15162 250.000
13.17157 254.000
13.19151 247.000
13.21146 265.000
13.23141 251.000
13.25135 242.000
13.27130 239.000
13.29125 232.000
13.31120 217.000
13.33114 260.000
13.35109 249.000
13.37104 242.000
13.39098 218.000
13.41093 238.000
13.43088 256.000
13.45082 226.000
13.47077 246.000
13.49072 251.000
13.51067 231.000
13.53061 248.000
13.55056 255.000
13.57051 244.000
13.59045 221.000
13.61040 270.000
13.63035 260.000
13.65029 252.000
13.67024 233.000
13.69019 248.000
13.71013 277.000
13.73008 235.000
13.75003 254.000
13.76998 233.000
13.78992 235.000
13.80987 213.000
13.82982 236.000
13.84976 267.000
13.86971 223.000
13.88966 250.000
13.90960 206.000
13.92955 247.000
13.94950 253.000
13.96945 254.000
13.98939 250.000
14.00934 242.000
14.02929 261.000
14.04923 234.000
14.06918 213.000
14.08913 219.000
14.10907 235.000
14.12902 264.000
14.14897 243.000
14.16892 231.000
14.18886 246.000
14.20881 260.000
14.22876 240.000
14.24870 252.000
14.26865 235.000
14.28860 226.000
14.30854 231.000
14.32849 258.000
14.34844 262.000
14.36838 261.000
14.38833 228.000
14.40828 253.000
14.42823 239.000
14.44817 274.000
14.46812 249.000
14.48807 255.000
14.50801 250.000
14.52796 229.000
14.54791 219.000
14.56785 248.000
14.58780 225.000
14.60775 237.000
14.62770 254.000
14.64764 223.000
14.66759 190.000
14.68754 240.000
14.70748 247.000
14.72743 256.000
14.74738 245.000
14.76732 269.000
14.78727 243.000
14.80722 262.000
14.82716 249.000
14.84711 251.000
14.86706 259.000
14.88701 239.000
14.90695 263.000
14.92690 242.000
14.94685 237.000
14.96679 232.000
14.98674 244.000
15.00669 215.000
15.02663 242.000
15.04658 234.000
15.06653 216.000
15.08648 228.000
15.10642 212.000
15.12637 238.000
15.14632 234.000
15.16626 258.000
15.18621 268.000
15.20616 235.000
15.22610 275.000
15.24605 259.000
15.26600 258.000
15.28594 227.000
15.30589 232.000
15.32584 224.000
15.34579 235.000
15.36573 253.000
15.38568 241.000
15.40563 238.000
15.42557 276.000
15.44552 239.000
15.46547 242.000
15.48541 217.000
15.50536 253.000
15.52531 262.000
15.54526 210.000
15.56520 245.000
15.58515 230.000
15.60510 242.000
15.62504 262.000
15.64499 234.000
15.66494 256.000
15.68488 253.000
15.70483 243.000
15.72478 267.000
15.74472 240.000
15.76467 271.000
15.78462 242.000
15.80457 233.000
15.82451 253.000
15.84446 246.000
15.86441 229.000
15.88435 247.000
15.90430 262.000
15.92425 230.000
15.94419 265.000
15.96414 220.000
15.98409 229.000
16.00404 267.000
16.02398 219.000
16.04393 274.000
16.06388 248.000
16.08382 230.000
16.10377 212.000
16.12372 246.000
16.14366 280.000
16.16361 228.000
16.18356 226.000
16.20351 248.000
16.22345 241.000
16.24340 238.000
16.26335 249.000
16.28329 223.000
16.30324 235.000
16.32319 245.000
16.34313 236.000
16.36308 230.000
16.38303 222.000
16.40297 230.000
16.42292 265.000
16.44287 239.000
16.46282 294.000
16.48276 260.000
16.50271 244.000
16.52266 251.000
16.54260 270.000
16.56255 242.000
16.58250 261.000
16.60244 206.000
16.62239 246.000
16.64234 274.000
16.66229 256.000
16.68223 241.000
16.70218 233.000
16.72213 254.000
16.74207 241.000
16.76202 260.000
16.78197 257.000
16.80191 262.000
16.82186 252.000
16.84181 230.000
16.86175 261.000
16.88170 235.000
16.90165 252.000
16.92160 245.000
16.94154 266.000
16.96149 245.000
16.98144 236.000
17.00138 242.000
17.02133 247.000
17.04128 219.000
17.06122 230.000
17.08117 260.000
17.10112 246.000
17.12107 259.000
17.14101 251.000
17.16096 235.000
17.18091 228.000
17.20085 239.000
17.22080 231.000
17.24075 249.000
17.26069 234.000
17.28064 226.000
17.30059 277.000
17.32053 244.000
17.34048 241.000
17.36043 244.000
17.38038 256.000
17.40032 232.000
17.42027 233.000
17.44022 238.000
17.46016 243.000
17.48011 240.000
17.50006 268.000
17.52000 246.000
17.53995 240.000
17.55990 255.000
17.57985 237.000
17.59979 236.000
17.61974 212.000
17.63969 267.000
17.65963 238.000
17.67958 226.000
17.69953 221.000
17.71947 273.000
17.73942 249.000
17.75937 249.000
17.77932 242.000
17.79926 246.000
17.81921 187.000
17.83916 251.000
17.85910 242.000
17.87905 255.000
17.89900 225.000
17.91894 242.000
17.93889 253.000
17.95884 239.000
17.97878 253.000
17.99873 208.000
18.01868 261.000
18.03863 235.000
18.05857 239.000
18.07852 253.000
18.09847 265.000
18.11841 255.000
18.13836 245.000
18.15831 287.000
18.17825 280.000
18.19820 293.000
18.21815 325.000
18.23810 412.000
18.25804 567.000
18.27799 683.000
18.29794 650.000
18.31788 557.000
18.33783 441.000
18.35778 384.000
18.37772 284.000
18.39767 266.000
18.41762 244.000
18.43756 270.000
18.45751 247.000
18.47746 245.000
18.49741 265.000
18.51735 245.000
18.53730 238.000
18.55725 222.000
18.57719 251.000
18.59714 263.000
18.61709 243.000
18.63703 229.000
18.65698 242.000
18.67693 234.000
18.69688 248.000
18.71682 215.000
18.73677 248.000
18.75672 252.000
18.77666 252.000
18.79661 243.000
18.81656 235.000
18.83650 248.000
18.85645 240.000
18.87640 233.000
18.89634 248.000
18.91629 246.000
18.93624 251.000
18.95619 236.000
18.97613 234.000
18.99608 250.000
19.01603 267.000
19.03597 263.000
19.05592 252.000
19.07587 278.000
19.09581 224.000
19.11576 247.000
19.13571 241.000
19.15566 246.000
19.17560 220.000
19.19555 277.000
19.21550 278.000
19.23544 257.000
19.25539 275.000
19.27534 263.000
19.29528 234.000
19.31523 254.000
19.33518 238.000
19.35513 268.000
19.37507 224.000
19.39502 241.000
19.41497 236.000
19.43491 251.000
19.45486 259.000
19.47481 251.000
19.49475 243.000
19.51470 263.000
19.53465 251.000
19.55459 244.000
19.57454 234.000
19.59449 251.000
19.61444 248.000
19.63438 259.000
19.65433 298.000
19.67428 244.000
19.69422 247.000
19.71417 271.000
19.73412 255.000
19.75406 259.000
19.77401 251.000
19.79396 243.000
19.81391 251.000
19.83385 240.000
19.85380 222.000
19.87375 263.000
19.89369 262.000
19.91364 297.000
19.93359 324.000
19.95353 396.000
19.97348 339.000
19.99343 329.000
20.01337 346.000
20.03332 310.000
20.05327 257.000
20.07322 266.000
20.09316 263.000
20.11311 258.000
20.13306 248.000
20.15300 264.000
20.17295 240.000
20.19290 235.000
20.21284 255.000
20.23279 266.000
20.25274 274.000
20.27269 230.000
20.29263 285.000
20.31258 246.000
20.33253 280.000
20.35247 261.000
20.37242 285.000
20.39237 267.000
20.41231 336.000
20.43226 370.000
20.45221 482.000
20.47215 554.000
20.49210 678.000
20.51205 702.000
20.53200 742.000
20.55194 715.000
20.57189 737.000
20.59184 802.000
20.61178 843.000
20.63173 836.000
20.65168 829.000
20.67162 752.000
20.69157 681.000
20.71152 610.000
20.73147 624.000
20.75141 583.000
20.77136 557.000
20.79131 575.000
20.81125 520.000
20.83120 570.000
20.85115 505.000
20.87109 483.000
20.89104 482.000
20.91099 483.000
20.93094 436.000
20.95088 351.000
20.97083 349.000
20.99078 342.000
21.01072 318.000
21.03067 312.000
21.05062 326.000
21.07056 322.000
21.09051 312.000
21.11046 306.000
21.13040 303.000
21.15035 289.000
21.17030 259.000
21.19025 242.000
21.21019 278.000
21.23014 273.000
21.25009 243.000
21.27003 251.000
21.28998 254.000
21.30993 273.000
21.32987 234.000
21.34982 243.000
21.36977 250.000
21.38972 243.000
21.40966 239.000
21.42961 244.000
21.44956 261.000
21.46950 266.000
21.48945 259.000
21.50940 265.000
21.52934 268.000
21.54929 252.000
21.56924 285.000
21.58918 269.000
21.60913 237.000
21.62908 249.000
21.64903 246.000
21.66897 230.000
21.68892 270.000
21.70887 221.000
21.72881 264.000
21.74876 257.000
21.76871 246.000
21.78865 248.000
21.80860 250.000
21.82855 279.000
21.84850 230.000
21.86844 260.000
21.88839 255.000
21.90834 266.000
21.92828 234.000
21.94823 266.000
21.96818 236.000
21.98812 241.000
22.00807 241.000
22.02802 274.000
22.04796 238.000
22.06791 255.000
22.08786 233.000
22.10781 267.000
22.12775 252.000
22.14770 227.000
22.16765 256.000
22.18759 239.000
22.20754 248.000
22.22749 257.000
22.24743 252.000
22.26738 258.000
22.28733 234.000
22.30728 238.000
22.32722 232.000
22.34717 245.000
22.36712 247.000
22.38706 265.000
22.40701 234.000
22.42696 256.000
22.44690 255.000
22.46685 272.000
22.48680 254.000
22.50675 242.000
22.52669 235.000
22.54664 240.000
22.56659 227.000
22.58653 252.000
22.60648 242.000
22.62643 231.000
22.64637 217.000
22.66632 263.000
22.68627 264.000
22.70621 269.000
22.72616 246.000
22.74611 237.000
22.76606 243.000
22.78600 246.000
22.80595 243.000
22.82590 243.000
22.84584 274.000
22.86579 234.000
22.88574 253.000
22.90568 238.000
22.92563 244.000
22.94558 245.000
22.96553 252.000
22.98547 260.000
23.00542 257.000
23.02537 234.000
23.04531 291.000
23.06526 294.000
23.08521 267.000
23.10515 247.000
23.12510 237.000
23.14505 261.000
23.16499 267.000
23.18494 266.000
23.20489 261.000
23.22484 252.000
23.24478 265.000
23.26473 240.000
23.28468 262.000
23.30462 241.000
23.32457 243.000
23.34452 259.000
23.36446 231.000
23.38441 229.000
23.40436 245.000
23.42431 272.000
23.44425 240.000
23.46420 269.000
23.48415 226.000
23.50409 258.000
23.52404 263.000
23.54399 266.000
23.56393 274.000
23.58388 258.000
23.60383 269.000
23.62377 257.000
23.64372 247.000
23.66367 264.000
23.68362 283.000
23.70356 268.000
23.72351 269.000
23.74346 270.000
23.76340 256.000
23.78335 249.000
23.80330 264.000
23.82324 257.000
23.84319 255.000
23.86314 273.000
23.88309 252.000
23.90303 265.000
23.92298 234.000
23.94293 277.000
23.96287 251.000
23.98282 266.000
24.00277 257.000
24.02271 228.000
24.04266 260.000
24.06261 265.000
24.08256 280.000
24.10250 287.000
24.12245 244.000
24.14240 259.000
24.16234 223.000
24.18229 242.000
24.20224 270.000
24.22218 276.000
24.24213 256.000
24.26208 260.000
24.28202 277.000
24.30197 259.000
24.32192 260.000
24.34187 240.000
24.36181 262.000
24.38176 252.000
24.40171 262.000
24.42165 267.000
24.44160 272.000
24.46155 239.000
24.48149 254.000
24.50144 259.000
24.52139 257.000
24.54134 265.000
24.56128 233.000
24.58123 264.000
24.60118 268.000
24.62112 282.000
24.64107 242.000
24.66102 267.000
24.68096 272.000
24.70091 268.000
24.72086 263.000
24.74080 281.000
24.76075 264.000
24.78070 290.000
24.80065 274.000
24.82059 272.000
24.84054 277.000
24.86049 258.000
24.88043 273.000
24.90038 301.000
24.92033 219.000
24.94027 315.000
24.96022 248.000
24.98017 244.000
25.00012 268.000
25.02006 254.000
25.04001 248.000
25.05996 256.000
25.07990 260.000
25.09985 240.000
25.11980 273.000
25.13974 267.000
25.15969 261.000
25.17964 246.000
25.19958 262.000
25.21953 271.000
25.23948 251.000
25.25943 275.000
25.27937 281.000
25.29932 262.000
25.31927 263.000
25.33921 234.000
25.35916 253.000
25.37911 243.000
25.39905 255.000
25.41900 263.000
25.43895 283.000
25.45890 278.000
25.47884 266.000
25.49879 260.000
25.51874 258.000
25.53868 251.000
25.55863 268.000
25.57858 262.000
25.59852 253.000
25.61847 263.000
25.63842 282.000
25.65837 279.000
25.67831 252.000
25.69826 257.000
25.71821 270.000
25.73815 285.000
25.75810 267.000
25.77805 256.000
25.79799 290.000
25.81794 293.000
25.83789 276.000
25.85783 275.000
25.87778 280.000
25.89773 290.000
25.91768 315.000
25.93762 289.000
25.95757 274.000
25.97752 269.000
25.99746 290.000
26.01741 276.000
26.03736 305.000
26.05730 287.000
26.07725 283.000
26.09720 293.000
26.11715 324.000
26.13709 287.000
26.15704 287.000
26.17699 284.000
26.19693 264.000
26.21688 276.000
26.23683 272.000
26.25677 288.000
26.27672 272.000
26.29667 306.000
26.31661 231.000
26.33656 284.000
26.35651 291.000
26.37646 269.000
26.39640 272.000
26.41635 253.000
26.43630 256.000
26.45624 266.000
26.47619 281.000
26.49614 274.000
26.51608 275.000
26.53603 291.000
26.55598 292.000
26.57593 320.000
26.59587 295.000
26.61582 281.000
26.63577 284.000
26.65571 292.000
26.67566 292.000
26.69561 292.000
26.71555 251.000
26.73550 330.000
26.75545 258.000
26.77539 255.000
26.79534 266.000
26.81529 266.000
26.83524 282.000
26.85518 289.000
26.87513 260.000
26.89508 258.000
26.91502 275.000
26.93497 276.000
26.95492 262.000
26.97486 260.000
26.99481 284.000
27.01476 281.000
27.03471 270.000
27.05465 285.000
27.07460 298.000
27.09455 268.000
27.11449 279.000
27.13444 276.000
27.15439 265.000
27.17433 254.000
27.19428 286.000
27.21423 285.000
27.23417 268.000
27.25412 282.000
27.27407 285.000
27.29402 274.000
27.31396 276.000
27.33391 275.000
27.35386 278.000
27.37380 301.000
27.39375 295.000
27.41370 276.000
27.43364 260.000
27.45359 282.000
27.47354 278.000
27.49349 261.000
27.51343 273.000
27.53338 303.000
27.55333 304.000
27.57327 270.000
27.59322 286.000
27.61317 273.000
27.63311 289.000
27.65306 291.000
27.67301 304.000
27.69296 296.000
27.71290 292.000
27.73285 288.000
27.75280 289.000
27.77274 283.000
27.79269 269.000
27.81264 262.000
27.83258 268.000
27.85253 265.000
27.87248 276.000
27.89242 333.000
27.91237 300.000
27.93232 290.000
27.95227 297.000
27.97221 286.000
27.99216 308.000
28.01211 257.000
28.03205 283.000
28.05200 294.000
28.07195 288.000
28.09189 256.000
28.11184 308.000
28.13179 294.000
28.15174 285.000
28.17168 257.000
28.19163 279.000
28.21158 257.000
28.23152 275.000
28.25147 293.000
28.27142 253.000
28.29136 268.000
28.31131 258.000
28.33126 294.000
28.35120 285.000
28.37115 259.000
28.39110 287.000
28.41105 269.000
28.43099 278.000
28.45094 260.000
28.47089 285.000
28.49083 303.000
28.51078 278.000
28.53073 294.000
28.55067 261.000
28.57062 288.000
28.59057 283.000
28.61052 277.000
28.63046 266.000
28.65041 293.000
28.67036 278.000
28.69030 303.000
28.71025 288.000
28.73020 265.000
28.75014 287.000
28.77009 315.000
28.79004 290.000
28.80998 285.000
28.82993 274.000
28.84988 279.000
28.86983 248.000
28.88977 284.000
28.90972 298.000
28.92967 293.000
28.94961 268.000
28.96956 315.000
28.98951 294.000
29.00945 283.000
29.02940 260.000
29.04935 295.000
29.06930 263.000
29.08924 274.000
29.10919 283.000
29.12914 315.000
29.14908 301.000
29.16903 274.000
29.18898 303.000
29.20892 268.000
29.22887 297.000
29.24882 314.000
29.26877 275.000
29.28871 316.000
29.30866 286.000
29.32861 268.000
29.34855 274.000
29.36850 274.000
29.38845 284.000
29.40839 300.000
29.42834 304.000
29.44829 321.000
29.46823 361.000
29.48818 351.000
29.50813 390.000
29.52808 409.000
29.54802 421.000
29.56797 340.000
29.58792 355.000
29.60786 374.000
29.62781 321.000
29.64776 301.000
29.66770 341.000
29.68765 278.000
29.70760 334.000
29.72755 321.000
29.74749 325.000
29.76744 344.000
29.78739 311.000
29.80733 304.000
29.82728 341.000
29.84723 338.000
29.86717 336.000
29.88712 336.000
29.90707 345.000
29.92701 370.000
29.94696 433.000
29.96691 464.000
29.98686 532.000
30.00680 626.000
30.02675 813.000
30.04670 869.000
30.06664 857.000
30.08659 887.000
30.10654 934.000
30.12648 881.000
30.14643 740.000
30.16638 661.000
30.18633 584.000
30.20627 467.000
30.22622 483.000
30.24617 418.000
30.26611 348.000
30.28606 364.000
30.30601 339.000
30.32595 310.000
30.34590 323.000
30.36585 328.000
30.38579 319.000
30.40574 300.000
30.42569 300.000
30.44564 287.000
30.46558 287.000
30.48553 317.000
30.50548 311.000
30.52542 301.000
30.54537 306.000
30.56532 291.000
30.58526 282.000
30.60521 290.000
30.62516 306.000
30.64511 289.000
30.66505 280.000
30.68500 325.000
30.70495 297.000
30.72489 284.000
30.74484 294.000
30.76479 300.000
30.78473 317.000
30.80468 310.000
30.82463 299.000
30.84458 318.000
30.86452 333.000
30.88447 307.000
30.90442 296.000
30.92436 318.000
30.94431 291.000
30.96426 295.000
30.98420 275.000
31.00415 279.000
31.02410 287.000
31.04404 302.000
31.06399 294.000
31.08394 290.000
31.10389 291.000
31.12383 268.000
31.14378 321.000
31.16373 306.000
31.18367 302.000
31.20362 291.000
31.22357 313.000
31.24351 309.000
31.26346 283.000
31.28341 306.000
31.30336 306.000
31.32330 282.000
31.34325 316.000
31.36320 303.000
31.38314 284.000
31.40309 287.000
31.42304 287.000
31.44298 320.000
31.46293 333.000
31.48288 365.000
31.50282 382.000
31.52277 354.000
31.54272 367.000
31.56267 348.000
31.58261 363.000
31.60256 344.000
31.62251 323.000
31.64245 305.000
31.66240 291.000
31.68235 290.000
31.70229 330.000
31.72224 322.000
31.74219 290.000
31.76214 283.000
31.78208 291.000
31.80203 319.000
31.82198 294.000
31.84192 301.000
31.86187 314.000
31.88182 302.000
31.90176 279.000
31.92171 272.000
31.94166 284.000
31.96160 301.000
31.98155 317.000
32.00150 311.000
32.02145 269.000
32.04139 313.000
32.06134 309.000
32.08129 310.000
32.10123 302.000
32.12118 314.000
32.14113 292.000
32.16107 345.000
32.18102 323.000
32.20097 334.000
32.22092 325.000
32.24086 297.000
32.26081 334.000
32.28076 294.000
32.30070 299.000
32.32065 334.000
32.34060 340.000
32.36054 311.000
32.38049 329.000
32.40044 331.000
32.42039 380.000
32.44033 386.000
32.46028 402.000
32.48023 476.000
32.50017 535.000
32.52012 556.000
32.54007 493.000
32.56001 473.000
32.57996 472.000
32.59991 442.000
32.61985 431.000
32.63980 373.000
32.65975 401.000
32.67970 298.000
32.69964 314.000
32.71959 332.000
32.73954 300.000
32.75948 305.000
32.77943 296.000
32.79938 320.000
32.81932 288.000
32.83927 311.000
32.85922 322.000
32.87917 331.000
32.89911 310.000
32.91906 295.000
32.93901 298.000
32.95895 332.000
32.97890 284.000
32.99885 300.000
33.01879 297.000
33.03874 321.000
33.05869 308.000
33.07863 327.000
33.09858 332.000
33.11853 316.000
33.13848 337.000
33.15842 338.000
33.17837 315.000
33.19832 369.000
33.21826 412.000
33.23821 435.000
33.25816 381.000
33.27810 378.000
33.29805 366.000
33.31800 403.000
33.33795 414.000
33.35789 428.000
33.37784 389.000
33.39779 333.000
33.41773 358.000
33.43768 368.000
33.45763 401.000
33.47757 367.000
33.49752 372.000
33.51747 413.000
33.53741 385.000
33.55736 408.000
33.57731 409.000
33.59726 370.000
33.61720 391.000
33.63715 387.000
33.65710 407.000
33.67704 436.000
33.69699 471.000
33.71694 465.000
33.73688 479.000
33.75683 523.000
33.77678 527.000
33.79673 625.000
33.81667 588.000
33.83662 676.000
33.85657 653.000
33.87651 639.000
33.89646 668.000
33.91641 712.000
33.93635 695.000
33.95630 713.000
33.97625 864.000
33.99620 751.000
34.01614 700.000
34.03609 664.000
34.05604 648.000
34.07598 672.000
34.09593 618.000
34.11588 688.000
34.13582 621.000
34.15577 593.000
34.17572 567.000
34.19566 596.000
34.21561 594.000
34.23556 568.000
34.25551 555.000
34.27545 536.000
34.29540 519.000
34.31535 519.000
34.33529 485.000
34.35524 506.000
34.37519 510.000
34.39513 529.000
34.41508 493.000
34.43503 534.000
34.45498 505.000
34.47492 512.000
34.49487 457.000
34.51482 468.000
34.53476 447.000
34.55471 413.000
34.57466 430.000
34.59460 396.000
34.61455 369.000
34.63450 408.000
34.65444 361.000
34.67439 371.000
34.69434 362.000
34.71429 371.000
34.73423 360.000
34.75418 373.000
34.77413 411.000
34.79407 363.000
34.81402 362.000
34.83397 375.000
34.85391 365.000
34.87386 376.000
34.89381 408.000
34.91376 385.000
34.93370 404.000
34.95365 393.000
34.97360 370.000
34.99354 397.000
35.01349 410.000
35.03344 380.000
35.05338 425.000
35.07333 417.000
35.09328 451.000
35.11322 446.000
35.13317 470.000
35.15312 529.000
35.17307 506.000
35.19301 567.000
35.21296 620.000
35.23291 639.000
35.25285 714.000
35.27280 885.000
35.29275 982.000
35.31269 1107.000
35.33264 1385.000
35.35259 1725.000
35.37254 2064.000
35.39248 2514.000
35.41243 2817.000
35.43238 3146.000
35.45232 3147.000
35.47227 3114.000
35.49222 3138.000
35.51216 3515.000
35.53211 3861.000
35.55206 3495.000
35.57201 2697.000
35.59195 2242.000
35.61190 2266.000
35.63185 1996.000
35.65179 1717.000
35.67174 1295.000
35.69169 1033.000
35.71163 854.000
35.73158 724.000
35.75153 708.000
35.77147 616.000
35.79142 508.000
35.81137 553.000
35.83132 472.000
35.85126 448.000
35.87121 403.000
35.89116 406.000
35.91110 436.000
35.93105 398.000
35.95100 389.000
35.97094 419.000
35.99089 368.000
36.01084 375.000
36.03079 380.000
36.05073 365.000
36.07068 392.000
36.09063 358.000
36.11057 383.000
36.13052 326.000
36.15047 366.000
36.17041 353.000
36.19036 339.000
36.21031 330.000
36.23025 322.000
36.25020 378.000
36.27015 312.000
36.29010 306.000
36.31004 309.000
36.32999 302.000
36.34994 336.000
36.36988 341.000
36.38983 287.000
36.40978 338.000
36.42972 306.000
36.44967 300.000
36.46962 342.000
36.48957 316.000
36.50951 318.000
36.52946 295.000
36.54941 303.000
36.56935 319.000
36.58930 284.000
36.60925 300.000
36.62919 311.000
36.64914 247.000
36.66909 275.000
36.68903 290.000
36.70898 263.000
36.72893 287.000
36.74888 309.000
36.76882 305.000
36.78877 308.000
36.80872 291.000
36.82866 285.000
36.84861 281.000
36.86856 318.000
36.88850 286.000
36.90845 305.000
36.92840 291.000
36.94835 366.000
36.96829 303.000
36.98824 373.000
37.00819 427.000
37.02813 471.000
37.04808 463.000
37.06803 427.000
37.08797 454.000
37.10792 456.000
37.12787 438.000
37.14781 407.000
37.16776 379.000
37.18771 361.000
37.20766 344.000
37.22760 340.000
37.24755 306.000
37.26750 358.000
37.28744 344.000
37.30739 345.000
37.32734 323.000
37.34728 313.000
37.36723 309.000
37.38718 282.000
37.40713 290.000
37.42707 297.000
37.44702 327.000
37.46697 316.000
37.48691 316.000
37.50686 328.000
37.52681 315.000
37.54675 303.000
37.56670 311.000
37.58665 262.000
37.60660 309.000
37.62654 313.000
37.64649 318.000
37.66644 315.000
37.68638 314.000
37.70633 324.000
37.72628 281.000
37.74622 311.000
37.76617 291.000
37.78612 283.000
37.80606 296.000
37.82601 286.000
37.84596 334.000
37.86591 329.000
37.88585 317.000
37.90580 324.000
37.92575 349.000
37.94569 336.000
37.96564 341.000
37.98559 355.000
38.00553 309.000
38.02548 345.000
38.04543 339.000
38.06538 361.000
38.08532 314.000
38.10527 322.000
38.12522 341.000
38.14516 304.000
38.16511 347.000
38.18506 336.000
38.20500 355.000
38.22495 339.000
38.24490 332.000
38.26484 397.000
38.28479 347.000
38.30474 419.000
38.32469 345.000
38.34463 383.000
38.36458 374.000
38.38453 426.000
38.40447 404.000
38.42442 436.000
38.44437 393.000
38.46431 424.000
38.48426 491.000
38.50421 436.000
38.52416 523.000
38.54410 541.000
38.56405 624.000
38.58400 687.000
38.60394 749.000
38.62389 863.000
38.64384 967.000
38.66378 1121.000
38.68373 1509.000
38.70368 1800.000
38.72362 2091.000
38.74357 2083.000
38.76352 1774.000
38.78347 1715.000
38.80341 1634.000
38.82336 1571.000
38.84331 1460.000
38.86325 1312.000
38.88320 1131.000
38.90315 1034.000
38.92309 1038.000
38.94304 911.000
38.96299 817.000
38.98294 778.000
39.00288 648.000
39.02283 680.000
39.04278 663.000
39.06272 593.000
39.08267 490.000
39.10262 465.000
39.12256 415.000
39.14251 393.000
39.16246 379.000
39.18241 352.000
39.20235 367.000
39.22230 335.000
39.24225 388.000
39.26219 351.000
39.28214 373.000
39.30209 348.000
39.32203 328.000
39.34198 330.000
39.36193 317.000
39.38187 336.000
39.40182 330.000
39.42177 302.000
39.44172 309.000
39.46166 318.000
39.48161 294.000
39.50156 301.000
39.52150 300.000
39.54145 290.000
39.56140 312.000
39.58134 305.000
39.60129 266.000
39.62124 295.000
39.64119 297.000
39.66113 266.000
39.68108 295.000
39.70103 304.000
39.72097 308.000
39.74092 309.000
39.76087 280.000
39.78081 282.000
39.80076 314.000
39.82071 315.000
39.84065 309.000
39.86060 320.000
39.88055 279.000
39.90050 284.000
39.92044 279.000
39.94039 281.000
39.96034 304.000
39.98028 292.000
40.00023 302.000
40.02018 285.000
40.04012 278.000
40.06007 307.000
40.08002 320.000
40.09997 310.000
40.11991 313.000
40.13986 277.000
40.15981 281.000
40.17975 278.000
40.19970 297.000
40.21965 287.000
40.23959 276.000
40.25954 328.000
40.27949 301.000
40.29943 309.000
40.31938 303.000
40.33933 249.000
40.35928 297.000
40.37922 290.000
40.39917 321.000
40.41912 291.000
40.43906 306.000
40.45901 304.000
40.47896 283.000
40.49890 285.000
40.51885 289.000
40.53880 285.000
40.55875 313.000
40.57869 274.000
40.59864 282.000
40.61859 248.000
40.63853 268.000
40.65848 302.000
40.67843 262.000
40.69837 247.000
40.71832 289.000
40.73827 311.000
40.75822 289.000
40.77816 285.000
40.79811 303.000
40.81806 282.000
40.83800 297.000
40.85795 295.000
40.87790 313.000
40.89784 309.000
40.91779 268.000
40.93774 271.000
40.95768 311.000
40.97763 318.000
40.99758 271.000
41.01753 294.000
41.03747 313.000
41.05742 259.000
41.07737 284.000
41.09731 284.000
41.11726 260.000
41.13721 280.000
41.15715 273.000
41.17710 281.000
41.19705 308.000
41.21700 279.000
41.23694 286.000
41.25689 280.000
41.27684 266.000
41.29678 289.000
41.31673 309.000
41.33668 284.000
41.35662 270.000
41.37657 321.000
41.39652 280.000
41.41646 296.000
41.43641 291.000
41.45636 296.000
41.47631 269.000
41.49625 285.000
41.51620 295.000
41.53615 277.000
41.55609 289.000
41.57604 299.000
41.59599 267.000
41.61593 307.000
41.63588 262.000
41.65583 266.000
41.67578 268.000
41.69572 291.000
41.71567 272.000
41.73562 286.000
41.75556 294.000
41.77551 307.000
41.79546 290.000
41.81540 326.000
41.83535 317.000
41.85530 279.000
41.87524 253.000
41.89519 257.000
41.91514 296.000
41.93509 251.000
41.95503 306.000
41.97498 273.000
41.99493 258.000
42.01487 264.000
42.03482 322.000
42.05477 284.000
42.07471 261.000
42.09466 311.000
42.11461 264.000
42.13456 305.000
42.15450 301.000
42.17445 304.000
42.19440 287.000
42.21434 305.000
42.23429 263.000
42.25424 272.000
42.27418 281.000
42.29413 293.000
42.31408 307.000
42.33403 264.000
42.35397 290.000
42.37392 293.000
42.39387 263.000
42.41381 295.000
42.43376 296.000
42.45371 318.000
42.47365 305.000
42.49360 298.000
42.51355 329.000
42.53349 290.000
42.55344 326.000
42.57339 302.000
42.59334 268.000
42.61328 318.000
42.63323 315.000
42.65318 301.000
42.67312 298.000
42.69307 294.000
42.71302 282.000
42.73296 339.000
42.75291 271.000
42.77286 309.000
42.79281 337.000
42.81275 325.000
42.83270 346.000
42.85265 385.000
42.87259 359.000
42.89254 431.000
42.91249 426.000
42.93243 446.000
42.95238 464.000
42.97233 529.000
42.99227 497.000
43.01222 500.000
43.03217 565.000
43.05212 542.000
43.07206 577.000
43.09201 534.000
43.11196 526.000
43.13190 546.000
43.15185 528.000
43.17180 495.000
43.19174 453.000
43.21169 478.000
43.23164 468.000
43.25159 460.000
43.27153 428.000
43.29148 415.000
43.31143 402.000
43.33137 387.000
43.35132 370.000
43.37127 349.000
43.39121 357.000
43.41116 333.000
43.43111 318.000
43.45105 326.000
43.47100 283.000
43.49095 287.000
43.51090 341.000
43.53084 337.000
43.55079 310.000
43.57074 288.000
43.59068 307.000
43.61063 260.000
43.63058 282.000
43.65052 260.000
43.67047 285.000
43.69042 279.000
43.71037 278.000
43.73031 303.000
43.75026 269.000
43.77021 278.000
43.79015 285.000
43.81010 263.000
43.83005 257.000
43.84999 317.000
43.86994 289.000
43.88989 295.000
43.90984 279.000
43.92978 308.000
43.94973 273.000
43.96968 261.000
43.98962 250.000
44.00957 259.000
44.02952 318.000
44.04946 266.000
44.06941 283.000
44.08936 264.000
44.10930 274.000
44.12925 276.000
44.14920 292.000
44.16915 286.000
44.18909 283.000
44.20904 275.000
44.22899 305.000
44.24893 280.000
44.26888 277.000
44.28883 265.000
44.30877 266.000
44.32872 280.000
44.34867 248.000
44.36862 262.000
44.38856 261.000
44.40851 269.000
44.42846 305.000
44.44840 307.000
44.46835 279.000
44.48830 301.000
44.50824 281.000
44.52819 272.000
44.54814 296.000
44.56808 247.000
44.58803 284.000
44.60798 307.000
44.62793 291.000
44.64787 298.000
44.66782 262.000
44.68777 269.000
44.70771 261.000
44.72766 271.000
44.74761 285.000
44.76755 251.000
44.78750 288.000
44.80745 266.000
44.82740 288.000
44.84734 287.000
44.86729 312.000
44.88724 279.000
44.90718 265.000
44.92713 265.000
44.94708 259.000
44.96702 277.000
44.98697 270.000
45.00692 265.000
45.02686 291.000
45.04681 338.000
45.06676 313.000
45.08671 260.000
45.10665 249.000
45.12660 291.000
45.14655 277.000
45.16649 263.000
45.18644 265.000
45.20639 275.000
45.22633 295.000
45.24628 255.000
45.26623 267.000
45.28618 255.000
45.30612 290.000
45.32607 263.000
45.34602 288.000
45.36596 262.000
45.38591 255.000
45.40586 317.000
45.42580 291.000
45.44575 248.000
45.46570 287.000
45.48565 263.000
45.50559 264.000
45.52554 270.000
45.54549 281.000
45.56543 265.000
45.58538 254.000
45.60533 279.000
45.62527 251.000
45.64522 250.000
45.66517 263.000
45.68511 282.000
45.70506 257.000
45.72501 249.000
45.74496 276.000
45.76490 273.000
45.78485 294.000
45.80480 270.000
45.82474 264.000
45.84469 258.000
45.86464 276.000
45.88458 254.000
45.90453 271.000
45.92448 274.000
45.94443 246.000
45.96437 267.000
45.98432 265.000
46.00427 256.000
46.02421 270.000
46.04416 292.000
46.06411 247.000
46.08405 279.000
46.10400 284.000
46.12395 255.000
46.14389 263.000
46.16384 279.000
46.18379 294.000
46.20374 309.000
46.22368 292.000
46.24363 314.000
46.26358 294.000
46.28352 312.000
46.30347 296.000
46.32342 274.000
46.34336 301.000
46.36331 299.000
46.38326 264.000
46.40321 294.000
46.42315 291.000
46.44310 316.000
46.46305 318.000
46.48299 288.000
46.50294 277.000
46.52289 283.000
46.54283 251.000
46.56278 300.000
46.58273 270.000
46.60267 274.000
46.62262 264.000
46.64257 292.000
46.66252 293.000
46.68246 284.000
46.70241 268.000
46.72236 305.000
46.74230 304.000
46.76225 296.000
46.78220 283.000
46.80214 274.000
46.82209 284.000
46.84204 283.000
46.86199 292.000
46.88193 256.000
46.90188 273.000
46.92183 295.000
46.94177 274.000
46.96172 281.000
46.98167 283.000
47.00161 278.000
47.02156 300.000
47.04151 269.000
47.06146 302.000
47.08140 276.000
47.10135 297.000
47.12130 292.000
47.14124 294.000
47.16119 310.000
47.18114 297.000
47.20108 292.000
47.22103 291.000
47.24098 264.000
47.26092 249.000
47.28087 298.000
47.30082 287.000
47.32077 284.000
47.34071 319.000
47.36066 275.000
47.38061 268.000
47.40055 263.000
47.42050 269.000
47.44045 277.000
47.46039 255.000
47.48034 304.000
47.50029 269.000
47.52024 260.000
47.54018 281.000
47.56013 276.000
47.58008 256.000
47.60002 288.000
47.61997 277.000
47.63992 250.000
47.65986 266.000
47.67981 267.000
47.69976 271.000
47.71970 284.000
47.73965 255.000
47.75960 280.000
47.77955 261.000
47.79949 274.000
47.81944 272.000
47.83939 271.000
47.85933 277.000
47.87928 286.000
47.89923 275.000
47.91917 252.000
47.93912 291.000
47.95907 286.000
47.97902 267.000
47.99896 259.000
48.01891 278.000
48.03886 283.000
48.05880 279.000
48.07875 288.000
48.09870 285.000
48.11864 274.000
48.13859 292.000
48.15854 297.000
48.17848 263.000
48.19843 311.000
48.21838 301.000
48.23833 293.000
48.25827 295.000
48.27822 311.000
48.29817 297.000
48.31811 307.000
48.33806 292.000
48.35801 284.000
48.37795 311.000
48.39790 339.000
48.41785 293.000
48.43780 323.000
48.45774 321.000
48.47769 329.000
48.49764 332.000
48.51758 357.000
48.53753 368.000
48.55748 378.000
48.57742 406.000
48.59737 478.000
48.61732 468.000
48.63726 514.000
48.65721 604.000
48.67716 662.000
48.69711 737.000
48.71705 808.000
48.73700 731.000
48.75695 734.000
48.77689 602.000
48.79684 615.000
48.81679 617.000
48.83673 606.000
48.85668 569.000
48.87663 536.000
48.89658 465.000
48.91652 445.000
48.93647 421.000
48.95642 374.000
48.97636 352.000
48.99631 359.000
49.01626 317.000
49.03620 328.000
49.05615 347.000
49.07610 309.000
49.09605 310.000
49.11599 313.000
49.13594 298.000
49.15589 315.000
49.17583 304.000
49.19578 323.000
49.21573 304.000
49.23567 301.000
49.25562 340.000
49.27557 309.000
49.29551 310.000
49.31546 304.000
49.33541 295.000
49.35536 323.000
49.37530 289.000
49.39525 307.000
49.41520 329.000
49.43514 278.000
49.45509 295.000
49.47504 311.000
49.49498 291.000
49.51493 292.000
49.53488 303.000
49.55483 294.000
49.57477 279.000
49.59472 287.000
49.61467 306.000
49.63461 300.000
49.65456 316.000
49.67451 288.000
49.69445 284.000
49.71440 318.000
49.73435 293.000
49.75429 290.000
49.77424 270.000
49.79419 306.000
49.81414 316.000
49.83408 273.000
49.85403 278.000
49.87398 290.000
49.89392 299.000
49.91387 276.000
49.93382 275.000
49.95376 314.000
49.97371 254.000
49.99366 298.000
50.01361 248.000
50.03355 282.000
50.05350 287.000
50.07345 292.000
50.09339 288.000
50.11334 268.000
50.13329 293.000
50.15323 281.000
50.17318 287.000
50.19313 295.000
50.21307 242.000
50.23302 292.000
50.25297 258.000
50.27292 297.000
50.29286 280.000
50.31281 280.000
50.33276 240.000
50.35270 274.000
50.37265 267.000
50.39260 260.000
50.41254 289.000
50.43249 265.000
50.45244 283.000
50.47239 273.000
50.49233 285.000
50.51228 228.000
50.53223 274.000
50.55217 249.000
50.57212 273.000
50.59207 268.000
50.61201 250.000
50.63196 283.000
50.65191 262.000
50.67186 242.000
50.69180 263.000
50.71175 277.000
50.73170 253.000
50.75164 255.000
50.77159 280.000
50.79154 279.000
50.81148 270.000
50.83143 256.000
50.85138 290.000
50.87132 272.000
50.89127 258.000
50.91122 286.000
50.93117 274.000
50.95111 276.000
50.97106 251.000
50.99101 257.000
51.01095 299.000
51.03090 293.000
51.05085 289.000
51.07079 308.000
51.09074 281.000
51.11069 306.000
51.13064 291.000
51.15058 297.000
51.17053 271.000
51.19048 323.000
51.21042 299.000
51.23037 284.000
51.25032 289.000
51.27026 306.000
51.29021 295.000
51.31016 302.000
51.33010 253.000
51.35005 288.000
51.37000 275.000
51.38995 289.000
51.40989 278.000
51.42984 299.000
51.44979 278.000
51.46973 304.000
51.48968 267.000
51.50963 279.000
51.52957 298.000
51.54952 279.000
51.56947 271.000
51.58942 275.000
51.60936 259.000
51.62931 263.000
51.64926 276.000
51.66920 272.000
51.68915 266.000
51.70910 271.000
51.72904 227.000
51.74899 257.000
51.76894 261.000
51.78888 272.000
51.80883 256.000
51.82878 263.000
51.84873 279.000
51.86867 238.000
51.88862 294.000
51.90857 277.000
51.92851 271.000
51.94846 277.000
51.96841 243.000
51.98835 291.000
52.00830 254.000
52.02825 245.000
52.04820 279.000
52.06814 278.000
52.08809 307.000
52.10804 253.000
52.12798 251.000
52.14793 278.000
52.16788 274.000
52.18782 280.000
52.20777 285.000
52.22772 265.000
52.24767 293.000
52.26761 276.000
52.28756 295.000
52.30751 254.000
52.32745 259.000
52.34740 253.000
52.36735 253.000
52.38729 260.000
52.40724 280.000
52.42719 243.000
52.44713 270.000
52.46708 291.000
52.48703 257.000
52.50698 275.000
52.52692 284.000
52.54687 281.000
52.56682 271.000
52.58676 262.000
52.60671 275.000
52.62666 315.000
52.64660 309.000
52.66655 303.000
52.68650 301.000
52.70645 270.000
52.72639 285.000
52.74634 285.000
52.76629 254.000
52.78623 258.000
52.80618 265.000
52.82613 318.000
52.84607 303.000
52.86602 279.000
52.88597 284.000
52.90591 305.000
52.92586 282.000
52.94581 292.000
52.96576 273.000
52.98570 290.000
53.00565 306.000
53.02560 286.000
53.04554 320.000
53.06549 281.000
53.08544 312.000
53.10538 327.000
53.12533 315.000
53.14528 307.000
53.16523 312.000
53.18517 327.000
53.20512 320.000
53.22507 313.000
53.24501 321.000
53.26496 304.000
53.28491 341.000
53.30485 324.000
53.32480 395.000
53.34475 389.000
53.36469 410.000
53.38464 454.000
53.40459 481.000
53.42454 463.000
53.44448 448.000
53.46443 485.000
53.48438 484.000
53.50432 500.000
53.52427 476.000
53.54422 483.000
53.56416 449.000
53.58411 445.000
53.60406 432.000
53.62401 412.000
53.64395 401.000
53.66390 390.000
53.68385 343.000
53.70379 360.000
53.72374 359.000
53.74369 338.000
53.76363 291.000
53.78358 276.000
53.80353 311.000
53.82348 317.000
53.84342 305.000
53.86337 275.000
53.88332 291.000
53.90326 325.000
53.92321 290.000
53.94316 289.000
53.96310 302.000
53.98305 318.000
54.00300 264.000
54.02294 269.000
54.04289 296.000
54.06284 297.000
54.08279 284.000
54.10273 292.000
54.12268 269.000
54.14263 259.000
54.16257 256.000
54.18252 287.000
54.20247 284.000
54.22241 259.000
54.24236 299.000
54.26231 285.000
54.28226 301.000
54.30220 278.000
54.32215 261.000
54.34210 281.000
54.36204 263.000
54.38199 276.000
54.40194 268.000
54.42188 280.000
54.44183 254.000
54.46178 259.000
54.48172 272.000
54.50167 296.000
54.52162 240.000
54.54157 283.000
54.56151 271.000
54.58146 244.000
54.60141 300.000
54.62135 259.000
54.64130 266.000
54.66125 299.000
54.68119 297.000
54.70114 257.000
54.72109 271.000
54.74104 272.000
54.76098 285.000
54.78093 293.000
54.80088 288.000
54.82082 301.000
54.84077 289.000
54.86072 286.000
54.88066 333.000
54.90061 314.000
54.92056 314.000
54.94050 275.000
54.96045 325.000
54.98040 324.000
55.00035 275.000
55.02029 262.000
55.04024 331.000
55.06019 289.000
55.08013 276.000
55.10008 295.000
55.12003 274.000
55.13997 300.000
55.15992 277.000
55.17987 285.000
55.19982 286.000
55.21976 262.000
55.23971 266.000
55.25966 291.000
55.27960 259.000
55.29955 275.000
55.31950 270.000
55.33944 277.000
55.35939 226.000
55.37934 256.000
55.39929 290.000
55.41923 300.000
55.43918 279.000
55.45913 270.000
55.47907 247.000
55.49902 272.000
55.51897 266.000
55.53891 284.000
55.55886 256.000
55.57881 282.000
55.59875 300.000
55.61870 270.000
55.63865 269.000
55.65860 295.000
55.67854 318.000
55.69849 261.000
55.71844 264.000
55.73838 310.000
55.75833 292.000
55.77828 283.000
55.79822 282.000
55.81817 311.000
55.83812 288.000
55.85807 310.000
55.87801 291.000
55.89796 265.000
55.91791 309.000
55.93785 271.000
55.95780 255.000
55.97775 279.000
55.99769 301.000
56.01764 308.000
56.03759 259.000
56.05753 262.000
56.07748 283.000
56.09743 309.000
56.11738 308.000
56.13732 256.000
56.15727 276.000
56.17722 284.000
56.19716 277.000
56.21711 274.000
56.23706 272.000
56.25700 286.000
56.27695 279.000
56.29690 259.000
56.31685 274.000
56.33679 263.000
56.35674 286.000
56.37669 326.000
56.39663 275.000
56.41658 287.000
56.43653 268.000
56.45647 319.000
56.47642 307.000
56.49637 310.000
56.51631 305.000
56.53626 359.000
56.55621 297.000
56.57616 348.000
56.59610 325.000
56.61605 331.000
56.63600 330.000
56.65594 335.000
56.67589 353.000
56.69584 375.000
56.71578 388.000
56.73573 422.000
56.75568 409.000
56.77563 395.000
56.79557 443.000
56.81552 480.000
56.83547 509.000
56.85541 539.000
56.87536 566.000
56.89531 567.000
56.91525 584.000
56.93520 595.000
56.95515 613.000
56.97510 612.000
56.99504 599.000
57.01499 649.000
57.03494 618.000
57.05488 610.000
57.07483 559.000
57.09478 502.000
57.11472 480.000
57.13467 521.000
57.15462 490.000
57.17456 445.000
57.19451 446.000
57.21446 393.000
57.23441 374.000
57.25435 375.000
57.27430 337.000
57.29425 350.000
57.31419 340.000
57.33414 349.000
57.35409 325.000
57.37403 315.000
57.39398 302.000
57.41393 335.000
57.43388 306.000
57.45382 308.000
57.47377 284.000
57.49372 323.000
57.51366 303.000
57.53361 281.000
57.55356 295.000
57.57350 331.000
57.59345 262.000
57.61340 275.000
57.63334 286.000
57.65329 292.000
57.67324 280.000
57.69319 307.000
57.71313 261.000
57.73308 289.000
57.75303 287.000
57.77297 236.000
57.79292 278.000
57.81287 273.000
57.83281 290.000
57.85276 306.000
57.87271 295.000
57.89266 274.000
57.91260 310.000
57.93255 280.000
57.95250 291.000
57.97244 293.000
57.99239 330.000
58.01234 317.000
58.03228 312.000
58.05223 319.000
58.07218 310.000
58.09212 335.000
58.11207 304.000
58.13202 313.000
58.15197 324.000
58.17191 324.000
58.19186 375.000
58.21181 364.000
58.23175 390.000
58.25170 403.000
58.27165 373.000
58.29159 467.000
58.31154 437.000
58.33149 449.000
58.35144 432.000
58.37138 417.000
58.39133 403.000
58.41128 369.000
58.43122 400.000
58.45117 356.000
58.47112 360.000
58.49106 391.000
58.51101 359.000
58.53096 340.000
58.55090 340.000
58.57085 331.000
58.59080 294.000
58.61075 332.000
58.63069 304.000
58.65064 300.000
58.67059 275.000
58.69053 273.000
58.71048 324.000
58.73043 265.000
58.75037 312.000
58.77032 304.000
58.79027 294.000
58.81022 277.000
58.83016 269.000
58.85011 265.000
58.87006 284.000
58.89000 286.000
58.90995 259.000
58.92990 288.000
58.94984 259.000
58.96979 284.000
58.98974 277.000
59.00969 265.000
59.02963 277.000
59.04958 251.000
59.06953 271.000
59.08947 242.000
59.10942 300.000
59.12937 301.000
59.14931 285.000
59.16926 270.000
59.18921 273.000
59.20915 286.000
59.22910 266.000
59.24905 278.000
59.26900 274.000
59.28894 269.000
59.30889 253.000
59.32884 287.000
59.34878 285.000
59.36873 274.000
59.38868 300.000
59.40862 236.000
59.42857 233.000
59.44852 262.000
59.46847 273.000
59.48841 273.000
59.50836 248.000
59.52831 322.000
59.54825 269.000
59.56820 270.000
59.58815 286.000
59.60809 284.000
59.62804 318.000
59.64799 300.000
59.66793 286.000
59.68788 293.000
59.70783 279.000
59.72778 261.000
59.74772 273.000
59.76767 272.000
59.78762 264.000
59.80756 313.000
59.82751 323.000
59.84746 279.000
59.86740 296.000
59.88735 312.000
59.90730 298.000
59.92725 286.000
59.94719 304.000
59.96714 264.000
59.98709 315.000
60.00703 284.000
60.02698 287.000
60.04693 315.000
60.06687 280.000
60.08682 299.000
60.10677 307.000
60.12671 306.000
60.14666 298.000
60.16661 282.000
60.18656 303.000
60.20650 315.000
60.22645 314.000
60.24640 311.000
60.26634 273.000
60.28629 293.000
60.30624 307.000
60.32618 314.000
60.34613 306.000
60.36608 330.000
60.38603 335.000
60.40597 353.000
60.42592 327.000
60.44587 326.000
60.46581 320.000
60.48576 333.000
60.50571 353.000
60.52565 342.000
60.54560 344.000
60.56555 344.000
60.58550 340.000
60.60544 367.000
60.62539 368.000
60.64534 357.000
60.66528 361.000
60.68523 338.000
60.70518 362.000
60.72512 358.000
60.74507 348.000
60.76502 344.000
60.78496 347.000
60.80491 346.000
60.82486 345.000
60.84481 314.000
60.86475 346.000
60.88470 289.000
60.90465 347.000
60.92459 317.000
60.94454 319.000
60.96449 343.000
60.98443 339.000
61.00438 347.000
61.02433 333.000
61.04428 370.000
61.06422 335.000
61.08417 341.000
61.10412 317.000
61.12406 367.000
61.14401 363.000
61.16396 366.000
61.18390 340.000
61.20385 364.000
61.22380 389.000
61.24374 326.000
61.26369 366.000
61.28364 345.000
61.30359 371.000
61.32353 380.000
61.34348 372.000
61.36343 391.000
61.38337 384.000
61.40332 406.000
61.42327 442.000
61.44321 480.000
61.46316 480.000
61.48311 521.000
61.50306 566.000
61.52300 610.000
61.54295 630.000
61.56290 590.000
61.58284 562.000
61.60279 529.000
61.62274 489.000
61.64268 468.000
61.66263 467.000
61.68258 544.000
61.70252 496.000
61.72247 451.000
61.74242 469.000
61.76237 412.000
61.78231 405.000
61.80226 365.000
61.82221 357.000
61.84215 361.000
61.86210 341.000
61.88205 322.000
61.90199 350.000
61.92194 330.000
61.94189 330.000
61.96184 326.000
61.98178 310.000
62.00173 331.000
62.02168 345.000
62.04162 330.000
62.06157 337.000
62.08152 301.000
62.10146 315.000
62.12141 290.000
62.14136 330.000
62.16131 297.000
62.18125 312.000
62.20120 377.000
62.22115 339.000
62.24109 340.000
62.26104 382.000
62.28099 382.000
62.30093 391.000
62.32088 430.000
62.34083 457.000
62.36077 521.000
62.38072 530.000
62.40067 583.000
62.42062 631.000
62.44056 601.000
62.46051 716.000
62.48046 718.000
62.50040 691.000
62.52035 709.000
62.54030 778.000
62.56024 726.000
62.58019 663.000
62.60014 679.000
62.62009 685.000
62.64003 681.000
62.65998 647.000
62.67993 666.000
62.69987 635.000
62.71982 515.000
62.73977 543.000
62.75971 462.000
62.77966 465.000
62.79961 470.000
62.81955 391.000
62.83950 388.000
62.85945 406.000
62.87940 362.000
62.89934 350.000
62.91929 349.000
62.93924 344.000
62.95918 307.000
62.97913 314.000
62.99908 308.000
63.01902 306.000
63.03897 323.000
63.05892 301.000
63.07887 298.000
63.09881 341.000
63.11876 309.000
63.13871 291.000
63.15865 297.000
63.17860 280.000
63.19855 308.000
63.21849 253.000
63.23844 307.000
63.25839 263.000
63.27833 275.000
63.29828 282.000
63.31823 302.000
63.33818 286.000
63.35812 286.000
63.37807 291.000
63.39802 282.000
63.41796 267.000
63.43791 281.000
63.45786 286.000
63.47780 275.000
63.49775 281.000
63.51770 248.000
63.53765 290.000
63.55759 291.000
63.57754 300.000
63.59749 271.000
63.61743 280.000
63.63738 301.000
63.65733 306.000
63.67727 254.000
63.69722 278.000
63.71717 273.000
63.73712 293.000
63.75706 266.000
63.77701 290.000
63.79696 286.000
63.81690 279.000
63.83685 270.000
63.85680 279.000
63.87674 263.000
63.89669 267.000
63.91664 282.000
63.93658 296.000
63.95653 324.000
63.97648 273.000
63.99643 275.000
64.01637 269.000
64.03632 271.000
64.05627 288.000
64.07621 271.000
64.09616 277.000
64.11611 247.000
64.13605 279.000
64.15600 279.000
64.17595 293.000
64.19590 264.000
64.21584 255.000
64.23579 289.000
64.25574 301.000
64.27568 258.000
64.29563 303.000
64.31558 288.000
64.33552 270.000
64.35547 285.000
64.37542 293.000
64.39536 266.000
64.41531 271.000
64.43526 284.000
64.45521 304.000
64.47515 271.000
64.49510 242.000
64.51505 297.000
64.53499 288.000
64.55494 261.000
64.57489 283.000
64.59483 296.000
64.61478 291.000
64.63473 284.000
64.65468 249.000
64.67462 302.000
64.69457 295.000
64.71452 269.000
64.73446 269.000
64.75441 291.000
64.77436 266.000
64.79430 309.000
64.81425 263.000
64.83420 274.000
64.85414 275.000
64.87409 274.000
64.89404 284.000
64.91399 276.000
64.93393 245.000
64.95388 239.000
64.97383 269.000
64.99377 292.000
65.01372 303.000
65.03367 289.000
65.05361 307.000
65.07356 314.000
65.09351 273.000
65.11346 277.000
65.13340 281.000
65.15335 262.000
65.17330 265.000
65.19324 281.000
65.21319 309.000
65.23314 264.000
65.25308 285.000
65.27303 307.000
65.29298 290.000
65.31293 290.000
65.33287 305.000
65.35282 298.000
65.37277 304.000
65.39271 310.000
65.41266 277.000
65.43261 307.000
65.45255 285.000
65.47250 292.000
65.49245 266.000
65.51239 273.000
65.53234 292.000
65.55229 324.000
65.57224 335.000
65.59218 322.000
65.61213 356.000
65.63208 367.000
65.65202 316.000
65.67197 365.000
65.69192 414.000
65.71186 393.000
65.73181 402.000
65.75176 441.000
65.77171 422.000
65.79165 425.000
65.81160 466.000
65.83155 448.000
65.85149 448.000
65.87144 447.000
65.89139 398.000
65.91133 479.000
65.93128 432.000
65.95123 449.000
65.97117 434.000
65.99112 424.000
66.01107 462.000
66.03102 421.000
66.05096 373.000
66.07091 417.000
66.09086 364.000
66.11080 384.000
66.13075 410.000
66.15070 443.000
66.17064 447.000
66.19059 506.000
66.21054 569.000
66.23049 550.000
66.25043 517.000
66.27038 476.000
66.29033 466.000
66.31027 422.000
66.33022 401.000
66.35017 407.000
66.37011 413.000
66.39006 424.000
66.41001 432.000
66.42995 404.000
66.44990 411.000
66.46985 360.000
66.48980 350.000
66.50974 347.000
66.52969 339.000
66.54964 300.000
66.56958 330.000
66.58953 301.000
66.60948 331.000
66.62942 306.000
66.64937 302.000
66.66932 290.000
66.68927 292.000
66.70921 280.000
66.72916 315.000
66.74911 270.000
66.76905 280.000
66.78900 276.000
66.80895 310.000
66.82889 311.000
66.84884 299.000
66.86879 311.000
66.88874 265.000
66.90868 261.000
66.92863 316.000
66.94858 282.000
66.96852 285.000
66.98847 314.000
67.00842 254.000
67.02836 297.000
67.04831 308.000
67.06826 317.000
67.08820 309.000
67.10815 283.000
67.12810 298.000
67.14805 274.000
67.16799 277.000
67.18794 293.000
67.20789 288.000
67.22783 286.000
67.24778 278.000
67.26773 309.000
67.28767 266.000
67.30762 311.000
67.32757 314.000
67.34752 311.000
67.36746 267.000
67.38741 295.000
67.40736 307.000
67.42730 290.000
67.44725 305.000
67.46720 309.000
67.48714 267.000
67.50709 304.000
67.52704 275.000
67.54698 285.000
67.56693 307.000
67.58688 304.000
67.60683 299.000
67.62677 278.000
67.64672 295.000
67.66667 312.000
67.68661 316.000
67.70656 330.000
67.72651 319.000
67.74645 321.000
67.76640 318.000
67.78635 304.000
67.80630 361.000
67.82624 347.000
67.84619 376.000
67.86614 396.000
67.88608 391.000
67.90603 417.000
67.92598 453.000
67.94592 424.000
67.96587 416.000
67.98582 390.000
68.00576 428.000
68.02571 412.000
68.04566 488.000
68.06561 507.000
68.08555 565.000
68.10550 558.000
68.12545 528.000
68.14539 493.000
68.16534 551.000
68.18529 451.000
68.20523 399.000
68.22518 400.000
68.24513 407.000
68.26508 440.000
68.28502 424.000
68.30497 441.000
68.32492 424.000
68.34486 375.000
68.36481 343.000
68.38476 360.000
68.40470 359.000
68.42465 305.000
68.44460 304.000
68.46455 326.000
68.48449 320.000
68.50444 301.000
68.52439 313.000
68.54433 290.000
68.56428 316.000
68.58423 286.000
68.60417 280.000
68.62412 289.000
68.64407 281.000
68.66401 296.000
68.68396 284.000
68.70391 269.000
68.72386 272.000
68.74380 252.000
68.76375 283.000
68.78370 264.000
68.80364 307.000
68.82359 272.000
68.84354 273.000
68.86348 284.000
68.88343 252.000
68.90338 287.000
68.92333 264.000
68.94327 264.000
68.96322 287.000
68.98317 269.000
69.00311 266.000
69.02306 241.000
69.04301 270.000
69.06295 253.000
69.08290 276.000
69.10285 295.000
69.12279 288.000
69.14274 266.000
69.16269 288.000
69.18264 259.000
69.20258 257.000
69.22253 257.000
69.24248 278.000
69.26242 281.000
69.28237 245.000
69.30232 244.000
69.32226 278.000
69.34221 272.000
69.36216 260.000
69.38211 244.000
69.40205 285.000
69.42200 256.000
69.44195 253.000
69.46189 254.000
69.48184 270.000
69.50179 276.000
69.52173 263.000
69.54168 261.000
69.56163 258.000
69.58157 254.000
69.60152 243.000
69.62147 269.000
69.64142 250.000
69.66136 272.000
69.68131 258.000
69.70126 255.000
69.72120 265.000
69.74115 271.000
69.76110 247.000
69.78104 270.000
69.80099 284.000
69.82094 261.000
69.84089 276.000
69.86083 272.000
69.88078 266.000
69.90073 270.000
69.92067 273.000
69.94062 283.000
69.96057 258.000
69.98051 298.000
70.00046 264.000
70.02041 268.000
70.04035 265.000
70.06030 250.000
70.08025 303.000
70.10020 267.000
70.12014 255.000
70.14009 255.000
70.16004 233.000
70.17998 250.000
70.19993 256.000
70.21988 278.000
70.23982 270.000
70.25977 255.000
70.27972 275.000
70.29967 264.000
70.31961 249.000
70.33956 277.000
70.35951 272.000
70.37945 271.000
70.39940 284.000
70.41935 273.000
70.43929 268.000
70.45924 260.000
70.47919 275.000
70.49914 280.000
70.51908 251.000
70.53903 287.000
70.55898 251.000
70.57892 251.000
70.59887 254.000
70.61882 255.000
70.63876 278.000
70.65871 267.000
70.67866 259.000
70.69860 261.000
70.71855 259.000
70.73850 299.000
70.75845 306.000
70.77839 291.000
70.79834 287.000
70.81829 271.000
70.83823 311.000
70.85818 286.000
70.87813 279.000
70.89807 318.000
70.91802 308.000
70.93797 280.000
70.95792 262.000
70.97786 282.000
70.99781 282.000
71.01776 334.000
71.03770 281.000
71.05765 301.000
71.07760 302.000
71.09754 317.000
71.11749 301.000
71.13744 261.000
71.15738 291.000
71.17733 289.000
71.19728 288.000
71.21723 317.000
71.23717 293.000
71.25712 257.000
71.27707 285.000
71.29701 287.000
71.31696 281.000
71.33691 329.000
71.35685 317.000
71.37680 280.000
71.39675 280.000
71.41670 317.000
71.43664 278.000
71.45659 289.000
71.47654 284.000
71.49648 314.000
71.51643 290.000
71.53638 256.000
71.55632 286.000
71.57627 261.000
71.59622 235.000
71.61616 261.000
71.63611 255.000
71.65606 322.000
71.67601 273.000
71.69595 257.000
71.71590 291.000
71.73585 301.000
71.75579 295.000
71.77574 303.000
71.79569 258.000
71.81563 289.000
71.83558 266.000
71.85553 304.000
71.87548 277.000
71.89542 239.000
71.91537 287.000
71.93532 299.000
71.95526 248.000
71.97521 291.000
71.99516 241.000
72.01510 275.000
72.03505 278.000
72.05500 314.000
72.07495 297.000
72.09489 260.000
72.11484 280.000
72.13479 294.000
72.15473 310.000
72.17468 264.000
72.19463 301.000
72.21457 283.000
72.23452 299.000
72.25447 328.000
72.27441 307.000
72.29436 291.000
72.31431 316.000
72.33426 365.000
72.35420 361.000
72.37415 345.000
72.39410 392.000
72.41404 373.000
72.43399 336.000
72.45394 326.000
72.47388 309.000
72.49383 309.000
72.51378 314.000
72.53373 314.000
72.55367 340.000
72.57362 288.000
72.59357 303.000
72.61351 303.000
72.63346 304.000
72.65341 323.000
72.67335 284.000
72.69330 311.000
72.71325 308.000
72.73319 301.000
72.75314 264.000
72.77309 294.000
72.79304 277.000
72.81298 289.000
72.83293 274.000
72.85288 276.000
72.87282 266.000
72.89277 242.000
72.91272 300.000
72.93266 265.000
72.95261 274.000
72.97256 264.000
72.99251 264.000
73.01245 271.000
73.03240 274.000
73.05235 259.000
73.07229 269.000
73.09224 262.000
73.11219 263.000
73.13213 261.000
73.15208 260.000
73.17203 268.000
73.19197 249.000
73.21192 290.000
73.23187 248.000
73.25182 256.000
73.27176 270.000
73.29171 260.000
73.31166 287.000
73.33160 269.000
73.35155 293.000
73.37150 277.000
73.39144 278.000
73.41139 262.000
73.43134 286.000
73.45129 277.000
73.47123 265.000
73.49118 295.000
73.51113 255.000
73.53107 240.000
73.55102 275.000
73.57097 260.000
73.59091 262.000
73.61086 282.000
73.63081 273.000
73.65076 311.000
73.67070 260.000
73.69065 253.000
73.71060 271.000
73.73054 285.000
73.75049 298.000
73.77044 295.000
73.79038 286.000
73.81033 277.000
73.83028 331.000
73.85022 345.000
73.87017 332.000
73.89012 343.000
73.91007 301.000
73.93001 364.000
73.94996 356.000
73.96991 331.000
73.98985 360.000
74.00980 337.000
74.02975 390.000
74.04969 350.000
74.06964 354.000
74.08959 365.000
74.10954 364.000
74.12948 384.000
74.14943 311.000
74.16938 321.000
74.18932 318.000
74.20927 370.000
74.22922 325.000
74.24916 338.000
74.26911 311.000
74.28906 289.000
74.30900 306.000
74.32895 311.000
74.34890 303.000
74.36885 282.000
74.38879 295.000
74.40874 304.000
74.42869 288.000
74.44863 284.000
74.46858 282.000
74.48853 271.000
74.50847 286.000
74.52842 284.000
74.54837 278.000
74.56832 302.000
74.58826 287.000
74.60821 264.000
74.62816 255.000
74.64810 278.000
74.66805 242.000
74.68800 288.000
74.70794 308.000
74.72789 297.000
74.74784 324.000
74.76778 308.000
74.78773 287.000
74.80768 266.000
74.82763 302.000
74.84757 327.000
74.86752 280.000
74.88747 318.000
74.90741 337.000
74.92736 359.000
74.94731 321.000
74.96725 411.000
74.98720 361.000
75.00715 401.000
75.02710 404.000
75.04704 392.000
75.06699 358.000
75.08694 398.000
75.10688 344.000
75.12683 371.000
75.14678 360.000
75.16672 392.000
75.18667 381.000
75.20662 407.000
75.22657 403.000
75.24651 383.000
75.26646 404.000
75.28641 370.000
75.30635 323.000
75.32630 347.000
75.34625 344.000
75.36619 338.000
75.38614 299.000
75.40609 343.000
75.42603 340.000
75.44598 327.000
75.46593 334.000
75.48588 349.000
75.50582 296.000
75.52577 322.000
75.54572 298.000
75.56566 316.000
75.58561 286.000
75.60556 292.000
75.62550 269.000
75.64545 276.000
75.66540 260.000
75.68535 261.000
75.70529 297.000
75.72524 282.000
75.74519 282.000
75.76513 301.000
75.78508 267.000
75.80503 286.000
75.82497 286.000
75.84492 311.000
75.86487 275.000
75.88481 267.000
75.90476 260.000
75.92471 264.000
75.94466 264.000
75.96460 268.000
75.98455 283.000
76.00450 287.000
76.02444 251.000
76.04439 250.000
76.06434 261.000
76.08428 248.000
76.10423 255.000
76.12418 281.000
76.14413 271.000
76.16407 237.000
76.18402 255.000
76.20397 272.000
76.22391 300.000
76.24386 259.000
76.26381 259.000
76.28375 256.000
76.30370 262.000
76.32365 245.000
76.34359 263.000
76.36354 252.000
76.38349 240.000
76.40344 290.000
76.42338 268.000
76.44333 252.000
76.46328 262.000
76.48322 279.000
76.50317 247.000
76.52312 282.000
76.54306 239.000
76.56301 298.000
76.58296 255.000
76.60291 257.000
76.62285 278.000
76.64280 280.000
76.66275 261.000
76.68269 290.000
76.70264 254.000
76.72259 247.000
76.74253 265.000
76.76248 232.000
76.78243 285.000
76.80238 241.000
76.82232 267.000
76.84227 276.000
76.86222 243.000
76.88216 270.000
76.90211 269.000
76.92206 252.000
76.94200 280.000
76.96195 264.000
76.98190 251.000
77.00184 277.000
77.02179 258.000
77.04174 277.000
77.06169 257.000
77.08163 278.000
77.10158 229.000
77.12153 237.000
77.14147 241.000
77.16142 253.000
77.18137 231.000
77.20131 260.000
77.22126 268.000
77.24121 240.000
77.26116 235.000
77.28110 270.000
77.30105 257.000
77.32100 254.000
77.34094 264.000
77.36089 260.000
77.38084 275.000
77.40078 269.000
77.42073 270.000
77.44068 263.000
77.46062 286.000
77.48057 258.000
77.50052 284.000
77.52047 278.000
77.54041 270.000
77.56036 268.000
77.58031 275.000
77.60025 255.000
77.62020 272.000
77.64015 298.000
77.66009 243.000
77.68004 257.000
77.69999 267.000
77.71994 273.000
77.73988 267.000
77.75983 249.000
77.77978 286.000
77.79972 260.000
77.81967 239.000
77.83962 289.000
77.85956 267.000
77.87951 274.000
77.89946 233.000
77.91940 274.000
77.93935 273.000
77.95930 261.000
77.97925 249.000
77.99919 268.000
78.01914 236.000
78.03909 272.000
78.05903 254.000
78.07898 232.000
78.09893 274.000
78.11887 274.000
78.13882 248.000
78.15877 266.000
78.17872 276.000
78.19866 265.000
78.21861 262.000
78.23856 273.000
78.25850 220.000
78.27845 278.000
78.29840 277.000
78.31834 244.000
78.33829 275.000
78.35824 260.000
78.37819 277.000
78.39813 241.000
78.41808 254.000
78.43803 274.000
78.45797 277.000
78.47792 276.000
78.49787 267.000
78.51781 268.000
78.53776 237.000
78.55771 251.000
78.57765 258.000
78.59760 270.000
78.61755 280.000
78.63750 258.000
78.65744 272.000
78.67739 257.000
78.69734 256.000
78.71728 247.000
78.73723 279.000
78.75718 266.000
78.77712 289.000
78.79707 290.000
78.81702 288.000
78.83697 275.000
78.85691 281.000
78.87686 289.000
78.89681 274.000
78.91675 279.000
78.93670 300.000
78.95665 246.000
78.97659 270.000
78.99654 287.000
79.01649 321.000
79.03643 268.000
79.05638 277.000
79.07633 283.000
79.09628 308.000
79.11622 270.000
79.13617 273.000
79.15612 302.000
79.17606 274.000
79.19601 276.000
79.21596 278.000
79.23590 264.000
79.25585 238.000
79.27580 282.000
79.29575 249.000
79.31569 259.000
79.33564 296.000
79.35559 270.000
79.37553 264.000
79.39548 273.000
79.41543 239.000
79.43537 258.000
79.45532 292.000
79.47527 272.000
79.49521 245.000
79.51516 249.000
79.53511 265.000
79.55506 286.000
79.57500 239.000
79.59495 281.000
79.61490 266.000
79.63484 260.000
79.65479 273.000
79.67474 266.000
79.69468 247.000
79.71463 270.000
79.73458 243.000
79.75453 228.000
79.77447 256.000
79.79442 267.000
79.81437 251.000
79.83431 257.000
79.85426 281.000
79.87421 275.000
79.89415 248.000
79.91410 261.000
79.93405 264.000
79.95399 262.000
79.97394 262.000
79.99389 270.000
80.01384 280.000
80.03378 251.000
80.05373 275.000
80.07368 279.000
80.09362 262.000
80.11357 306.000
80.13352 266.000
80.15346 304.000
80.17341 281.000
80.19336 262.000
80.21331 272.000
80.23325 268.000
80.25320 273.000
80.27315 275.000
80.29309 273.000
80.31304 255.000
80.33299 286.000
80.35293 288.000
80.37288 286.000
80.39283 311.000
80.41278 286.000
80.43272 283.000
80.45267 306.000
80.47262 260.000
80.49256 287.000
80.51251 305.000
80.53246 281.000
80.55240 254.000
80.57235 275.000
80.59230 255.000
80.61224 266.000
80.63219 251.000
80.65214 283.000
80.67209 265.000
80.69203 246.000
80.71198 274.000
80.73193 286.000
80.75187 260.000
80.77182 276.000
80.79177 267.000
80.81171 285.000
80.83166 256.000
80.85161 232.000
80.87156 284.000
80.89150 237.000
80.91145 258.000
80.93140 270.000
80.95134 284.000
80.97129 264.000
80.99124 262.000
81.01118 255.000
81.03113 258.000
81.05108 279.000
81.07102 291.000
81.09097 286.000
81.11092 240.000
81.13087 272.000
81.15081 278.000
81.17076 276.000
81.19071 248.000
81.21065 237.000
81.23060 261.000
81.25055 248.000
81.27049 259.000
81.29044 284.000
81.31039 269.000
81.33034 255.000
81.35028 263.000
81.37023 278.000
81.39018 259.000
81.41012 234.000
81.43007 260.000
81.45002 225.000
81.46996 263.000
81.48991 290.000
81.50986 277.000
81.52980 270.000
81.54975 273.000
81.56970 255.000
81.58965 284.000
81.60959 231.000
81.62954 278.000
81.64949 235.000
81.66943 276.000
81.68938 266.000
81.70933 284.000
81.72927 265.000
81.74922 272.000
81.76917 291.000
81.78912 256.000
81.80906 247.000
81.82901 298.000
81.84896 305.000
81.86890 256.000
81.88885 286.000
81.90880 253.000
81.92874 273.000
81.94869 260.000
81.96864 267.000
81.98859 268.000
82.00853 315.000
82.02848 262.000
82.04843 270.000
82.06837 264.000
82.08832 280.000
82.10827 291.000
82.12821 282.000
82.14816 332.000
82.16811 305.000
82.18805 260.000
82.20800 290.000
82.22795 310.000
82.24790 301.000
82.26784 295.000
82.28779 307.000
82.30774 305.000
82.32768 330.000
82.34763 296.000
82.36758 275.000
82.38752 328.000
82.40747 319.000
82.42742 288.000
82.44737 285.000
82.46731 330.000
82.48726 290.000
82.50721 317.000
82.52715 289.000
82.54710 317.000
82.56705 308.000
82.58699 266.000
82.60694 286.000
82.62689 254.000
82.64683 314.000
82.66678 293.000
82.68673 289.000
82.70668 285.000
82.72662 315.000
82.74657 266.000
82.76652 274.000
82.78646 269.000
82.80641 275.000
82.82636 270.000
82.84630 266.000
82.86625 262.000
82.88620 256.000
82.90615 297.000
82.92609 299.000
82.94604 311.000
82.96599 264.000
82.98593 301.000
83.00588 297.000
83.02583 319.000
83.04577 303.000
83.06572 292.000
83.08567 327.000
83.10561 294.000
83.12556 354.000
83.14551 309.000
83.16546 325.000
83.18540 309.000
83.20535 305.000
83.22530 307.000
83.24524 319.000
83.26519 271.000
83.28514 289.000
83.30508 304.000
83.32503 289.000
83.34498 293.000
83.36493 335.000
83.38487 264.000
83.40482 290.000
83.42477 287.000
83.44471 309.000
83.46466 315.000
83.48461 289.000
83.50455 308.000
83.52450 327.000
83.54445 302.000
83.56440 321.000
83.58434 328.000
83.60429 290.000
83.62424 293.000
83.64418 292.000
83.66413 315.000
83.68408 307.000
83.70402 326.000
83.72397 284.000
83.74392 306.000
83.76386 289.000
83.78381 260.000
83.80376 317.000
83.82371 283.000
83.84365 292.000
83.86360 296.000
83.88355 291.000
83.90349 291.000
83.92344 290.000
83.94339 293.000
83.96333 281.000
83.98328 266.000
84.00323 274.000
84.02318 274.000
84.04312 302.000
84.06307 280.000
84.08302 273.000
84.10296 257.000
84.12291 252.000
84.14286 267.000
84.16280 273.000
84.18275 261.000
84.20270 263.000
84.22264 261.000
84.24259 265.000
84.26254 236.000
84.28249 244.000
84.30243 269.000
84.32238 252.000
84.34233 284.000
84.36227 243.000
84.38222 268.000
84.40217 285.000
84.42211 245.000
84.44206 270.000
84.46201 259.000
84.48196 268.000
84.50190 273.000
84.52185 260.000
84.54180 256.000
84.56174 285.000
84.58169 236.000
84.60164 268.000
84.62158 274.000
84.64153 269.000
84.66148 266.000
84.68142 258.000
84.70137 244.000
84.72132 275.000
84.74127 271.000
84.76121 244.000
84.78116 272.000
84.80111 282.000
84.82105 263.000
84.84100 274.000
84.86095 280.000
84.88089 276.000
84.90084 257.000
84.92079 261.000
84.94074 258.000
84.96068 240.000
84.98063 291.000
85.00058 244.000
85.02052 274.000
85.04047 269.000
85.06042 285.000
85.08036 251.000
85.10031 269.000
85.12026 300.000
85.14021 287.000
85.16015 267.000
85.18010 258.000
85.20005 282.000
85.21999 264.000
85.23994 287.000
85.25989 249.000
85.27983 274.000
85.29978 261.000
85.31973 259.000
85.33967 257.000
85.35962 239.000
85.37957 275.000
85.39952 255.000
85.41946 270.000
85.43941 279.000
85.45936 260.000
85.47930 279.000
85.49925 260.000
85.51920 274.000
85.53914 232.000
85.55909 250.000
85.57904 259.000
85.59899 279.000
85.61893 277.000
85.63888 274.000
85.65883 265.000
85.67877 268.000
85.69872 251.000
85.71867 275.000
85.73861 262.000
85.75856 278.000
85.77851 282.000
85.79845 264.000
85.81840 282.000
85.83835 263.000
85.85830 263.000
85.87824 255.000
85.89819 246.000
85.91814 273.000
85.93808 241.000
85.95803 293.000
85.97798 239.000
85.99792 235.000
86.01787 246.000
86.03782 258.000
86.05777 264.000
86.07771 245.000
86.09766 287.000
86.11761 281.000
86.13755 267.000
86.15750 250.000
86.17745 258.000
86.19739 235.000
86.21734 250.000
86.23729 278.000
86.25723 243.000
86.27718 268.000
86.29713 244.000
86.31708 238.000
86.33702 255.000
86.35697 292.000
86.37692 262.000
86.39686 295.000
86.41681 282.000
86.43676 261.000
86.45670 273.000
86.47665 288.000
86.49660 256.000
86.51655 269.000
86.53649 291.000
86.55644 314.000
86.57639 312.000
86.59633 310.000
86.61628 294.000
86.63623 295.000
86.65617 274.000
86.67612 297.000
86.69607 286.000
86.71602 273.000
86.73596 279.000
86.75591 276.000
86.77586 316.000
86.79580 323.000
86.81575 280.000
86.83570 300.000
86.85564 308.000
86.87559 259.000
86.89554 286.000
86.91548 295.000
86.93543 297.000
86.95538 298.000
86.97533 293.000
86.99527 295.000
87.01522 279.000
87.03517 273.000
87.05511 287.000
87.07506 282.000
87.09501 276.000
87.11495 230.000
87.13490 304.000
87.15485 252.000
87.17480 292.000
87.19474 259.000
87.21469 261.000
87.23464 269.000
87.25458 250.000
87.27453 285.000
87.29448 255.000
87.31442 279.000
87.33437 276.000
87.35432 283.000
87.37426 242.000
87.39421 294.000
87.41416 242.000
87.43411 270.000
87.45405 285.000
87.47400 254.000
87.49395 237.000
87.51389 270.000
87.53384 262.000
87.55379 255.000
87.57373 293.000
87.59368 276.000
87.61363 271.000
87.63358 259.000
87.65352 274.000
87.67347 266.000
87.69342 267.000
87.71336 260.000
87.73331 243.000
87.75326 279.000
87.77320 245.000
87.79315 239.000
87.81310 263.000
87.83304 284.000
87.85299 294.000
87.87294 289.000
87.89289 257.000
87.91283 289.000
87.93278 257.000
87.95273 269.000
87.97267 286.000
87.99262 252.000
88.01257 251.000
88.03251 252.000
88.05246 283.000
88.07241 252.000
88.09236 268.000
88.11230 263.000
88.13225 260.000
88.15220 266.000
88.17214 249.000
88.19209 296.000
88.21204 242.000
88.23198 276.000
88.25193 269.000
88.27188 265.000
88.29183 257.000
88.31177 251.000
88.33172 274.000
88.35167 252.000
88.37161 226.000
88.39156 260.000
88.41151 245.000
88.43145 273.000
88.45140 258.000
88.47135 232.000
88.49129 245.000
88.51124 251.000
88.53119 242.000
88.55114 277.000
88.57108 275.000
88.59103 267.000
88.61098 278.000
88.63092 237.000
88.65087 251.000
88.67082 250.000
88.69076 264.000
88.71071 263.000
88.73066 257.000
88.75061 299.000
88.77055 290.000
88.79050 261.000
88.81045 277.000
88.83039 273.000
88.85034 273.000
88.87029 274.000
88.89023 261.000
88.91018 287.000
88.93013 292.000
88.95007 259.000
88.97002 263.000
88.98997 254.000
89.00992 294.000
89.02986 272.000
89.04981 293.000
89.06976 248.000
89.08970 269.000
89.10965 288.000
89.12960 270.000
89.14954 242.000
89.16949 275.000
89.18944 272.000
89.20939 304.000
89.22933 295.000
89.24928 292.000
89.26923 289.000
89.28917 267.000
89.30912 289.000
89.32907 316.000
89.34901 322.000
89.36896 315.000
89.38891 315.000
89.40885 323.000
89.42880 309.000
89.44875 338.000
89.46870 355.000
89.48864 348.000
89.50859 366.000
89.52854 372.000
89.54848 368.000
89.56843 362.000
89.58838 356.000
89.60832 372.000
89.62827 351.000
89.64822 379.000
89.66817 360.000
89.68811 356.000
89.70806 406.000
89.72801 382.000
89.74795 385.000
89.76790 360.000
89.78785 389.000
89.80779 391.000
89.82774 374.000
89.84769 349.000
89.86764 340.000
89.88758 366.000
89.90753 344.000
89.92748 361.000
89.94742 367.000
89.96737 367.000
89.98732 361.000
90.00726 344.000
