10.00000 28.000
10.01995 30.000
10.03989 30.000
10.05984 29.000
10.07979 32.000
10.09973 28.000
10.11968 38.000
10.13963 42.000
10.15958 46.000
10.17952 60.000
10.19947 79.000
10.21942 112.000
10.23936 173.000
10.25931 205.000
10.27926 279.000
10.29920 240.000
10.31915 169.000
10.33910 77.000
10.35905 45.000
10.37899 31.000
10.39894 29.000
10.41889 47.000
10.43883 33.000
10.45878 34.000
10.47873 29.000
10.49867 37.000
10.51862 34.000
10.53857 29.000
10.55851 19.000
10.57846 14.000
10.59841 33.000
10.61836 24.000
10.63830 44.000
10.65825 15.000
10.67820 27.000
10.69814 31.000
10.71809 23.000
10.73804 20.000
10.75798 23.000
10.77793 20.000
10.79788 26.000
10.81783 21.000
10.83777 30.000
10.85772 24.000
10.87767 22.000
10.89761 22.000
10.91756 27.000
10.93751 31.000
10.95745 22.000
10.97740 34.000
10.99735 31.000
11.01730 27.000
11.03724 24.000
11.05719 17.000
11.07714 32.000
11.09708 19.000
11.11703 28.000
11.13698 35.000
11.15692 27.000
11.17687 25.000
11.19682 29.000
11.21676 31.000
11.23671 39.000
11.25666 28.000
11.27661 26.000
11.29655 34.000
11.31650 23.000
11.33645 31.000
11.35639 22.000
11.37634 21.000
11.39629 26.000
11.41623 29.000
11.43618 19.000
11.45613 28.000
11.47608 29.000
11.49602 29.000
11.51597 38.000
11.53592 26.000
11.55586 33.000
11.57581 32.000
11.59576 31.000
11.61570 24.000
11.63565 45.000
11.65560 35.000
11.67554 19.000
11.69549 42.000
11.71544 38.000
11.73539 41.000
11.75533 45.000
11.77528 36.000
11.79523 53.000
11.81517 49.000
11.83512 50.000
11.85507 25.000
11.87501 33.000
11.89496 25.000
11.91491 31.000
11.93486 35.000
11.95480 38.000
11.97475 47.000
11.99470 31.000
12.01464 20.000
12.03459 24.000
12.05454 28.000
12.07448 47.000
12.09443 30.000
12.11438 34.000
12.13432 47.000
12.15427 40.000
12.17422 36.000
12.19417 46.000
12.21411 44.000
12.23406 41.000
12.25401 48.000
12.27395 48.000
12.29390 50.000
12.31385 48.000
12.33379 43.000
12.35374 52.000
12.37369 51.000
12.39364 78.000
12.41358 60.000
12.43353 80.000
12.45348 105.000
12.47342 122.000
12.49337 135.000
12.51332 173.000
12.53326 194.000
12.55321 209.000
12.57316 204.000
12.59311 160.000
12.61305 140.000
12.63300 119.000
12.65295 83.000
12.67289 91.000
12.69284 81.000
12.71279 65.000
12.73273 68.000
12.75268 72.000
12.77263 71.000
12.79257 57.000
12.81252 38.000
12.83247 51.000
12.85242 48.000
12.87236 56.000
12.89231 50.000
12.91226 47.000
12.93220 52.000
12.95215 44.000
12.97210 47.000
12.99204 50.000
13.01199 45.000
13.03194 35.000
13.05189 49.000
13.07183 36.000
13.09178 43.000
13.11173 42.000
13.13167 44.000
13.15162 43.000
13.17157 53.000
13.19151 41.000
13.21146 45.000
13.23141 55.000
13.25135 62.000
13.27130 92.000
13.29125 112.000
13.31120 197.000
13.33114 255.000
13.35109 441.000
13.37104 563.000
13.39098 459.000
13.41093 310.000
13.43088 176.000
13.45082 93.000
13.47077 74.000
13.49072 60.000
13.51067 53.000
13.53061 46.000
13.55056 48.000
13.57051 38.000
13.59045 37.000
13.61040 38.000
13.63035 42.000
13.65029 44.000
13.67024 43.000
13.69019 47.000
13.71013 56.000
13.73008 46.000
13.75003 48.000
13.76998 55.000
13.78992 51.000
13.80987 62.000
13.82982 84.000
13.84976 87.000
13.86971 126.000
13.88966 156.000
13.90960 273.000
13.92955 438.000
13.94950 770.000
13.96945 1189.000
13.98939 1245.000
14.00934 853.000
14.02929 473.000
14.04923 250.000
14.06918 109.000
14.08913 88.000
14.10907 80.000
14.12902 52.000
14.14897 60.000
14.16892 56.000
14.18886 40.000
14.20881 51.000
14.22876 42.000
14.24870 51.000
14.26865 43.000
14.28860 49.000
14.30854 44.000
14.32849 49.000
14.34844 33.000
14.36838 31.000
14.38833 52.000
14.40828 37.000
14.42823 35.000
14.44817 34.000
14.46812 30.000
14.48807 29.000
14.50801 31.000
14.52796 30.000
14.54791 29.000
14.56785 31.000
14.58780 36.000
14.60775 33.000
14.62770 30.000
14.64764 27.000
14.66759 31.000
14.68754 30.000
14.70748 30.000
14.72743 26.000
14.74738 35.000
14.76732 38.000
14.78727 26.000
14.80722 37.000
14.82716 54.000
14.84711 34.000
14.86706 48.000
14.88701 36.000
14.90695 37.000
14.92690 30.000
14.94685 36.000
14.96679 34.000
14.98674 32.000
15.00669 36.000
15.02663 39.000
15.04658 27.000
15.06653 29.000
15.08648 41.000
15.10642 44.000
15.12637 45.000
15.14632 42.000
15.16626 46.000
15.18621 19.000
15.20616 28.000
15.22610 46.000
15.24605 39.000
15.26600 30.000
15.28594 43.000
15.30589 50.000
15.32584 46.000
15.34579 44.000
15.36573 47.000
15.38568 58.000
15.40563 56.000
15.42557 70.000
15.44552 70.000
15.46547 74.000
15.48541 95.000
15.50536 94.000
15.52531 132.000
15.54526 169.000
15.56520 162.000
15.58515 166.000
15.60510 202.000
15.62504 238.000
15.64499 216.000
15.66494 188.000
15.68488 152.000
15.70483 168.000
15.72478 142.000
15.74472 137.000
15.76467 110.000
15.78462 99.000
15.80457 120.000
15.82451 90.000
15.84446 126.000
15.86441 119.000
15.88435 125.000
15.90430 105.000
15.92425 125.000
15.94419 96.000
15.96414 84.000
15.98409 90.000
16.00404 66.000
16.02398 80.000
16.04393 63.000
16.06388 66.000
16.08382 54.000
16.10377 58.000
16.12372 61.000
16.14366 46.000
16.16361 44.000
16.18356 70.000
16.20351 57.000
16.22345 68.000
16.24340 71.000
16.26335 75.000
16.28329 99.000
16.30324 91.000
16.32319 112.000
16.34313 107.000
16.36308 130.000
16.38303 143.000
16.40297 156.000
16.42292 212.000
16.44287 270.000
16.46282 322.000
16.48276 451.000
16.50271 589.000
16.52266 847.000
16.54260 1195.000
16.56255 1350.000
16.58250 1193.000
16.60244 898.000
16.62239 702.000
16.64234 463.000
16.66229 320.000
16.68223 231.000
16.70218 200.000
16.72213 152.000
16.74207 159.000
16.76202 122.000
16.78197 107.000
16.80191 98.000
16.82186 84.000
16.84181 67.000
16.86175 77.000
16.88170 60.000
16.90165 64.000
16.92160 64.000
16.94154 44.000
16.96149 66.000
16.98144 59.000
17.00138 53.000
17.02133 48.000
17.04128 48.000
17.06122 55.000
17.08117 51.000
17.10112 37.000
17.12107 44.000
17.14101 42.000
17.16096 34.000
17.18091 34.000
17.20085 34.000
17.22080 37.000
17.24075 42.000
17.26069 42.000
17.28064 33.000
17.30059 34.000
17.32053 34.000
17.34048 26.000
17.36043 34.000
17.38038 36.000
17.40032 31.000
17.42027 33.000
17.44022 21.000
17.46016 21.000
17.48011 38.000
17.50006 37.000
17.52000 32.000
17.53995 32.000
17.55990 33.000
17.57985 37.000
17.59979 35.000
17.61974 41.000
17.63969 37.000
17.65963 32.000
17.67958 28.000
17.69953 29.000
17.71947 28.000
17.73942 32.000
17.75937 34.000
17.77932 43.000
17.79926 19.000
17.81921 35.000
17.83916 27.000
17.85910 36.000
17.87905 46.000
17.89900 37.000
17.91894 47.000
17.93889 66.000
17.95884 86.000
17.97878 140.000
17.99873 240.000
18.01868 296.000
18.03863 232.000
18.05857 202.000
18.07852 142.000
18.09847 61.000
18.11841 52.000
18.13836 37.000
18.15831 44.000
18.17825 23.000
18.19820 23.000
18.21815 37.000
18.23810 32.000
18.25804 28.000
18.27799 20.000
18.29794 28.000
18.31788 22.000
18.33783 29.000
18.35778 34.000
18.37772 20.000
18.39767 32.000
18.41762 35.000
18.43756 26.000
18.45751 40.000
18.47746 28.000
18.49741 23.000
18.51735 23.000
18.53730 47.000
18.55725 25.000
18.57719 31.000
18.59714 40.000
18.61709 33.000
18.63703 31.000
18.65698 32.000
18.67693 24.000
18.69688 33.000
18.71682 39.000
18.73677 31.000
18.75672 31.000
18.77666 32.000
18.79661 43.000
18.81656 37.000
18.83650 27.000
18.85645 24.000
18.87640 39.000
18.89634 38.000
18.91629 26.000
18.93624 41.000
18.95619 39.000
18.97613 33.000
18.99608 39.000
19.01603 34.000
19.03597 30.000
19.05592 42.000
19.07587 43.000
19.09581 34.000
19.11576 36.000
19.13571 41.000
19.15566 42.000
19.17560 32.000
19.19555 45.000
19.21550 29.000
19.23544 53.000
19.25539 49.000
19.27534 68.000
19.29528 112.000
19.31523 173.000
19.33518 344.000
19.35513 547.000
19.37507 940.000
19.39502 1098.000
19.41497 913.000
19.43491 816.000
19.45486 722.000
19.47481 682.000
19.49475 783.000
19.51470 1028.000
19.53465 932.000
19.55459 771.000
19.57454 583.000
19.59449 356.000
19.61444 174.000
19.63438 121.000
19.65433 93.000
19.67428 97.000
19.69422 100.000
19.71417 117.000
19.73412 145.000
19.75406 184.000
19.77401 248.000
19.79396 356.000
19.81391 398.000
19.83385 351.000
19.85380 290.000
19.87375 218.000
19.89369 136.000
19.91364 78.000
19.93359 62.000
19.95353 58.000
19.97348 43.000
19.99343 41.000
20.01337 49.000
20.03332 33.000
20.05327 38.000
20.07322 35.000
20.09316 38.000
20.11311 37.000
20.13306 39.000
20.15300 22.000
20.17295 22.000
20.19290 33.000
20.21284 33.000
20.23279 29.000
20.25274 46.000
20.27269 29.000
20.29263 24.000
20.31258 28.000
20.33253 36.000
20.35247 32.000
20.37242 37.000
20.39237 31.000
20.41231 23.000
20.43226 29.000
20.45221 25.000
20.47215 36.000
20.49210 35.000
20.51205 32.000
20.53200 34.000
20.55194 28.000
20.57189 30.000
20.59184 19.000
20.61178 35.000
20.63173 30.000
20.65168 37.000
20.67162 36.000
20.69157 28.000
20.71152 32.000
20.73147 25.000
20.75141 26.000
20.77136 19.000
20.79131 18.000
20.81125 26.000
20.83120 33.000
20.85115 29.000
20.87109 19.000
20.89104 24.000
20.91099 23.000
20.93094 22.000
20.95088 24.000
20.97083 33.000
20.99078 18.000
21.01072 24.000
21.03067 23.000
21.05062 28.000
21.07056 23.000
21.09051 27.000
21.11046 36.000
21.13040 19.000
21.15035 27.000
21.17030 33.000
21.19025 28.000
21.21019 28.000
21.23014 28.000
21.25009 27.000
21.27003 30.000
21.28998 33.000
21.30993 34.000
21.32987 28.000
21.34982 25.000
21.36977 24.000
21.38972 26.000
21.40966 30.000
21.42961 29.000
21.44956 32.000
21.46950 27.000
21.48945 38.000
21.50940 39.000
21.52934 36.000
21.54929 28.000
21.56924 31.000
21.58918 40.000
21.60913 21.000
21.62908 29.000
21.64903 22.000
21.66897 26.000
21.68892 34.000
21.70887 19.000
21.72881 33.000
21.74876 31.000
21.76871 29.000
21.78865 21.000
21.80860 34.000
21.82855 28.000
21.84850 38.000
21.86844 48.000
21.88839 45.000
21.90834 58.000
21.92828 79.000
21.94823 76.000
21.96818 97.000
21.98812 98.000
22.00807 98.000
22.02802 93.000
22.04796 66.000
22.06791 84.000
22.08786 62.000
22.10781 52.000
22.12775 40.000
22.14770 64.000
22.16765 60.000
22.18759 61.000
22.20754 75.000
22.22749 70.000
22.24743 79.000
22.26738 78.000
22.28733 105.000
22.30728 132.000
22.32722 186.000
22.34717 227.000
22.36712 279.000
22.38706 351.000
22.40701 312.000
22.42696 276.000
22.44690 205.000
22.46685 192.000
22.48680 121.000
22.50675 92.000
22.52669 72.000
22.54664 73.000
22.56659 65.000
22.58653 66.000
22.60648 50.000
22.62643 42.000
22.64637 44.000
22.66632 43.000
22.68627 42.000
22.70621 36.000
22.72616 53.000
22.74611 39.000
22.76606 28.000
22.78600 40.000
22.80595 41.000
22.82590 25.000
22.84584 37.000
22.86579 44.000
22.88574 26.000
22.90568 41.000
22.92563 34.000
22.94558 36.000
22.96553 39.000
22.98547 35.000
23.00542 25.000
23.02537 31.000
23.04531 30.000
23.06526 36.000
23.08521 42.000
23.10515 34.000
23.12510 29.000
23.14505 32.000
23.16499 33.000
23.18494 23.000
23.20489 33.000
23.22484 27.000
23.24478 24.000
23.26473 29.000
23.28468 30.000
23.30462 25.000
23.32457 30.000
23.34452 19.000
23.36446 32.000
23.38441 32.000
23.40436 19.000
23.42431 28.000
23.44425 29.000
23.46420 22.000
23.48415 35.000
23.50409 31.000
23.52404 30.000
23.54399 31.000
23.56393 32.000
23.58388 36.000
23.60383 30.000
23.62377 29.000
23.64372 36.000
23.66367 33.000
23.68362 30.000
23.70356 38.000
23.72351 45.000
23.74346 49.000
23.76340 35.000
23.78335 43.000
23.80330 32.000
23.82324 40.000
23.84319 43.000
23.86314 37.000
23.88309 20.000
23.90303 27.000
23.92298 27.000
23.94293 32.000
23.96287 19.000
23.98282 24.000
24.00277 20.000
24.02271 22.000
24.04266 26.000
24.06261 35.000
24.08256 25.000
24.10250 29.000
24.12245 23.000
24.14240 29.000
24.16234 21.000
24.18229 30.000
24.20224 32.000
24.22218 30.000
24.24213 27.000
24.26208 29.000
24.28202 22.000
24.30197 21.000
24.32192 27.000
24.34187 26.000
24.36181 22.000
24.38176 21.000
24.40171 29.000
24.42165 17.000
24.44160 29.000
24.46155 28.000
24.48149 24.000
24.50144 19.000
24.52139 26.000
24.54134 27.000
24.56128 31.000
24.58123 27.000
24.60118 19.000
24.62112 28.000
24.64107 24.000
24.66102 36.000
24.68096 22.000
24.70091 22.000
24.72086 27.000
24.74080 33.000
24.76075 20.000
24.78070 27.000
24.80065 31.000
24.82059 32.000
24.84054 27.000
24.86049 27.000
24.88043 37.000
24.90038 35.000
24.92033 29.000
24.94027 28.000
24.96022 32.000
24.98017 31.000
25.00012 32.000
25.02006 31.000
25.04001 38.000
25.05996 34.000
25.07990 37.000
25.09985 34.000
25.11980 27.000
25.13974 39.000
25.15969 52.000
25.17964 49.000
25.19958 56.000
25.21953 50.000
25.23948 46.000
25.25943 60.000
25.27937 56.000
25.29932 59.000
25.31927 62.000
25.33921 65.000
25.35916 76.000
25.37911 63.000
25.39905 57.000
25.41900 55.000
25.43895 65.000
25.45890 95.000
25.47884 114.000
25.49879 124.000
25.51874 96.000
25.53868 68.000
25.55863 79.000
25.57858 77.000
25.59852 55.000
25.61847 44.000
25.63842 37.000
25.65837 35.000
25.67831 30.000
25.69826 31.000
25.71821 33.000
25.73815 35.000
25.75810 35.000
25.77805 37.000
25.79799 35.000
25.81794 33.000
25.83789 27.000
25.85783 26.000
25.87778 34.000
25.89773 32.000
25.91768 30.000
25.93762 36.000
25.95757 39.000
25.97752 31.000
25.99746 32.000
26.01741 30.000
26.03736 29.000
26.05730 31.000
26.07725 35.000
26.09720 29.000
26.11715 23.000
26.13709 29.000
26.15704 40.000
26.17699 16.000
26.19693 36.000
26.21688 29.000
26.23683 29.000
26.25677 26.000
26.27672 31.000
26.29667 33.000
26.31661 28.000
26.33656 32.000
26.35651 33.000
26.37646 21.000
26.39640 28.000
26.41635 21.000
26.43630 27.000
26.45624 30.000
26.47619 26.000
26.49614 37.000
26.51608 34.000
26.53603 29.000
26.55598 26.000
26.57593 24.000
26.59587 34.000
26.61582 35.000
26.63577 24.000
26.65571 27.000
26.67566 33.000
26.69561 42.000
26.71555 41.000
26.73550 35.000
26.75545 50.000
26.77539 39.000
26.79534 37.000
26.81529 32.000
26.83524 60.000
26.85518 60.000
26.87513 91.000
26.89508 156.000
26.91502 209.000
26.93497 221.000
26.95492 177.000
26.97486 164.000
26.99481 153.000
27.01476 153.000
27.03471 91.000
27.05465 69.000
27.07460 48.000
27.09455 63.000
27.11449 32.000
27.13444 51.000
27.15439 38.000
27.17433 44.000
27.19428 35.000
27.21423 40.000
27.23417 37.000
27.25412 33.000
27.27407 33.000
27.29402 30.000
27.31396 41.000
27.33391 32.000
27.35386 29.000
27.37380 33.000
27.39375 34.000
27.41370 39.000
27.43364 42.000
27.45359 30.000
27.47354 42.000
27.49349 42.000
27.51343 41.000
27.53338 40.000
27.55333 45.000
27.57327 30.000
27.59322 41.000
27.61317 24.000
27.63311 27.000
27.65306 33.000
27.67301 32.000
27.69296 25.000
27.71290 28.000
27.73285 29.000
27.75280 29.000
27.77274 30.000
27.79269 26.000
27.81264 29.000
27.83258 22.000
27.85253 30.000
27.87248 29.000
27.89242 25.000
27.91237 42.000
27.93232 33.000
27.95227 40.000
27.97221 26.000
27.99216 29.000
28.01211 29.000
28.03205 33.000
28.05200 31.000
28.07195 39.000
28.09189 38.000
28.11184 62.000
28.13179 80.000
28.15174 114.000
28.17168 129.000
28.19163 126.000
28.21158 79.000
28.23152 95.000
28.25147 90.000
28.27142 83.000
28.29136 41.000
28.31131 30.000
28.33126 33.000
28.35120 32.000
28.37115 29.000
28.39110 33.000
28.41105 32.000
28.43099 36.000
28.45094 37.000
28.47089 42.000
28.49083 29.000
28.51078 33.000
28.53073 42.000
28.55067 49.000
28.57062 48.000
28.59057 42.000
28.61052 35.000
28.63046 41.000
28.65041 46.000
28.67036 63.000
28.69030 62.000
28.71025 64.000
28.73020 68.000
28.75014 68.000
28.77009 76.000
28.79004 74.000
28.80998 68.000
28.82993 63.000
28.84988 102.000
28.86983 200.000
28.88977 262.000
28.90972 293.000
28.92967 301.000
28.94961 261.000
28.96956 212.000
28.98951 199.000
29.00945 165.000
29.02940 121.000
29.04935 73.000
29.06930 58.000
29.08924 38.000
29.10919 49.000
29.12914 38.000
29.14908 47.000
29.16903 27.000
29.18898 40.000
29.20892 33.000
29.22887 30.000
29.24882 33.000
29.26877 50.000
29.28871 36.000
29.30866 47.000
29.32861 35.000
29.34855 36.000
29.36850 32.000
29.38845 48.000
29.40839 29.000
29.42834 29.000
29.44829 31.000
29.46823 27.000
29.48818 41.000
29.50813 33.000
29.52808 35.000
29.54802 44.000
29.56797 25.000
29.58792 51.000
29.60786 37.000
29.62781 52.000
29.64776 48.000
29.66770 52.000
29.68765 55.000
29.70760 42.000
29.72755 40.000
29.74749 55.000
29.76744 41.000
29.78739 34.000
29.80733 29.000
29.82728 49.000
29.84723 40.000
29.86717 40.000
29.88712 34.000
29.90707 28.000
29.92701 26.000
29.94696 33.000
29.96691 41.000
29.98686 35.000
30.00680 32.000
30.02675 26.000
30.04670 32.000
30.06664 31.000
30.08659 43.000
30.10654 35.000
30.12648 31.000
30.14643 40.000
30.16638 36.000
30.18633 43.000
30.20627 35.000
30.22622 33.000
30.24617 37.000
30.26611 34.000
30.28606 33.000
30.30601 30.000
30.32595 49.000
30.34590 31.000
30.36585 38.000
30.38579 44.000
30.40574 35.000
30.42569 41.000
30.44564 33.000
30.46558 30.000
30.48553 44.000
30.50548 34.000
30.52542 25.000
30.54537 26.000
30.56532 50.000
30.58526 35.000
30.60521 26.000
30.62516 37.000
30.64511 40.000
30.66505 26.000
30.68500 34.000
30.70495 44.000
30.72489 31.000
30.74484 36.000
30.76479 49.000
30.78473 41.000
30.80468 36.000
30.82463 39.000
30.84458 32.000
30.86452 43.000
30.88447 59.000
30.90442 53.000
30.92436 58.000
30.94431 59.000
30.96426 74.000
30.98420 115.000
31.00415 164.000
31.02410 175.000
31.04404 152.000
31.06399 101.000
31.08394 123.000
31.10389 126.000
31.12383 90.000
31.14378 85.000
31.16373 86.000
31.18367 97.000
31.20362 88.000
31.22357 63.000
31.24351 66.000
31.26346 59.000
31.28341 75.000
31.30336 63.000
31.32330 46.000
31.34325 48.000
31.36320 41.000
31.38314 53.000
31.40309 45.000
31.42304 44.000
31.44298 43.000
31.46293 44.000
31.48288 41.000
31.50282 35.000
31.52277 50.000
31.54272 52.000
31.56267 50.000
31.58261 52.000
31.60256 47.000
31.62251 52.000
31.64245 49.000
31.66240 56.000
31.68235 51.000
31.70229 41.000
31.72224 52.000
31.74219 49.000
31.76214 33.000
31.78208 39.000
31.80203 35.000
31.82198 42.000
31.84192 44.000
31.86187 46.000
31.88182 37.000
31.90176 39.000
31.92171 42.000
31.94166 55.000
31.96160 50.000
31.98155 45.000
32.00150 48.000
32.02145 49.000
32.04139 45.000
32.06134 59.000
32.08129 46.000
32.10123 57.000
32.12118 40.000
32.14113 58.000
32.16107 46.000
32.18102 70.000
32.20097 89.000
32.22092 81.000
32.24086 96.000
32.26081 124.000
32.28076 137.000
32.30070 230.000
32.32065 372.000
32.34060 528.000
32.36054 638.000
32.38049 628.000
32.40044 498.000
32.42039 515.000
32.44033 453.000
32.46028 431.000
32.48023 415.000
32.50017 328.000
32.52012 189.000
32.54007 179.000
32.56001 158.000
32.57996 145.000
32.59991 99.000
32.61985 85.000
32.63980 79.000
32.65975 85.000
32.67970 72.000
32.69964 57.000
32.71959 61.000
32.73954 64.000
32.75948 50.000
32.77943 60.000
32.79938 56.000
32.81932 56.000
32.83927 55.000
32.85922 73.000
32.87917 80.000
32.89911 104.000
32.91906 143.000
32.93901 183.000
32.95895 283.000
32.97890 314.000
32.99885 244.000
33.01879 186.000
33.03874 211.000
33.05869 165.000
33.07863 132.000
33.09858 86.000
33.11853 74.000
33.13848 67.000
33.15842 50.000
33.17837 53.000
33.19832 41.000
33.21826 41.000
33.23821 48.000
33.25816 38.000
33.27810 39.000
33.29805 56.000
33.31800 44.000
33.33795 54.000
33.35789 48.000
33.37784 52.000
33.39779 51.000
33.41773 42.000
33.43768 64.000
33.45763 65.000
33.47757 71.000
33.49752 49.000
33.51747 49.000
33.53741 54.000
33.55736 57.000
33.57731 65.000
33.59726 58.000
33.61720 62.000
33.63715 63.000
33.65710 83.000
33.67704 99.000
33.69699 85.000
33.71694 100.000
33.73688 153.000
33.75683 194.000
33.77678 311.000
33.79673 594.000
33.81667 841.000
33.83662 995.000
33.85657 785.000
33.87651 740.000
33.89646 727.000
33.91641 732.000
33.93635 612.000
33.95630 453.000
33.97625 416.000
33.99620 430.000
34.01614 481.000
34.03609 634.000
34.05604 929.000
34.07598 1074.000
34.09593 942.000
34.11588 611.000
34.13582 532.000
34.15577 638.000
34.17572 553.000
34.19566 340.000
34.21561 194.000
34.23556 113.000
34.25551 79.000
34.27545 72.000
34.29540 77.000
34.31535 50.000
34.33529 54.000
34.35524 57.000
34.37519 46.000
34.39513 48.000
34.41508 51.000
34.43503 49.000
34.45498 45.000
34.47492 47.000
34.49487 46.000
34.51482 36.000
34.53476 49.000
34.55471 44.000
34.57466 38.000
34.59460 41.000
34.61455 39.000
34.63450 48.000
34.65444 49.000
34.67439 46.000
34.69434 38.000
34.71429 38.000
34.73423 56.000
34.75418 41.000
34.77413 49.000
34.79407 50.000
34.81402 47.000
34.83397 30.000
34.85391 36.000
34.87386 47.000
34.89381 27.000
34.91376 33.000
34.93370 40.000
34.95365 39.000
34.97360 42.000
34.99354 45.000
35.01349 29.000
35.03344 32.000
35.05338 46.000
35.07333 35.000
35.09328 34.000
35.11322 31.000
35.13317 33.000
35.15312 43.000
35.17307 36.000
35.19301 44.000
35.21296 39.000
35.23291 40.000
35.25285 36.000
35.27280 50.000
35.29275 41.000
35.31269 36.000
35.33264 47.000
35.35259 38.000
35.37254 36.000
35.39248 27.000
35.41243 33.000
35.43238 30.000
35.45232 41.000
35.47227 37.000
35.49222 41.000
35.51216 34.000
35.53211 52.000
35.55206 43.000
35.57201 44.000
35.59195 39.000
35.61190 52.000
35.63185 44.000
35.65179 58.000
35.67174 54.000
35.69169 74.000
35.71163 50.000
35.73158 70.000
35.75153 77.000
35.77147 69.000
35.79142 109.000
35.81137 98.000
35.83132 105.000
35.85126 137.000
35.87121 151.000
35.89116 206.000
35.91110 254.000
35.93105 319.000
35.95100 302.000
35.97094 268.000
35.99089 239.000
36.01084 285.000
36.03079 334.000
36.05073 435.000
36.07068 633.000
36.09063 744.000
36.11057 756.000
36.13052 646.000
36.15047 556.000
36.17041 515.000
36.19036 487.000
36.21031 422.000
36.23025 301.000
36.25020 248.000
36.27015 162.000
36.29010 124.000
36.31004 105.000
36.32999 90.000
36.34994 109.000
36.36988 116.000
36.38983 120.000
36.40978 85.000
36.42972 96.000
36.44967 112.000
36.46962 130.000
36.48957 167.000
36.50951 145.000
36.52946 117.000
36.54941 104.000
36.56935 100.000
36.58930 90.000
36.60925 93.000
36.62919 90.000
36.64914 60.000
36.66909 57.000
36.68903 58.000
36.70898 46.000
36.72893 52.000
36.74888 48.000
36.76882 52.000
36.78877 48.000
36.80872 41.000
36.82866 55.000
36.84861 47.000
36.86856 41.000
36.88850 44.000
36.90845 44.000
36.92840 55.000
36.94835 46.000
36.96829 52.000
36.98824 57.000
37.00819 56.000
37.02813 43.000
37.04808 41.000
37.06803 64.000
37.08797 42.000
37.10792 51.000
37.12787 51.000
37.14781 59.000
37.16776 66.000
37.18771 55.000
37.20766 80.000
37.22760 97.000
37.24755 116.000
37.26750 110.000
37.28744 139.000
37.30739 214.000
37.32734 330.000
37.34728 511.000
37.36723 740.000
37.38718 819.000
37.40713 696.000
37.42707 599.000
37.44702 674.000
37.46697 687.000
37.48691 588.000
37.50686 432.000
37.52681 335.000
37.54675 339.000
37.56670 311.000
37.58665 277.000
37.60660 272.000
37.62654 268.000
37.64649 221.000
37.66644 171.000
37.68638 186.000
37.70633 150.000
37.72628 151.000
37.74622 117.000
37.76617 78.000
37.78612 91.000
37.80606 61.000
37.82601 71.000
37.84596 75.000
37.86591 53.000
37.88585 57.000
37.90580 57.000
37.92575 49.000
37.94569 61.000
37.96564 68.000
37.98559 79.000
38.00553 124.000
38.02548 141.000
38.04543 175.000
38.06538 176.000
38.08532 199.000
38.10527 150.000
38.12522 154.000
38.14516 157.000
38.16511 149.000
38.18506 108.000
38.20500 110.000
38.22495 88.000
38.24490 72.000
38.26484 82.000
38.28479 53.000
38.30474 49.000
38.32469 48.000
38.34463 46.000
38.36458 40.000
38.38453 41.000
38.40447 47.000
38.42442 43.000
38.44437 49.000
38.46431 49.000
38.48426 56.000
38.50421 45.000
38.52416 53.000
38.54410 40.000
38.56405 54.000
38.58400 56.000
38.60394 87.000
38.62389 93.000
38.64384 169.000
38.66378 181.000
38.68373 194.000
38.70368 167.000
38.72362 143.000
38.74357 148.000
38.76352 125.000
38.78347 141.000
38.80341 140.000
38.82336 130.000
38.84331 98.000
38.86325 92.000
38.88320 89.000
38.90315 87.000
38.92309 84.000
38.94304 64.000
38.96299 59.000
38.98294 62.000
39.00288 56.000
39.02283 72.000
39.04278 73.000
39.06272 81.000
39.08267 71.000
39.10262 99.000
39.12256 104.000
39.14251 79.000
39.16246 87.000
39.18241 71.000
39.20235 62.000
39.22230 67.000
39.24225 52.000
39.26219 58.000
39.28214 44.000
39.30209 59.000
39.32203 50.000
39.34198 66.000
39.36193 70.000
39.38187 67.000
39.40182 60.000
39.42177 52.000
39.44172 55.000
39.46166 75.000
39.48161 44.000
39.50156 48.000
39.52150 47.000
39.54145 51.000
39.56140 46.000
39.58134 33.000
39.60129 44.000
39.62124 44.000
39.64119 44.000
39.66113 40.000
39.68108 34.000
39.70103 31.000
39.72097 44.000
39.74092 34.000
39.76087 50.000
39.78081 40.000
39.80076 60.000
39.82071 40.000
39.84065 48.000
39.86060 41.000
39.88055 36.000
39.90050 44.000
39.92044 38.000
39.94039 36.000
39.96034 36.000
39.98028 36.000
40.00023 48.000
40.02018 40.000
40.04012 40.000
40.06007 40.000
40.08002 35.000
40.09997 41.000
40.11991 31.000
40.13986 39.000
40.15981 45.000
40.17975 39.000
40.19970 38.000
40.21965 38.000
40.23959 50.000
40.25954 63.000
40.27949 58.000
40.29943 58.000
40.31938 56.000
40.33933 63.000
40.35928 83.000
40.37922 56.000
40.39917 42.000
40.41912 38.000
40.43906 33.000
40.45901 41.000
40.47896 35.000
40.49890 32.000
40.51885 36.000
40.53880 30.000
40.55875 18.000
40.57869 21.000
40.59864 24.000
40.61859 27.000
40.63853 15.000
40.65848 33.000
40.67843 32.000
40.69837 26.000
40.71832 23.000
40.73827 31.000
40.75822 22.000
40.77816 23.000
40.79811 31.000
40.81806 43.000
40.83800 57.000
40.85795 77.000
40.87790 83.000
40.89784 81.000
40.91779 60.000
40.93774 78.000
40.95768 54.000
40.97763 78.000
40.99758 78.000
41.01753 78.000
41.03747 69.000
41.05742 77.000
41.07737 66.000
41.09731 81.000
41.11726 53.000
41.13721 55.000
41.15715 48.000
41.17710 52.000
41.19705 35.000
41.21700 44.000
41.23694 23.000
41.25689 35.000
41.27684 26.000
41.29678 32.000
41.31673 26.000
41.33668 28.000
41.35662 35.000
41.37657 34.000
41.39652 26.000
41.41646 33.000
41.43641 24.000
41.45636 29.000
41.47631 23.000
41.49625 26.000
41.51620 35.000
41.53615 25.000
41.55609 27.000
41.57604 34.000
41.59599 31.000
41.61593 31.000
41.63588 28.000
41.65583 30.000
41.67578 21.000
41.69572 43.000
41.71567 24.000
41.73562 46.000
41.75556 31.000
41.77551 26.000
41.79546 42.000
41.81540 25.000
41.83535 53.000
41.85530 46.000
41.87524 53.000
41.89519 53.000
41.91514 52.000
41.93509 67.000
41.95503 69.000
41.97498 94.000
41.99493 149.000
42.01487 181.000
42.03482 164.000
42.05477 109.000
42.07471 123.000
42.09466 120.000
42.11461 137.000
42.13456 119.000
42.15450 124.000
42.17445 79.000
42.19440 64.000
42.21434 66.000
42.23429 50.000
42.25424 40.000
42.27418 42.000
42.29413 33.000
42.31408 30.000
42.33403 34.000
42.35397 23.000
42.37392 28.000
42.39387 33.000
42.41381 32.000
42.43376 42.000
42.45371 41.000
42.47365 46.000
42.49360 42.000
42.51355 52.000
42.53349 30.000
42.55344 45.000
42.57339 33.000
42.59334 44.000
42.61328 39.000
42.63323 37.000
42.65318 28.000
42.67312 46.000
42.69307 34.000
42.71302 26.000
42.73296 36.000
42.75291 36.000
42.77286 48.000
42.79281 58.000
42.81275 60.000
42.83270 60.000
42.85265 63.000
42.87259 46.000
42.89254 44.000
42.91249 62.000
42.93243 41.000
42.95238 57.000
42.97233 39.000
42.99227 40.000
43.01222 45.000
43.03217 34.000
43.05212 42.000
43.07206 32.000
43.09201 37.000
43.11196 35.000
43.13190 36.000
43.15185 41.000
43.17180 53.000
43.19174 43.000
43.21169 45.000
43.23164 49.000
43.25159 68.000
43.27153 79.000
43.29148 79.000
43.31143 74.000
43.33137 69.000
43.35132 86.000
43.37127 57.000
43.39121 70.000
43.41116 52.000
43.43111 67.000
43.45105 48.000
43.47100 45.000
43.49095 40.000
43.51090 38.000
43.53084 39.000
43.55079 31.000
43.57074 49.000
43.59068 31.000
43.61063 27.000
43.63058 42.000
43.65052 31.000
43.67047 38.000
43.69042 37.000
43.71037 44.000
43.73031 47.000
43.75026 60.000
43.77021 46.000
43.79015 56.000
43.81010 72.000
43.83005 104.000
43.84999 109.000
43.86994 141.000
43.88989 177.000
43.90984 215.000
43.92978 221.000
43.94973 188.000
43.96968 143.000
43.98962 144.000
44.00957 137.000
44.02952 122.000
44.04946 130.000
44.06941 121.000
44.08936 92.000
44.10930 70.000
44.12925 53.000
44.14920 41.000
44.16915 51.000
44.18909 40.000
44.20904 46.000
44.22899 47.000
44.24893 52.000
44.26888 56.000
44.28883 69.000
44.30877 64.000
44.32872 87.000
44.34867 97.000
44.36862 85.000
44.38856 125.000
44.40851 140.000
44.42846 175.000
44.44840 158.000
44.46835 181.000
44.48830 158.000
44.50824 123.000
44.52819 138.000
44.54814 109.000
44.56808 125.000
44.58803 105.000
44.60798 85.000
44.62793 77.000
44.64787 71.000
44.66782 66.000
44.68777 57.000
44.70771 65.000
44.72766 40.000
44.74761 55.000
44.76755 54.000
44.78750 54.000
44.80745 56.000
44.82740 49.000
44.84734 59.000
44.86729 47.000
44.88724 34.000
44.90718 44.000
44.92713 34.000
44.94708 35.000
44.96702 53.000
44.98697 51.000
45.00692 48.000
45.02686 58.000
45.04681 41.000
45.06676 48.000
45.08671 44.000
45.10665 48.000
45.12660 53.000
45.14655 55.000
45.16649 56.000
45.18644 48.000
45.20639 56.000
45.22633 39.000
45.24628 34.000
45.26623 36.000
45.28618 45.000
45.30612 51.000
45.32607 37.000
45.34602 31.000
45.36596 39.000
45.38591 35.000
45.40586 50.000
45.42580 40.000
45.44575 48.000
45.46570 60.000
45.48565 50.000
45.50559 70.000
45.52554 87.000
45.54549 132.000
45.56543 179.000
45.58538 210.000
45.60533 230.000
45.62527 195.000
45.64522 177.000
45.66517 157.000
45.68511 148.000
45.70506 163.000
45.72501 160.000
45.74496 143.000
45.76490 109.000
45.78485 82.000
45.80480 78.000
45.82474 53.000
45.84469 52.000
45.86464 38.000
45.88458 47.000
45.90453 32.000
45.92448 43.000
45.94443 42.000
45.96437 38.000
45.98432 32.000
46.00427 52.000
46.02421 50.000
46.04416 44.000
46.06411 32.000
46.08405 33.000
46.10400 38.000
46.12395 24.000
46.14389 30.000
46.16384 37.000
46.18379 32.000
46.20374 30.000
46.22368 26.000
46.24363 26.000
46.26358 26.000
46.28352 19.000
46.30347 26.000
46.32342 28.000
46.34336 20.000
46.36331 33.000
46.38326 23.000
46.40321 26.000
46.42315 23.000
46.44310 25.000
46.46305 17.000
46.48299 30.000
46.50294 27.000
46.52289 28.000
46.54283 14.000
46.56278 28.000
46.58273 37.000
46.60267 33.000
46.62262 34.000
46.64257 31.000
46.66252 27.000
46.68246 30.000
46.70241 44.000
46.72236 39.000
46.74230 31.000
46.76225 38.000
46.78220 37.000
46.80214 38.000
46.82209 40.000
46.84204 35.000
46.86199 41.000
46.88193 40.000
46.90188 27.000
46.92183 36.000
46.94177 31.000
46.96172 27.000
46.98167 25.000
47.00161 35.000
47.02156 35.000
47.04151 21.000
47.06146 28.000
47.08140 47.000
47.10135 31.000
47.12130 32.000
47.14124 52.000
47.16119 45.000
47.18114 51.000
47.20108 37.000
47.22103 30.000
47.24098 36.000
47.26092 35.000
47.28087 33.000
47.30082 36.000
47.32077 24.000
47.34071 20.000
47.36066 29.000
47.38061 26.000
47.40055 25.000
47.42050 23.000
47.44045 18.000
47.46039 19.000
47.48034 18.000
47.50029 24.000
47.52024 12.000
47.54018 21.000
47.56013 23.000
47.58008 24.000
47.60002 16.000
47.61997 22.000
47.63992 26.000
47.65986 18.000
47.67981 26.000
47.69976 25.000
47.71970 19.000
47.73965 22.000
47.75960 15.000
47.77955 27.000
47.79949 26.000
47.81944 13.000
47.83939 23.000
47.85933 22.000
47.87928 35.000
47.89923 21.000
47.91917 29.000
47.93912 21.000
47.95907 32.000
47.97902 24.000
47.99896 27.000
48.01891 31.000
48.03886 32.000
48.05880 23.000
48.07875 39.000
48.09870 32.000
48.11864 33.000
48.13859 31.000
48.15854 33.000
48.17848 27.000
48.19843 40.000
48.21838 46.000
48.23833 30.000
48.25827 38.000
48.27822 40.000
48.29817 39.000
48.31811 23.000
48.33806 38.000
48.35801 30.000
48.37795 48.000
48.39790 31.000
48.41785 32.000
48.43780 28.000
48.45774 34.000
48.47769 36.000
48.49764 30.000
48.51758 49.000
48.53753 49.000
48.55748 28.000
48.57742 44.000
48.59737 44.000
48.61732 40.000
48.63726 47.000
48.65721 45.000
48.67716 50.000
48.69711 38.000
48.71705 50.000
48.73700 38.000
48.75695 59.000
48.77689 50.000
48.79684 70.000
48.81679 86.000
48.83673 82.000
48.85668 95.000
48.87663 125.000
48.89658 122.000
48.91652 167.000
48.93647 222.000
48.95642 216.000
48.97636 213.000
48.99631 188.000
49.01626 200.000
49.03620 172.000
49.05615 180.000
49.07610 182.000
49.09605 162.000
49.11599 160.000
49.13594 132.000
49.15589 158.000
49.17583 125.000
49.19578 123.000
49.21573 112.000
49.23567 80.000
49.25562 79.000
49.27557 92.000
49.29551 69.000
49.31546 71.000
49.33541 64.000
49.35536 59.000
49.37530 55.000
49.39525 42.000
49.41520 46.000
49.43514 38.000
49.45509 42.000
49.47504 39.000
49.49498 44.000
49.51493 37.000
49.53488 38.000
49.55483 36.000
49.57477 22.000
49.59472 22.000
49.61467 32.000
49.63461 37.000
49.65456 33.000
49.67451 31.000
49.69445 30.000
49.71440 32.000
49.73435 35.000
49.75429 36.000
49.77424 37.000
49.79419 38.000
49.81414 42.000
49.83408 50.000
49.85403 50.000
49.87398 58.000
49.89392 63.000
49.91387 51.000
49.93382 48.000
49.95376 47.000
49.97371 57.000
49.99366 39.000
50.01361 47.000
50.03355 49.000
50.05350 39.000
50.07345 34.000
50.09339 34.000
50.11334 35.000
50.13329 26.000
50.15323 25.000
50.17318 29.000
50.19313 30.000
50.21307 34.000
50.23302 37.000
50.25297 36.000
50.27292 41.000
50.29286 40.000
50.31281 51.000
50.33276 41.000
50.35270 31.000
50.37265 49.000
50.39260 29.000
50.41254 44.000
50.43249 51.000
50.45244 34.000
50.47239 37.000
50.49233 45.000
50.51228 31.000
50.53223 47.000
50.55217 32.000
50.57212 29.000
50.59207 39.000
50.61201 38.000
50.63196 49.000
50.65191 55.000
50.67186 50.000
50.69180 60.000
50.71175 68.000
50.73170 85.000
50.75164 121.000
50.77159 137.000
50.79154 180.000
50.81148 168.000
50.83143 141.000
50.85138 127.000
50.87132 138.000
50.89127 105.000
50.91122 127.000
50.93117 118.000
50.95111 105.000
50.97106 91.000
50.99101 93.000
51.01095 79.000
51.03090 58.000
51.05085 45.000
51.07079 36.000
51.09074 47.000
51.11069 28.000
51.13064 41.000
51.15058 51.000
51.17053 48.000
51.19048 53.000
51.21042 62.000
51.23037 51.000
51.25032 91.000
51.27026 96.000
51.29021 102.000
51.31016 137.000
51.33010 193.000
51.35005 284.000
51.37000 245.000
51.38995 196.000
51.40989 219.000
51.42984 179.000
51.44979 186.000
51.46973 203.000
51.48968 242.000
51.50963 217.000
51.52957 259.000
51.54952 234.000
51.56947 283.000
51.58942 291.000
51.60936 261.000
51.62931 224.000
51.64926 166.000
51.66920 161.000
51.68915 180.000
51.70910 179.000
51.72904 171.000
51.74899 157.000
51.76894 99.000
51.78888 73.000
51.80883 65.000
51.82878 57.000
51.84873 48.000
51.86867 38.000
51.88862 43.000
51.90857 54.000
51.92851 36.000
51.94846 36.000
51.96841 45.000
51.98835 40.000
52.00830 35.000
52.02825 28.000
52.04820 31.000
52.06814 40.000
52.08809 46.000
52.10804 40.000
52.12798 70.000
52.14793 67.000
52.16788 64.000
52.18782 55.000
52.20777 46.000
52.22772 48.000
52.24767 44.000
52.26761 64.000
52.28756 50.000
52.30751 53.000
52.32745 48.000
52.34740 50.000
52.36735 44.000
52.38729 40.000
52.40724 54.000
52.42719 39.000
52.44713 37.000
52.46708 39.000
52.48703 44.000
52.50698 42.000
52.52692 41.000
52.54687 45.000
52.56682 54.000
52.58676 50.000
52.60671 43.000
52.62666 48.000
52.64660 48.000
52.66655 57.000
52.68650 63.000
52.70645 47.000
52.72639 57.000
52.74634 62.000
52.76629 63.000
52.78623 58.000
52.80618 51.000
52.82613 54.000
52.84607 51.000
52.86602 52.000
52.88597 38.000
52.90591 52.000
52.92586 28.000
52.94581 51.000
52.96576 47.000
52.98570 43.000
53.00565 37.000
53.02560 25.000
53.04554 33.000
53.06549 31.000
53.08544 45.000
53.10538 35.000
53.12533 42.000
53.14528 47.000
53.16523 60.000
53.18517 40.000
53.20512 81.000
53.22507 71.000
53.24501 97.000
53.26496 101.000
53.28491 84.000
53.30485 51.000
53.32480 54.000
53.34475 50.000
53.36469 55.000
53.38464 56.000
53.40459 75.000
53.42454 51.000
53.44448 53.000
53.46443 44.000
53.48438 24.000
53.50432 43.000
53.52427 35.000
53.54422 42.000
53.56416 36.000
53.58411 53.000
53.60406 44.000
53.62401 45.000
53.64395 37.000
53.66390 56.000
53.68385 50.000
53.70379 43.000
53.72374 37.000
53.74369 33.000
53.76363 50.000
53.78358 53.000
53.80353 55.000
53.82348 70.000
53.84342 65.000
53.86337 76.000
53.88332 79.000
53.90326 91.000
53.92321 107.000
53.94316 63.000
53.96310 84.000
53.98305 81.000
54.00300 59.000
54.02294 67.000
54.04289 71.000
54.06284 68.000
54.08279 59.000
54.10273 48.000
54.12268 37.000
54.14263 47.000
54.16257 33.000
54.18252 33.000
54.20247 35.000
54.22241 39.000
54.24236 52.000
54.26231 36.000
54.28226 36.000
54.30220 18.000
54.32215 42.000
54.34210 47.000
54.36204 27.000
54.38199 43.000
54.40194 31.000
54.42188 32.000
54.44183 25.000
54.46178 40.000
54.48172 33.000
54.50167 26.000
54.52162 47.000
54.54157 30.000
54.56151 22.000
54.58146 25.000
54.60141 26.000
54.62135 31.000
54.64130 26.000
54.66125 25.000
54.68119 24.000
54.70114 28.000
54.72109 16.000
54.74104 21.000
54.76098 26.000
54.78093 18.000
54.80088 24.000
54.82082 16.000
54.84077 24.000
54.86072 22.000
54.88066 18.000
54.90061 23.000
54.92056 25.000
54.94050 30.000
54.96045 33.000
54.98040 26.000
55.00035 26.000
55.02029 34.000
55.04024 43.000
55.06019 32.000
55.08013 40.000
55.10008 34.000
55.12003 31.000
55.13997 36.000
55.15992 50.000
55.17987 37.000
55.19982 44.000
55.21976 51.000
55.23971 70.000
55.25966 70.000
55.27960 76.000
55.29955 84.000
55.31950 73.000
55.33944 57.000
55.35939 56.000
55.37934 50.000
55.39929 50.000
55.41923 47.000
55.43918 55.000
55.45913 69.000
55.47907 48.000
55.49902 40.000
55.51897 39.000
55.53891 45.000
55.55886 39.000
55.57881 36.000
55.59875 47.000
55.61870 42.000
55.63865 36.000
55.65860 20.000
55.67854 38.000
55.69849 25.000
55.71844 27.000
55.73838 35.000
55.75833 29.000
55.77828 18.000
55.79822 28.000
55.81817 28.000
55.83812 35.000
55.85807 18.000
55.87801 25.000
55.89796 28.000
55.91791 21.000
55.93785 30.000
55.95780 39.000
55.97775 39.000
55.99769 55.000
56.01764 62.000
56.03759 60.000
56.05753 65.000
56.07748 55.000
56.09743 49.000
56.11738 50.000
56.13732 40.000
56.15727 51.000
56.17722 45.000
56.19716 43.000
56.21711 45.000
56.23706 39.000
56.25700 30.000
56.27695 32.000
56.29690 26.000
56.31685 32.000
56.33679 31.000
56.35674 21.000
56.37669 18.000
56.39663 28.000
56.41658 17.000
56.43653 38.000
56.45647 33.000
56.47642 33.000
56.49637 24.000
56.51631 33.000
56.53626 28.000
56.55621 37.000
56.57616 32.000
56.59610 34.000
56.61605 35.000
56.63600 47.000
56.65594 43.000
56.67589 33.000
56.69584 25.000
56.71578 24.000
56.73573 27.000
56.75568 30.000
56.77563 21.000
56.79557 20.000
56.81552 25.000
56.83547 25.000
56.85541 29.000
56.87536 20.000
56.89531 24.000
56.91525 22.000
56.93520 20.000
56.95515 24.000
56.97510 26.000
56.99504 21.000
57.01499 22.000
57.03494 29.000
57.05488 23.000
57.07483 21.000
57.09478 29.000
57.11472 31.000
57.13467 36.000
57.15462 29.000
57.17456 35.000
57.19451 19.000
57.21446 22.000
57.23441 29.000
57.25435 25.000
57.27430 33.000
57.29425 34.000
57.31419 31.000
57.33414 53.000
57.35409 42.000
57.37403 54.000
57.39398 40.000
57.41393 63.000
57.43388 56.000
57.45382 46.000
57.47377 33.000
57.49372 46.000
57.51366 39.000
57.53361 38.000
57.55356 53.000
57.57350 38.000
57.59345 39.000
57.61340 47.000
57.63334 27.000
57.65329 32.000
57.67324 34.000
57.69319 28.000
57.71313 15.000
57.73308 27.000
57.75303 28.000
57.77297 34.000
57.79292 31.000
57.81287 26.000
57.83281 33.000
57.85276 31.000
57.87271 26.000
57.89266 39.000
57.91260 21.000
57.93255 37.000
57.95250 37.000
57.97244 26.000
57.99239 37.000
58.01234 35.000
58.03228 26.000
58.05223 27.000
58.07218 29.000
58.09212 28.000
58.11207 37.000
58.13202 41.000
58.15197 34.000
58.17191 27.000
58.19186 37.000
58.21181 30.000
58.23175 39.000
58.25170 28.000
58.27165 36.000
58.29159 41.000
58.31154 37.000
58.33149 48.000
58.35144 31.000
58.37138 44.000
58.39133 53.000
58.41128 44.000
58.43122 57.000
58.45117 90.000
58.47112 83.000
58.49106 130.000
58.51101 165.000
58.53096 171.000
58.55090 134.000
58.57085 153.000
58.59080 139.000
58.61075 114.000
58.63069 120.000
58.65064 111.000
58.67059 114.000
58.69053 116.000
58.71048 115.000
58.73043 102.000
58.75037 83.000
58.77032 70.000
58.79027 75.000
58.81022 64.000
58.83016 69.000
58.85011 74.000
58.87006 87.000
58.89000 52.000
58.90995 59.000
58.92990 34.000
58.94984 32.000
58.96979 35.000
58.98974 31.000
59.00969 55.000
59.02963 40.000
59.04958 46.000
59.06953 45.000
59.08947 30.000
59.10942 41.000
59.12937 46.000
59.14931 46.000
59.16926 38.000
59.18921 38.000
59.20915 28.000
59.22910 34.000
59.24905 37.000
59.26900 37.000
59.28894 44.000
59.30889 36.000
59.32884 43.000
59.34878 49.000
59.36873 67.000
59.38868 61.000
59.40862 85.000
59.42857 71.000
59.44852 59.000
59.46847 56.000
59.48841 64.000
59.50836 57.000
59.52831 64.000
59.54825 56.000
59.56820 56.000
59.58815 85.000
59.60809 76.000
59.62804 69.000
59.64799 80.000
59.66793 47.000
59.68788 68.000
59.70783 72.000
59.72778 79.000
59.74772 71.000
59.76767 79.000
59.78762 87.000
59.80756 109.000
59.82751 158.000
59.84746 182.000
59.86740 238.000
59.88735 294.000
59.90730 282.000
59.92725 282.000
59.94719 239.000
59.96714 197.000
59.98709 199.000
60.00703 179.000
60.02698 174.000
60.04693 174.000
60.06687 180.000
60.08682 159.000
60.10677 149.000
60.12671 118.000
60.14666 101.000
60.16661 89.000
60.18656 79.000
60.20650 83.000
60.22645 57.000
60.24640 70.000
60.26634 54.000
60.28629 45.000
60.30624 35.000
60.32618 46.000
60.34613 38.000
60.36608 32.000
60.38603 33.000
60.40597 33.000
60.42592 30.000
60.44587 39.000
60.46581 30.000
60.48576 36.000
60.50571 32.000
60.52565 28.000
60.54560 37.000
60.56555 41.000
60.58550 38.000
60.60544 52.000
60.62539 44.000
60.64534 55.000
60.66528 95.000
60.68523 110.000
60.70518 101.000
60.72512 101.000
60.74507 75.000
60.76502 78.000
60.78496 71.000
60.80491 50.000
60.82486 78.000
60.84481 87.000
60.86475 68.000
60.88470 59.000
60.90465 74.000
60.92459 32.000
60.94454 41.000
60.96449 46.000
60.98443 42.000
61.00438 52.000
61.02433 44.000
61.04428 58.000
61.06422 47.000
61.08417 48.000
61.10412 60.000
61.12406 85.000
61.14401 64.000
61.16396 87.000
61.18390 77.000
61.20385 91.000
61.22380 95.000
61.24374 97.000
61.26369 105.000
61.28364 106.000
61.30359 87.000
61.32353 77.000
61.34348 76.000
61.36343 74.000
61.38337 70.000
61.40332 66.000
61.42327 79.000
61.44321 59.000
61.46316 65.000
61.48311 59.000
61.50306 62.000
61.52300 67.000
61.54295 67.000
61.56290 59.000
61.58284 78.000
61.60279 49.000
61.62274 56.000
61.64268 36.000
61.66263 38.000
61.68258 49.000
61.70252 36.000
61.72247 47.000
61.74242 33.000
61.76237 45.000
61.78231 31.000
61.80226 37.000
61.82221 33.000
61.84215 37.000
61.86210 39.000
61.88205 23.000
61.90199 28.000
61.92194 37.000
61.94189 33.000
61.96184 42.000
61.98178 34.000
62.00173 44.000
62.02168 36.000
62.04162 38.000
62.06157 43.000
62.08152 41.000
62.10146 50.000
62.12141 52.000
62.14136 71.000
62.16131 74.000
62.18125 61.000
62.20120 79.000
62.22115 92.000
62.24109 103.000
62.26104 94.000
62.28099 122.000
62.30093 112.000
62.32088 151.000
62.34083 134.000
62.36077 104.000
62.38072 90.000
62.40067 81.000
62.42062 83.000
62.44056 90.000
62.46051 95.000
62.48046 88.000
62.50040 79.000
62.52035 95.000
62.54030 55.000
62.56024 60.000
62.58019 39.000
62.60014 63.000
62.62009 49.000
62.64003 54.000
62.65998 45.000
62.67993 45.000
62.69987 43.000
62.71982 44.000
62.73977 49.000
62.75971 51.000
62.77966 56.000
62.79961 70.000
62.81955 100.000
62.83950 118.000
62.85945 157.000
62.87940 144.000
62.89934 131.000
62.91929 127.000
62.93924 130.000
62.95918 114.000
62.97913 144.000
62.99908 120.000
63.01902 131.000
63.03897 170.000
63.05892 193.000
63.07887 186.000
63.09881 232.000
63.11876 251.000
63.13871 276.000
63.15865 206.000
63.17860 188.000
63.19855 144.000
63.21849 137.000
63.23844 134.000
63.25839 136.000
63.27833 160.000
63.29828 160.000
63.31823 154.000
63.33818 125.000
63.35812 103.000
63.37807 81.000
63.39802 74.000
63.41796 51.000
63.43791 68.000
63.45786 55.000
63.47780 55.000
63.49775 33.000
63.51770 46.000
63.53765 50.000
63.55759 40.000
63.57754 41.000
63.59749 36.000
63.61743 41.000
63.63738 32.000
63.65733 30.000
63.67727 24.000
63.69722 24.000
63.71717 35.000
63.73712 25.000
63.75706 28.000
63.77701 34.000
63.79696 39.000
63.81690 35.000
63.83685 32.000
63.85680 38.000
63.87674 32.000
63.89669 41.000
63.91664 36.000
63.93658 42.000
63.95653 41.000
63.97648 50.000
63.99643 36.000
64.01637 55.000
64.03632 62.000
64.05627 79.000
64.07621 63.000
64.09616 67.000
64.11611 122.000
64.13605 123.000
64.15600 155.000
64.17595 161.000
64.19590 137.000
64.21584 145.000
64.23579 107.000
64.25574 108.000
64.27568 72.000
64.29563 92.000
64.31558 124.000
64.33552 126.000
64.35547 126.000
64.37542 133.000
64.39536 118.000
64.41531 89.000
64.43526 94.000
64.45521 106.000
64.47515 95.000
64.49510 101.000
64.51505 81.000
64.53499 79.000
64.55494 90.000
64.57489 87.000
64.59483 99.000
64.61478 107.000
64.63473 146.000
64.65468 149.000
64.67462 161.000
64.69457 135.000
64.71452 123.000
64.73446 101.000
64.75441 83.000
64.77436 70.000
64.79430 87.000
64.81425 97.000
64.83420 97.000
64.85414 94.000
64.87409 95.000
64.89404 86.000
64.91399 64.000
64.93393 54.000
64.95388 61.000
64.97383 44.000
64.99377 51.000
65.01372 37.000
65.03367 36.000
65.05361 36.000
65.07356 28.000
65.09351 33.000
65.11346 27.000
65.13340 21.000
65.15335 40.000
65.17330 25.000
65.19324 39.000
65.21319 35.000
65.23314 41.000
65.25308 44.000
65.27303 37.000
65.29298 53.000
65.31293 48.000
65.33287 43.000
65.35282 53.000
65.37277 34.000
65.39271 50.000
65.41266 51.000
65.43261 42.000
65.45255 49.000
65.47250 48.000
65.49245 58.000
65.51239 59.000
65.53234 43.000
65.55229 36.000
65.57224 42.000
65.59218 45.000
65.61213 67.000
65.63208 55.000
65.65202 54.000
65.67197 51.000
65.69192 70.000
65.71186 50.000
65.73181 61.000
65.75176 51.000
65.77171 54.000
65.79165 44.000
65.81160 43.000
65.83155 54.000
65.85149 44.000
65.87144 36.000
65.89139 57.000
65.91133 57.000
65.93128 53.000
65.95123 52.000
65.97117 48.000
65.99112 64.000
66.01107 65.000
66.03102 94.000
66.05096 137.000
66.07091 164.000
66.09086 186.000
66.11080 177.000
66.13075 143.000
66.15070 107.000
66.17064 84.000
66.19059 84.000
66.21054 77.000
66.23049 87.000
66.25043 90.000
66.27038 117.000
66.29033 119.000
66.31027 91.000
66.33022 69.000
66.35017 58.000
66.37011 54.000
66.39006 43.000
66.41001 40.000
66.42995 43.000
66.44990 42.000
66.46985 30.000
66.48980 30.000
66.50974 26.000
66.52969 36.000
66.54964 22.000
66.56958 33.000
66.58953 27.000
66.60948 27.000
66.62942 36.000
66.64937 29.000
66.66932 34.000
66.68927 37.000
66.70921 34.000
66.72916 41.000
66.74911 29.000
66.76905 33.000
66.78900 25.000
66.80895 47.000
66.82889 46.000
66.84884 24.000
66.86879 33.000
66.88874 34.000
66.90868 33.000
66.92863 42.000
66.94858 41.000
66.96852 39.000
66.98847 38.000
67.00842 39.000
67.02836 35.000
67.04831 45.000
67.06826 54.000
67.08820 34.000
67.10815 38.000
67.12810 30.000
67.14805 45.000
67.16799 32.000
67.18794 33.000
67.20789 30.000
67.22783 35.000
67.24778 35.000
67.26773 37.000
67.28767 34.000
67.30762 25.000
67.32757 37.000
67.34752 36.000
67.36746 33.000
67.38741 30.000
67.40736 23.000
67.42730 45.000
67.44725 31.000
67.46720 38.000
67.48714 37.000
67.50709 26.000
67.52704 24.000
67.54698 30.000
67.56693 33.000
67.58688 28.000
67.60683 37.000
67.62677 29.000
67.64672 37.000
67.66667 33.000
67.68661 35.000
67.70656 34.000
67.72651 39.000
67.74645 24.000
67.76640 41.000
67.78635 51.000
67.80630 37.000
67.82624 34.000
67.84619 33.000
67.86614 39.000
67.88608 35.000
67.90603 41.000
67.92598 45.000
67.94592 44.000
67.96587 31.000
67.98582 36.000
68.00576 55.000
68.02571 36.000
68.04566 24.000
68.06561 32.000
68.08555 30.000
68.10550 28.000
68.12545 34.000
68.14539 22.000
68.16534 13.000
68.18529 26.000
68.20523 22.000
68.22518 20.000
68.24513 22.000
68.26508 20.000
68.28502 17.000
68.30497 23.000
68.32492 29.000
68.34486 14.000
68.36481 25.000
68.38476 19.000
68.40470 19.000
68.42465 23.000
68.44460 20.000
68.46455 27.000
68.48449 23.000
68.50444 23.000
68.52439 21.000
68.54433 24.000
68.56428 17.000
68.58423 30.000
68.60417 21.000
68.62412 36.000
68.64407 36.000
68.66401 52.000
68.68396 22.000
68.70391 35.000
68.72386 33.000
68.74380 40.000
68.76375 29.000
68.78370 30.000
68.80364 38.000
68.82359 35.000
68.84354 38.000
68.86348 35.000
68.88343 42.000
68.90338 46.000
68.92333 43.000
68.94327 37.000
68.96322 23.000
68.98317 27.000
69.00311 24.000
69.02306 35.000
69.04301 40.000
69.06295 30.000
69.08290 42.000
69.10285 35.000
69.12279 34.000
69.14274 30.000
69.16269 31.000
69.18264 34.000
69.20258 30.000
69.22253 32.000
69.24248 31.000
69.26242 29.000
69.28237 24.000
69.30232 27.000
69.32226 28.000
69.34221 35.000
69.36216 29.000
69.38211 34.000
69.40205 26.000
69.42200 28.000
69.44195 44.000
69.46189 37.000
69.48184 26.000
69.50179 33.000
69.52173 40.000
69.54168 40.000
69.56163 42.000
69.58157 48.000
69.60152 54.000
69.62147 65.000
69.64142 69.000
69.66136 54.000
69.68131 51.000
69.70126 76.000
69.72120 75.000
69.74115 76.000
69.76110 86.000
69.78104 88.000
69.80099 95.000
69.82094 78.000
69.84089 75.000
69.86083 82.000
69.88078 74.000
69.90073 51.000
69.92067 55.000
69.94062 53.000
69.96057 59.000
69.98051 76.000
70.00046 47.000
70.02041 51.000
70.04035 55.000
70.06030 57.000
70.08025 45.000
70.10020 32.000
70.12014 32.000
70.14009 34.000
70.16004 34.000
70.17998 23.000
70.19993 26.000
70.21988 23.000
70.23982 25.000
70.25977 23.000
70.27972 31.000
70.29967 36.000
70.31961 28.000
70.33956 35.000
70.35951 26.000
70.37945 23.000
70.39940 31.000
70.41935 25.000
70.43929 23.000
70.45924 35.000
70.47919 31.000
70.49914 25.000
70.51908 27.000
70.53903 29.000
70.55898 29.000
70.57892 20.000
70.59887 22.000
70.61882 29.000
70.63876 35.000
70.65871 31.000
70.67866 32.000
70.69860 24.000
70.71855 23.000
70.73850 35.000
70.75845 28.000
70.77839 26.000
70.79834 30.000
70.81829 27.000
70.83823 30.000
70.85818 21.000
70.87813 30.000
70.89807 34.000
70.91802 26.000
70.93797 36.000
70.95792 21.000
70.97786 18.000
70.99781 23.000
71.01776 25.000
71.03770 29.000
71.05765 22.000
71.07760 23.000
71.09754 25.000
71.11749 32.000
71.13744 27.000
71.15738 32.000
71.17733 37.000
71.19728 37.000
71.21723 36.000
71.23717 31.000
71.25712 20.000
71.27707 25.000
71.29701 19.000
71.31696 26.000
71.33691 35.000
71.35685 28.000
71.37680 18.000
71.39675 25.000
71.41670 28.000
71.43664 22.000
71.45659 25.000
71.47654 24.000
71.49648 36.000
71.51643 28.000
71.53638 27.000
71.55632 14.000
71.57627 19.000
71.59622 22.000
71.61616 33.000
71.63611 19.000
71.65606 28.000
71.67601 27.000
71.69595 34.000
71.71590 41.000
71.73585 40.000
71.75579 37.000
71.77574 38.000
71.79569 33.000
71.81563 28.000
71.83558 40.000
71.85553 31.000
71.87548 25.000
71.89542 28.000
71.91537 28.000
71.93532 27.000
71.95526 29.000
71.97521 32.000
71.99516 23.000
72.01510 25.000
72.03505 25.000
72.05500 31.000
72.07495 28.000
72.09489 27.000
72.11484 30.000
72.13479 23.000
72.15473 34.000
72.17468 31.000
72.19463 34.000
72.21457 28.000
72.23452 31.000
72.25447 44.000
72.27441 33.000
72.29436 32.000
72.31431 39.000
72.33426 52.000
72.35420 39.000
72.37415 32.000
72.39410 42.000
72.41404 40.000
72.43399 39.000
72.45394 25.000
72.47388 30.000
72.49383 24.000
72.51378 31.000
72.53373 45.000
72.55367 47.000
72.57362 28.000
72.59357 24.000
72.61351 21.000
72.63346 28.000
72.65341 26.000
72.67335 28.000
72.69330 22.000
72.71325 21.000
72.73319 33.000
72.75314 14.000
72.77309 30.000
72.79304 28.000
72.81298 24.000
72.83293 22.000
72.85288 24.000
72.87282 17.000
72.89277 18.000
72.91272 25.000
72.93266 18.000
72.95261 21.000
72.97256 15.000
72.99251 22.000
73.01245 24.000
73.03240 16.000
73.05235 16.000
73.07229 19.000
73.09224 18.000
73.11219 18.000
73.13213 20.000
73.15208 24.000
73.17203 22.000
73.19197 22.000
73.21192 17.000
73.23187 26.000
73.25182 19.000
73.27176 18.000
73.29171 27.000
73.31166 38.000
73.33160 41.000
73.35155 24.000
73.37150 26.000
73.39144 31.000
73.41139 27.000
73.43134 20.000
73.45129 19.000
73.47123 33.000
73.49118 27.000
73.51113 31.000
73.53107 24.000
73.55102 25.000
73.57097 29.000
73.59091 27.000
73.61086 34.000
73.63081 18.000
73.65076 40.000
73.67070 35.000
73.69065 32.000
73.71060 37.000
73.73054 31.000
73.75049 33.000
73.77044 33.000
73.79038 36.000
73.81033 32.000
73.83028 40.000
73.85022 30.000
73.87017 35.000
73.89012 39.000
73.91007 44.000
73.93001 30.000
73.94996 40.000
73.96991 37.000
73.98985 36.000
74.00980 32.000
74.02975 29.000
74.04969 38.000
74.06964 44.000
74.08959 46.000
74.10954 48.000
74.12948 66.000
74.14943 70.000
74.16938 67.000
74.18932 70.000
74.20927 78.000
74.22922 72.000
74.24916 62.000
74.26911 40.000
74.28906 45.000
74.30900 36.000
74.32895 44.000
74.34890 34.000
74.36885 53.000
74.38879 52.000
74.40874 39.000
74.42869 58.000
74.44863 34.000
74.46858 41.000
74.48853 32.000
74.50847 27.000
74.52842 30.000
74.54837 19.000
74.56832 18.000
74.58826 31.000
74.60821 30.000
74.62816 25.000
74.64810 22.000
74.66805 26.000
74.68800 17.000
74.70794 14.000
74.72789 16.000
74.74784 21.000
74.76778 19.000
74.78773 17.000
74.80768 21.000
74.82763 13.000
74.84757 22.000
74.86752 23.000
74.88747 24.000
74.90741 25.000
74.92736 27.000
74.94731 22.000
74.96725 41.000
74.98720 25.000
75.00715 20.000
75.02710 17.000
75.04704 23.000
75.06699 20.000
75.08694 30.000
75.10688 16.000
75.12683 24.000
75.14678 27.000
75.16672 25.000
75.18667 23.000
75.20662 27.000
75.22657 20.000
75.24651 24.000
75.26646 21.000
75.28641 20.000
75.30635 16.000
75.32630 24.000
75.34625 26.000
75.36619 23.000
75.38614 17.000
75.40609 24.000
75.42603 20.000
75.44598 17.000
75.46593 17.000
75.48588 11.000
75.50582 21.000
75.52577 24.000
75.54572 33.000
75.56566 23.000
75.58561 25.000
75.60556 35.000
75.62550 27.000
75.64545 13.000
75.66540 22.000
75.68535 20.000
75.70529 30.000
75.72524 19.000
75.74519 11.000
75.76513 26.000
75.78508 21.000
75.80503 24.000
75.82497 30.000
75.84492 29.000
75.86487 26.000
75.88481 19.000
75.90476 18.000
75.92471 19.000
75.94466 26.000
75.96460 20.000
75.98455 25.000
76.00450 22.000
76.02444 19.000
76.04439 30.000
76.06434 24.000
76.08428 26.000
76.10423 26.000
76.12418 30.000
76.14413 35.000
76.16407 22.000
76.18402 27.000
76.20397 39.000
76.22391 31.000
76.24386 44.000
76.26381 34.000
76.28375 43.000
76.30370 67.000
76.32365 68.000
76.34359 84.000
76.36354 78.000
76.38349 78.000
76.40344 85.000
76.42338 78.000
76.44333 81.000
76.46328 96.000
76.48322 108.000
76.50317 112.000
76.52312 126.000
76.54306 102.000
76.56301 97.000
76.58296 113.000
76.60291 88.000
76.62285 104.000
76.64280 78.000
76.66275 68.000
76.68269 83.000
76.70264 86.000
76.72259 84.000
76.74253 66.000
76.76248 65.000
76.78243 54.000
76.80238 45.000
76.82232 56.000
76.84227 37.000
76.86222 34.000
76.88216 50.000
76.90211 53.000
76.92206 39.000
76.94200 38.000
76.96195 35.000
76.98190 42.000
77.00184 36.000
77.02179 27.000
77.04174 39.000
77.06169 31.000
77.08163 25.000
77.10158 34.000
77.12153 26.000
77.14147 35.000
77.16142 28.000
77.18137 32.000
77.20131 42.000
77.22126 35.000
77.24121 40.000
77.26116 47.000
77.28110 35.000
77.30105 21.000
77.32100 16.000
77.34094 30.000
77.36089 35.000
77.38084 28.000
77.40078 23.000
77.42073 45.000
77.44068 26.000
77.46062 38.000
77.48057 42.000
77.50052 37.000
77.52047 43.000
77.54041 38.000
77.56036 57.000
77.58031 53.000
77.60025 49.000
77.62020 56.000
77.64015 38.000
77.66009 31.000
77.68004 34.000
77.69999 37.000
77.71994 28.000
77.73988 38.000
77.75983 32.000
77.77978 34.000
77.79972 55.000
77.81967 41.000
77.83962 40.000
77.85956 48.000
77.87951 28.000
77.89946 34.000
77.91940 26.000
77.93935 35.000
77.95930 25.000
77.97925 19.000
77.99919 28.000
78.01914 24.000
78.03909 27.000
78.05903 34.000
78.07898 45.000
78.09893 42.000
78.11887 26.000
78.13882 40.000
78.15877 44.000
78.17872 27.000
78.19866 37.000
78.21861 26.000
78.23856 22.000
78.25850 34.000
78.27845 40.000
78.29840 33.000
78.31834 24.000
78.33829 23.000
78.35824 28.000
78.37819 32.000
78.39813 23.000
78.41808 32.000
78.43803 26.000
78.45797 31.000
78.47792 21.000
78.49787 21.000
78.51781 22.000
78.53776 19.000
78.55771 24.000
78.57765 18.000
78.59760 27.000
78.61755 24.000
78.63750 35.000
78.65744 16.000
78.67739 23.000
78.69734 24.000
78.71728 17.000
78.73723 17.000
78.75718 26.000
78.77712 30.000
78.79707 21.000
78.81702 21.000
78.83697 15.000
78.85691 20.000
78.87686 21.000
78.89681 23.000
78.91675 19.000
78.93670 30.000
78.95665 31.000
78.97659 23.000
78.99654 21.000
79.01649 26.000
79.03643 17.000
79.05638 21.000
79.07633 22.000
79.09628 33.000
79.11622 18.000
79.13617 23.000
79.15612 18.000
79.17606 31.000
79.19601 32.000
79.21596 41.000
79.23590 28.000
79.25585 25.000
79.27580 29.000
79.29575 40.000
79.31569 33.000
79.33564 43.000
79.35559 18.000
79.37553 28.000
79.39548 18.000
79.41543 20.000
79.43537 31.000
79.45532 28.000
79.47527 30.000
79.49521 29.000
79.51516 25.000
79.53511 35.000
79.55506 22.000
79.57500 25.000
79.59495 24.000
79.61490 30.000
79.63484 33.000
79.65479 27.000
79.67474 31.000
79.69468 28.000
79.71463 24.000
79.73458 10.000
79.75453 26.000
79.77447 26.000
79.79442 24.000
79.81437 28.000
79.83431 21.000
79.85426 17.000
79.87421 32.000
79.89415 32.000
79.91410 31.000
79.93405 33.000
79.95399 31.000
79.97394 42.000
79.99389 28.000
80.01384 24.000
80.03378 36.000
80.05373 36.000
80.07368 23.000
80.09362 39.000
80.11357 34.000
80.13352 34.000
80.15346 41.000
80.17341 39.000
80.19336 43.000
80.21331 49.000
80.23325 43.000
80.25320 37.000
80.27315 33.000
80.29309 38.000
80.31304 26.000
80.33299 36.000
80.35293 29.000
80.37288 40.000
80.39283 36.000
80.41278 31.000
80.43272 43.000
80.45267 34.000
80.47262 34.000
80.49256 52.000
80.51251 36.000
80.53246 30.000
80.55240 35.000
80.57235 50.000
80.59230 33.000
80.61224 36.000
80.63219 42.000
80.65214 36.000
80.67209 28.000
80.69203 31.000
80.71198 49.000
80.73193 42.000
80.75187 26.000
80.77182 32.000
80.79177 31.000
80.81171 39.000
80.83166 38.000
80.85161 27.000
80.87156 33.000
80.89150 33.000
80.91145 37.000
80.93140 29.000
80.95134 26.000
80.97129 32.000
80.99124 26.000
81.01118 26.000
81.03113 36.000
81.05108 35.000
81.07102 36.000
81.09097 23.000
81.11092 29.000
81.13087 21.000
81.15081 29.000
81.17076 23.000
81.19071 20.000
81.21065 24.000
81.23060 31.000
81.25055 23.000
81.27049 19.000
81.29044 27.000
81.31039 23.000
81.33034 32.000
81.35028 30.000
81.37023 21.000
81.39018 21.000
81.41012 16.000
81.43007 29.000
81.45002 33.000
81.46996 23.000
81.48991 29.000
81.50986 28.000
81.52980 28.000
81.54975 29.000
81.56970 19.000
81.58965 20.000
81.60959 27.000
81.62954 29.000
81.64949 27.000
81.66943 24.000
81.68938 24.000
81.70933 30.000
81.72927 24.000
81.74922 19.000
81.76917 33.000
81.78912 27.000
81.80906 17.000
81.82901 25.000
81.84896 17.000
81.86890 26.000
81.88885 24.000
81.90880 19.000
81.92874 27.000
81.94869 27.000
81.96864 22.000
81.98859 13.000
82.00853 22.000
82.02848 25.000
82.04843 23.000
82.06837 27.000
82.08832 18.000
82.10827 28.000
82.12821 15.000
82.14816 14.000
82.16811 16.000
82.18805 18.000
82.20800 14.000
82.22795 19.000
82.24790 12.000
82.26784 18.000
82.28779 25.000
82.30774 21.000
82.32768 23.000
82.34763 21.000
82.36758 35.000
82.38752 32.000
82.40747 28.000
82.42742 20.000
82.44737 24.000
82.46731 26.000
82.48726 29.000
82.50721 30.000
82.52715 24.000
82.54710 21.000
82.56705 22.000
82.58699 28.000
82.60694 32.000
82.62689 31.000
82.64683 28.000
82.66678 26.000
82.68673 21.000
82.70668 19.000
82.72662 31.000
82.74657 27.000
82.76652 29.000
82.78646 23.000
82.80641 30.000
82.82636 36.000
82.84630 30.000
82.86625 41.000
82.88620 36.000
82.90615 33.000
82.92609 31.000
82.94604 42.000
82.96599 46.000
82.98593 31.000
83.00588 28.000
83.02583 34.000
83.04577 21.000
83.06572 29.000
83.08567 25.000
83.10561 30.000
83.12556 29.000
83.14551 41.000
83.16546 28.000
83.18540 14.000
83.20535 38.000
83.22530 37.000
83.24524 27.000
83.26519 27.000
83.28514 22.000
83.30508 26.000
83.32503 25.000
83.34498 31.000
83.36493 27.000
83.38487 22.000
83.40482 19.000
83.42477 18.000
83.44471 20.000
83.46466 19.000
83.48461 23.000
83.50455 21.000
83.52450 13.000
83.54445 22.000
83.56440 28.000
83.58434 24.000
83.60429 23.000
83.62424 22.000
83.64418 28.000
83.66413 21.000
83.68408 22.000
83.70402 18.000
83.72397 17.000
83.74392 31.000
83.76386 24.000
83.78381 31.000
83.80376 27.000
83.82371 28.000
83.84365 20.000
83.86360 26.000
83.88355 34.000
83.90349 32.000
83.92344 31.000
83.94339 18.000
83.96333 40.000
83.98328 41.000
84.00323 37.000
84.02318 49.000
84.04312 44.000
84.06307 32.000
84.08302 32.000
84.10296 33.000
84.12291 27.000
84.14286 21.000
84.16280 24.000
84.18275 36.000
84.20270 30.000
84.22264 30.000
84.24259 28.000
84.26254 26.000
84.28249 28.000
84.30243 40.000
84.32238 29.000
84.34233 16.000
84.36227 15.000
84.38222 29.000
84.40217 13.000
84.42211 13.000
84.44206 21.000
84.46201 23.000
84.48196 22.000
84.50190 22.000
84.52185 18.000
84.54180 14.000
84.56174 26.000
84.58169 26.000
84.60164 25.000
84.62158 18.000
84.64153 26.000
84.66148 23.000
84.68142 24.000
84.70137 31.000
84.72132 29.000
84.74127 17.000
84.76121 39.000
84.78116 37.000
84.80111 26.000
84.82105 34.000
84.84100 34.000
84.86095 37.000
84.88089 17.000
84.90084 30.000
84.92079 30.000
84.94074 27.000
84.96068 21.000
84.98063 29.000
85.00058 28.000
85.02052 23.000
85.04047 38.000
85.06042 27.000
85.08036 28.000
85.10031 35.000
85.12026 15.000
85.14021 22.000
85.16015 20.000
85.18010 22.000
85.20005 21.000
85.21999 23.000
85.23994 20.000
85.25989 28.000
85.27983 23.000
85.29978 18.000
85.31973 17.000
85.33967 21.000
85.35962 22.000
85.37957 17.000
85.39952 12.000
85.41946 20.000
85.43941 17.000
85.45936 30.000
85.47930 21.000
85.49925 20.000
85.51920 16.000
85.53914 16.000
85.55909 17.000
85.57904 21.000
85.59899 12.000
85.61893 16.000
85.63888 23.000
85.65883 14.000
85.67877 11.000
85.69872 16.000
85.71867 22.000
85.73861 24.000
85.75856 27.000
85.77851 21.000
85.79845 24.000
85.81840 21.000
85.83835 23.000
85.85830 32.000
85.87824 25.000
85.89819 14.000
85.91814 27.000
85.93808 22.000
85.95803 20.000
85.97798 28.000
85.99792 20.000
86.01787 21.000
86.03782 22.000
86.05777 21.000
86.07771 19.000
86.09766 20.000
86.11761 24.000
86.13755 18.000
86.15750 31.000
86.17745 20.000
86.19739 21.000
86.21734 19.000
86.23729 27.000
86.25723 30.000
86.27718 23.000
86.29713 20.000
86.31708 22.000
86.33702 19.000
86.35697 26.000
86.37692 28.000
86.39686 25.000
86.41681 25.000
86.43676 35.000
86.45670 25.000
86.47665 42.000
86.49660 41.000
86.51655 39.000
86.53649 52.000
86.55644 44.000
86.57639 52.000
86.59633 33.000
86.61628 46.000
86.63623 40.000
86.65617 34.000
86.67612 30.000
86.69607 34.000
86.71602 31.000
86.73596 42.000
86.75591 40.000
86.77586 47.000
86.79580 39.000
86.81575 23.000
86.83570 31.000
86.85564 32.000
86.87559 29.000
86.89554 24.000
86.91548 37.000
86.93543 24.000
86.95538 35.000
86.97533 32.000
86.99527 23.000
87.01522 30.000
87.03517 12.000
87.05511 30.000
87.07506 18.000
87.09501 27.000
87.11495 24.000
87.13490 21.000
87.15485 19.000
87.17480 17.000
87.19474 27.000
87.21469 17.000
87.23464 25.000
87.25458 17.000
87.27453 18.000
87.29448 20.000
87.31442 23.000
87.33437 15.000
87.35432 23.000
87.37426 17.000
87.39421 29.000
87.41416 18.000
87.43411 22.000
87.45405 18.000
87.47400 19.000
87.49395 18.000
87.51389 18.000
87.53384 21.000
87.55379 17.000
87.57373 22.000
87.59368 15.000
87.61363 15.000
87.63358 15.000
87.65352 16.000
87.67347 15.000
87.69342 16.000
87.71336 13.000
87.73331 21.000
87.75326 19.000
87.77320 23.000
87.79315 23.000
87.81310 17.000
87.83304 21.000
87.85299 19.000
87.87294 10.000
87.89289 17.000
87.91283 20.000
87.93278 17.000
87.95273 16.000
87.97267 18.000
87.99262 13.000
88.01257 8.000
88.03251 18.000
88.05246 14.000
88.07241 16.000
88.09236 26.000
88.11230 21.000
88.13225 21.000
88.15220 16.000
88.17214 13.000
88.19209 16.000
88.21204 27.000
88.23198 19.000
88.25193 19.000
88.27188 15.000
88.29183 13.000
88.31177 14.000
88.33172 21.000
88.35167 17.000
88.37161 20.000
88.39156 18.000
88.41151 17.000
88.43145 15.000
88.45140 17.000
88.47135 16.000
88.49129 12.000
88.51124 19.000
88.53119 12.000
88.55114 17.000
88.57108 14.000
88.59103 15.000
88.61098 16.000
88.63092 18.000
88.65087 23.000
88.67082 19.000
88.69076 16.000
88.71071 21.000
88.73066 12.000
88.75061 26.000
88.77055 17.000
88.79050 19.000
88.81045 15.000
88.83039 19.000
88.85034 15.000
88.87029 17.000
88.89023 19.000
88.91018 21.000
88.93013 32.000
88.95007 31.000
88.97002 28.000
88.98997 23.000
89.00992 27.000
89.02986 23.000
89.04981 19.000
89.06976 13.000
89.08970 27.000
89.10965 31.000
89.12960 24.000
89.14954 25.000
89.16949 26.000
89.18944 28.000
89.20939 34.000
89.22933 24.000
89.24928 24.000
89.26923 22.000
89.28917 22.000
89.30912 32.000
89.32907 14.000
89.34901 32.000
89.36896 29.000
89.38891 29.000
89.40885 49.000
89.42880 27.000
89.44875 43.000
89.46870 38.000
89.48864 36.000
89.50859 49.000
89.52854 29.000
89.54848 35.000
89.56843 29.000
89.58838 29.000
89.60832 30.000
89.62827 30.000
89.64822 29.000
89.66817 39.000
89.68811 23.000
89.70806 26.000
89.72801 26.000
89.74795 43.000
89.76790 40.000
89.78785 41.000
89.80779 46.000
89.82774 33.000
89.84769 28.000
89.86764 36.000
89.88758 32.000
89.90753 25.000
89.92748 23.000
89.94742 21.000
89.96737 20.000
89.98732 16.000
90.00726 15.000
