10.00000 135.000
10.01995 96.000
10.03989 129.000
10.05984 116.000
10.07979 127.000
10.09973 138.000
10.11968 140.000
10.13963 132.000
10.15958 164.000
10.17952 116.000
10.19947 110.000
10.21942 139.000
10.23936 127.000
10.25931 131.000
10.27926 134.000
10.29920 141.000
10.31915 142.000
10.33910 117.000
10.35905 135.000
10.37899 137.000
10.39894 107.000
10.41889 127.000
10.43883 122.000
10.45878 134.000
10.47873 123.000
10.49867 126.000
10.51862 119.000
10.53857 118.000
10.55851 128.000
10.57846 138.000
10.59841 125.000
10.61836 147.000
10.63830 127.000
10.65825 150.000
10.67820 146.000
10.69814 158.000
10.71809 123.000
10.73804 135.000
10.75798 130.000
10.77793 150.000
10.79788 126.000
10.81783 137.000
10.83777 151.000
10.85772 141.000
10.87767 136.000
10.89761 128.000
10.91756 148.000
10.93751 123.000
10.95745 131.000
10.97740 145.000
10.99735 134.000
11.01730 136.000
11.03724 140.000
11.05719 131.000
11.07714 106.000
11.09708 115.000
11.11703 156.000
11.13698 137.000
11.15692 142.000
11.17687 128.000
11.19682 147.000
11.21676 144.000
11.23671 113.000
11.25666 126.000
11.27661 126.000
11.29655 138.000
11.31650 126.000
11.33645 144.000
11.35639 116.000
11.37634 126.000
11.39629 120.000
11.41623 146.000
11.43618 121.000
11.45613 130.000
11.47608 130.000
11.49602 146.000
11.51597 118.000
11.53592 114.000
11.55586 127.000
11.57581 130.000
11.59576 147.000
11.61570 149.000
11.63565 144.000
11.65560 137.000
11.67554 140.000
11.69549 146.000
11.71544 143.000
11.73539 143.000
11.75533 134.000
11.77528 120.000
11.79523 133.000
11.81517 126.000
11.83512 141.000
11.85507 141.000
11.87501 119.000
11.89496 134.000
11.91491 130.000
11.93486 148.000
11.95480 124.000
11.97475 124.000
11.99470 128.000
12.01464 139.000
12.03459 132.000
12.05454 124.000
12.07448 125.000
12.09443 142.000
12.11438 126.000
12.13432 129.000
12.15427 145.000
12.17422 132.000
12.19417 136.000
12.21411 138.000
12.23406 130.000
12.25401 146.000
12.27395 127.000
12.29390 154.000
12.31385 128.000
12.33379 133.000
12.35374 122.000
12.37369 136.000
12.39364 129.000
12.41358 143.000
12.43353 117.000
12.45348 161.000
12.47342 138.000
12.49337 140.000
12.51332 128.000
12.53326 131.000
12.55321 143.000
12.57316 124.000
12.59311 144.000
12.61305 119.000
12.63300 129.000
12.65295 155.000
12.67289 161.000
12.69284 149.000
12.71279 130.000
12.73273 135.000
12.75268 130.000
12.77263 141.000
12.79257 129.000
12.81252 131.000
12.83247 129.000
12.85242 129.000
12.87236 129.000
12.89231 133.000
12.91226 154.000
12.93220 124.000
12.95215 136.000
12.97210 129.000
12.99204 144.000
13.01199 146.000
13.03194 147.000
13.05189 154.000
13.07183 139.000
13.09178 141.000
13.11173 133.000
13.13167 115.000
13.15162 153.000
13.17157 151.000
13.19151 124.000
13.21146 140.000
13.23141 154.000
13.25135 135.000
13.27130 140.000
13.29125 159.000
13.31120 132.000
13.33114 130.000
13.35109 145.000
13.37104 123.000
13.39098 132.000
13.41093 142.000
13.43088 148.000
13.45082 135.000
13.47077 145.000
13.49072 152.000
13.51067 145.000
13.53061 139.000
13.55056 160.000
13.57051 131.000
13.59045 140.000
13.61040 139.000
13.63035 162.000
13.65029 134.000
13.67024 134.000
13.69019 132.000
13.71013 133.000
13.73008 153.000
13.75003 163.000
13.76998 138.000
13.78992 154.000
13.80987 147.000
13.82982 128.000
13.84976 147.000
13.86971 138.000
13.88966 145.000
13.90960 124.000
13.92955 150.000
13.94950 147.000
13.96945 140.000
13.98939 136.000
14.00934 152.000
14.02929 128.000
14.04923 128.000
14.06918 150.000
14.08913 141.000
14.10907 165.000
14.12902 119.000
14.14897 138.000
14.16892 147.000
14.18886 135.000
14.20881 154.000
14.22876 128.000
14.24870 142.000
14.26865 134.000
14.28860 152.000
14.30854 142.000
14.32849 135.000
14.34844 145.000
14.36838 141.000
14.38833 139.000
14.40828 156.000
14.42823 117.000
14.44817 154.000
14.46812 123.000
14.48807 158.000
14.50801 133.000
14.52796 143.000
14.54791 145.000
14.56785 163.000
14.58780 146.000
14.60775 133.000
14.62770 158.000
14.64764 131.000
14.66759 137.000
14.68754 153.000
14.70748 150.000
14.72743 148.000
14.74738 136.000
14.76732 176.000
14.78727 134.000
14.80722 161.000
14.82716 147.000
14.84711 162.000
14.86706 152.000
14.88701 156.000
14.90695 120.000
14.92690 160.000
14.94685 167.000
14.96679 154.000
14.98674 140.000
15.00669 139.000
15.02663 147.000
15.04658 162.000
15.06653 146.000
15.08648 139.000
15.10642 155.000
15.12637 144.000
15.14632 145.000
15.16626 157.000
15.18621 136.000
15.20616 144.000
15.22610 159.000
15.24605 150.000
15.26600 149.000
15.28594 151.000
15.30589 151.000
15.32584 152.000
15.34579 134.000
15.36573 152.000
15.38568 152.000
15.40563 127.000
15.42557 166.000
15.44552 128.000
15.46547 145.000
15.48541 159.000
15.50536 140.000
15.52531 140.000
15.54526 139.000
15.56520 165.000
15.58515 134.000
15.60510 137.000
15.62504 145.000
15.64499 165.000
15.66494 173.000
15.68488 150.000
15.70483 180.000
15.72478 157.000
15.74472 149.000
15.76467 163.000
15.78462 168.000
15.80457 144.000
15.82451 140.000
15.84446 139.000
15.86441 157.000
15.88435 140.000
15.90430 168.000
15.92425 168.000
15.94419 145.000
15.96414 183.000
15.98409 163.000
16.00404 158.000
16.02398 146.000
16.04393 176.000
16.06388 161.000
16.08382 153.000
16.10377 161.000
16.12372 178.000
16.14366 171.000
16.16361 160.000
16.18356 167.000
16.20351 169.000
16.22345 161.000
16.24340 186.000
16.26335 172.000
16.28329 177.000
16.30324 164.000
16.32319 158.000
16.34313 186.000
16.36308 190.000
16.38303 186.000
16.40297 182.000
16.42292 154.000
16.44287 178.000
16.46282 174.000
16.48276 151.000
16.50271 182.000
16.52266 162.000
16.54260 166.000
16.56255 175.000
16.58250 168.000
16.60244 182.000
16.62239 187.000
16.64234 163.000
16.66229 169.000
16.68223 192.000
16.70218 162.000
16.72213 192.000
16.74207 196.000
16.76202 231.000
16.78197 193.000
16.80191 234.000
16.82186 216.000
16.84181 232.000
16.86175 194.000
16.88170 172.000
16.90165 194.000
16.92160 192.000
16.94154 187.000
16.96149 212.000
16.98144 175.000
17.00138 195.000
17.02133 194.000
17.04128 180.000
17.06122 151.000
17.08117 170.000
17.10112 190.000
17.12107 188.000
17.14101 207.000
17.16096 191.000
17.18091 187.000
17.20085 193.000
17.22080 190.000
17.24075 190.000
17.26069 187.000
17.28064 201.000
17.30059 194.000
17.32053 183.000
17.34048 165.000
17.36043 201.000
17.38038 205.000
17.40032 181.000
17.42027 180.000
17.44022 184.000
17.46016 187.000
17.48011 183.000
17.50006 192.000
17.52000 198.000
17.53995 215.000
17.55990 225.000
17.57985 194.000
17.59979 187.000
17.61974 223.000
17.63969 189.000
17.65963 211.000
17.67958 201.000
17.69953 218.000
17.71947 207.000
17.73942 217.000
17.75937 219.000
17.77932 207.000
17.79926 194.000
17.81921 228.000
17.83916 227.000
17.85910 213.000
17.87905 194.000
17.89900 193.000
17.91894 215.000
17.93889 220.000
17.95884 202.000
17.97878 192.000
17.99873 213.000
18.01868 200.000
18.03863 229.000
18.05857 217.000
18.07852 209.000
18.09847 219.000
18.11841 215.000
18.13836 218.000
18.15831 208.000
18.17825 225.000
18.19820 235.000
18.21815 194.000
18.23810 236.000
18.25804 274.000
18.27799 256.000
18.29794 229.000
18.31788 255.000
18.33783 293.000
18.35778 306.000
18.37772 314.000
18.39767 281.000
18.41762 272.000
18.43756 253.000
18.45751 240.000
18.47746 223.000
18.49741 209.000
18.51735 231.000
18.53730 246.000
18.55725 240.000
18.57719 228.000
18.59714 219.000
18.61709 237.000
18.63703 215.000
18.65698 231.000
18.67693 239.000
18.69688 232.000
18.71682 206.000
18.73677 216.000
18.75672 225.000
18.77666 230.000
18.79661 225.000
18.81656 233.000
18.83650 237.000
18.85645 235.000
18.87640 223.000
18.89634 242.000
18.91629 218.000
18.93624 226.000
18.95619 233.000
18.97613 252.000
18.99608 229.000
19.01603 244.000
19.03597 244.000
19.05592 240.000
19.07587 279.000
19.09581 250.000
19.11576 249.000
19.13571 226.000
19.15566 226.000
19.17560 253.000
19.19555 247.000
19.21550 254.000
19.23544 268.000
19.25539 250.000
19.27534 221.000
19.29528 274.000
19.31523 244.000
19.33518 259.000
19.35513 248.000
19.37507 231.000
19.39502 245.000
19.41497 270.000
19.43491 254.000
19.45486 229.000
19.47481 237.000
19.49475 298.000
19.51470 280.000
19.53465 269.000
19.55459 239.000
19.57454 251.000
19.59449 257.000
19.61444 238.000
19.63438 261.000
19.65433 243.000
19.67428 253.000
19.69422 263.000
19.71417 261.000
19.73412 267.000
19.75406 256.000
19.77401 255.000
19.79396 254.000
19.81391 248.000
19.83385 281.000
19.85380 278.000
19.87375 282.000
19.89369 263.000
19.91364 288.000
19.93359 276.000
19.95353 267.000
19.97348 280.000
19.99343 276.000
20.01337 279.000
20.03332 280.000
20.05327 255.000
20.07322 249.000
20.09316 268.000
20.11311 290.000
20.13306 270.000
20.15300 251.000
20.17295 286.000
20.19290 302.000
20.21284 291.000
20.23279 285.000
20.25274 276.000
20.27269 283.000
20.29263 298.000
20.31258 304.000
20.33253 272.000
20.35247 280.000
20.37242 321.000
20.39237 308.000
20.41231 327.000
20.43226 308.000
20.45221 290.000
20.47215 334.000
20.49210 301.000
20.51205 341.000
20.53200 330.000
20.55194 345.000
20.57189 323.000
20.59184 316.000
20.61178 334.000
20.63173 309.000
20.65168 319.000
20.67162 317.000
20.69157 389.000
20.71152 370.000
20.73147 398.000
20.75141 393.000
20.77136 392.000
20.79131 460.000
20.81125 370.000
20.83120 399.000
20.85115 384.000
20.87109 374.000
20.89104 355.000
20.91099 404.000
20.93094 366.000
20.95088 408.000
20.97083 405.000
20.99078 371.000
21.01072 417.000
21.03067 392.000
21.05062 394.000
21.07056 378.000
21.09051 304.000
21.11046 329.000
21.13040 319.000
21.15035 304.000
21.17030 274.000
21.19025 305.000
21.21019 316.000
21.23014 316.000
21.25009 278.000
21.27003 289.000
21.28998 281.000
21.30993 294.000
21.32987 257.000
21.34982 307.000
21.36977 291.000
21.38972 303.000
21.40966 322.000
21.42961 310.000
21.44956 311.000
21.46950 318.000
21.48945 289.000
21.50940 312.000
21.52934 290.000
21.54929 302.000
21.56924 323.000
21.58918 286.000
21.60913 310.000
21.62908 303.000
21.64903 296.000
21.66897 272.000
21.68892 310.000
21.70887 284.000
21.72881 308.000
21.74876 321.000
21.76871 289.000
21.78865 328.000
21.80860 303.000
21.82855 297.000
21.84850 294.000
21.86844 312.000
21.88839 327.000
21.90834 292.000
21.92828 334.000
21.94823 324.000
21.96818 300.000
21.98812 294.000
22.00807 301.000
22.02802 310.000
22.04796 294.000
22.06791 329.000
22.08786 312.000
22.10781 301.000
22.12775 302.000
22.14770 321.000
22.16765 328.000
22.18759 326.000
22.20754 314.000
22.22749 297.000
22.24743 317.000
22.26738 336.000
22.28733 341.000
22.30728 316.000
22.32722 316.000
22.34717 286.000
22.36712 352.000
22.38706 313.000
22.40701 295.000
22.42696 332.000
22.44690 349.000
22.46685 314.000
22.48680 306.000
22.50675 332.000
22.52669 311.000
22.54664 293.000
22.56659 336.000
22.58653 339.000
22.60648 313.000
22.62643 308.000
22.64637 326.000
22.66632 332.000
22.68627 319.000
22.70621 372.000
22.72616 352.000
22.74611 342.000
22.76606 309.000
22.78600 332.000
22.80595 356.000
22.82590 334.000
22.84584 311.000
22.86579 338.000
22.88574 319.000
22.90568 298.000
22.92563 316.000
22.94558 353.000
22.96553 336.000
22.98547 334.000
23.00542 333.000
23.02537 321.000
23.04531 279.000
23.06526 327.000
23.08521 356.000
23.10515 343.000
23.12510 333.000
23.14505 329.000
23.16499 321.000
23.18494 316.000
23.20489 329.000
23.22484 343.000
23.24478 332.000
23.26473 350.000
23.28468 365.000
23.30462 315.000
23.32457 350.000
23.34452 367.000
23.36446 337.000
23.38441 343.000
23.40436 361.000
23.42431 317.000
23.44425 338.000
23.46420 369.000
23.48415 343.000
23.50409 322.000
23.52404 316.000
23.54399 375.000
23.56393 349.000
23.58388 319.000
23.60383 348.000
23.62377 344.000
23.64372 367.000
23.66367 331.000
23.68362 362.000
23.70356 361.000
23.72351 351.000
23.74346 377.000
23.76340 377.000
23.78335 366.000
23.80330 349.000
23.82324 391.000
23.84319 349.000
23.86314 330.000
23.88309 359.000
23.90303 381.000
23.92298 353.000
23.94293 355.000
23.96287 372.000
23.98282 357.000
24.00277 368.000
24.02271 355.000
24.04266 363.000
24.06261 336.000
24.08256 381.000
24.10250 367.000
24.12245 324.000
24.14240 363.000
24.16234 351.000
24.18229 394.000
24.20224 388.000
24.22218 394.000
24.24213 393.000
24.26208 392.000
24.28202 360.000
24.30197 333.000
24.32192 364.000
24.34187 361.000
24.36181 364.000
24.38176 370.000
24.40171 408.000
24.42165 367.000
24.44160 344.000
24.46155 351.000
24.48149 383.000
24.50144 428.000
24.52139 391.000
24.54134 382.000
24.56128 374.000
24.58123 408.000
24.60118 412.000
24.62112 396.000
24.64107 391.000
24.66102 390.000
24.68096 393.000
24.70091 396.000
24.72086 385.000
24.74080 364.000
24.76075 400.000
24.78070 403.000
24.80065 393.000
24.82059 379.000
24.84054 375.000
24.86049 402.000
24.88043 363.000
24.90038 410.000
24.92033 370.000
24.94027 435.000
24.96022 384.000
24.98017 413.000
25.00012 427.000
25.02006 421.000
25.04001 403.000
25.05996 382.000
25.07990 416.000
25.09985 398.000
25.11980 416.000
25.13974 437.000
25.15969 432.000
25.17964 415.000
25.19958 415.000
25.21953 401.000
25.23948 400.000
25.25943 407.000
25.27937 437.000
25.29932 424.000
25.31927 428.000
25.33921 427.000
25.35916 411.000
25.37911 409.000
25.39905 424.000
25.41900 440.000
25.43895 418.000
25.45890 394.000
25.47884 433.000
25.49879 434.000
25.51874 456.000
25.53868 438.000
25.55863 420.000
25.57858 405.000
25.59852 446.000
25.61847 430.000
25.63842 462.000
25.65837 424.000
25.67831 454.000
25.69826 460.000
25.71821 464.000
25.73815 477.000
25.75810 430.000
25.77805 441.000
25.79799 474.000
25.81794 464.000
25.83789 448.000
25.85783 465.000
25.87778 430.000
25.89773 431.000
25.91768 433.000
25.93762 418.000
25.95757 428.000
25.97752 474.000
25.99746 486.000
26.01741 428.000
26.03736 464.000
26.05730 459.000
26.07725 441.000
26.09720 474.000
26.11715 493.000
26.13709 476.000
26.15704 422.000
26.17699 471.000
26.19693 481.000
26.21688 473.000
26.23683 496.000
26.25677 452.000
26.27672 476.000
26.29667 472.000
26.31661 452.000
26.33656 491.000
26.35651 468.000
26.37646 481.000
26.39640 488.000
26.41635 476.000
26.43630 443.000
26.45624 463.000
26.47619 479.000
26.49614 444.000
26.51608 466.000
26.53603 521.000
26.55598 496.000
26.57593 531.000
26.59587 522.000
26.61582 523.000
26.63577 497.000
26.65571 483.000
26.67566 483.000
26.69561 494.000
26.71555 469.000
26.73550 492.000
26.75545 506.000
26.77539 475.000
26.79534 511.000
26.81529 502.000
26.83524 514.000
26.85518 454.000
26.87513 517.000
26.89508 499.000
26.91502 543.000
26.93497 468.000
26.95492 557.000
26.97486 553.000
26.99481 557.000
27.01476 515.000
27.03471 497.000
27.05465 523.000
27.07460 526.000
27.09455 537.000
27.11449 495.000
27.13444 571.000
27.15439 538.000
27.17433 501.000
27.19428 503.000
27.21423 511.000
27.23417 548.000
27.25412 516.000
27.27407 528.000
27.29402 525.000
27.31396 502.000
27.33391 528.000
27.35386 496.000
27.37380 551.000
27.39375 512.000
27.41370 496.000
27.43364 544.000
27.45359 559.000
27.47354 547.000
27.49349 534.000
27.51343 515.000
27.53338 500.000
27.55333 548.000
27.57327 544.000
27.59322 595.000
27.61317 528.000
27.63311 530.000
27.65306 592.000
27.67301 553.000
27.69296 546.000
27.71290 511.000
27.73285 557.000
27.75280 556.000
27.77274 547.000
27.79269 538.000
27.81264 569.000
27.83258 559.000
27.85253 556.000
27.87248 540.000
27.89242 553.000
27.91237 556.000
27.93232 527.000
27.95227 589.000
27.97221 559.000
27.99216 551.000
28.01211 525.000
28.03205 561.000
28.05200 555.000
28.07195 575.000
28.09189 562.000
28.11184 499.000
28.13179 515.000
28.15174 528.000
28.17168 537.000
28.19163 583.000
28.21158 602.000
28.23152 573.000
28.25147 549.000
28.27142 573.000
28.29136 551.000
28.31131 607.000
28.33126 574.000
28.35120 542.000
28.37115 579.000
28.39110 541.000
28.41105 560.000
28.43099 561.000
28.45094 585.000
28.47089 542.000
28.49083 569.000
28.51078 595.000
28.53073 600.000
28.55067 580.000
28.57062 561.000
28.59057 584.000
28.61052 627.000
28.63046 591.000
28.65041 557.000
28.67036 571.000
28.69030 580.000
28.71025 593.000
28.73020 584.000
28.75014 628.000
28.77009 573.000
28.79004 627.000
28.80998 599.000
28.82993 636.000
28.84988 594.000
28.86983 540.000
28.88977 578.000
28.90972 578.000
28.92967 569.000
28.94961 611.000
28.96956 552.000
28.98951 653.000
29.00945 624.000
29.02940 590.000
29.04935 608.000
29.06930 569.000
29.08924 586.000
29.10919 582.000
29.12914 608.000
29.14908 611.000
29.16903 589.000
29.18898 585.000
29.20892 624.000
29.22887 614.000
29.24882 597.000
29.26877 634.000
29.28871 645.000
29.30866 625.000
29.32861 658.000
29.34855 644.000
29.36850 671.000
29.38845 657.000
29.40839 627.000
29.42834 665.000
29.44829 648.000
29.46823 629.000
29.48818 630.000
29.50813 614.000
29.52808 589.000
29.54802 593.000
29.56797 610.000
29.58792 584.000
29.60786 602.000
29.62781 636.000
29.64776 635.000
29.66770 613.000
29.68765 602.000
29.70760 607.000
29.72755 629.000
29.74749 597.000
29.76744 631.000
29.78739 655.000
29.80733 659.000
29.82728 555.000
29.84723 600.000
29.86717 589.000
29.88712 646.000
29.90707 591.000
29.92701 576.000
29.94696 611.000
29.96691 578.000
29.98686 592.000
30.00680 634.000
30.02675 589.000
30.04670 632.000
30.06664 597.000
30.08659 608.000
30.10654 598.000
30.12648 695.000
30.14643 655.000
30.16638 704.000
30.18633 750.000
30.20627 829.000
30.22622 885.000
30.24617 887.000
30.26611 769.000
30.28606 790.000
30.30601 803.000
30.32595 738.000
30.34590 681.000
30.36585 622.000
30.38579 614.000
30.40574 558.000
30.42569 661.000
30.44564 571.000
30.46558 595.000
30.48553 590.000
30.50548 635.000
30.52542 600.000
30.54537 564.000
30.56532 592.000
30.58526 618.000
30.60521 600.000
30.62516 579.000
30.64511 571.000
30.66505 599.000
30.68500 577.000
30.70495 586.000
30.72489 590.000
30.74484 577.000
30.76479 539.000
30.78473 572.000
30.80468 546.000
30.82463 622.000
30.84458 574.000
30.86452 576.000
30.88447 614.000
30.90442 632.000
30.92436 565.000
30.94431 545.000
30.96426 561.000
30.98420 624.000
31.00415 559.000
31.02410 583.000
31.04404 598.000
31.06399 564.000
31.08394 556.000
31.10389 565.000
31.12383 596.000
31.14378 572.000
31.16373 569.000
31.18367 606.000
31.20362 570.000
31.22357 593.000
31.24351 525.000
31.26346 534.000
31.28341 585.000
31.30336 564.000
31.32330 553.000
31.34325 570.000
31.36320 548.000
31.38314 532.000
31.40309 542.000
31.42304 505.000
31.44298 590.000
31.46293 539.000
31.48288 563.000
31.50282 562.000
31.52277 556.000
31.54272 534.000
31.56267 544.000
31.58261 544.000
31.60256 511.000
31.62251 573.000
31.64245 521.000
31.66240 549.000
31.68235 559.000
31.70229 540.000
31.72224 511.000
31.74219 517.000
31.76214 554.000
31.78208 579.000
31.80203 538.000
31.82198 564.000
31.84192 525.000
31.86187 591.000
31.88182 542.000
31.90176 542.000
31.92171 559.000
31.94166 568.000
31.96160 564.000
31.98155 587.000
32.00150 527.000
32.02145 506.000
32.04139 539.000
32.06134 545.000
32.08129 584.000
32.10123 524.000
32.12118 490.000
32.14113 505.000
32.16107 533.000
32.18102 549.000
32.20097 512.000
32.22092 567.000
32.24086 534.000
32.26081 545.000
32.28076 536.000
32.30070 528.000
32.32065 536.000
32.34060 520.000
32.36054 522.000
32.38049 542.000
32.40044 536.000
32.42039 520.000
32.44033 517.000
32.46028 552.000
32.48023 541.000
32.50017 540.000
32.52012 550.000
32.54007 486.000
32.56001 561.000
32.57996 520.000
32.59991 551.000
32.61985 551.000
32.63980 531.000
32.65975 538.000
32.67970 498.000
32.69964 503.000
32.71959 498.000
32.73954 521.000
32.75948 494.000
32.77943 505.000
32.79938 512.000
32.81932 481.000
32.83927 529.000
32.85922 495.000
32.87917 470.000
32.89911 534.000
32.91906 508.000
32.93901 514.000
32.95895 483.000
32.97890 491.000
32.99885 489.000
33.01879 509.000
33.03874 516.000
33.05869 498.000
33.07863 515.000
33.09858 477.000
33.11853 495.000
33.13848 510.000
33.15842 499.000
33.17837 495.000
33.19832 524.000
33.21826 546.000
33.23821 480.000
33.25816 494.000
33.27810 472.000
33.29805 532.000
33.31800 510.000
33.33795 496.000
33.35789 498.000
33.37784 516.000
33.39779 509.000
33.41773 481.000
33.43768 518.000
33.45763 524.000
33.47757 496.000
33.49752 512.000
33.51747 491.000
33.53741 503.000
33.55736 481.000
33.57731 498.000
33.59726 516.000
33.61720 519.000
33.63715 500.000
33.65710 519.000
33.67704 501.000
33.69699 499.000
33.71694 486.000
33.73688 513.000
33.75683 550.000
33.77678 576.000
33.79673 502.000
33.81667 516.000
33.83662 541.000
33.85657 542.000
33.87651 490.000
33.89646 516.000
33.91641 560.000
33.93635 527.000
33.95630 538.000
33.97625 514.000
33.99620 555.000
34.01614 537.000
34.03609 550.000
34.05604 552.000
34.07598 561.000
34.09593 536.000
34.11588 578.000
34.13582 538.000
34.15577 556.000
34.17572 562.000
34.19566 596.000
34.21561 602.000
34.23556 529.000
34.25551 627.000
34.27545 587.000
34.29540 626.000
34.31535 602.000
34.33529 581.000
34.35524 556.000
34.37519 606.000
34.39513 590.000
34.41508 610.000
34.43503 602.000
34.45498 602.000
34.47492 601.000
34.49487 546.000
34.51482 591.000
34.53476 560.000
34.55471 529.000
34.57466 567.000
34.59460 571.000
34.61455 575.000
34.63450 587.000
34.65444 579.000
34.67439 551.000
34.69434 535.000
34.71429 536.000
34.73423 544.000
34.75418 494.000
34.77413 595.000
34.79407 557.000
34.81402 575.000
34.83397 595.000
34.85391 560.000
34.87386 552.000
34.89381 529.000
34.91376 536.000
34.93370 534.000
34.95365 559.000
34.97360 585.000
34.99354 565.000
35.01349 556.000
35.03344 554.000
35.05338 606.000
35.07333 638.000
35.09328 626.000
35.11322 629.000
35.13317 663.000
35.15312 638.000
35.17307 680.000
35.19301 648.000
35.21296 661.000
35.23291 684.000
35.25285 690.000
35.27280 677.000
35.29275 672.000
35.31269 708.000
35.33264 693.000
35.35259 762.000
35.37254 786.000
35.39248 827.000
35.41243 860.000
35.43238 1195.000
35.45232 1556.000
35.47227 1613.000
35.49222 1362.000
35.51216 1246.000
35.53211 1379.000
35.55206 1366.000
35.57201 1281.000
35.59195 1480.000
35.61190 1497.000
35.63185 1485.000
35.65179 1227.000
35.67174 1014.000
35.69169 1006.000
35.71163 958.000
35.73158 892.000
35.75153 778.000
35.77147 586.000
35.79142 595.000
35.81137 587.000
35.83132 493.000
35.85126 531.000
35.87121 516.000
35.89116 475.000
35.91110 479.000
35.93105 508.000
35.95100 532.000
35.97094 484.000
35.99089 498.000
36.01084 510.000
36.03079 489.000
36.05073 519.000
36.07068 489.000
36.09063 497.000
36.11057 468.000
36.13052 491.000
36.15047 483.000
36.17041 455.000
36.19036 523.000
36.21031 471.000
36.23025 522.000
36.25020 471.000
36.27015 499.000
36.29010 482.000
36.31004 467.000
36.32999 489.000
36.34994 506.000
36.36988 498.000
36.38983 488.000
36.40978 495.000
36.42972 457.000
36.44967 530.000
36.46962 551.000
36.48957 503.000
36.50951 522.000
36.52946 511.000
36.54941 547.000
36.56935 565.000
36.58930 477.000
36.60925 550.000
36.62919 573.000
36.64914 573.000
36.66909 515.000
36.68903 595.000
36.70898 566.000
36.72893 550.000
36.74888 528.000
36.76882 551.000
36.78877 558.000
36.80872 524.000
36.82866 541.000
36.84861 552.000
36.86856 558.000
36.88850 629.000
36.90845 612.000
36.92840 609.000
36.94835 602.000
36.96829 643.000
36.98824 667.000
37.00819 681.000
37.02813 672.000
37.04808 634.000
37.06803 679.000
37.08797 722.000
37.10792 680.000
37.12787 674.000
37.14781 600.000
37.16776 699.000
37.18771 544.000
37.20766 610.000
37.22760 514.000
37.24755 499.000
37.26750 524.000
37.28744 508.000
37.30739 468.000
37.32734 443.000
37.34728 439.000
37.36723 427.000
37.38718 429.000
37.40713 462.000
37.42707 419.000
37.44702 402.000
37.46697 418.000
37.48691 388.000
37.50686 393.000
37.52681 387.000
37.54675 427.000
37.56670 425.000
37.58665 404.000
37.60660 426.000
37.62654 353.000
37.64649 425.000
37.66644 405.000
37.68638 427.000
37.70633 405.000
37.72628 393.000
37.74622 390.000
37.76617 468.000
37.78612 453.000
37.80606 449.000
37.82601 421.000
37.84596 393.000
37.86591 447.000
37.88585 445.000
37.90580 410.000
37.92575 414.000
37.94569 412.000
37.96564 434.000
37.98559 409.000
38.00553 446.000
38.02548 436.000
38.04543 410.000
38.06538 490.000
38.08532 457.000
38.10527 447.000
38.12522 460.000
38.14516 474.000
38.16511 477.000
38.18506 454.000
38.20500 444.000
38.22495 457.000
38.24490 495.000
38.26484 476.000
38.28479 499.000
38.30474 493.000
38.32469 495.000
38.34463 492.000
38.36458 457.000
38.38453 474.000
38.40447 510.000
38.42442 564.000
38.44437 547.000
38.46431 561.000
38.48426 636.000
38.50421 671.000
38.52416 710.000
38.54410 785.000
38.56405 763.000
38.58400 697.000
38.60394 671.000
38.62389 749.000
38.64384 692.000
38.66378 682.000
38.68373 667.000
38.70368 610.000
38.72362 565.000
38.74357 523.000
38.76352 513.000
38.78347 527.000
38.80341 477.000
38.82336 482.000
38.84331 463.000
38.86325 494.000
38.88320 513.000
38.90315 529.000
38.92309 511.000
38.94304 543.000
38.96299 493.000
38.98294 530.000
39.00288 545.000
39.02283 526.000
39.04278 486.000
39.06272 472.000
39.08267 511.000
39.10262 472.000
39.12256 440.000
39.14251 486.000
39.16246 456.000
39.18241 416.000
39.20235 391.000
39.22230 433.000
39.24225 378.000
39.26219 398.000
39.28214 421.000
39.30209 425.000
39.32203 409.000
39.34198 412.000
39.36193 421.000
39.38187 447.000
39.40182 397.000
39.42177 394.000
39.44172 388.000
39.46166 411.000
39.48161 379.000
39.50156 410.000
39.52150 388.000
39.54145 400.000
39.56140 377.000
39.58134 422.000
39.60129 360.000
39.62124 405.000
39.64119 377.000
39.66113 411.000
39.68108 433.000
39.70103 377.000
39.72097 366.000
39.74092 415.000
39.76087 388.000
39.78081 368.000
39.80076 380.000
39.82071 424.000
39.84065 441.000
39.86060 423.000
39.88055 406.000
39.90050 404.000
39.92044 417.000
39.94039 400.000
39.96034 386.000
39.98028 408.000
40.00023 386.000
40.02018 398.000
40.04012 419.000
40.06007 412.000
40.08002 396.000
40.09997 381.000
40.11991 362.000
40.13986 354.000
40.15981 381.000
40.17975 366.000
40.19970 376.000
40.21965 424.000
40.23959 388.000
40.25954 377.000
40.27949 378.000
40.29943 405.000
40.31938 401.000
40.33933 417.000
40.35928 403.000
40.37922 395.000
40.39917 396.000
40.41912 392.000
40.43906 408.000
40.45901 376.000
40.47896 416.000
40.49890 362.000
40.51885 383.000
40.53880 440.000
40.55875 436.000
40.57869 409.000
40.59864 400.000
40.61859 386.000
40.63853 397.000
40.65848 426.000
40.67843 384.000
40.69837 420.000
40.71832 391.000
40.73827 373.000
40.75822 394.000
40.77816 383.000
40.79811 383.000
40.81806 429.000
40.83800 407.000
40.85795 416.000
40.87790 393.000
40.89784 381.000
40.91779 408.000
40.93774 395.000
40.95768 391.000
40.97763 382.000
40.99758 401.000
41.01753 362.000
41.03747 429.000
41.05742 395.000
41.07737 379.000
41.09731 388.000
41.11726 376.000
41.13721 393.000
41.15715 417.000
41.17710 391.000
41.19705 413.000
41.21700 406.000
41.23694 396.000
41.25689 397.000
41.27684 418.000
41.29678 382.000
41.31673 401.000
41.33668 406.000
41.35662 427.000
41.37657 428.000
41.39652 402.000
41.41646 433.000
41.43641 435.000
41.45636 402.000
41.47631 382.000
41.49625 414.000
41.51620 428.000
41.53615 383.000
41.55609 438.000
41.57604 436.000
41.59599 421.000
41.61593 393.000
41.63588 416.000
41.65583 404.000
41.67578 397.000
41.69572 432.000
41.71567 405.000
41.73562 424.000
41.75556 424.000
41.77551 447.000
41.79546 424.000
41.81540 444.000
41.83535 426.000
41.85530 454.000
41.87524 439.000
41.89519 401.000
41.91514 464.000
41.93509 393.000
41.95503 419.000
41.97498 439.000
41.99493 418.000
42.01487 446.000
42.03482 420.000
42.05477 441.000
42.07471 419.000
42.09466 434.000
42.11461 441.000
42.13456 457.000
42.15450 416.000
42.17445 444.000
42.19440 455.000
42.21434 439.000
42.23429 491.000
42.25424 429.000
42.27418 461.000
42.29413 508.000
42.31408 459.000
42.33403 474.000
42.35397 468.000
42.37392 506.000
42.39387 471.000
42.41381 519.000
42.43376 495.000
42.45371 503.000
42.47365 477.000
42.49360 545.000
42.51355 533.000
42.53349 468.000
42.55344 545.000
42.57339 535.000
42.59334 572.000
42.61328 566.000
42.63323 526.000
42.65318 549.000
42.67312 543.000
42.69307 609.000
42.71302 580.000
42.73296 545.000
42.75291 600.000
42.77286 634.000
42.79281 609.000
42.81275 654.000
42.83270 661.000
42.85265 635.000
42.87259 627.000
42.89254 673.000
42.91249 640.000
42.93243 636.000
42.95238 674.000
42.97233 715.000
42.99227 687.000
43.01222 708.000
43.03217 672.000
43.05212 694.000
43.07206 739.000
43.09201 754.000
43.11196 737.000
43.13190 713.000
43.15185 688.000
43.17180 667.000
43.19174 657.000
43.21169 679.000
43.23164 664.000
43.25159 664.000
43.27153 604.000
43.29148 694.000
43.31143 750.000
43.33137 682.000
43.35132 537.000
43.37127 527.000
43.39121 496.000
43.41116 490.000
43.43111 527.000
43.45105 482.000
43.47100 450.000
43.49095 418.000
43.51090 382.000
43.53084 373.000
43.55079 387.000
43.57074 419.000
43.59068 369.000
43.61063 370.000
43.63058 376.000
43.65052 365.000
43.67047 362.000
43.69042 378.000
43.71037 363.000
43.73031 365.000
43.75026 355.000
43.77021 335.000
43.79015 352.000
43.81010 342.000
43.83005 374.000
43.84999 363.000
43.86994 378.000
43.88989 365.000
43.90984 385.000
43.92978 321.000
43.94973 351.000
43.96968 373.000
43.98962 346.000
44.00957 349.000
44.02952 322.000
44.04946 354.000
44.06941 336.000
44.08936 349.000
44.10930 339.000
44.12925 342.000
44.14920 347.000
44.16915 352.000
44.18909 353.000
44.20904 344.000
44.22899 347.000
44.24893 330.000
44.26888 359.000
44.28883 337.000
44.30877 388.000
44.32872 347.000
44.34867 337.000
44.36862 339.000
44.38856 334.000
44.40851 344.000
44.42846 339.000
44.44840 326.000
44.46835 332.000
44.48830 306.000
44.50824 330.000
44.52819 323.000
44.54814 326.000
44.56808 338.000
44.58803 339.000
44.60798 309.000
44.62793 340.000
44.64787 353.000
44.66782 339.000
44.68777 321.000
44.70771 317.000
44.72766 331.000
44.74761 347.000
44.76755 295.000
44.78750 334.000
44.80745 335.000
44.82740 334.000
44.84734 319.000
44.86729 316.000
44.88724 297.000
44.90718 360.000
44.92713 315.000
44.94708 341.000
44.96702 310.000
44.98697 344.000
45.00692 327.000
45.02686 331.000
45.04681 318.000
45.06676 357.000
45.08671 337.000
45.10665 336.000
45.12660 311.000
45.14655 332.000
45.16649 342.000
45.18644 332.000
45.20639 344.000
45.22633 352.000
45.24628 347.000
45.26623 328.000
45.28618 305.000
45.30612 305.000
45.32607 314.000
45.34602 360.000
45.36596 338.000
45.38591 329.000
45.40586 331.000
45.42580 305.000
45.44575 329.000
45.46570 310.000
45.48565 318.000
45.50559 312.000
45.52554 348.000
45.54549 323.000
45.56543 314.000
45.58538 354.000
45.60533 347.000
45.62527 356.000
45.64522 345.000
45.66517 302.000
45.68511 328.000
45.70506 292.000
45.72501 349.000
45.74496 320.000
45.76490 338.000
45.78485 356.000
45.80480 321.000
45.82474 273.000
45.84469 316.000
45.86464 322.000
45.88458 318.000
45.90453 330.000
45.92448 320.000
45.94443 307.000
45.96437 287.000
45.98432 309.000
46.00427 315.000
46.02421 291.000
46.04416 329.000
46.06411 326.000
46.08405 319.000
46.10400 302.000
46.12395 333.000
46.14389 312.000
46.16384 287.000
46.18379 296.000
46.20374 305.000
46.22368 299.000
46.24363 305.000
46.26358 295.000
46.28352 357.000
46.30347 285.000
46.32342 292.000
46.34336 344.000
46.36331 337.000
46.38326 316.000
46.40321 273.000
46.42315 317.000
46.44310 323.000
46.46305 317.000
46.48299 321.000
46.50294 281.000
46.52289 303.000
46.54283 317.000
46.56278 287.000
46.58273 272.000
46.60267 351.000
46.62262 297.000
46.64257 294.000
46.66252 277.000
46.68246 296.000
46.70241 276.000
46.72236 289.000
46.74230 306.000
46.76225 350.000
46.78220 265.000
46.80214 303.000
46.82209 315.000
46.84204 292.000
46.86199 295.000
46.88193 310.000
46.90188 306.000
46.92183 287.000
46.94177 287.000
46.96172 276.000
46.98167 306.000
47.00161 310.000
47.02156 302.000
47.04151 333.000
47.06146 308.000
47.08140 323.000
47.10135 304.000
47.12130 298.000
47.14124 323.000
47.16119 288.000
47.18114 294.000
47.20108 302.000
47.22103 300.000
47.24098 288.000
47.26092 308.000
47.28087 321.000
47.30082 320.000
47.32077 296.000
47.34071 292.000
47.36066 315.000
47.38061 322.000
47.40055 294.000
47.42050 322.000
47.44045 322.000
47.46039 301.000
47.48034 349.000
47.50029 288.000
47.52024 299.000
47.54018 286.000
47.56013 327.000
47.58008 301.000
47.60002 292.000
47.61997 317.000
47.63992 270.000
47.65986 299.000
47.67981 296.000
47.69976 321.000
47.71970 301.000
47.73965 348.000
47.75960 314.000
47.77955 298.000
47.79949 309.000
47.81944 295.000
47.83939 296.000
47.85933 323.000
47.87928 316.000
47.89923 340.000
47.91917 299.000
47.93912 306.000
47.95907 335.000
47.97902 304.000
47.99896 331.000
48.01891 334.000
48.03886 334.000
48.05880 319.000
48.07875 331.000
48.09870 308.000
48.11864 288.000
48.13859 319.000
48.15854 328.000
48.17848 313.000
48.19843 350.000
48.21838 336.000
48.23833 310.000
48.25827 301.000
48.27822 317.000
48.29817 343.000
48.31811 329.000
48.33806 302.000
48.35801 343.000
48.37795 316.000
48.39790 324.000
48.41785 304.000
48.43780 363.000
48.45774 340.000
48.47769 364.000
48.49764 320.000
48.51758 335.000
48.53753 328.000
48.55748 336.000
48.57742 337.000
48.59737 317.000
48.61732 328.000
48.63726 359.000
48.65721 310.000
48.67716 350.000
48.69711 337.000
48.71705 363.000
48.73700 331.000
48.75695 303.000
48.77689 321.000
48.79684 331.000
48.81679 336.000
48.83673 348.000
48.85668 393.000
48.87663 359.000
48.89658 356.000
48.91652 373.000
48.93647 358.000
48.95642 370.000
48.97636 340.000
48.99631 354.000
49.01626 342.000
49.03620 322.000
49.05615 337.000
49.07610 294.000
49.09605 320.000
49.11599 329.000
49.13594 321.000
49.15589 311.000
49.17583 323.000
49.19578 309.000
49.21573 323.000
49.23567 309.000
49.25562 302.000
49.27557 317.000
49.29551 327.000
49.31546 330.000
49.33541 311.000
49.35536 339.000
49.37530 312.000
49.39525 305.000
49.41520 306.000
49.43514 298.000
49.45509 310.000
49.47504 337.000
49.49498 296.000
49.51493 293.000
49.53488 314.000
49.55483 327.000
49.57477 294.000
49.59472 301.000
49.61467 280.000
49.63461 292.000
49.65456 286.000
49.67451 317.000
49.69445 310.000
49.71440 284.000
49.73435 280.000
49.75429 307.000
49.77424 287.000
49.79419 287.000
49.81414 304.000
49.83408 342.000
49.85403 282.000
49.87398 315.000
49.89392 293.000
49.91387 284.000
49.93382 315.000
49.95376 305.000
49.97371 283.000
49.99366 279.000
50.01361 255.000
50.03355 293.000
50.05350 311.000
50.07345 322.000
50.09339 292.000
50.11334 282.000
50.13329 289.000
50.15323 277.000
50.17318 295.000
50.19313 317.000
50.21307 303.000
50.23302 260.000
50.25297 287.000
50.27292 272.000
50.29286 318.000
50.31281 254.000
50.33276 285.000
50.35270 296.000
50.37265 314.000
50.39260 252.000
50.41254 289.000
50.43249 303.000
50.45244 290.000
50.47239 284.000
50.49233 294.000
50.51228 280.000
50.53223 289.000
50.55217 297.000
50.57212 289.000
50.59207 264.000
50.61201 275.000
50.63196 271.000
50.65191 313.000
50.67186 268.000
50.69180 266.000
50.71175 268.000
50.73170 286.000
50.75164 279.000
50.77159 300.000
50.79154 299.000
50.81148 277.000
50.83143 253.000
50.85138 253.000
50.87132 297.000
50.89127 261.000
50.91122 311.000
50.93117 286.000
50.95111 249.000
50.97106 277.000
50.99101 279.000
51.01095 306.000
51.03090 286.000
51.05085 287.000
51.07079 276.000
51.09074 335.000
51.11069 309.000
51.13064 268.000
51.15058 242.000
51.17053 304.000
51.19048 280.000
51.21042 310.000
51.23037 289.000
51.25032 309.000
51.27026 283.000
51.29021 295.000
51.31016 273.000
51.33010 253.000
51.35005 276.000
51.37000 293.000
51.38995 294.000
51.40989 289.000
51.42984 302.000
51.44979 298.000
51.46973 290.000
51.48968 270.000
51.50963 282.000
51.52957 312.000
51.54952 278.000
51.56947 265.000
51.58942 268.000
51.60936 254.000
51.62931 307.000
51.64926 281.000
51.66920 301.000
51.68915 307.000
51.70910 257.000
51.72904 277.000
51.74899 275.000
51.76894 291.000
51.78888 290.000
51.80883 282.000
51.82878 294.000
51.84873 293.000
51.86867 294.000
51.88862 287.000
51.90857 295.000
51.92851 296.000
51.94846 266.000
51.96841 287.000
51.98835 296.000
52.00830 321.000
52.02825 307.000
52.04820 273.000
52.06814 295.000
52.08809 309.000
52.10804 280.000
52.12798 290.000
52.14793 248.000
52.16788 315.000
52.18782 300.000
52.20777 271.000
52.22772 259.000
52.24767 294.000
52.26761 282.000
52.28756 286.000
52.30751 265.000
52.32745 290.000
52.34740 300.000
52.36735 275.000
52.38729 277.000
52.40724 251.000
52.42719 299.000
52.44713 234.000
52.46708 281.000
52.48703 283.000
52.50698 272.000
52.52692 294.000
52.54687 292.000
52.56682 255.000
52.58676 269.000
52.60671 310.000
52.62666 290.000
52.64660 290.000
52.66655 305.000
52.68650 276.000
52.70645 276.000
52.72639 248.000
52.74634 335.000
52.76629 278.000
52.78623 277.000
52.80618 302.000
52.82613 294.000
52.84607 308.000
52.86602 284.000
52.88597 280.000
52.90591 298.000
52.92586 287.000
52.94581 258.000
52.96576 259.000
52.98570 296.000
53.00565 289.000
53.02560 259.000
53.04554 280.000
53.06549 313.000
53.08544 286.000
53.10538 308.000
53.12533 266.000
53.14528 282.000
53.16523 313.000
53.18517 303.000
53.20512 325.000
53.22507 308.000
53.24501 298.000
53.26496 313.000
53.28491 329.000
53.30485 308.000
53.32480 290.000
53.34475 335.000
53.36469 317.000
53.38464 319.000
53.40459 341.000
53.42454 327.000
53.44448 337.000
53.46443 332.000
53.48438 326.000
53.50432 300.000
53.52427 289.000
53.54422 285.000
53.56416 316.000
53.58411 321.000
53.60406 297.000
53.62401 342.000
53.64395 324.000
53.66390 302.000
53.68385 311.000
53.70379 349.000
53.72374 349.000
53.74369 392.000
53.76363 391.000
53.78358 354.000
53.80353 315.000
53.82348 354.000
53.84342 301.000
53.86337 368.000
53.88332 314.000
53.90326 304.000
53.92321 312.000
53.94316 305.000
53.96310 289.000
53.98305 316.000
54.00300 305.000
54.02294 298.000
54.04289 301.000
54.06284 304.000
54.08279 283.000
54.10273 275.000
54.12268 307.000
54.14263 267.000
54.16257 295.000
54.18252 279.000
54.20247 312.000
54.22241 275.000
54.24236 274.000
54.26231 302.000
54.28226 266.000
54.30220 278.000
54.32215 281.000
54.34210 302.000
54.36204 279.000
54.38199 285.000
54.40194 271.000
54.42188 282.000
54.44183 288.000
54.46178 282.000
54.48172 275.000
54.50167 259.000
54.52162 248.000
54.54157 324.000
54.56151 298.000
54.58146 278.000
54.60141 262.000
54.62135 318.000
54.64130 273.000
54.66125 271.000
54.68119 305.000
54.70114 299.000
54.72109 309.000
54.74104 259.000
54.76098 286.000
54.78093 283.000
54.80088 267.000
54.82082 279.000
54.84077 270.000
54.86072 278.000
54.88066 240.000
54.90061 305.000
54.92056 271.000
54.94050 281.000
54.96045 279.000
54.98040 268.000
55.00035 267.000
55.02029 281.000
55.04024 276.000
55.06019 293.000
55.08013 295.000
55.10008 263.000
55.12003 245.000
55.13997 273.000
55.15992 260.000
55.17987 291.000
55.19982 248.000
55.21976 262.000
55.23971 260.000
55.25966 286.000
55.27960 268.000
55.29955 294.000
55.31950 304.000
55.33944 303.000
55.35939 282.000
55.37934 268.000
55.39929 274.000
55.41923 278.000
55.43918 278.000
55.45913 253.000
55.47907 296.000
55.49902 281.000
55.51897 256.000
55.53891 278.000
55.55886 271.000
55.57881 277.000
55.59875 319.000
55.61870 300.000
55.63865 281.000
55.65860 269.000
55.67854 288.000
55.69849 279.000
55.71844 275.000
55.73838 255.000
55.75833 238.000
55.77828 281.000
55.79822 277.000
55.81817 266.000
55.83812 333.000
55.85807 253.000
55.87801 280.000
55.89796 296.000
55.91791 283.000
55.93785 276.000
55.95780 299.000
55.97775 269.000
55.99769 295.000
56.01764 267.000
56.03759 327.000
56.05753 302.000
56.07748 280.000
56.09743 304.000
56.11738 259.000
56.13732 282.000
56.15727 274.000
56.17722 261.000
56.19716 277.000
56.21711 292.000
56.23706 277.000
56.25700 266.000
56.27695 249.000
56.29690 264.000
56.31685 270.000
56.33679 238.000
56.35674 266.000
56.37669 313.000
56.39663 282.000
56.41658 277.000
56.43653 274.000
56.45647 254.000
56.47642 305.000
56.49637 274.000
56.51631 277.000
56.53626 270.000
56.55621 279.000
56.57616 305.000
56.59610 284.000
56.61605 303.000
56.63600 273.000
56.65594 310.000
56.67589 317.000
56.69584 291.000
56.71578 273.000
56.73573 312.000
56.75568 342.000
56.77563 312.000
56.79557 350.000
56.81552 328.000
56.83547 363.000
56.85541 341.000
56.87536 341.000
56.89531 361.000
56.91525 387.000
56.93520 371.000
56.95515 359.000
56.97510 390.000
56.99504 381.000
57.01499 366.000
57.03494 351.000
57.05488 363.000
57.07483 349.000
57.09478 346.000
57.11472 378.000
57.13467 386.000
57.15462 342.000
57.17456 322.000
57.19451 348.000
57.21446 412.000
57.23441 423.000
57.25435 472.000
57.27430 503.000
57.29425 545.000
57.31419 533.000
57.33414 476.000
57.35409 403.000
57.37403 382.000
57.39398 366.000
57.41393 429.000
57.43388 398.000
57.45382 374.000
57.47377 406.000
57.49372 370.000
57.51366 325.000
57.53361 303.000
57.55356 313.000
57.57350 301.000
57.59345 338.000
57.61340 295.000
57.63334 298.000
57.65329 286.000
57.67324 282.000
57.69319 296.000
57.71313 314.000
57.73308 309.000
57.75303 291.000
57.77297 304.000
57.79292 304.000
57.81287 286.000
57.83281 282.000
57.85276 333.000
57.87271 270.000
57.89266 312.000
57.91260 299.000
57.93255 286.000
57.95250 291.000
57.97244 313.000
57.99239 311.000
58.01234 292.000
58.03228 285.000
58.05223 314.000
58.07218 286.000
58.09212 274.000
58.11207 306.000
58.13202 299.000
58.15197 311.000
58.17191 313.000
58.19186 294.000
58.21181 305.000
58.23175 329.000
58.25170 322.000
58.27165 278.000
58.29159 304.000
58.31154 306.000
58.33149 270.000
58.35144 293.000
58.37138 279.000
58.39133 267.000
58.41128 287.000
58.43122 277.000
58.45117 328.000
58.47112 310.000
58.49106 309.000
58.51101 297.000
58.53096 287.000
58.55090 268.000
58.57085 290.000
58.59080 281.000
58.61075 283.000
58.63069 274.000
58.65064 317.000
58.67059 280.000
58.69053 288.000
58.71048 292.000
58.73043 291.000
58.75037 252.000
58.77032 293.000
58.79027 270.000
58.81022 276.000
58.83016 269.000
58.85011 299.000
58.87006 269.000
58.89000 291.000
58.90995 283.000
58.92990 291.000
58.94984 312.000
58.96979 321.000
58.98974 293.000
59.00969 290.000
59.02963 282.000
59.04958 288.000
59.06953 281.000
59.08947 289.000
59.10942 278.000
59.12937 258.000
59.14931 313.000
59.16926 276.000
59.18921 283.000
59.20915 297.000
59.22910 318.000
59.24905 288.000
59.26900 278.000
59.28894 315.000
59.30889 263.000
59.32884 291.000
59.34878 268.000
59.36873 275.000
59.38868 264.000
59.40862 285.000
59.42857 274.000
59.44852 307.000
59.46847 281.000
59.48841 330.000
59.50836 274.000
59.52831 295.000
59.54825 282.000
59.56820 288.000
59.58815 282.000
59.60809 302.000
59.62804 332.000
59.64799 281.000
59.66793 269.000
59.68788 310.000
59.70783 281.000
59.72778 281.000
59.74772 298.000
59.76767 302.000
59.78762 285.000
59.80756 278.000
59.82751 273.000
59.84746 294.000
59.86740 296.000
59.88735 291.000
59.90730 291.000
59.92725 286.000
59.94719 312.000
59.96714 272.000
59.98709 323.000
60.00703 285.000
60.02698 307.000
60.04693 309.000
60.06687 288.000
60.08682 259.000
60.10677 296.000
60.12671 313.000
60.14666 273.000
60.16661 305.000
60.18656 291.000
60.20650 328.000
60.22645 276.000
60.24640 292.000
60.26634 291.000
60.28629 284.000
60.30624 306.000
60.32618 303.000
60.34613 285.000
60.36608 309.000
60.38603 319.000
60.40597 298.000
60.42592 276.000
60.44587 313.000
60.46581 306.000
60.48576 316.000
60.50571 296.000
60.52565 327.000
60.54560 304.000
60.56555 326.000
60.58550 277.000
60.60544 253.000
60.62539 321.000
60.64534 269.000
60.66528 268.000
60.68523 280.000
60.70518 309.000
60.72512 323.000
60.74507 286.000
60.76502 307.000
60.78496 302.000
60.80491 308.000
60.82486 318.000
60.84481 334.000
60.86475 345.000
60.88470 350.000
60.90465 318.000
60.92459 332.000
60.94454 327.000
60.96449 354.000
60.98443 363.000
61.00438 316.000
61.02433 348.000
61.04428 347.000
61.06422 348.000
61.08417 367.000
61.10412 332.000
61.12406 372.000
61.14401 350.000
61.16396 377.000
61.18390 342.000
61.20385 325.000
61.22380 409.000
61.24374 380.000
61.26369 366.000
61.28364 376.000
61.30359 382.000
61.32353 365.000
61.34348 405.000
61.36343 381.000
61.38337 373.000
61.40332 344.000
61.42327 426.000
61.44321 397.000
61.46316 407.000
61.48311 396.000
61.50306 429.000
61.52300 374.000
61.54295 389.000
61.56290 372.000
61.58284 448.000
61.60279 378.000
61.62274 407.000
61.64268 405.000
61.66263 380.000
61.68258 395.000
61.70252 443.000
61.72247 386.000
61.74242 422.000
61.76237 398.000
61.78231 381.000
61.80226 420.000
61.82221 413.000
61.84215 394.000
61.86210 397.000
61.88205 401.000
61.90199 351.000
61.92194 425.000
61.94189 397.000
61.96184 374.000
61.98178 405.000
62.00173 420.000
62.02168 454.000
62.04162 395.000
62.06157 427.000
62.08152 415.000
62.10146 445.000
62.12141 455.000
62.14136 424.000
62.16131 453.000
62.18125 459.000
62.20120 501.000
62.22115 468.000
62.24109 517.000
62.26104 448.000
62.28099 482.000
62.30093 525.000
62.32088 497.000
62.34083 493.000
62.36077 491.000
62.38072 496.000
62.40067 519.000
62.42062 558.000
62.44056 541.000
62.46051 567.000
62.48046 519.000
62.50040 524.000
62.52035 591.000
62.54030 560.000
62.56024 565.000
62.58019 551.000
62.60014 537.000
62.62009 563.000
62.64003 572.000
62.65998 531.000
62.67993 499.000
62.69987 498.000
62.71982 521.000
62.73977 521.000
62.75971 537.000
62.77966 514.000
62.79961 488.000
62.81955 493.000
62.83950 488.000
62.85945 471.000
62.87940 576.000
62.89934 620.000
62.91929 687.000
62.93924 682.000
62.95918 607.000
62.97913 499.000
62.99908 469.000
63.01902 451.000
63.03897 402.000
63.05892 404.000
63.07887 449.000
63.09881 494.000
63.11876 441.000
63.13871 428.000
63.15865 382.000
63.17860 339.000
63.19855 342.000
63.21849 330.000
63.23844 312.000
63.25839 287.000
63.27833 324.000
63.29828 284.000
63.31823 295.000
63.33818 305.000
63.35812 300.000
63.37807 270.000
63.39802 279.000
63.41796 264.000
63.43791 307.000
63.45786 269.000
63.47780 262.000
63.49775 319.000
63.51770 287.000
63.53765 280.000
63.55759 273.000
63.57754 277.000
63.59749 289.000
63.61743 290.000
63.63738 266.000
63.65733 298.000
63.67727 291.000
63.69722 252.000
63.71717 295.000
63.73712 265.000
63.75706 298.000
63.77701 297.000
63.79696 274.000
63.81690 287.000
63.83685 277.000
63.85680 272.000
63.87674 259.000
63.89669 284.000
63.91664 271.000
63.93658 290.000
63.95653 277.000
63.97648 267.000
63.99643 258.000
64.01637 257.000
64.03632 276.000
64.05627 284.000
64.07621 290.000
64.09616 272.000
64.11611 270.000
64.13605 274.000
64.15600 253.000
64.17595 267.000
64.19590 288.000
64.21584 308.000
64.23579 271.000
64.25574 279.000
64.27568 287.000
64.29563 279.000
64.31558 285.000
64.33552 281.000
64.35547 267.000
64.37542 306.000
64.39536 251.000
64.41531 278.000
64.43526 286.000
64.45521 294.000
64.47515 280.000
64.49510 245.000
64.51505 243.000
64.53499 280.000
64.55494 276.000
64.57489 264.000
64.59483 280.000
64.61478 282.000
64.63473 288.000
64.65468 271.000
64.67462 282.000
64.69457 278.000
64.71452 282.000
64.73446 266.000
64.75441 258.000
64.77436 298.000
64.79430 282.000
64.81425 269.000
64.83420 270.000
64.85414 290.000
64.87409 292.000
64.89404 284.000
64.91399 266.000
64.93393 292.000
64.95388 312.000
64.97383 320.000
64.99377 308.000
65.01372 288.000
65.03367 284.000
65.05361 319.000
65.07356 329.000
65.09351 289.000
65.11346 302.000
65.13340 306.000
65.15335 303.000
65.17330 329.000
65.19324 318.000
65.21319 285.000
65.23314 313.000
65.25308 320.000
65.27303 328.000
65.29298 294.000
65.31293 307.000
65.33287 318.000
65.35282 321.000
65.37277 314.000
65.39271 316.000
65.41266 343.000
65.43261 356.000
65.45255 336.000
65.47250 340.000
65.49245 355.000
65.51239 340.000
65.53234 345.000
65.55229 341.000
65.57224 347.000
65.59218 345.000
65.61213 339.000
65.63208 355.000
65.65202 355.000
65.67197 339.000
65.69192 357.000
65.71186 300.000
65.73181 297.000
65.75176 319.000
65.77171 376.000
65.79165 368.000
65.81160 329.000
65.83155 347.000
65.85149 312.000
65.87144 292.000
65.89139 321.000
65.91133 312.000
65.93128 321.000
65.95123 305.000
65.97117 326.000
65.99112 347.000
66.01107 322.000
66.03102 317.000
66.05096 308.000
66.07091 297.000
66.09086 328.000
66.11080 337.000
66.13075 314.000
66.15070 314.000
66.17064 328.000
66.19059 344.000
66.21054 330.000
66.23049 308.000
66.25043 298.000
66.27038 340.000
66.29033 305.000
66.31027 311.000
66.33022 319.000
66.35017 319.000
66.37011 326.000
66.39006 331.000
66.41001 306.000
66.42995 293.000
66.44990 304.000
66.46985 295.000
66.48980 285.000
66.50974 287.000
66.52969 307.000
66.54964 302.000
66.56958 275.000
66.58953 292.000
66.60948 296.000
66.62942 269.000
66.64937 321.000
66.66932 259.000
66.68927 285.000
66.70921 284.000
66.72916 309.000
66.74911 315.000
66.76905 298.000
66.78900 276.000
66.80895 297.000
66.82889 271.000
66.84884 273.000
66.86879 240.000
66.88874 310.000
66.90868 282.000
66.92863 294.000
66.94858 274.000
66.96852 277.000
66.98847 303.000
67.00842 273.000
67.02836 293.000
67.04831 268.000
67.06826 308.000
67.08820 263.000
67.10815 292.000
67.12810 306.000
67.14805 297.000
67.16799 306.000
67.18794 271.000
67.20789 286.000
67.22783 280.000
67.24778 266.000
67.26773 280.000
67.28767 319.000
67.30762 285.000
67.32757 338.000
67.34752 292.000
67.36746 312.000
67.38741 292.000
67.40736 307.000
67.42730 286.000
67.44725 285.000
67.46720 308.000
67.48714 297.000
67.50709 259.000
67.52704 297.000
67.54698 309.000
67.56693 291.000
67.58688 290.000
67.60683 298.000
67.62677 296.000
67.64672 311.000
67.66667 302.000
67.68661 325.000
67.70656 316.000
67.72651 304.000
67.74645 313.000
67.76640 308.000
67.78635 336.000
67.80630 340.000
67.82624 320.000
67.84619 324.000
67.86614 307.000
67.88608 305.000
67.90603 293.000
67.92598 337.000
67.94592 283.000
67.96587 321.000
67.98582 297.000
68.00576 337.000
68.02571 310.000
68.04566 300.000
68.06561 304.000
68.08555 268.000
68.10550 301.000
68.12545 305.000
68.14539 288.000
68.16534 283.000
68.18529 271.000
68.20523 309.000
68.22518 271.000
68.24513 305.000
68.26508 300.000
68.28502 303.000
68.30497 309.000
68.32492 296.000
68.34486 271.000
68.36481 316.000
68.38476 292.000
68.40470 266.000
68.42465 270.000
68.44460 245.000
68.46455 295.000
68.48449 306.000
68.50444 301.000
68.52439 297.000
68.54433 284.000
68.56428 281.000
68.58423 302.000
68.60417 268.000
68.62412 254.000
68.64407 243.000
68.66401 263.000
68.68396 276.000
68.70391 261.000
68.72386 251.000
68.74380 264.000
68.76375 291.000
68.78370 255.000
68.80364 266.000
68.82359 279.000
68.84354 280.000
68.86348 302.000
68.88343 274.000
68.90338 262.000
68.92333 295.000
68.94327 288.000
68.96322 267.000
68.98317 276.000
69.00311 289.000
69.02306 290.000
69.04301 279.000
69.06295 261.000
69.08290 245.000
69.10285 254.000
69.12279 251.000
69.14274 300.000
69.16269 254.000
69.18264 264.000
69.20258 245.000
69.22253 295.000
69.24248 268.000
69.26242 265.000
69.28237 270.000
69.30232 292.000
69.32226 289.000
69.34221 258.000
69.36216 265.000
69.38211 257.000
69.40205 229.000
69.42200 286.000
69.44195 264.000
69.46189 293.000
69.48184 258.000
69.50179 283.000
69.52173 261.000
69.54168 253.000
69.56163 275.000
69.58157 251.000
69.60152 268.000
69.62147 270.000
69.64142 283.000
69.66136 253.000
69.68131 284.000
69.70126 251.000
69.72120 271.000
69.74115 232.000
69.76110 290.000
69.78104 272.000
69.80099 258.000
69.82094 269.000
69.84089 265.000
69.86083 258.000
69.88078 279.000
69.90073 272.000
69.92067 276.000
69.94062 277.000
69.96057 274.000
69.98051 261.000
70.00046 289.000
70.02041 272.000
70.04035 285.000
70.06030 241.000
70.08025 273.000
70.10020 288.000
70.12014 284.000
70.14009 241.000
70.16004 287.000
70.17998 272.000
70.19993 233.000
70.21988 286.000
70.23982 252.000
70.25977 223.000
70.27972 246.000
70.29967 256.000
70.31961 229.000
70.33956 258.000
70.35951 288.000
70.37945 286.000
70.39940 293.000
70.41935 270.000
70.43929 248.000
70.45924 289.000
70.47919 269.000
70.49914 262.000
70.51908 287.000
70.53903 260.000
70.55898 307.000
70.57892 252.000
70.59887 285.000
70.61882 239.000
70.63876 260.000
70.65871 263.000
70.67866 276.000
70.69860 281.000
70.71855 261.000
70.73850 258.000
70.75845 314.000
70.77839 252.000
70.79834 289.000
70.81829 249.000
70.83823 269.000
70.85818 259.000
70.87813 284.000
70.89807 291.000
70.91802 293.000
70.93797 270.000
70.95792 288.000
70.97786 269.000
70.99781 276.000
71.01776 287.000
71.03770 294.000
71.05765 299.000
71.07760 260.000
71.09754 287.000
71.11749 297.000
71.13744 262.000
71.15738 272.000
71.17733 297.000
71.19728 307.000
71.21723 292.000
71.23717 293.000
71.25712 275.000
71.27707 286.000
71.29701 276.000
71.31696 279.000
71.33691 271.000
71.35685 313.000
71.37680 317.000
71.39675 254.000
71.41670 295.000
71.43664 290.000
71.45659 278.000
71.47654 279.000
71.49648 288.000
71.51643 286.000
71.53638 271.000
71.55632 293.000
71.57627 304.000
71.59622 266.000
71.61616 310.000
71.63611 289.000
71.65606 258.000
71.67601 297.000
71.69595 265.000
71.71590 313.000
71.73585 292.000
71.75579 232.000
71.77574 264.000
71.79569 254.000
71.81563 274.000
71.83558 315.000
71.85553 242.000
71.87548 295.000
71.89542 264.000
71.91537 296.000
71.93532 290.000
71.95526 269.000
71.97521 273.000
71.99516 301.000
72.01510 268.000
72.03505 318.000
72.05500 263.000
72.07495 278.000
72.09489 261.000
72.11484 291.000
72.13479 288.000
72.15473 300.000
72.17468 301.000
72.19463 305.000
72.21457 293.000
72.23452 311.000
72.25447 305.000
72.27441 291.000
72.29436 289.000
72.31431 296.000
72.33426 280.000
72.35420 299.000
72.37415 292.000
72.39410 254.000
72.41404 262.000
72.43399 281.000
72.45394 312.000
72.47388 273.000
72.49383 242.000
72.51378 275.000
72.53373 305.000
72.55367 302.000
72.57362 309.000
72.59357 272.000
72.61351 282.000
72.63346 265.000
72.65341 279.000
72.67335 282.000
72.69330 304.000
72.71325 279.000
72.73319 297.000
72.75314 274.000
72.77309 272.000
72.79304 269.000
72.81298 262.000
72.83293 246.000
72.85288 272.000
72.87282 270.000
72.89277 285.000
72.91272 259.000
72.93266 287.000
72.95261 289.000
72.97256 272.000
72.99251 251.000
73.01245 281.000
73.03240 280.000
73.05235 275.000
73.07229 286.000
73.09224 298.000
73.11219 288.000
73.13213 250.000
73.15208 287.000
73.17203 290.000
73.19197 290.000
73.21192 286.000
73.23187 294.000
73.25182 259.000
73.27176 260.000
73.29171 281.000
73.31166 253.000
73.33160 317.000
73.35155 250.000
73.37150 246.000
73.39144 266.000
73.41139 259.000
73.43134 249.000
73.45129 284.000
73.47123 250.000
73.49118 280.000
73.51113 251.000
73.53107 286.000
73.55102 289.000
73.57097 277.000
73.59091 302.000
73.61086 288.000
73.63081 299.000
73.65076 284.000
73.67070 287.000
73.69065 227.000
73.71060 282.000
73.73054 288.000
73.75049 285.000
73.77044 263.000
73.79038 264.000
73.81033 268.000
73.83028 266.000
73.85022 275.000
73.87017 289.000
73.89012 299.000
73.91007 289.000
73.93001 269.000
73.94996 282.000
73.96991 297.000
73.98985 274.000
74.00980 285.000
74.02975 284.000
74.04969 326.000
74.06964 306.000
74.08959 341.000
74.10954 315.000
74.12948 289.000
74.14943 349.000
74.16938 291.000
74.18932 309.000
74.20927 349.000
74.22922 343.000
74.24916 305.000
74.26911 332.000
74.28906 315.000
74.30900 321.000
74.32895 288.000
74.34890 326.000
74.36885 324.000
74.38879 342.000
74.40874 337.000
74.42869 359.000
74.44863 323.000
74.46858 376.000
74.48853 346.000
74.50847 375.000
74.52842 359.000
74.54837 332.000
74.56832 351.000
74.58826 349.000
74.60821 350.000
74.62816 330.000
74.64810 385.000
74.66805 348.000
74.68800 328.000
74.70794 360.000
74.72789 390.000
74.74784 318.000
74.76778 371.000
74.78773 329.000
74.80768 330.000
74.82763 368.000
74.84757 387.000
74.86752 381.000
74.88747 373.000
74.90741 403.000
74.92736 362.000
74.94731 365.000
74.96725 362.000
74.98720 384.000
75.00715 378.000
75.02710 394.000
75.04704 370.000
75.06699 397.000
75.08694 415.000
75.10688 432.000
75.12683 386.000
75.14678 395.000
75.16672 401.000
75.18667 395.000
75.20662 374.000
75.22657 400.000
75.24651 354.000
75.26646 385.000
75.28641 350.000
75.30635 351.000
75.32630 342.000
75.34625 358.000
75.36619 360.000
75.38614 377.000
75.40609 334.000
75.42603 345.000
75.44598 319.000
75.46593 314.000
75.48588 297.000
75.50582 340.000
75.52577 309.000
75.54572 279.000
75.56566 287.000
75.58561 320.000
75.60556 268.000
75.62550 285.000
75.64545 307.000
75.66540 295.000
75.68535 323.000
75.70529 311.000
75.72524 271.000
75.74519 287.000
75.76513 261.000
75.78508 303.000
75.80503 276.000
75.82497 266.000
75.84492 265.000
75.86487 253.000
75.88481 272.000
75.90476 269.000
75.92471 288.000
75.94466 268.000
75.96460 269.000
75.98455 269.000
76.00450 265.000
76.02444 285.000
76.04439 275.000
76.06434 271.000
76.08428 260.000
76.10423 267.000
76.12418 283.000
76.14413 273.000
76.16407 264.000
76.18402 234.000
76.20397 260.000
76.22391 280.000
76.24386 219.000
76.26381 260.000
76.28375 274.000
76.30370 285.000
76.32365 272.000
76.34359 248.000
76.36354 286.000
76.38349 282.000
76.40344 299.000
76.42338 232.000
76.44333 248.000
76.46328 259.000
76.48322 289.000
76.50317 266.000
76.52312 275.000
76.54306 273.000
76.56301 269.000
76.58296 278.000
76.60291 254.000
76.62285 258.000
76.64280 272.000
76.66275 269.000
76.68269 240.000
76.70264 274.000
76.72259 280.000
76.74253 263.000
76.76248 284.000
76.78243 248.000
76.80238 272.000
76.82232 274.000
76.84227 278.000
76.86222 276.000
76.88216 287.000
76.90211 270.000
76.92206 294.000
76.94200 296.000
76.96195 269.000
76.98190 288.000
77.00184 291.000
77.02179 265.000
77.04174 272.000
77.06169 260.000
77.08163 261.000
77.10158 273.000
77.12153 292.000
77.14147 255.000
77.16142 293.000
77.18137 251.000
77.20131 301.000
77.22126 291.000
77.24121 257.000
77.26116 240.000
77.28110 286.000
77.30105 259.000
77.32100 244.000
77.34094 280.000
77.36089 272.000
77.38084 274.000
77.40078 279.000
77.42073 254.000
77.44068 275.000
77.46062 268.000
77.48057 279.000
77.50052 285.000
77.52047 280.000
77.54041 273.000
77.56036 281.000
77.58031 245.000
77.60025 252.000
77.62020 274.000
77.64015 275.000
77.66009 265.000
77.68004 296.000
77.69999 274.000
77.71994 263.000
77.73988 254.000
77.75983 254.000
77.77978 286.000
77.79972 256.000
77.81967 277.000
77.83962 275.000
77.85956 284.000
77.87951 280.000
77.89946 272.000
77.91940 320.000
77.93935 279.000
77.95930 270.000
77.97925 268.000
77.99919 290.000
78.01914 259.000
78.03909 253.000
78.05903 301.000
78.07898 270.000
78.09893 313.000
78.11887 283.000
78.13882 298.000
78.15877 274.000
78.17872 278.000
78.19866 270.000
78.21861 305.000
78.23856 282.000
78.25850 266.000
78.27845 299.000
78.29840 290.000
78.31834 282.000
78.33829 294.000
78.35824 297.000
78.37819 276.000
78.39813 264.000
78.41808 266.000
78.43803 266.000
78.45797 271.000
78.47792 284.000
78.49787 302.000
78.51781 305.000
78.53776 298.000
78.55771 293.000
78.57765 297.000
78.59760 263.000
78.61755 282.000
78.63750 316.000
78.65744 320.000
78.67739 303.000
78.69734 320.000
78.71728 324.000
78.73723 314.000
78.75718 296.000
78.77712 304.000
78.79707 298.000
78.81702 314.000
78.83697 338.000
78.85691 299.000
78.87686 339.000
78.89681 302.000
78.91675 295.000
78.93670 327.000
78.95665 319.000
78.97659 279.000
78.99654 288.000
79.01649 341.000
79.03643 305.000
79.05638 304.000
79.07633 316.000
79.09628 334.000
79.11622 312.000
79.13617 291.000
79.15612 317.000
79.17606 307.000
79.19601 313.000
79.21596 288.000
79.23590 311.000
79.25585 298.000
79.27580 272.000
79.29575 265.000
79.31569 321.000
79.33564 285.000
79.35559 303.000
79.37553 293.000
79.39548 281.000
79.41543 268.000
79.43537 280.000
79.45532 274.000
79.47527 271.000
79.49521 286.000
79.51516 280.000
79.53511 287.000
79.55506 253.000
79.57500 260.000
79.59495 246.000
79.61490 284.000
79.63484 288.000
79.65479 240.000
79.67474 303.000
79.69468 262.000
79.71463 265.000
79.73458 255.000
79.75453 252.000
79.77447 265.000
79.79442 262.000
79.81437 274.000
79.83431 265.000
79.85426 234.000
79.87421 250.000
79.89415 256.000
79.91410 281.000
79.93405 251.000
79.95399 274.000
79.97394 277.000
79.99389 284.000
80.01384 246.000
80.03378 244.000
80.05373 296.000
80.07368 213.000
80.09362 248.000
80.11357 239.000
80.13352 256.000
80.15346 254.000
80.17341 265.000
80.19336 229.000
80.21331 288.000
80.23325 250.000
80.25320 273.000
80.27315 263.000
80.29309 274.000
80.31304 260.000
80.33299 252.000
80.35293 286.000
80.37288 272.000
80.39283 282.000
80.41278 285.000
80.43272 279.000
80.45267 299.000
80.47262 244.000
80.49256 256.000
80.51251 261.000
80.53246 273.000
80.55240 303.000
80.57235 266.000
80.59230 259.000
80.61224 254.000
80.63219 274.000
80.65214 274.000
80.67209 271.000
80.69203 239.000
80.71198 277.000
80.73193 264.000
80.75187 260.000
80.77182 239.000
80.79177 259.000
80.81171 260.000
80.83166 249.000
80.85161 251.000
80.87156 275.000
80.89150 272.000
80.91145 249.000
80.93140 257.000
80.95134 278.000
80.97129 264.000
80.99124 256.000
81.01118 237.000
81.03113 263.000
81.05108 271.000
81.07102 257.000
81.09097 250.000
81.11092 266.000
81.13087 239.000
81.15081 260.000
81.17076 252.000
81.19071 286.000
81.21065 263.000
81.23060 277.000
81.25055 299.000
81.27049 264.000
81.29044 243.000
81.31039 242.000
81.33034 257.000
81.35028 257.000
81.37023 256.000
81.39018 282.000
81.41012 277.000
81.43007 290.000
81.45002 261.000
81.46996 278.000
81.48991 259.000
81.50986 246.000
81.52980 233.000
81.54975 264.000
81.56970 242.000
81.58965 269.000
81.60959 238.000
81.62954 272.000
81.64949 242.000
81.66943 249.000
81.68938 268.000
81.70933 252.000
81.72927 274.000
81.74922 281.000
81.76917 284.000
81.78912 261.000
81.80906 296.000
81.82901 281.000
81.84896 266.000
81.86890 268.000
81.88885 253.000
81.90880 282.000
81.92874 266.000
81.94869 247.000
81.96864 235.000
81.98859 292.000
82.00853 234.000
82.02848 278.000
82.04843 284.000
82.06837 269.000
82.08832 253.000
82.10827 279.000
82.12821 290.000
82.14816 268.000
82.16811 302.000
82.18805 288.000
82.20800 287.000
82.22795 284.000
82.24790 276.000
82.26784 279.000
82.28779 291.000
82.30774 264.000
82.32768 291.000
82.34763 271.000
82.36758 252.000
82.38752 295.000
82.40747 270.000
82.42742 296.000
82.44737 302.000
82.46731 283.000
82.48726 295.000
82.50721 278.000
82.52715 288.000
82.54710 279.000
82.56705 271.000
82.58699 293.000
82.60694 260.000
82.62689 279.000
82.64683 278.000
82.66678 278.000
82.68673 266.000
82.70668 279.000
82.72662 286.000
82.74657 302.000
82.76652 294.000
82.78646 299.000
82.80641 292.000
82.82636 288.000
82.84630 278.000
82.86625 304.000
82.88620 291.000
82.90615 292.000
82.92609 266.000
82.94604 262.000
82.96599 277.000
82.98593 281.000
83.00588 266.000
83.02583 245.000
83.04577 254.000
83.06572 287.000
83.08567 250.000
83.10561 283.000
83.12556 289.000
83.14551 249.000
83.16546 250.000
83.18540 267.000
83.20535 270.000
83.22530 274.000
83.24524 251.000
83.26519 277.000
83.28514 273.000
83.30508 259.000
83.32503 274.000
83.34498 296.000
83.36493 256.000
83.38487 256.000
83.40482 301.000
83.42477 270.000
83.44471 225.000
83.46466 278.000
83.48461 271.000
83.50455 279.000
83.52450 270.000
83.54445 279.000
83.56440 256.000
83.58434 257.000
83.60429 301.000
83.62424 279.000
83.64418 265.000
83.66413 270.000
83.68408 307.000
83.70402 267.000
83.72397 269.000
83.74392 265.000
83.76386 225.000
83.78381 295.000
83.80376 266.000
83.82371 302.000
83.84365 271.000
83.86360 278.000
83.88355 265.000
83.90349 265.000
83.92344 274.000
83.94339 279.000
83.96333 271.000
83.98328 279.000
84.00323 275.000
84.02318 272.000
84.04312 281.000
84.06307 268.000
84.08302 289.000
84.10296 247.000
84.12291 263.000
84.14286 268.000
84.16280 266.000
84.18275 259.000
84.20270 293.000
84.22264 255.000
84.24259 291.000
84.26254 250.000
84.28249 242.000
84.30243 238.000
84.32238 252.000
84.34233 260.000
84.36227 261.000
84.38222 263.000
84.40217 226.000
84.42211 271.000
84.44206 281.000
84.46201 267.000
84.48196 281.000
84.50190 260.000
84.52185 270.000
84.54180 282.000
84.56174 259.000
84.58169 221.000
84.60164 285.000
84.62158 233.000
84.64153 266.000
84.66148 275.000
84.68142 246.000
84.70137 262.000
84.72132 290.000
84.74127 262.000
84.76121 258.000
84.78116 258.000
84.80111 245.000
84.82105 257.000
84.84100 294.000
84.86095 273.000
84.88089 239.000
84.90084 248.000
84.92079 249.000
84.94074 249.000
84.96068 257.000
84.98063 225.000
85.00058 274.000
85.02052 267.000
85.04047 259.000
85.06042 262.000
85.08036 236.000
85.10031 254.000
85.12026 260.000
85.14021 255.000
85.16015 263.000
85.18010 274.000
85.20005 261.000
85.21999 274.000
85.23994 252.000
85.25989 262.000
85.27983 246.000
85.29978 253.000
85.31973 247.000
85.33967 266.000
85.35962 279.000
85.37957 272.000
85.39952 253.000
85.41946 264.000
85.43941 259.000
85.45936 230.000
85.47930 235.000
85.49925 269.000
85.51920 235.000
85.53914 232.000
85.55909 247.000
85.57904 267.000
85.59899 291.000
85.61893 257.000
85.63888 249.000
85.65883 257.000
85.67877 278.000
85.69872 256.000
85.71867 274.000
85.73861 261.000
85.75856 271.000
85.77851 261.000
85.79845 244.000
85.81840 278.000
85.83835 255.000
85.85830 242.000
85.87824 246.000
85.89819 252.000
85.91814 277.000
85.93808 249.000
85.95803 255.000
85.97798 251.000
85.99792 275.000
86.01787 230.000
86.03782 240.000
86.05777 237.000
86.07771 234.000
86.09766 275.000
86.11761 239.000
86.13755 250.000
86.15750 259.000
86.17745 269.000
86.19739 289.000
86.21734 272.000
86.23729 266.000
86.25723 262.000
86.27718 258.000
86.29713 247.000
86.31708 241.000
86.33702 259.000
86.35697 258.000
86.37692 255.000
86.39686 273.000
86.41681 258.000
86.43676 243.000
86.45670 268.000
86.47665 258.000
86.49660 278.000
86.51655 244.000
86.53649 264.000
86.55644 264.000
86.57639 273.000
86.59633 271.000
86.61628 278.000
86.63623 252.000
86.65617 271.000
86.67612 292.000
86.69607 275.000
86.71602 264.000
86.73596 283.000
86.75591 258.000
86.77586 254.000
86.79580 245.000
86.81575 258.000
86.83570 268.000
86.85564 263.000
86.87559 266.000
86.89554 271.000
86.91548 278.000
86.93543 270.000
86.95538 279.000
86.97533 300.000
86.99527 270.000
87.01522 270.000
87.03517 246.000
87.05511 311.000
87.07506 277.000
87.09501 277.000
87.11495 287.000
87.13490 267.000
87.15485 292.000
87.17480 289.000
87.19474 283.000
87.21469 279.000
87.23464 279.000
87.25458 271.000
87.27453 282.000
87.29448 306.000
87.31442 249.000
87.33437 305.000
87.35432 295.000
87.37426 253.000
87.39421 273.000
87.41416 274.000
87.43411 272.000
87.45405 272.000
87.47400 270.000
87.49395 248.000
87.51389 278.000
87.53384 264.000
87.55379 248.000
87.57373 238.000
87.59368 277.000
87.61363 254.000
87.63358 261.000
87.65352 273.000
87.67347 266.000
87.69342 232.000
87.71336 268.000
87.73331 270.000
87.75326 282.000
87.77320 267.000
87.79315 249.000
87.81310 270.000
87.83304 269.000
87.85299 252.000
87.87294 252.000
87.89289 239.000
87.91283 263.000
87.93278 258.000
87.95273 266.000
87.97267 246.000
87.99262 262.000
88.01257 267.000
88.03251 248.000
88.05246 243.000
88.07241 233.000
88.09236 273.000
88.11230 264.000
88.13225 263.000
88.15220 260.000
88.17214 256.000
88.19209 240.000
88.21204 253.000
88.23198 254.000
88.25193 275.000
88.27188 263.000
88.29183 266.000
88.31177 258.000
88.33172 274.000
88.35167 300.000
88.37161 264.000
88.39156 243.000
88.41151 300.000
88.43145 239.000
88.45140 266.000
88.47135 269.000
88.49129 245.000
88.51124 291.000
88.53119 240.000
88.55114 282.000
88.57108 274.000
88.59103 258.000
88.61098 267.000
88.63092 256.000
88.65087 239.000
88.67082 249.000
88.69076 247.000
88.71071 258.000
88.73066 263.000
88.75061 250.000
88.77055 268.000
88.79050 230.000
88.81045 266.000
88.83039 269.000
88.85034 287.000
88.87029 246.000
88.89023 290.000
88.91018 234.000
88.93013 284.000
88.95007 248.000
88.97002 270.000
88.98997 271.000
89.00992 274.000
89.02986 260.000
89.04981 302.000
89.06976 260.000
89.08970 275.000
89.10965 272.000
89.12960 250.000
89.14954 275.000
89.16949 256.000
89.18944 251.000
89.20939 259.000
89.22933 265.000
89.24928 293.000
89.26923 290.000
89.28917 281.000
89.30912 285.000
89.32907 251.000
89.34901 287.000
89.36896 275.000
89.38891 274.000
89.40885 241.000
89.42880 258.000
89.44875 258.000
89.46870 262.000
89.48864 285.000
89.50859 257.000
89.52854 249.000
89.54848 278.000
89.56843 256.000
89.58838 251.000
89.60832 284.000
89.62827 258.000
89.64822 280.000
89.66817 245.000
89.68811 272.000
89.70806 270.000
89.72801 274.000
89.74795 254.000
89.76790 286.000
89.78785 289.000
89.80779 295.000
89.82774 268.000
89.84769 288.000
89.86764 295.000
89.88758 268.000
89.90753 284.000
89.92748 274.000
89.94742 318.000
89.96737 300.000
89.98732 285.000
90.00726 306.000
