10.00000 152.000
10.01995 169.000
10.03989 161.000
10.05984 132.000
10.07979 156.000
10.09973 170.000
10.11968 148.000
10.13963 162.000
10.15958 146.000
10.17952 177.000
10.19947 179.000
10.21942 159.000
10.23936 161.000
10.25931 173.000
10.27926 159.000
10.29920 157.000
10.31915 150.000
10.33910 157.000
10.35905 181.000
10.37899 149.000
10.39894 174.000
10.41889 156.000
10.43883 153.000
10.45878 155.000
10.47873 175.000
10.49867 159.000
10.51862 168.000
10.53857 159.000
10.55851 165.000
10.57846 159.000
10.59841 157.000
10.61836 138.000
10.63830 140.000
10.65825 170.000
10.67820 146.000
10.69814 152.000
10.71809 170.000
10.73804 154.000
10.75798 152.000
10.77793 148.000
10.79788 159.000
10.81783 166.000
10.83777 138.000
10.85772 171.000
10.87767 176.000
10.89761 172.000
10.91756 165.000
10.93751 175.000
10.95745 155.000
10.97740 159.000
10.99735 166.000
11.01730 172.000
11.03724 148.000
11.05719 165.000
11.07714 150.000
11.09708 150.000
11.11703 153.000
11.13698 150.000
11.15692 166.000
11.17687 163.000
11.19682 151.000
11.21676 159.000
11.23671 145.000
11.25666 164.000
11.27661 172.000
11.29655 167.000
11.31650 168.000
11.33645 154.000
11.35639 149.000
11.37634 148.000
11.39629 137.000
11.41623 163.000
11.43618 162.000
11.45613 167.000
11.47608 164.000
11.49602 140.000
11.51597 142.000
11.53592 160.000
11.55586 153.000
11.57581 159.000
11.59576 174.000
11.61570 157.000
11.63565 150.000
11.65560 198.000
11.67554 158.000
11.69549 147.000
11.71544 159.000
11.73539 125.000
11.75533 166.000
11.77528 142.000
11.79523 172.000
11.81517 154.000
11.83512 137.000
11.85507 146.000
11.87501 153.000
11.89496 124.000
11.91491 170.000
11.93486 149.000
11.95480 161.000
11.97475 160.000
11.99470 156.000
12.01464 152.000
12.03459 144.000
12.05454 162.000
12.07448 148.000
12.09443 167.000
12.11438 170.000
12.13432 168.000
12.15427 161.000
12.17422 182.000
12.19417 166.000
12.21411 181.000
12.23406 154.000
12.25401 167.000
12.27395 161.000
12.29390 160.000
12.31385 155.000
12.33379 184.000
12.35374 141.000
12.37369 159.000
12.39364 165.000
12.41358 133.000
12.43353 163.000
12.45348 163.000
12.47342 155.000
12.49337 173.000
12.51332 150.000
12.53326 132.000
12.55321 141.000
12.57316 151.000
12.59311 150.000
12.61305 162.000
12.63300 163.000
12.65295 184.000
12.67289 171.000
12.69284 152.000
12.71279 146.000
12.73273 137.000
12.75268 143.000
12.77263 160.000
12.79257 162.000
12.81252 160.000
12.83247 162.000
12.85242 155.000
12.87236 140.000
12.89231 182.000
12.91226 157.000
12.93220 115.000
12.95215 143.000
12.97210 148.000
12.99204 166.000
13.01199 163.000
13.03194 156.000
13.05189 131.000
13.07183 172.000
13.09178 164.000
13.11173 157.000
13.13167 149.000
13.15162 136.000
13.17157 157.000
13.19151 169.000
13.21146 145.000
13.23141 155.000
13.25135 164.000
13.27130 144.000
13.29125 171.000
13.31120 171.000
13.33114 136.000
13.35109 158.000
13.37104 154.000
13.39098 172.000
13.41093 159.000
13.43088 171.000
13.45082 168.000
13.47077 157.000
13.49072 156.000
13.51067 164.000
13.53061 167.000
13.55056 131.000
13.57051 148.000
13.59045 163.000
13.61040 156.000
13.63035 157.000
13.65029 156.000
13.67024 159.000
13.69019 141.000
13.71013 150.000
13.73008 150.000
13.75003 164.000
13.76998 156.000
13.78992 147.000
13.80987 164.000
13.82982 138.000
13.84976 184.000
13.86971 157.000
13.88966 157.000
13.90960 167.000
13.92955 152.000
13.94950 163.000
13.96945 160.000
13.98939 164.000
14.00934 158.000
14.02929 147.000
14.04923 165.000
14.06918 161.000
14.08913 142.000
14.10907 158.000
14.12902 162.000
14.14897 159.000
14.16892 180.000
14.18886 157.000
14.20881 133.000
14.22876 157.000
14.24870 156.000
14.26865 183.000
14.28860 134.000
14.30854 158.000
14.32849 171.000
14.34844 149.000
14.36838 178.000
14.38833 147.000
14.40828 164.000
14.42823 153.000
14.44817 166.000
14.46812 143.000
14.48807 152.000
14.50801 153.000
14.52796 160.000
14.54791 167.000
14.56785 167.000
14.58780 176.000
14.60775 149.000
14.62770 141.000
14.64764 148.000
14.66759 169.000
14.68754 163.000
14.70748 148.000
14.72743 150.000
14.74738 151.000
14.76732 152.000
14.78727 145.000
14.80722 182.000
14.82716 151.000
14.84711 155.000
14.86706 158.000
14.88701 157.000
14.90695 159.000
14.92690 152.000
14.94685 160.000
14.96679 182.000
14.98674 164.000
15.00669 181.000
15.02663 172.000
15.04658 161.000
15.06653 159.000
15.08648 182.000
15.10642 156.000
15.12637 158.000
15.14632 158.000
15.16626 168.000
15.18621 159.000
15.20616 157.000
15.22610 187.000
15.24605 178.000
15.26600 183.000
15.28594 155.000
15.30589 179.000
15.32584 178.000
15.34579 183.000
15.36573 164.000
15.38568 168.000
15.40563 179.000
15.42557 198.000
15.44552 184.000
15.46547 192.000
15.48541 178.000
15.50536 190.000
15.52531 198.000
15.54526 179.000
15.56520 220.000
15.58515 200.000
15.60510 211.000
15.62504 228.000
15.64499 224.000
15.66494 247.000
15.68488 259.000
15.70483 289.000
15.72478 333.000
15.74472 412.000
15.76467 534.000
15.78462 675.000
15.80457 983.000
15.82451 1416.000
15.84446 1974.000
15.86441 2111.000
15.88435 1834.000
15.90430 1376.000
15.92425 948.000
15.94419 632.000
15.96414 433.000
15.98409 342.000
16.00404 295.000
16.02398 290.000
16.04393 299.000
16.06388 346.000
16.08382 425.000
16.10377 502.000
16.12372 628.000
16.14366 751.000
16.16361 991.000
16.18356 1261.000
16.20351 1506.000
16.22345 1608.000
16.24340 1617.000
16.26335 1602.000
16.28329 1499.000
16.30324 1445.000
16.32319 1206.000
16.34313 965.000
16.36308 768.000
16.38303 532.000
16.40297 383.000
16.42292 284.000
16.44287 248.000
16.46282 205.000
16.48276 223.000
16.50271 191.000
16.52266 223.000
16.54260 196.000
16.56255 200.000
16.58250 192.000
16.60244 175.000
16.62239 164.000
16.64234 197.000
16.66229 200.000
16.68223 181.000
16.70218 167.000
16.72213 192.000
16.74207 181.000
16.76202 177.000
16.78197 176.000
16.80191 181.000
16.82186 190.000
16.84181 204.000
16.86175 184.000
16.88170 198.000
16.90165 163.000
16.92160 157.000
16.94154 179.000
16.96149 180.000
16.98144 179.000
17.00138 162.000
17.02133 149.000
17.04128 173.000
17.06122 154.000
17.08117 177.000
17.10112 177.000
17.12107 187.000
17.14101 163.000
17.16096 176.000
17.18091 166.000
17.20085 137.000
17.22080 162.000
17.24075 171.000
17.26069 150.000
17.28064 153.000
17.30059 152.000
17.32053 188.000
17.34048 148.000
17.36043 148.000
17.38038 154.000
17.40032 167.000
17.42027 174.000
17.44022 167.000
17.46016 170.000
17.48011 155.000
17.50006 171.000
17.52000 160.000
17.53995 158.000
17.55990 160.000
17.57985 141.000
17.59979 180.000
17.61974 164.000
17.63969 172.000
17.65963 153.000
17.67958 135.000
17.69953 173.000
17.71947 153.000
17.73942 170.000
17.75937 148.000
17.77932 158.000
17.79926 154.000
17.81921 148.000
17.83916 158.000
17.85910 174.000
17.87905 157.000
17.89900 148.000
17.91894 176.000
17.93889 160.000
17.95884 175.000
17.97878 163.000
17.99873 181.000
18.01868 170.000
18.03863 152.000
18.05857 163.000
18.07852 169.000
18.09847 177.000
18.11841 170.000
18.13836 154.000
18.15831 162.000
18.17825 150.000
18.19820 152.000
18.21815 179.000
18.23810 172.000
18.25804 170.000
18.27799 149.000
18.29794 185.000
18.31788 191.000
18.33783 177.000
18.35778 204.000
18.37772 258.000
18.39767 214.000
18.41762 227.000
18.43756 200.000
18.45751 201.000
18.47746 154.000
18.49741 158.000
18.51735 159.000
18.53730 169.000
18.55725 168.000
18.57719 171.000
18.59714 153.000
18.61709 171.000
18.63703 143.000
18.65698 155.000
18.67693 167.000
18.69688 141.000
18.71682 170.000
18.73677 153.000
18.75672 176.000
18.77666 193.000
18.79661 148.000
18.81656 160.000
18.83650 147.000
18.85645 152.000
18.87640 145.000
18.89634 146.000
18.91629 147.000
18.93624 143.000
18.95619 181.000
18.97613 142.000
18.99608 184.000
19.01603 160.000
19.03597 166.000
19.05592 167.000
19.07587 181.000
19.09581 158.000
19.11576 183.000
19.13571 150.000
19.15566 134.000
19.17560 169.000
19.19555 156.000
19.21550 170.000
19.23544 160.000
19.25539 136.000
19.27534 165.000
19.29528 163.000
19.31523 167.000
19.33518 167.000
19.35513 161.000
19.37507 146.000
19.39502 131.000
19.41497 177.000
19.43491 160.000
19.45486 169.000
19.47481 165.000
19.49475 182.000
19.51470 157.000
19.53465 153.000
19.55459 149.000
19.57454 156.000
19.59449 170.000
19.61444 153.000
19.63438 157.000
19.65433 159.000
19.67428 141.000
19.69422 162.000
19.71417 170.000
19.73412 175.000
19.75406 164.000
19.77401 144.000
19.79396 157.000
19.81391 148.000
19.83385 161.000
19.85380 152.000
19.87375 159.000
19.89369 160.000
19.91364 180.000
19.93359 185.000
19.95353 148.000
19.97348 149.000
19.99343 174.000
20.01337 131.000
20.03332 171.000
20.05327 164.000
20.07322 155.000
20.09316 162.000
20.11311 164.000
20.13306 162.000
20.15300 193.000
20.17295 146.000
20.19290 154.000
20.21284 169.000
20.23279 160.000
20.25274 153.000
20.27269 160.000
20.29263 168.000
20.31258 146.000
20.33253 183.000
20.35247 178.000
20.37242 149.000
20.39237 147.000
20.41231 179.000
20.43226 175.000
20.45221 150.000
20.47215 164.000
20.49210 172.000
20.51205 141.000
20.53200 150.000
20.55194 168.000
20.57189 155.000
20.59184 170.000
20.61178 163.000
20.63173 169.000
20.65168 173.000
20.67162 157.000
20.69157 174.000
20.71152 185.000
20.73147 152.000
20.75141 186.000
20.77136 182.000
20.79131 205.000
20.81125 219.000
20.83120 204.000
20.85115 208.000
20.87109 228.000
20.89104 218.000
20.91099 240.000
20.93094 264.000
20.95088 301.000
20.97083 312.000
20.99078 319.000
21.01072 350.000
21.03067 347.000
21.05062 312.000
21.07056 307.000
21.09051 276.000
21.11046 268.000
21.13040 191.000
21.15035 211.000
21.17030 197.000
21.19025 172.000
21.21019 183.000
21.23014 169.000
21.25009 161.000
21.27003 170.000
21.28998 183.000
21.30993 183.000
21.32987 193.000
21.34982 158.000
21.36977 168.000
21.38972 185.000
21.40966 160.000
21.42961 162.000
21.44956 162.000
21.46950 159.000
21.48945 160.000
21.50940 188.000
21.52934 133.000
21.54929 163.000
21.56924 159.000
21.58918 178.000
21.60913 185.000
21.62908 163.000
21.64903 184.000
21.66897 163.000
21.68892 177.000
21.70887 147.000
21.72881 165.000
21.74876 146.000
21.76871 172.000
21.78865 164.000
21.80860 183.000
21.82855 159.000
21.84850 178.000
21.86844 173.000
21.88839 156.000
21.90834 171.000
21.92828 171.000
21.94823 184.000
21.96818 173.000
21.98812 154.000
22.00807 171.000
22.02802 181.000
22.04796 164.000
22.06791 182.000
22.08786 150.000
22.10781 175.000
22.12775 169.000
22.14770 193.000
22.16765 178.000
22.18759 157.000
22.20754 169.000
22.22749 169.000
22.24743 176.000
22.26738 191.000
22.28733 180.000
22.30728 169.000
22.32722 174.000
22.34717 184.000
22.36712 159.000
22.38706 185.000
22.40701 180.000
22.42696 155.000
22.44690 153.000
22.46685 146.000
22.48680 132.000
22.50675 155.000
22.52669 142.000
22.54664 154.000
22.56659 186.000
22.58653 167.000
22.60648 135.000
22.62643 200.000
22.64637 172.000
22.66632 159.000
22.68627 173.000
22.70621 154.000
22.72616 172.000
22.74611 177.000
22.76606 184.000
22.78600 169.000
22.80595 190.000
22.82590 187.000
22.84584 162.000
22.86579 145.000
22.88574 179.000
22.90568 179.000
22.92563 175.000
22.94558 146.000
22.96553 161.000
22.98547 168.000
23.00542 170.000
23.02537 184.000
23.04531 175.000
23.06526 169.000
23.08521 189.000
23.10515 151.000
23.12510 167.000
23.14505 159.000
23.16499 160.000
23.18494 160.000
23.20489 146.000
23.22484 187.000
23.24478 145.000
23.26473 164.000
23.28468 176.000
23.30462 194.000
23.32457 158.000
23.34452 163.000
23.36446 148.000
23.38441 163.000
23.40436 169.000
23.42431 146.000
23.44425 196.000
23.46420 152.000
23.48415 150.000
23.50409 166.000
23.52404 188.000
23.54399 164.000
23.56393 164.000
23.58388 192.000
23.60383 176.000
23.62377 169.000
23.64372 167.000
23.66367 194.000
23.68362 147.000
23.70356 169.000
23.72351 172.000
23.74346 153.000
23.76340 182.000
23.78335 164.000
23.80330 185.000
23.82324 168.000
23.84319 172.000
23.86314 170.000
23.88309 146.000
23.90303 168.000
23.92298 185.000
23.94293 175.000
23.96287 165.000
23.98282 173.000
24.00277 164.000
24.02271 175.000
24.04266 163.000
24.06261 173.000
24.08256 163.000
24.10250 165.000
24.12245 162.000
24.14240 170.000
24.16234 148.000
24.18229 176.000
24.20224 169.000
24.22218 190.000
24.24213 164.000
24.26208 165.000
24.28202 161.000
24.30197 162.000
24.32192 165.000
24.34187 180.000
24.36181 176.000
24.38176 187.000
24.40171 171.000
24.42165 156.000
24.44160 185.000
24.46155 190.000
24.48149 192.000
24.50144 161.000
24.52139 182.000
24.54134 156.000
24.56128 161.000
24.58123 176.000
24.60118 178.000
24.62112 153.000
24.64107 158.000
24.66102 163.000
24.68096 169.000
24.70091 166.000
24.72086 169.000
24.74080 169.000
24.76075 188.000
24.78070 194.000
24.80065 168.000
24.82059 142.000
24.84054 202.000
24.86049 185.000
24.88043 166.000
24.90038 168.000
24.92033 203.000
24.94027 163.000
24.96022 173.000
24.98017 203.000
25.00012 183.000
25.02006 184.000
25.04001 172.000
25.05996 180.000
25.07990 171.000
25.09985 166.000
25.11980 194.000
25.13974 174.000
25.15969 180.000
25.17964 181.000
25.19958 175.000
25.21953 195.000
25.23948 175.000
25.25943 156.000
25.27937 172.000
25.29932 176.000
25.31927 172.000
25.33921 170.000
25.35916 182.000
25.37911 176.000
25.39905 157.000
25.41900 179.000
25.43895 184.000
25.45890 162.000
25.47884 177.000
25.49879 178.000
25.51874 166.000
25.53868 196.000
25.55863 165.000
25.57858 196.000
25.59852 165.000
25.61847 180.000
25.63842 175.000
25.65837 178.000
25.67831 174.000
25.69826 167.000
25.71821 162.000
25.73815 161.000
25.75810 184.000
25.77805 162.000
25.79799 190.000
25.81794 185.000
25.83789 169.000
25.85783 159.000
25.87778 195.000
25.89773 192.000
25.91768 183.000
25.93762 167.000
25.95757 176.000
25.97752 176.000
25.99746 177.000
26.01741 166.000
26.03736 185.000
26.05730 172.000
26.07725 158.000
26.09720 172.000
26.11715 181.000
26.13709 189.000
26.15704 167.000
26.17699 199.000
26.19693 154.000
26.21688 177.000
26.23683 177.000
26.25677 157.000
26.27672 194.000
26.29667 180.000
26.31661 156.000
26.33656 178.000
26.35651 219.000
26.37646 179.000
26.39640 192.000
26.41635 211.000
26.43630 179.000
26.45624 210.000
26.47619 163.000
26.49614 156.000
26.51608 158.000
26.53603 164.000
26.55598 179.000
26.57593 169.000
26.59587 188.000
26.61582 191.000
26.63577 220.000
26.65571 203.000
26.67566 182.000
26.69561 182.000
26.71555 148.000
26.73550 169.000
26.75545 179.000
26.77539 183.000
26.79534 184.000
26.81529 179.000
26.83524 180.000
26.85518 153.000
26.87513 192.000
26.89508 146.000
26.91502 187.000
26.93497 188.000
26.95492 196.000
26.97486 176.000
26.99481 197.000
27.01476 181.000
27.03471 169.000
27.05465 180.000
27.07460 174.000
27.09455 186.000
27.11449 181.000
27.13444 186.000
27.15439 186.000
27.17433 194.000
27.19428 164.000
27.21423 178.000
27.23417 192.000
27.25412 181.000
27.27407 170.000
27.29402 185.000
27.31396 174.000
27.33391 185.000
27.35386 190.000
27.37380 187.000
27.39375 153.000
27.41370 180.000
27.43364 157.000
27.45359 172.000
27.47354 184.000
27.49349 196.000
27.51343 178.000
27.53338 154.000
27.55333 182.000
27.57327 172.000
27.59322 193.000
27.61317 210.000
27.63311 209.000
27.65306 178.000
27.67301 188.000
27.69296 171.000
27.71290 175.000
27.73285 166.000
27.75280 211.000
27.77274 176.000
27.79269 181.000
27.81264 207.000
27.83258 192.000
27.85253 216.000
27.87248 177.000
27.89242 187.000
27.91237 198.000
27.93232 202.000
27.95227 192.000
27.97221 178.000
27.99216 204.000
28.01211 200.000
28.03205 205.000
28.05200 163.000
28.07195 199.000
28.09189 201.000
28.11184 195.000
28.13179 201.000
28.15174 180.000
28.17168 189.000
28.19163 206.000
28.21158 202.000
28.23152 199.000
28.25147 176.000
28.27142 199.000
28.29136 198.000
28.31131 196.000
28.33126 167.000
28.35120 171.000
28.37115 178.000
28.39110 180.000
28.41105 205.000
28.43099 181.000
28.45094 216.000
28.47089 178.000
28.49083 189.000
28.51078 190.000
28.53073 199.000
28.55067 172.000
28.57062 221.000
28.59057 181.000
28.61052 179.000
28.63046 178.000
28.65041 194.000
28.67036 179.000
28.69030 169.000
28.71025 174.000
28.73020 212.000
28.75014 196.000
28.77009 201.000
28.79004 187.000
28.80998 193.000
28.82993 209.000
28.84988 169.000
28.86983 186.000
28.88977 181.000
28.90972 201.000
28.92967 195.000
28.94961 181.000
28.96956 179.000
28.98951 192.000
29.00945 206.000
29.02940 213.000
29.04935 207.000
29.06930 188.000
29.08924 192.000
29.10919 207.000
29.12914 180.000
29.14908 175.000
29.16903 188.000
29.18898 202.000
29.20892 189.000
29.22887 225.000
29.24882 206.000
29.26877 229.000
29.28871 226.000
29.30866 223.000
29.32861 245.000
29.34855 250.000
29.36850 235.000
29.38845 240.000
29.40839 272.000
29.42834 255.000
29.44829 227.000
29.46823 231.000
29.48818 221.000
29.50813 216.000
29.52808 222.000
29.54802 199.000
29.56797 188.000
29.58792 183.000
29.60786 178.000
29.62781 201.000
29.64776 203.000
29.66770 220.000
29.68765 164.000
29.70760 179.000
29.72755 195.000
29.74749 197.000
29.76744 184.000
29.78739 186.000
29.80733 199.000
29.82728 183.000
29.84723 209.000
29.86717 155.000
29.88712 210.000
29.90707 205.000
29.92701 203.000
29.94696 194.000
29.96691 189.000
29.98686 225.000
30.00680 207.000
30.02675 214.000
30.04670 187.000
30.06664 192.000
30.08659 183.000
30.10654 214.000
30.12648 207.000
30.14643 218.000
30.16638 229.000
30.18633 248.000
30.20627 279.000
30.22622 306.000
30.24617 362.000
30.26611 377.000
30.28606 356.000
30.30601 320.000
30.32595 315.000
30.34590 274.000
30.36585 261.000
30.38579 238.000
30.40574 210.000
30.42569 221.000
30.44564 206.000
30.46558 227.000
30.48553 221.000
30.50548 224.000
30.52542 182.000
30.54537 184.000
30.56532 211.000
30.58526 210.000
30.60521 186.000
30.62516 195.000
30.64511 210.000
30.66505 197.000
30.68500 213.000
30.70495 199.000
30.72489 181.000
30.74484 199.000
30.76479 180.000
30.78473 193.000
30.80468 176.000
30.82463 204.000
30.84458 200.000
30.86452 201.000
30.88447 184.000
30.90442 176.000
30.92436 191.000
30.94431 204.000
30.96426 203.000
30.98420 184.000
31.00415 199.000
31.02410 233.000
31.04404 192.000
31.06399 210.000
31.08394 216.000
31.10389 179.000
31.12383 186.000
31.14378 209.000
31.16373 206.000
31.18367 192.000
31.20362 202.000
31.22357 207.000
31.24351 188.000
31.26346 205.000
31.28341 181.000
31.30336 214.000
31.32330 205.000
31.34325 218.000
31.36320 189.000
31.38314 200.000
31.40309 186.000
31.42304 202.000
31.44298 202.000
31.46293 196.000
31.48288 203.000
31.50282 182.000
31.52277 196.000
31.54272 197.000
31.56267 195.000
31.58261 184.000
31.60256 193.000
31.62251 186.000
31.64245 176.000
31.66240 177.000
31.68235 206.000
31.70229 201.000
31.72224 185.000
31.74219 193.000
31.76214 230.000
31.78208 200.000
31.80203 204.000
31.82198 207.000
31.84192 219.000
31.86187 213.000
31.88182 226.000
31.90176 206.000
31.92171 213.000
31.94166 218.000
31.96160 260.000
31.98155 303.000
32.00150 310.000
32.02145 335.000
32.04139 380.000
32.06134 334.000
32.08129 367.000
32.10123 320.000
32.12118 315.000
32.14113 304.000
32.16107 265.000
32.18102 238.000
32.20097 206.000
32.22092 233.000
32.24086 188.000
32.26081 220.000
32.28076 182.000
32.30070 199.000
32.32065 190.000
32.34060 212.000
32.36054 216.000
32.38049 211.000
32.40044 230.000
32.42039 222.000
32.44033 270.000
32.46028 259.000
32.48023 245.000
32.50017 280.000
32.52012 266.000
32.54007 258.000
32.56001 248.000
32.57996 232.000
32.59991 272.000
32.61985 272.000
32.63980 269.000
32.65975 274.000
32.67970 273.000
32.69964 285.000
32.71959 296.000
32.73954 322.000
32.75948 300.000
32.77943 305.000
32.79938 324.000
32.81932 337.000
32.83927 309.000
32.85922 317.000
32.87917 340.000
32.89911 303.000
32.91906 329.000
32.93901 326.000
32.95895 310.000
32.97890 291.000
32.99885 318.000
33.01879 290.000
33.03874 260.000
33.05869 260.000
33.07863 234.000
33.09858 213.000
33.11853 225.000
33.13848 215.000
33.15842 194.000
33.17837 202.000
33.19832 209.000
33.21826 199.000
33.23821 219.000
33.25816 183.000
33.27810 215.000
33.29805 206.000
33.31800 198.000
33.33795 186.000
33.35789 189.000
33.37784 203.000
33.39779 196.000
33.41773 207.000
33.43768 190.000
33.45763 205.000
33.47757 186.000
33.49752 213.000
33.51747 201.000
33.53741 201.000
33.55736 199.000
33.57731 202.000
33.59726 189.000
33.61720 203.000
33.63715 195.000
33.65710 177.000
33.67704 176.000
33.69699 204.000
33.71694 199.000
33.73688 190.000
33.75683 182.000
33.77678 183.000
33.79673 181.000
33.81667 199.000
33.83662 208.000
33.85657 190.000
33.87651 203.000
33.89646 201.000
33.91641 186.000
33.93635 175.000
33.95630 193.000
33.97625 209.000
33.99620 187.000
34.01614 205.000
34.03609 184.000
34.05604 197.000
34.07598 203.000
34.09593 194.000
34.11588 204.000
34.13582 206.000
34.15577 212.000
34.17572 197.000
34.19566 234.000
34.21561 204.000
34.23556 202.000
34.25551 230.000
34.27545 228.000
34.29540 245.000
34.31535 233.000
34.33529 248.000
34.35524 256.000
34.37519 266.000
34.39513 248.000
34.41508 267.000
34.43503 288.000
34.45498 240.000
34.47492 265.000
34.49487 286.000
34.51482 336.000
34.53476 317.000
34.55471 335.000
34.57466 290.000
34.59460 292.000
34.61455 294.000
34.63450 303.000
34.65444 304.000
34.67439 303.000
34.69434 300.000
34.71429 339.000
34.73423 323.000
34.75418 309.000
34.77413 267.000
34.79407 317.000
34.81402 304.000
34.83397 276.000
34.85391 275.000
34.87386 281.000
34.89381 230.000
34.91376 244.000
34.93370 258.000
34.95365 262.000
34.97360 233.000
34.99354 239.000
35.01349 200.000
35.03344 226.000
35.05338 222.000
35.07333 237.000
35.09328 205.000
35.11322 238.000
35.13317 248.000
35.15312 224.000
35.17307 259.000
35.19301 260.000
35.21296 285.000
35.23291 260.000
35.25285 283.000
35.27280 286.000
35.29275 339.000
35.31269 356.000
35.33264 369.000
35.35259 438.000
35.37254 514.000
35.39248 649.000
35.41243 823.000
35.43238 877.000
35.45232 881.000
35.47227 1016.000
35.49222 1097.000
35.51216 1197.000
35.53211 1249.000
35.55206 1196.000
35.57201 1205.000
35.59195 1254.000
35.61190 1338.000
35.63185 1448.000
35.65179 1394.000
35.67174 1206.000
35.69169 1151.000
35.71163 983.000
35.73158 920.000
35.75153 840.000
35.77147 631.000
35.79142 532.000
35.81137 485.000
35.83132 374.000
35.85126 353.000
35.87121 319.000
35.89116 297.000
35.91110 279.000
35.93105 249.000
35.95100 288.000
35.97094 224.000
35.99089 246.000
36.01084 225.000
36.03079 225.000
36.05073 251.000
36.07068 251.000
36.09063 233.000
36.11057 219.000
36.13052 236.000
36.15047 230.000
36.17041 211.000
36.19036 225.000
36.21031 227.000
36.23025 218.000
36.25020 209.000
36.27015 208.000
36.29010 237.000
36.31004 216.000
36.32999 212.000
36.34994 239.000
36.36988 241.000
36.38983 219.000
36.40978 233.000
36.42972 205.000
36.44967 208.000
36.46962 249.000
36.48957 237.000
36.50951 236.000
36.52946 225.000
36.54941 253.000
36.56935 256.000
36.58930 265.000
36.60925 242.000
36.62919 289.000
36.64914 292.000
36.66909 277.000
36.68903 305.000
36.70898 394.000
36.72893 405.000
36.74888 437.000
36.76882 468.000
36.78877 483.000
36.80872 552.000
36.82866 542.000
36.84861 581.000
36.86856 587.000
36.88850 565.000
36.90845 523.000
36.92840 509.000
36.94835 544.000
36.96829 585.000
36.98824 551.000
37.00819 588.000
37.02813 532.000
37.04808 579.000
37.06803 593.000
37.08797 636.000
37.10792 611.000
37.12787 610.000
37.14781 536.000
37.16776 577.000
37.18771 509.000
37.20766 480.000
37.22760 412.000
37.24755 388.000
37.26750 341.000
37.28744 358.000
37.30739 283.000
37.32734 258.000
37.34728 268.000
37.36723 266.000
37.38718 233.000
37.40713 221.000
37.42707 216.000
37.44702 233.000
37.46697 201.000
37.48691 199.000
37.50686 204.000
37.52681 207.000
37.54675 208.000
37.56670 214.000
37.58665 192.000
37.60660 196.000
37.62654 199.000
37.64649 217.000
37.66644 212.000
37.68638 213.000
37.70633 222.000
37.72628 203.000
37.74622 214.000
37.76617 200.000
37.78612 190.000
37.80606 189.000
37.82601 215.000
37.84596 200.000
37.86591 207.000
37.88585 195.000
37.90580 219.000
37.92575 224.000
37.94569 220.000
37.96564 222.000
37.98559 206.000
38.00553 209.000
38.02548 206.000
38.04543 230.000
38.06538 204.000
38.08532 175.000
38.10527 187.000
38.12522 225.000
38.14516 221.000
38.16511 201.000
38.18506 233.000
38.20500 239.000
38.22495 185.000
38.24490 211.000
38.26484 210.000
38.28479 237.000
38.30474 223.000
38.32469 221.000
38.34463 237.000
38.36458 276.000
38.38453 265.000
38.40447 273.000
38.42442 258.000
38.44437 295.000
38.46431 329.000
38.48426 325.000
38.50421 369.000
38.52416 394.000
38.54410 412.000
38.56405 451.000
38.58400 483.000
38.60394 556.000
38.62389 626.000
38.64384 645.000
38.66378 716.000
38.68373 719.000
38.70368 754.000
38.72362 736.000
38.74357 717.000
38.76352 746.000
38.78347 635.000
38.80341 591.000
38.82336 580.000
38.84331 523.000
38.86325 533.000
38.88320 509.000
38.90315 495.000
38.92309 467.000
38.94304 432.000
38.96299 443.000
38.98294 419.000
39.00288 388.000
39.02283 365.000
39.04278 399.000
39.06272 377.000
39.08267 332.000
39.10262 391.000
39.12256 383.000
39.14251 391.000
39.16246 336.000
39.18241 412.000
39.20235 441.000
39.22230 499.000
39.24225 537.000
39.26219 650.000
39.28214 655.000
39.30209 698.000
39.32203 626.000
39.34198 616.000
39.36193 570.000
39.38187 538.000
39.40182 480.000
39.42177 448.000
39.44172 388.000
39.46166 289.000
39.48161 284.000
39.50156 274.000
39.52150 257.000
39.54145 255.000
39.56140 225.000
39.58134 217.000
39.60129 206.000
39.62124 215.000
39.64119 189.000
39.66113 221.000
39.68108 223.000
39.70103 214.000
39.72097 196.000
39.74092 220.000
39.76087 227.000
39.78081 192.000
39.80076 190.000
39.82071 204.000
39.84065 227.000
39.86060 201.000
39.88055 198.000
39.90050 215.000
39.92044 210.000
39.94039 195.000
39.96034 188.000
39.98028 225.000
40.00023 208.000
40.02018 191.000
40.04012 218.000
40.06007 188.000
40.08002 185.000
40.09997 201.000
40.11991 212.000
40.13986 215.000
40.15981 187.000
40.17975 173.000
40.19970 193.000
40.21965 189.000
40.23959 185.000
40.25954 174.000
40.27949 185.000
40.29943 195.000
40.31938 217.000
40.33933 187.000
40.35928 179.000
40.37922 220.000
40.39917 193.000
40.41912 188.000
40.43906 210.000
40.45901 202.000
40.47896 184.000
40.49890 195.000
40.51885 198.000
40.53880 182.000
40.55875 194.000
40.57869 197.000
40.59864 220.000
40.61859 182.000
40.63853 204.000
40.65848 207.000
40.67843 201.000
40.69837 198.000
40.71832 204.000
40.73827 177.000
40.75822 197.000
40.77816 199.000
40.79811 209.000
40.81806 192.000
40.83800 229.000
40.85795 221.000
40.87790 238.000
40.89784 214.000
40.91779 183.000
40.93774 216.000
40.95768 168.000
40.97763 195.000
40.99758 200.000
41.01753 201.000
41.03747 190.000
41.05742 232.000
41.07737 219.000
41.09731 223.000
41.11726 206.000
41.13721 218.000
41.15715 199.000
41.17710 233.000
41.19705 217.000
41.21700 208.000
41.23694 247.000
41.25689 222.000
41.27684 226.000
41.29678 228.000
41.31673 220.000
41.33668 261.000
41.35662 233.000
41.37657 267.000
41.39652 254.000
41.41646 314.000
41.43641 326.000
41.45636 345.000
41.47631 347.000
41.49625 416.000
41.51620 486.000
41.53615 540.000
41.55609 676.000
41.57604 856.000
41.59599 1059.000
41.61593 1380.000
41.63588 1611.000
41.65583 1761.000
41.67578 1643.000
41.69572 1493.000
41.71567 1293.000
41.73562 1274.000
41.75556 1161.000
41.77551 1044.000
41.79546 827.000
41.81540 677.000
41.83535 507.000
41.85530 407.000
41.87524 345.000
41.89519 332.000
41.91514 270.000
41.93509 255.000
41.95503 226.000
41.97498 263.000
41.99493 256.000
42.01487 240.000
42.03482 206.000
42.05477 221.000
42.07471 251.000
42.09466 229.000
42.11461 238.000
42.13456 216.000
42.15450 214.000
42.17445 225.000
42.19440 228.000
42.21434 218.000
42.23429 208.000
42.25424 206.000
42.27418 196.000
42.29413 231.000
42.31408 213.000
42.33403 185.000
42.35397 182.000
42.37392 248.000
42.39387 205.000
42.41381 221.000
42.43376 213.000
42.45371 224.000
42.47365 223.000
42.49360 203.000
42.51355 257.000
42.53349 237.000
42.55344 214.000
42.57339 212.000
42.59334 230.000
42.61328 257.000
42.63323 235.000
42.65318 241.000
42.67312 302.000
42.69307 213.000
42.71302 250.000
42.73296 277.000
42.75291 276.000
42.77286 290.000
42.79281 304.000
42.81275 316.000
42.83270 360.000
42.85265 305.000
42.87259 387.000
42.89254 401.000
42.91249 429.000
42.93243 454.000
42.95238 497.000
42.97233 522.000
42.99227 514.000
43.01222 572.000
43.03217 576.000
43.05212 609.000
43.07206 639.000
43.09201 627.000
43.11196 647.000
43.13190 632.000
43.15185 651.000
43.17180 613.000
43.19174 646.000
43.21169 565.000
43.23164 575.000
43.25159 552.000
43.27153 578.000
43.29148 594.000
43.31143 555.000
43.33137 526.000
43.35132 496.000
43.37127 534.000
43.39121 538.000
43.41116 462.000
43.43111 485.000
43.45105 444.000
43.47100 396.000
43.49095 410.000
43.51090 334.000
43.53084 350.000
43.55079 299.000
43.57074 263.000
43.59068 264.000
43.61063 226.000
43.63058 253.000
43.65052 205.000
43.67047 240.000
43.69042 228.000
43.71037 234.000
43.73031 196.000
43.75026 240.000
43.77021 209.000
43.79015 191.000
43.81010 184.000
43.83005 186.000
43.84999 199.000
43.86994 222.000
43.88989 200.000
43.90984 183.000
43.92978 185.000
43.94973 207.000
43.96968 210.000
43.98962 210.000
44.00957 189.000
44.02952 200.000
44.04946 212.000
44.06941 192.000
44.08936 179.000
44.10930 202.000
44.12925 214.000
44.14920 202.000
44.16915 181.000
44.18909 160.000
44.20904 177.000
44.22899 180.000
44.24893 197.000
44.26888 193.000
44.28883 189.000
44.30877 191.000
44.32872 156.000
44.34867 161.000
44.36862 200.000
44.38856 216.000
44.40851 203.000
44.42846 179.000
44.44840 178.000
44.46835 163.000
44.48830 175.000
44.50824 197.000
44.52819 179.000
44.54814 169.000
44.56808 204.000
44.58803 202.000
44.60798 177.000
44.62793 181.000
44.64787 190.000
44.66782 165.000
44.68777 190.000
44.70771 198.000
44.72766 169.000
44.74761 180.000
44.76755 178.000
44.78750 175.000
44.80745 209.000
44.82740 207.000
44.84734 184.000
44.86729 191.000
44.88724 200.000
44.90718 212.000
44.92713 198.000
44.94708 210.000
44.96702 235.000
44.98697 253.000
45.00692 265.000
45.02686 209.000
45.04681 218.000
45.06676 209.000
45.08671 204.000
45.10665 223.000
45.12660 232.000
45.14655 201.000
45.16649 201.000
45.18644 200.000
45.20639 224.000
45.22633 190.000
45.24628 182.000
45.26623 167.000
45.28618 180.000
45.30612 165.000
45.32607 172.000
45.34602 194.000
45.36596 192.000
45.38591 196.000
45.40586 166.000
45.42580 173.000
45.44575 180.000
45.46570 178.000
45.48565 178.000
45.50559 203.000
45.52554 183.000
45.54549 173.000
45.56543 171.000
45.58538 189.000
45.60533 203.000
45.62527 175.000
45.64522 158.000
45.66517 182.000
45.68511 178.000
45.70506 172.000
45.72501 175.000
45.74496 213.000
45.76490 167.000
45.78485 175.000
45.80480 175.000
45.82474 202.000
45.84469 198.000
45.86464 174.000
45.88458 213.000
45.90453 200.000
45.92448 185.000
45.94443 180.000
45.96437 203.000
45.98432 147.000
46.00427 171.000
46.02421 187.000
46.04416 206.000
46.06411 169.000
46.08405 196.000
46.10400 202.000
46.12395 178.000
46.14389 218.000
46.16384 201.000
46.18379 186.000
46.20374 183.000
46.22368 190.000
46.24363 201.000
46.26358 189.000
46.28352 171.000
46.30347 162.000
46.32342 222.000
46.34336 180.000
46.36331 178.000
46.38326 186.000
46.40321 174.000
46.42315 186.000
46.44310 195.000
46.46305 167.000
46.48299 189.000
46.50294 173.000
46.52289 167.000
46.54283 165.000
46.56278 201.000
46.58273 201.000
46.60267 204.000
46.62262 160.000
46.64257 188.000
46.66252 200.000
46.68246 185.000
46.70241 188.000
46.72236 191.000
46.74230 186.000
46.76225 164.000
46.78220 176.000
46.80214 169.000
46.82209 180.000
46.84204 189.000
46.86199 182.000
46.88193 172.000
46.90188 214.000
46.92183 170.000
46.94177 196.000
46.96172 180.000
46.98167 159.000
47.00161 174.000
47.02156 184.000
47.04151 168.000
47.06146 182.000
47.08140 181.000
47.10135 192.000
47.12130 176.000
47.14124 215.000
47.16119 181.000
47.18114 183.000
47.20108 198.000
47.22103 188.000
47.24098 173.000
47.26092 161.000
47.28087 166.000
47.30082 203.000
47.32077 171.000
47.34071 176.000
47.36066 207.000
47.38061 164.000
47.40055 193.000
47.42050 164.000
47.44045 166.000
47.46039 175.000
47.48034 173.000
47.50029 166.000
47.52024 180.000
47.54018 181.000
47.56013 147.000
47.58008 175.000
47.60002 188.000
47.61997 186.000
47.63992 191.000
47.65986 193.000
47.67981 182.000
47.69976 188.000
47.71970 191.000
47.73965 194.000
47.75960 179.000
47.77955 166.000
47.79949 171.000
47.81944 220.000
47.83939 190.000
47.85933 202.000
47.87928 185.000
47.89923 190.000
47.91917 185.000
47.93912 184.000
47.95907 223.000
47.97902 187.000
47.99896 196.000
48.01891 207.000
48.03886 202.000
48.05880 193.000
48.07875 187.000
48.09870 205.000
48.11864 229.000
48.13859 214.000
48.15854 197.000
48.17848 191.000
48.19843 204.000
48.21838 227.000
48.23833 212.000
48.25827 225.000
48.27822 206.000
48.29817 203.000
48.31811 217.000
48.33806 211.000
48.35801 187.000
48.37795 222.000
48.39790 236.000
48.41785 221.000
48.43780 203.000
48.45774 216.000
48.47769 240.000
48.49764 246.000
48.51758 232.000
48.53753 281.000
48.55748 255.000
48.57742 287.000
48.59737 361.000
48.61732 345.000
48.63726 429.000
48.65721 450.000
48.67716 461.000
48.69711 542.000
48.71705 574.000
48.73700 586.000
48.75695 566.000
48.77689 548.000
48.79684 549.000
48.81679 519.000
48.83673 465.000
48.85668 499.000
48.87663 461.000
48.89658 428.000
48.91652 410.000
48.93647 353.000
48.95642 323.000
48.97636 308.000
48.99631 273.000
49.01626 284.000
49.03620 285.000
49.05615 240.000
49.07610 225.000
49.09605 227.000
49.11599 229.000
49.13594 209.000
49.15589 221.000
49.17583 239.000
49.19578 200.000
49.21573 211.000
49.23567 188.000
49.25562 184.000
49.27557 187.000
49.29551 218.000
49.31546 213.000
49.33541 204.000
49.35536 198.000
49.37530 180.000
49.39525 222.000
49.41520 175.000
49.43514 183.000
49.45509 203.000
49.47504 185.000
49.49498 188.000
49.51493 223.000
49.53488 199.000
49.55483 196.000
49.57477 192.000
49.59472 167.000
49.61467 191.000
49.63461 208.000
49.65456 200.000
49.67451 217.000
49.69445 185.000
49.71440 195.000
49.73435 205.000
49.75429 194.000
49.77424 196.000
49.79419 199.000
49.81414 205.000
49.83408 193.000
49.85403 203.000
49.87398 213.000
49.89392 176.000
49.91387 183.000
49.93382 207.000
49.95376 208.000
49.97371 179.000
49.99366 204.000
50.01361 188.000
50.03355 184.000
50.05350 182.000
50.07345 192.000
50.09339 194.000
50.11334 179.000
50.13329 182.000
50.15323 212.000
50.17318 201.000
50.19313 182.000
50.21307 186.000
50.23302 181.000
50.25297 171.000
50.27292 181.000
50.29286 184.000
50.31281 193.000
50.33276 203.000
50.35270 186.000
50.37265 172.000
50.39260 179.000
50.41254 187.000
50.43249 203.000
50.45244 197.000
50.47239 184.000
50.49233 171.000
50.51228 183.000
50.53223 184.000
50.55217 198.000
50.57212 156.000
50.59207 171.000
50.61201 154.000
50.63196 195.000
50.65191 176.000
50.67186 184.000
50.69180 170.000
50.71175 181.000
50.73170 162.000
50.75164 200.000
50.77159 172.000
50.79154 180.000
50.81148 221.000
50.83143 172.000
50.85138 218.000
50.87132 182.000
50.89127 204.000
50.91122 171.000
50.93117 189.000
50.95111 177.000
50.97106 200.000
50.99101 171.000
51.01095 172.000
51.03090 202.000
51.05085 163.000
51.07079 176.000
51.09074 165.000
51.11069 185.000
51.13064 169.000
51.15058 190.000
51.17053 177.000
51.19048 194.000
51.21042 174.000
51.23037 187.000
51.25032 185.000
51.27026 171.000
51.29021 194.000
51.31016 197.000
51.33010 172.000
51.35005 191.000
51.37000 184.000
51.38995 180.000
51.40989 189.000
51.42984 202.000
51.44979 189.000
51.46973 172.000
51.48968 193.000
51.50963 186.000
51.52957 188.000
51.54952 179.000
51.56947 203.000
51.58942 199.000
51.60936 187.000
51.62931 188.000
51.64926 175.000
51.66920 178.000
51.68915 182.000
51.70910 164.000
51.72904 184.000
51.74899 184.000
51.76894 186.000
51.78888 189.000
51.80883 214.000
51.82878 162.000
51.84873 183.000
51.86867 175.000
51.88862 194.000
51.90857 193.000
51.92851 174.000
51.94846 179.000
51.96841 194.000
51.98835 197.000
52.00830 231.000
52.02825 186.000
52.04820 190.000
52.06814 174.000
52.08809 192.000
52.10804 191.000
52.12798 197.000
52.14793 198.000
52.16788 175.000
52.18782 202.000
52.20777 184.000
52.22772 183.000
52.24767 181.000
52.26761 222.000
52.28756 209.000
52.30751 170.000
52.32745 183.000
52.34740 183.000
52.36735 187.000
52.38729 193.000
52.40724 186.000
52.42719 184.000
52.44713 191.000
52.46708 200.000
52.48703 188.000
52.50698 157.000
52.52692 175.000
52.54687 172.000
52.56682 186.000
52.58676 217.000
52.60671 166.000
52.62666 197.000
52.64660 175.000
52.66655 204.000
52.68650 209.000
52.70645 177.000
52.72639 193.000
52.74634 194.000
52.76629 206.000
52.78623 162.000
52.80618 181.000
52.82613 180.000
52.84607 206.000
52.86602 218.000
52.88597 216.000
52.90591 183.000
52.92586 228.000
52.94581 252.000
52.96576 257.000
52.98570 265.000
53.00565 276.000
53.02560 336.000
53.04554 308.000
53.06549 321.000
53.08544 344.000
53.10538 337.000
53.12533 363.000
53.14528 371.000
53.16523 367.000
53.18517 348.000
53.20512 347.000
53.22507 316.000
53.24501 289.000
53.26496 277.000
53.28491 279.000
53.30485 261.000
53.32480 309.000
53.34475 248.000
53.36469 265.000
53.38464 229.000
53.40459 240.000
53.42454 251.000
53.44448 252.000
53.46443 223.000
53.48438 235.000
53.50432 232.000
53.52427 202.000
53.54422 219.000
53.56416 209.000
53.58411 196.000
53.60406 211.000
53.62401 218.000
53.64395 220.000
53.66390 250.000
53.68385 218.000
53.70379 206.000
53.72374 241.000
53.74369 220.000
53.76363 223.000
53.78358 244.000
53.80353 209.000
53.82348 212.000
53.84342 198.000
53.86337 211.000
53.88332 199.000
53.90326 231.000
53.92321 192.000
53.94316 202.000
53.96310 210.000
53.98305 194.000
54.00300 193.000
54.02294 200.000
54.04289 202.000
54.06284 191.000
54.08279 180.000
54.10273 182.000
54.12268 155.000
54.14263 176.000
54.16257 178.000
54.18252 171.000
54.20247 196.000
54.22241 193.000
54.24236 166.000
54.26231 209.000
54.28226 191.000
54.30220 168.000
54.32215 165.000
54.34210 183.000
54.36204 173.000
54.38199 175.000
54.40194 178.000
54.42188 192.000
54.44183 192.000
54.46178 199.000
54.48172 176.000
54.50167 168.000
54.52162 150.000
54.54157 192.000
54.56151 174.000
54.58146 174.000
54.60141 195.000
54.62135 191.000
54.64130 214.000
54.66125 188.000
54.68119 198.000
54.70114 174.000
54.72109 172.000
54.74104 192.000
54.76098 151.000
54.78093 175.000
54.80088 179.000
54.82082 170.000
54.84077 163.000
54.86072 178.000
54.88066 180.000
54.90061 208.000
54.92056 163.000
54.94050 163.000
54.96045 179.000
54.98040 184.000
55.00035 166.000
55.02029 182.000
55.04024 160.000
55.06019 182.000
55.08013 188.000
55.10008 182.000
55.12003 191.000
55.13997 165.000
55.15992 199.000
55.17987 192.000
55.19982 179.000
55.21976 195.000
55.23971 179.000
55.25966 186.000
55.27960 179.000
55.29955 173.000
55.31950 183.000
55.33944 186.000
55.35939 184.000
55.37934 192.000
55.39929 184.000
55.41923 183.000
55.43918 151.000
55.45913 203.000
55.47907 189.000
55.49902 166.000
55.51897 171.000
55.53891 179.000
55.55886 171.000
55.57881 201.000
55.59875 188.000
55.61870 190.000
55.63865 167.000
55.65860 187.000
55.67854 179.000
55.69849 175.000
55.71844 201.000
55.73838 196.000
55.75833 179.000
55.77828 190.000
55.79822 182.000
55.81817 182.000
55.83812 195.000
55.85807 176.000
55.87801 179.000
55.89796 176.000
55.91791 197.000
55.93785 185.000
55.95780 169.000
55.97775 174.000
55.99769 174.000
56.01764 177.000
56.03759 177.000
56.05753 185.000
56.07748 166.000
56.09743 190.000
56.11738 168.000
56.13732 188.000
56.15727 174.000
56.17722 175.000
56.19716 183.000
56.21711 170.000
56.23706 201.000
56.25700 181.000
56.27695 167.000
56.29690 178.000
56.31685 198.000
56.33679 189.000
56.35674 155.000
56.37669 194.000
56.39663 194.000
56.41658 182.000
56.43653 169.000
56.45647 197.000
56.47642 206.000
56.49637 183.000
56.51631 189.000
56.53626 177.000
56.55621 196.000
56.57616 189.000
56.59610 202.000
56.61605 181.000
56.63600 209.000
56.65594 190.000
56.67589 173.000
56.69584 175.000
56.71578 194.000
56.73573 196.000
56.75568 181.000
56.77563 189.000
56.79557 199.000
56.81552 197.000
56.83547 200.000
56.85541 173.000
56.87536 176.000
56.89531 187.000
56.91525 170.000
56.93520 141.000
56.95515 202.000
56.97510 179.000
56.99504 175.000
57.01499 182.000
57.03494 190.000
57.05488 184.000
57.07483 205.000
57.09478 177.000
57.11472 220.000
57.13467 189.000
57.15462 223.000
57.17456 246.000
57.19451 225.000
57.21446 243.000
57.23441 262.000
57.25435 279.000
57.27430 274.000
57.29425 303.000
57.31419 339.000
57.33414 337.000
57.35409 294.000
57.37403 268.000
57.39398 281.000
57.41393 319.000
57.43388 282.000
57.45382 286.000
57.47377 290.000
57.49372 285.000
57.51366 282.000
57.53361 268.000
57.55356 304.000
57.57350 285.000
57.59345 339.000
57.61340 309.000
57.63334 329.000
57.65329 374.000
57.67324 347.000
57.69319 364.000
57.71313 402.000
57.73308 394.000
57.75303 391.000
57.77297 418.000
57.79292 421.000
57.81287 394.000
57.83281 376.000
57.85276 397.000
57.87271 353.000
57.89266 344.000
57.91260 316.000
57.93255 332.000
57.95250 329.000
57.97244 280.000
57.99239 270.000
58.01234 289.000
58.03228 235.000
58.05223 248.000
58.07218 255.000
58.09212 204.000
58.11207 255.000
58.13202 209.000
58.15197 284.000
58.17191 256.000
58.19186 259.000
58.21181 255.000
58.23175 257.000
58.25170 250.000
58.27165 246.000
58.29159 235.000
58.31154 233.000
58.33149 249.000
58.35144 269.000
58.37138 247.000
58.39133 228.000
58.41128 229.000
58.43122 218.000
58.45117 213.000
58.47112 198.000
58.49106 182.000
58.51101 215.000
58.53096 220.000
58.55090 234.000
58.57085 208.000
58.59080 191.000
58.61075 197.000
58.63069 217.000
58.65064 196.000
58.67059 188.000
58.69053 190.000
58.71048 203.000
58.73043 158.000
58.75037 180.000
58.77032 166.000
58.79027 191.000
58.81022 166.000
58.83016 181.000
58.85011 207.000
58.87006 179.000
58.89000 188.000
58.90995 178.000
58.92990 174.000
58.94984 185.000
58.96979 206.000
58.98974 168.000
59.00969 182.000
59.02963 193.000
59.04958 180.000
59.06953 148.000
59.08947 197.000
59.10942 166.000
59.12937 168.000
59.14931 185.000
59.16926 172.000
59.18921 191.000
59.20915 187.000
59.22910 221.000
59.24905 179.000
59.26900 196.000
59.28894 188.000
59.30889 162.000
59.32884 160.000
59.34878 191.000
59.36873 155.000
59.38868 173.000
59.40862 171.000
59.42857 201.000
59.44852 188.000
59.46847 196.000
59.48841 203.000
59.50836 192.000
59.52831 173.000
59.54825 204.000
59.56820 168.000
59.58815 167.000
59.60809 186.000
59.62804 181.000
59.64799 155.000
59.66793 212.000
59.68788 162.000
59.70783 178.000
59.72778 168.000
59.74772 170.000
59.76767 183.000
59.78762 179.000
59.80756 193.000
59.82751 185.000
59.84746 212.000
59.86740 198.000
59.88735 197.000
59.90730 186.000
59.92725 193.000
59.94719 177.000
59.96714 153.000
59.98709 193.000
60.00703 177.000
60.02698 200.000
60.04693 162.000
60.06687 204.000
60.08682 209.000
60.10677 207.000
60.12671 176.000
60.14666 204.000
60.16661 194.000
60.18656 195.000
60.20650 183.000
60.22645 199.000
60.24640 197.000
60.26634 187.000
60.28629 179.000
60.30624 199.000
60.32618 174.000
60.34613 164.000
60.36608 171.000
60.38603 166.000
60.40597 167.000
60.42592 196.000
60.44587 183.000
60.46581 194.000
60.48576 198.000
60.50571 166.000
60.52565 181.000
60.54560 195.000
60.56555 192.000
60.58550 208.000
60.60544 205.000
60.62539 185.000
60.64534 199.000
60.66528 189.000
60.68523 199.000
60.70518 197.000
60.72512 190.000
60.74507 190.000
60.76502 174.000
60.78496 206.000
60.80491 192.000
60.82486 201.000
60.84481 174.000
60.86475 190.000
60.88470 187.000
60.90465 180.000
60.92459 172.000
60.94454 178.000
60.96449 199.000
60.98443 202.000
61.00438 210.000
61.02433 168.000
61.04428 201.000
61.06422 194.000
61.08417 207.000
61.10412 201.000
61.12406 195.000
61.14401 189.000
61.16396 168.000
61.18390 187.000
61.20385 219.000
61.22380 204.000
61.24374 210.000
61.26369 179.000
61.28364 188.000
61.30359 220.000
61.32353 219.000
61.34348 237.000
61.36343 215.000
61.38337 231.000
61.40332 207.000
61.42327 254.000
61.44321 257.000
61.46316 271.000
61.48311 263.000
61.50306 255.000
61.52300 267.000
61.54295 267.000
61.56290 268.000
61.58284 312.000
61.60279 302.000
61.62274 259.000
61.64268 238.000
61.66263 280.000
61.68258 303.000
61.70252 303.000
61.72247 320.000
61.74242 249.000
61.76237 286.000
61.78231 250.000
61.80226 264.000
61.82221 248.000
61.84215 260.000
61.86210 268.000
61.88205 277.000
61.90199 269.000
61.92194 320.000
61.94189 341.000
61.96184 342.000
61.98178 350.000
62.00173 378.000
62.02168 377.000
62.04162 363.000
62.06157 356.000
62.08152 355.000
62.10146 332.000
62.12141 319.000
62.14136 321.000
62.16131 318.000
62.18125 296.000
62.20120 337.000
62.22115 298.000
62.24109 299.000
62.26104 282.000
62.28099 376.000
62.30093 318.000
62.32088 301.000
62.34083 309.000
62.36077 287.000
62.38072 334.000
62.40067 351.000
62.42062 344.000
62.44056 353.000
62.46051 358.000
62.48046 397.000
62.50040 362.000
62.52035 391.000
62.54030 403.000
62.56024 396.000
62.58019 382.000
62.60014 432.000
62.62009 431.000
62.64003 444.000
62.65998 445.000
62.67993 419.000
62.69987 462.000
62.71982 416.000
62.73977 431.000
62.75971 433.000
62.77966 495.000
62.79961 453.000
62.81955 448.000
62.83950 500.000
62.85945 459.000
62.87940 512.000
62.89934 560.000
62.91929 526.000
62.93924 570.000
62.95918 500.000
62.97913 512.000
62.99908 466.000
63.01902 461.000
63.03897 438.000
63.05892 407.000
63.07887 418.000
63.09881 419.000
63.11876 397.000
63.13871 396.000
63.15865 346.000
63.17860 345.000
63.19855 335.000
63.21849 274.000
63.23844 312.000
63.25839 263.000
63.27833 240.000
63.29828 247.000
63.31823 263.000
63.33818 260.000
63.35812 226.000
63.37807 241.000
63.39802 213.000
63.41796 219.000
63.43791 199.000
63.45786 198.000
63.47780 215.000
63.49775 207.000
63.51770 212.000
63.53765 199.000
63.55759 221.000
63.57754 194.000
63.59749 181.000
63.61743 200.000
63.63738 198.000
63.65733 188.000
63.67727 183.000
63.69722 209.000
63.71717 224.000
63.73712 205.000
63.75706 198.000
63.77701 197.000
63.79696 211.000
63.81690 194.000
63.83685 231.000
63.85680 199.000
63.87674 189.000
63.89669 218.000
63.91664 219.000
63.93658 214.000
63.95653 221.000
63.97648 240.000
63.99643 235.000
64.01637 224.000
64.03632 227.000
64.05627 252.000
64.07621 258.000
64.09616 285.000
64.11611 287.000
64.13605 296.000
64.15600 263.000
64.17595 260.000
64.19590 287.000
64.21584 272.000
64.23579 266.000
64.25574 263.000
64.27568 275.000
64.29563 292.000
64.31558 239.000
64.33552 214.000
64.35547 251.000
64.37542 254.000
64.39536 213.000
64.41531 210.000
64.43526 222.000
64.45521 184.000
64.47515 188.000
64.49510 224.000
64.51505 195.000
64.53499 203.000
64.55494 205.000
64.57489 186.000
64.59483 181.000
64.61478 207.000
64.63473 194.000
64.65468 178.000
64.67462 186.000
64.69457 190.000
64.71452 187.000
64.73446 173.000
64.75441 206.000
64.77436 180.000
64.79430 200.000
64.81425 197.000
64.83420 159.000
64.85414 187.000
64.87409 176.000
64.89404 186.000
64.91399 243.000
64.93393 201.000
64.95388 175.000
64.97383 178.000
64.99377 198.000
65.01372 196.000
65.03367 184.000
65.05361 211.000
65.07356 213.000
65.09351 208.000
65.11346 184.000
65.13340 219.000
65.15335 209.000
65.17330 210.000
65.19324 206.000
65.21319 209.000
65.23314 237.000
65.25308 220.000
65.27303 218.000
65.29298 254.000
65.31293 252.000
65.33287 226.000
65.35282 237.000
65.37277 237.000
65.39271 239.000
65.41266 236.000
65.43261 283.000
65.45255 291.000
65.47250 271.000
65.49245 258.000
65.51239 301.000
65.53234 303.000
65.55229 313.000
65.57224 322.000
65.59218 295.000
65.61213 320.000
65.63208 270.000
65.65202 316.000
65.67197 297.000
65.69192 287.000
65.71186 303.000
65.73181 298.000
65.75176 272.000
65.77171 271.000
65.79165 267.000
65.81160 267.000
65.83155 275.000
65.85149 288.000
65.87144 308.000
65.89139 234.000
65.91133 234.000
65.93128 251.000
65.95123 229.000
65.97117 216.000
65.99112 250.000
66.01107 223.000
66.03102 256.000
66.05096 264.000
66.07091 238.000
66.09086 260.000
66.11080 291.000
66.13075 241.000
66.15070 259.000
66.17064 235.000
66.19059 263.000
66.21054 268.000
66.23049 282.000
66.25043 259.000
66.27038 273.000
66.29033 282.000
66.31027 271.000
66.33022 312.000
66.35017 294.000
66.37011 275.000
66.39006 306.000
66.41001 328.000
66.42995 324.000
66.44990 284.000
66.46985 320.000
66.48980 302.000
66.50974 321.000
66.52969 300.000
66.54964 312.000
66.56958 242.000
66.58953 252.000
66.60948 247.000
66.62942 269.000
66.64937 251.000
66.66932 257.000
66.68927 249.000
66.70921 229.000
66.72916 238.000
66.74911 233.000
66.76905 240.000
66.78900 204.000
66.80895 230.000
66.82889 225.000
66.84884 210.000
66.86879 207.000
66.88874 216.000
66.90868 217.000
66.92863 216.000
66.94858 191.000
66.96852 218.000
66.98847 227.000
67.00842 218.000
67.02836 245.000
67.04831 214.000
67.06826 206.000
67.08820 213.000
67.10815 183.000
67.12810 193.000
67.14805 201.000
67.16799 182.000
67.18794 182.000
67.20789 185.000
67.22783 203.000
67.24778 183.000
67.26773 206.000
67.28767 216.000
67.30762 201.000
67.32757 195.000
67.34752 185.000
67.36746 197.000
67.38741 189.000
67.40736 202.000
67.42730 168.000
67.44725 175.000
67.46720 207.000
67.48714 196.000
67.50709 192.000
67.52704 193.000
67.54698 192.000
67.56693 183.000
67.58688 191.000
67.60683 234.000
67.62677 205.000
67.64672 195.000
67.66667 211.000
67.68661 226.000
67.70656 224.000
67.72651 220.000
67.74645 209.000
67.76640 215.000
67.78635 222.000
67.80630 233.000
67.82624 258.000
67.84619 237.000
67.86614 276.000
67.88608 278.000
67.90603 270.000
67.92598 261.000
67.94592 248.000
67.96587 286.000
67.98582 280.000
68.00576 295.000
68.02571 298.000
68.04566 334.000
68.06561 281.000
68.08555 254.000
68.10550 294.000
68.12545 297.000
68.14539 280.000
68.16534 250.000
68.18529 289.000
68.20523 294.000
68.22518 297.000
68.24513 288.000
68.26508 263.000
68.28502 271.000
68.30497 255.000
68.32492 264.000
68.34486 256.000
68.36481 237.000
68.38476 218.000
68.40470 242.000
68.42465 217.000
68.44460 191.000
68.46455 211.000
68.48449 209.000
68.50444 210.000
68.52439 229.000
68.54433 230.000
68.56428 206.000
68.58423 229.000
68.60417 195.000
68.62412 210.000
68.64407 200.000
68.66401 190.000
68.68396 211.000
68.70391 204.000
68.72386 182.000
68.74380 214.000
68.76375 187.000
68.78370 204.000
68.80364 231.000
68.82359 180.000
68.84354 193.000
68.86348 182.000
68.88343 224.000
68.90338 193.000
68.92333 196.000
68.94327 199.000
68.96322 209.000
68.98317 209.000
69.00311 187.000
69.02306 198.000
69.04301 196.000
69.06295 211.000
69.08290 184.000
69.10285 201.000
69.12279 200.000
69.14274 192.000
69.16269 198.000
69.18264 208.000
69.20258 194.000
69.22253 204.000
69.24248 197.000
69.26242 185.000
69.28237 187.000
69.30232 185.000
69.32226 185.000
69.34221 180.000
69.36216 195.000
69.38211 177.000
69.40205 201.000
69.42200 199.000
69.44195 206.000
69.46189 205.000
69.48184 198.000
69.50179 188.000
69.52173 152.000
69.54168 187.000
69.56163 195.000
69.58157 171.000
69.60152 192.000
69.62147 214.000
69.64142 171.000
69.66136 195.000
69.68131 171.000
69.70126 184.000
69.72120 188.000
69.74115 200.000
69.76110 165.000
69.78104 168.000
69.80099 208.000
69.82094 186.000
69.84089 166.000
69.86083 171.000
69.88078 162.000
69.90073 168.000
69.92067 158.000
69.94062 180.000
69.96057 169.000
69.98051 190.000
70.00046 186.000
70.02041 193.000
70.04035 186.000
70.06030 185.000
70.08025 194.000
70.10020 172.000
70.12014 160.000
70.14009 182.000
70.16004 177.000
70.17998 171.000
70.19993 165.000
70.21988 188.000
70.23982 184.000
70.25977 158.000
70.27972 171.000
70.29967 197.000
70.31961 186.000
70.33956 177.000
70.35951 195.000
70.37945 177.000
70.39940 194.000
70.41935 188.000
70.43929 182.000
70.45924 182.000
70.47919 172.000
70.49914 191.000
70.51908 187.000
70.53903 177.000
70.55898 179.000
70.57892 166.000
70.59887 173.000
70.61882 168.000
70.63876 175.000
70.65871 182.000
70.67866 190.000
70.69860 191.000
70.71855 167.000
70.73850 171.000
70.75845 181.000
70.77839 178.000
70.79834 186.000
70.81829 188.000
70.83823 152.000
70.85818 174.000
70.87813 187.000
70.89807 167.000
70.91802 176.000
70.93797 185.000
70.95792 195.000
70.97786 190.000
70.99781 199.000
71.01776 180.000
71.03770 183.000
71.05765 175.000
71.07760 189.000
71.09754 165.000
71.11749 164.000
71.13744 213.000
71.15738 197.000
71.17733 200.000
71.19728 200.000
71.21723 177.000
71.23717 171.000
71.25712 184.000
71.27707 198.000
71.29701 185.000
71.31696 170.000
71.33691 164.000
71.35685 199.000
71.37680 200.000
71.39675 178.000
71.41670 199.000
71.43664 201.000
71.45659 176.000
71.47654 174.000
71.49648 196.000
71.51643 174.000
71.53638 197.000
71.55632 177.000
71.57627 188.000
71.59622 205.000
71.61616 201.000
71.63611 205.000
71.65606 202.000
71.67601 184.000
71.69595 202.000
71.71590 191.000
71.73585 173.000
71.75579 161.000
71.77574 173.000
71.79569 184.000
71.81563 198.000
71.83558 178.000
71.85553 152.000
71.87548 201.000
71.89542 203.000
71.91537 197.000
71.93532 182.000
71.95526 187.000
71.97521 184.000
71.99516 205.000
72.01510 176.000
72.03505 182.000
72.05500 187.000
72.07495 179.000
72.09489 183.000
72.11484 187.000
72.13479 182.000
72.15473 195.000
72.17468 172.000
72.19463 188.000
72.21457 215.000
72.23452 201.000
72.25447 185.000
72.27441 219.000
72.29436 201.000
72.31431 220.000
72.33426 199.000
72.35420 200.000
72.37415 224.000
72.39410 228.000
72.41404 223.000
72.43399 205.000
72.45394 211.000
72.47388 220.000
72.49383 212.000
72.51378 214.000
72.53373 197.000
72.55367 230.000
72.57362 222.000
72.59357 214.000
72.61351 234.000
72.63346 216.000
72.65341 225.000
72.67335 219.000
72.69330 214.000
72.71325 231.000
72.73319 193.000
72.75314 235.000
72.77309 242.000
72.79304 273.000
72.81298 273.000
72.83293 247.000
72.85288 235.000
72.87282 242.000
72.89277 234.000
72.91272 238.000
72.93266 231.000
72.95261 229.000
72.97256 216.000
72.99251 235.000
73.01245 227.000
73.03240 207.000
73.05235 239.000
73.07229 242.000
73.09224 237.000
73.11219 228.000
73.13213 255.000
73.15208 189.000
73.17203 212.000
73.19197 210.000
73.21192 224.000
73.23187 230.000
73.25182 209.000
73.27176 210.000
73.29171 193.000
73.31166 232.000
73.33160 207.000
73.35155 237.000
73.37150 207.000
73.39144 205.000
73.41139 237.000
73.43134 230.000
73.45129 238.000
73.47123 255.000
73.49118 235.000
73.51113 210.000
73.53107 223.000
73.55102 224.000
73.57097 252.000
73.59091 234.000
73.61086 246.000
73.63081 248.000
73.65076 225.000
73.67070 234.000
73.69065 208.000
73.71060 228.000
73.73054 215.000
73.75049 228.000
73.77044 228.000
73.79038 215.000
73.81033 206.000
73.83028 224.000
73.85022 223.000
73.87017 240.000
73.89012 219.000
73.91007 213.000
73.93001 205.000
73.94996 215.000
73.96991 204.000
73.98985 219.000
74.00980 230.000
74.02975 195.000
74.04969 191.000
74.06964 216.000
74.08959 195.000
74.10954 210.000
74.12948 212.000
74.14943 192.000
74.16938 193.000
74.18932 216.000
74.20927 185.000
74.22922 216.000
74.24916 213.000
74.26911 210.000
74.28906 204.000
74.30900 210.000
74.32895 185.000
74.34890 214.000
74.36885 223.000
74.38879 224.000
74.40874 226.000
74.42869 203.000
74.44863 246.000
74.46858 237.000
74.48853 253.000
74.50847 249.000
74.52842 213.000
74.54837 228.000
74.56832 208.000
74.58826 223.000
74.60821 210.000
74.62816 238.000
74.64810 221.000
74.66805 207.000
74.68800 226.000
74.70794 243.000
74.72789 228.000
74.74784 225.000
74.76778 232.000
74.78773 230.000
74.80768 259.000
74.82763 242.000
74.84757 255.000
74.86752 246.000
74.88747 274.000
74.90741 287.000
74.92736 275.000
74.94731 271.000
74.96725 264.000
74.98720 307.000
75.00715 281.000
75.02710 266.000
75.04704 269.000
75.06699 282.000
75.08694 284.000
75.10688 286.000
75.12683 284.000
75.14678 280.000
75.16672 338.000
75.18667 277.000
75.20662 294.000
75.22657 280.000
75.24651 297.000
75.26646 277.000
75.28641 283.000
75.30635 262.000
75.32630 293.000
75.34625 275.000
75.36619 274.000
75.38614 256.000
75.40609 239.000
75.42603 233.000
75.44598 282.000
75.46593 260.000
75.48588 242.000
75.50582 249.000
75.52577 226.000
75.54572 260.000
75.56566 226.000
75.58561 240.000
75.60556 239.000
75.62550 243.000
75.64545 198.000
75.66540 224.000
75.68535 215.000
75.70529 203.000
75.72524 212.000
75.74519 220.000
75.76513 198.000
75.78508 179.000
75.80503 218.000
75.82497 195.000
75.84492 181.000
75.86487 193.000
75.88481 214.000
75.90476 218.000
75.92471 207.000
75.94466 183.000
75.96460 200.000
75.98455 166.000
76.00450 179.000
76.02444 208.000
76.04439 185.000
76.06434 185.000
76.08428 158.000
76.10423 201.000
76.12418 204.000
76.14413 177.000
76.16407 185.000
76.18402 198.000
76.20397 206.000
76.22391 190.000
76.24386 184.000
76.26381 187.000
76.28375 184.000
76.30370 181.000
76.32365 197.000
76.34359 192.000
76.36354 163.000
76.38349 159.000
76.40344 184.000
76.42338 201.000
76.44333 171.000
76.46328 173.000
76.48322 193.000
76.50317 196.000
76.52312 189.000
76.54306 193.000
76.56301 183.000
76.58296 181.000
76.60291 187.000
76.62285 150.000
76.64280 174.000
76.66275 182.000
76.68269 176.000
76.70264 160.000
76.72259 177.000
76.74253 179.000
76.76248 191.000
76.78243 171.000
76.80238 163.000
76.82232 180.000
76.84227 168.000
76.86222 172.000
76.88216 176.000
76.90211 188.000
76.92206 180.000
76.94200 165.000
76.96195 207.000
76.98190 199.000
77.00184 166.000
77.02179 177.000
77.04174 172.000
77.06169 182.000
77.08163 184.000
77.10158 175.000
77.12153 192.000
77.14147 190.000
77.16142 170.000
77.18137 176.000
77.20131 179.000
77.22126 190.000
77.24121 177.000
77.26116 191.000
77.28110 196.000
77.30105 180.000
77.32100 163.000
77.34094 185.000
77.36089 178.000
77.38084 166.000
77.40078 182.000
77.42073 179.000
77.44068 189.000
77.46062 173.000
77.48057 181.000
77.50052 162.000
77.52047 188.000
77.54041 173.000
77.56036 177.000
77.58031 189.000
77.60025 176.000
77.62020 186.000
77.64015 167.000
77.66009 190.000
77.68004 194.000
77.69999 205.000
77.71994 189.000
77.73988 164.000
77.75983 184.000
77.77978 195.000
77.79972 208.000
77.81967 211.000
77.83962 207.000
77.85956 191.000
77.87951 209.000
77.89946 198.000
77.91940 217.000
77.93935 222.000
77.95930 205.000
77.97925 199.000
77.99919 221.000
78.01914 236.000
78.03909 230.000
78.05903 249.000
78.07898 231.000
78.09893 236.000
78.11887 235.000
78.13882 245.000
78.15877 255.000
78.17872 260.000
78.19866 234.000
78.21861 275.000
78.23856 245.000
78.25850 253.000
78.27845 252.000
78.29840 290.000
78.31834 276.000
78.33829 236.000
78.35824 272.000
78.37819 261.000
78.39813 252.000
78.41808 283.000
78.43803 235.000
78.45797 247.000
78.47792 269.000
78.49787 284.000
78.51781 254.000
78.53776 268.000
78.55771 272.000
78.57765 264.000
78.59760 277.000
78.61755 265.000
78.63750 238.000
78.65744 221.000
78.67739 226.000
78.69734 258.000
78.71728 209.000
78.73723 214.000
78.75718 232.000
78.77712 205.000
78.79707 195.000
78.81702 234.000
78.83697 221.000
78.85691 215.000
78.87686 218.000
78.89681 224.000
78.91675 236.000
78.93670 216.000
78.95665 219.000
78.97659 233.000
78.99654 224.000
79.01649 210.000
79.03643 210.000
79.05638 194.000
79.07633 233.000
79.09628 219.000
79.11622 210.000
79.13617 264.000
79.15612 231.000
79.17606 213.000
79.19601 227.000
79.21596 193.000
79.23590 221.000
79.25585 196.000
79.27580 207.000
79.29575 221.000
79.31569 239.000
79.33564 214.000
79.35559 226.000
79.37553 216.000
79.39548 197.000
79.41543 192.000
79.43537 208.000
79.45532 223.000
79.47527 204.000
79.49521 185.000
79.51516 207.000
79.53511 225.000
79.55506 182.000
79.57500 172.000
79.59495 197.000
79.61490 198.000
79.63484 180.000
79.65479 193.000
79.67474 152.000
79.69468 178.000
79.71463 180.000
79.73458 187.000
79.75453 176.000
79.77447 195.000
79.79442 199.000
79.81437 200.000
79.83431 176.000
79.85426 208.000
79.87421 178.000
79.89415 180.000
79.91410 197.000
79.93405 175.000
79.95399 195.000
79.97394 181.000
79.99389 178.000
80.01384 188.000
80.03378 200.000
80.05373 183.000
80.07368 201.000
80.09362 178.000
80.11357 166.000
80.13352 194.000
80.15346 169.000
80.17341 198.000
80.19336 185.000
80.21331 185.000
80.23325 187.000
80.25320 184.000
80.27315 176.000
80.29309 185.000
80.31304 210.000
80.33299 194.000
80.35293 205.000
80.37288 201.000
80.39283 177.000
80.41278 208.000
80.43272 207.000
80.45267 169.000
80.47262 179.000
80.49256 193.000
80.51251 188.000
80.53246 231.000
80.55240 207.000
80.57235 196.000
80.59230 191.000
80.61224 190.000
80.63219 228.000
80.65214 182.000
80.67209 187.000
80.69203 202.000
80.71198 196.000
80.73193 196.000
80.75187 191.000
80.77182 196.000
80.79177 209.000
80.81171 185.000
80.83166 201.000
80.85161 175.000
80.87156 157.000
80.89150 178.000
80.91145 213.000
80.93140 195.000
80.95134 168.000
80.97129 171.000
80.99124 182.000
81.01118 207.000
81.03113 182.000
81.05108 185.000
81.07102 190.000
81.09097 186.000
81.11092 194.000
81.13087 164.000
81.15081 179.000
81.17076 173.000
81.19071 163.000
81.21065 200.000
81.23060 171.000
81.25055 151.000
81.27049 179.000
81.29044 169.000
81.31039 196.000
81.33034 186.000
81.35028 178.000
81.37023 183.000
81.39018 174.000
81.41012 177.000
81.43007 182.000
81.45002 181.000
81.46996 179.000
81.48991 176.000
81.50986 179.000
81.52980 178.000
81.54975 173.000
81.56970 171.000
81.58965 184.000
81.60959 192.000
81.62954 177.000
81.64949 184.000
81.66943 199.000
81.68938 173.000
81.70933 171.000
81.72927 192.000
81.74922 182.000
81.76917 189.000
81.78912 165.000
81.80906 167.000
81.82901 180.000
81.84896 192.000
81.86890 180.000
81.88885 158.000
81.90880 171.000
81.92874 171.000
81.94869 196.000
81.96864 165.000
81.98859 186.000
82.00853 179.000
82.02848 168.000
82.04843 192.000
82.06837 169.000
82.08832 201.000
82.10827 165.000
82.12821 191.000
82.14816 169.000
82.16811 187.000
82.18805 189.000
82.20800 210.000
82.22795 208.000
82.24790 172.000
82.26784 177.000
82.28779 196.000
82.30774 187.000
82.32768 188.000
82.34763 187.000
82.36758 194.000
82.38752 227.000
82.40747 181.000
82.42742 222.000
82.44737 190.000
82.46731 211.000
82.48726 195.000
82.50721 170.000
82.52715 213.000
82.54710 183.000
82.56705 190.000
82.58699 194.000
82.60694 197.000
82.62689 206.000
82.64683 211.000
82.66678 203.000
82.68673 207.000
82.70668 202.000
82.72662 218.000
82.74657 197.000
82.76652 200.000
82.78646 191.000
82.80641 199.000
82.82636 201.000
82.84630 197.000
82.86625 194.000
82.88620 214.000
82.90615 198.000
82.92609 217.000
82.94604 186.000
82.96599 211.000
82.98593 183.000
83.00588 199.000
83.02583 201.000
83.04577 206.000
83.06572 206.000
83.08567 192.000
83.10561 176.000
83.12556 187.000
83.14551 171.000
83.16546 194.000
83.18540 192.000
83.20535 183.000
83.22530 198.000
83.24524 182.000
83.26519 185.000
83.28514 200.000
83.30508 192.000
83.32503 191.000
83.34498 193.000
83.36493 219.000
83.38487 224.000
83.40482 202.000
83.42477 210.000
83.44471 203.000
83.46466 196.000
83.48461 190.000
83.50455 207.000
83.52450 194.000
83.54445 178.000
83.56440 170.000
83.58434 194.000
83.60429 193.000
83.62424 176.000
83.64418 200.000
83.66413 205.000
83.68408 196.000
83.70402 208.000
83.72397 223.000
83.74392 186.000
83.76386 218.000
83.78381 234.000
83.80376 187.000
83.82371 191.000
83.84365 201.000
83.86360 183.000
83.88355 194.000
83.90349 193.000
83.92344 193.000
83.94339 187.000
83.96333 185.000
83.98328 209.000
84.00323 183.000
84.02318 203.000
84.04312 198.000
84.06307 216.000
84.08302 195.000
84.10296 176.000
84.12291 214.000
84.14286 176.000
84.16280 192.000
84.18275 172.000
84.20270 177.000
84.22264 186.000
84.24259 206.000
84.26254 172.000
84.28249 176.000
84.30243 182.000
84.32238 212.000
84.34233 184.000
84.36227 211.000
84.38222 198.000
84.40217 220.000
84.42211 202.000
84.44206 191.000
84.46201 226.000
84.48196 202.000
84.50190 215.000
84.52185 228.000
84.54180 230.000
84.56174 202.000
84.58169 216.000
84.60164 230.000
84.62158 203.000
84.64153 220.000
84.66148 198.000
84.68142 229.000
84.70137 195.000
84.72132 186.000
84.74127 223.000
84.76121 179.000
84.78116 231.000
84.80111 212.000
84.82105 181.000
84.84100 178.000
84.86095 199.000
84.88089 194.000
84.90084 196.000
84.92079 205.000
84.94074 178.000
84.96068 182.000
84.98063 170.000
85.00058 183.000
85.02052 177.000
85.04047 185.000
85.06042 175.000
85.08036 178.000
85.10031 178.000
85.12026 171.000
85.14021 195.000
85.16015 178.000
85.18010 172.000
85.20005 194.000
85.21999 194.000
85.23994 199.000
85.25989 172.000
85.27983 144.000
85.29978 187.000
85.31973 185.000
85.33967 163.000
85.35962 202.000
85.37957 151.000
85.39952 176.000
85.41946 171.000
85.43941 184.000
85.45936 192.000
85.47930 205.000
85.49925 196.000
85.51920 174.000
85.53914 204.000
85.55909 191.000
85.57904 172.000
85.59899 173.000
85.61893 197.000
85.63888 168.000
85.65883 188.000
85.67877 210.000
85.69872 195.000
85.71867 160.000
85.73861 201.000
85.75856 177.000
85.77851 180.000
85.79845 175.000
85.81840 169.000
85.83835 184.000
85.85830 162.000
85.87824 188.000
85.89819 176.000
85.91814 177.000
85.93808 185.000
85.95803 174.000
85.97798 176.000
85.99792 184.000
86.01787 189.000
86.03782 176.000
86.05777 169.000
86.07771 160.000
86.09766 199.000
86.11761 164.000
86.13755 161.000
86.15750 180.000
86.17745 195.000
86.19739 155.000
86.21734 170.000
86.23729 163.000
86.25723 191.000
86.27718 179.000
86.29713 180.000
86.31708 188.000
86.33702 186.000
86.35697 180.000
86.37692 190.000
86.39686 208.000
86.41681 181.000
86.43676 179.000
86.45670 180.000
86.47665 166.000
86.49660 193.000
86.51655 179.000
86.53649 180.000
86.55644 214.000
86.57639 189.000
86.59633 196.000
86.61628 203.000
86.63623 193.000
86.65617 188.000
86.67612 186.000
86.69607 212.000
86.71602 185.000
86.73596 210.000
86.75591 208.000
86.77586 198.000
86.79580 206.000
86.81575 222.000
86.83570 203.000
86.85564 189.000
86.87559 211.000
86.89554 230.000
86.91548 182.000
86.93543 225.000
86.95538 187.000
86.97533 231.000
86.99527 207.000
87.01522 200.000
87.03517 193.000
87.05511 186.000
87.07506 196.000
87.09501 171.000
87.11495 194.000
87.13490 212.000
87.15485 211.000
87.17480 185.000
87.19474 170.000
87.21469 177.000
87.23464 192.000
87.25458 195.000
87.27453 206.000
87.29448 206.000
87.31442 210.000
87.33437 210.000
87.35432 217.000
87.37426 199.000
87.39421 197.000
87.41416 192.000
87.43411 198.000
87.45405 216.000
87.47400 192.000
87.49395 173.000
87.51389 148.000
87.53384 209.000
87.55379 205.000
87.57373 213.000
87.59368 184.000
87.61363 189.000
87.63358 171.000
87.65352 186.000
87.67347 185.000
87.69342 193.000
87.71336 214.000
87.73331 204.000
87.75326 207.000
87.77320 192.000
87.79315 184.000
87.81310 183.000
87.83304 186.000
87.85299 184.000
87.87294 200.000
87.89289 172.000
87.91283 196.000
87.93278 187.000
87.95273 187.000
87.97267 178.000
87.99262 164.000
88.01257 182.000
88.03251 186.000
88.05246 185.000
88.07241 196.000
88.09236 174.000
88.11230 183.000
88.13225 207.000
88.15220 191.000
88.17214 174.000
88.19209 169.000
88.21204 165.000
88.23198 206.000
88.25193 192.000
88.27188 193.000
88.29183 202.000
88.31177 178.000
88.33172 170.000
88.35167 191.000
88.37161 187.000
88.39156 198.000
88.41151 202.000
88.43145 196.000
88.45140 183.000
88.47135 195.000
88.49129 194.000
88.51124 170.000
88.53119 162.000
88.55114 195.000
88.57108 198.000
88.59103 186.000
88.61098 163.000
88.63092 188.000
88.65087 188.000
88.67082 144.000
88.69076 170.000
88.71071 195.000
88.73066 180.000
88.75061 164.000
88.77055 187.000
88.79050 194.000
88.81045 177.000
88.83039 190.000
88.85034 194.000
88.87029 178.000
88.89023 163.000
88.91018 172.000
88.93013 178.000
88.95007 170.000
88.97002 194.000
88.98997 198.000
89.00992 169.000
89.02986 191.000
89.04981 159.000
89.06976 180.000
89.08970 179.000
89.10965 176.000
89.12960 179.000
89.14954 193.000
89.16949 181.000
89.18944 173.000
89.20939 189.000
89.22933 161.000
89.24928 196.000
89.26923 173.000
89.28917 189.000
89.30912 183.000
89.32907 183.000
89.34901 193.000
89.36896 189.000
89.38891 179.000
89.40885 212.000
89.42880 202.000
89.44875 195.000
89.46870 192.000
89.48864 193.000
89.50859 185.000
89.52854 205.000
89.54848 197.000
89.56843 187.000
89.58838 202.000
89.60832 196.000
89.62827 202.000
89.64822 186.000
89.66817 205.000
89.68811 193.000
89.70806 208.000
89.72801 182.000
89.74795 203.000
89.76790 210.000
89.78785 193.000
89.80779 188.000
89.82774 188.000
89.84769 194.000
89.86764 177.000
89.88758 212.000
89.90753 186.000
89.92748 200.000
89.94742 209.000
89.96737 193.000
89.98732 189.000
90.00726 208.000
