10.00000 65.000
10.01995 86.000
10.03989 84.000
10.05984 84.000
10.07979 88.000
10.09973 100.000
10.11968 94.000
10.13963 70.000
10.15958 73.000
10.17952 100.000
10.19947 80.000
10.21942 82.000
10.23936 94.000
10.25931 85.000
10.27926 71.000
10.29920 83.000
10.31915 100.000
10.33910 87.000
10.35905 103.000
10.37899 79.000
10.39894 89.000
10.41889 98.000
10.43883 97.000
10.45878 85.000
10.47873 92.000
10.49867 73.000
10.51862 90.000
10.53857 90.000
10.55851 100.000
10.57846 99.000
10.59841 88.000
10.61836 100.000
10.63830 92.000
10.65825 94.000
10.67820 107.000
10.69814 87.000
10.71809 86.000
10.73804 107.000
10.75798 94.000
10.77793 104.000
10.79788 82.000
10.81783 94.000
10.83777 100.000
10.85772 96.000
10.87767 83.000
10.89761 94.000
10.91756 96.000
10.93751 80.000
10.95745 90.000
10.97740 85.000
10.99735 96.000
11.01730 95.000
11.03724 86.000
11.05719 106.000
11.07714 86.000
11.09708 87.000
11.11703 113.000
11.13698 92.000
11.15692 92.000
11.17687 66.000
11.19682 98.000
11.21676 101.000
11.23671 96.000
11.25666 83.000
11.27661 89.000
11.29655 87.000
11.31650 85.000
11.33645 88.000
11.35639 96.000
11.37634 80.000
11.39629 98.000
11.41623 96.000
11.43618 97.000
11.45613 89.000
11.47608 105.000
11.49602 97.000
11.51597 117.000
11.53592 94.000
11.55586 83.000
11.57581 84.000
11.59576 80.000
11.61570 92.000
11.63565 89.000
11.65560 86.000
11.67554 107.000
11.69549 98.000
11.71544 104.000
11.73539 110.000
11.75533 108.000
11.77528 89.000
11.79523 86.000
11.81517 92.000
11.83512 87.000
11.85507 98.000
11.87501 87.000
11.89496 99.000
11.91491 99.000
11.93486 88.000
11.95480 114.000
11.97475 89.000
11.99470 108.000
12.01464 93.000
12.03459 87.000
12.05454 105.000
12.07448 106.000
12.09443 96.000
12.11438 102.000
12.13432 121.000
12.15427 97.000
12.17422 116.000
12.19417 116.000
12.21411 90.000
12.23406 103.000
12.25401 95.000
12.27395 117.000
12.29390 102.000
12.31385 96.000
12.33379 102.000
12.35374 111.000
12.37369 115.000
12.39364 112.000
12.41358 106.000
12.43353 88.000
12.45348 106.000
12.47342 86.000
12.49337 104.000
12.51332 96.000
12.53326 115.000
12.55321 96.000
12.57316 99.000
12.59311 106.000
12.61305 116.000
12.63300 88.000
12.65295 96.000
12.67289 109.000
12.69284 108.000
12.71279 97.000
12.73273 109.000
12.75268 113.000
12.77263 116.000
12.79257 130.000
12.81252 100.000
12.83247 104.000
12.85242 118.000
12.87236 106.000
12.89231 98.000
12.91226 97.000
12.93220 99.000
12.95215 115.000
12.97210 106.000
12.99204 98.000
13.01199 88.000
13.03194 122.000
13.05189 115.000
13.07183 103.000
13.09178 109.000
13.11173 119.000
13.13167 105.000
13.15162 104.000
13.17157 102.000
13.19151 114.000
13.21146 111.000
13.23141 111.000
13.25135 114.000
13.27130 99.000
13.29125 118.000
13.31120 91.000
13.33114 116.000
13.35109 109.000
13.37104 117.000
13.39098 106.000
13.41093 125.000
13.43088 108.000
13.45082 119.000
13.47077 102.000
13.49072 108.000
13.51067 120.000
13.53061 98.000
13.55056 107.000
13.57051 110.000
13.59045 119.000
13.61040 112.000
13.63035 105.000
13.65029 132.000
13.67024 103.000
13.69019 120.000
13.71013 114.000
13.73008 110.000
13.75003 129.000
13.76998 117.000
13.78992 112.000
13.80987 115.000
13.82982 117.000
13.84976 120.000
13.86971 130.000
13.88966 129.000
13.90960 127.000
13.92955 116.000
13.94950 116.000
13.96945 115.000
13.98939 117.000
14.00934 123.000
14.02929 104.000
14.04923 142.000
14.06918 103.000
14.08913 113.000
14.10907 115.000
14.12902 121.000
14.14897 112.000
14.16892 100.000
14.18886 125.000
14.20881 110.000
14.22876 123.000
14.24870 133.000
14.26865 115.000
14.28860 131.000
14.30854 153.000
14.32849 129.000
14.34844 110.000
14.36838 136.000
14.38833 127.000
14.40828 115.000
14.42823 119.000
14.44817 106.000
14.46812 128.000
14.48807 126.000
14.50801 139.000
14.52796 122.000
14.54791 125.000
14.56785 129.000
14.58780 132.000
14.60775 149.000
14.62770 129.000
14.64764 128.000
14.66759 134.000
14.68754 124.000
14.70748 125.000
14.72743 119.000
14.74738 133.000
14.76732 131.000
14.78727 138.000
14.80722 135.000
14.82716 140.000
14.84711 118.000
14.86706 122.000
14.88701 137.000
14.90695 140.000
14.92690 127.000
14.94685 138.000
14.96679 126.000
14.98674 140.000
15.00669 144.000
15.02663 131.000
15.04658 142.000
15.06653 135.000
15.08648 150.000
15.10642 123.000
15.12637 129.000
15.14632 136.000
15.16626 126.000
15.18621 149.000
15.20616 150.000
15.22610 148.000
15.24605 125.000
15.26600 142.000
15.28594 150.000
15.30589 148.000
15.32584 148.000
15.34579 133.000
15.36573 167.000
15.38568 157.000
15.40563 133.000
15.42557 125.000
15.44552 131.000
15.46547 148.000
15.48541 146.000
15.50536 153.000
15.52531 147.000
15.54526 140.000
15.56520 150.000
15.58515 154.000
15.60510 167.000
15.62504 158.000
15.64499 162.000
15.66494 159.000
15.68488 129.000
15.70483 157.000
15.72478 158.000
15.74472 132.000
15.76467 139.000
15.78462 147.000
15.80457 157.000
15.82451 158.000
15.84446 169.000
15.86441 137.000
15.88435 182.000
15.90430 155.000
15.92425 154.000
15.94419 153.000
15.96414 152.000
15.98409 165.000
16.00404 164.000
16.02398 153.000
16.04393 175.000
16.06388 163.000
16.08382 181.000
16.10377 154.000
16.12372 167.000
16.14366 178.000
16.16361 175.000
16.18356 154.000
16.20351 166.000
16.22345 180.000
16.24340 174.000
16.26335 165.000
16.28329 169.000
16.30324 153.000
16.32319 177.000
16.34313 168.000
16.36308 158.000
16.38303 164.000
16.40297 163.000
16.42292 180.000
16.44287 166.000
16.46282 170.000
16.48276 166.000
16.50271 184.000
16.52266 180.000
16.54260 179.000
16.56255 178.000
16.58250 200.000
16.60244 177.000
16.62239 208.000
16.64234 187.000
16.66229 196.000
16.68223 167.000
16.70218 183.000
16.72213 174.000
16.74207 194.000
16.76202 177.000
16.78197 189.000
16.80191 174.000
16.82186 180.000
16.84181 183.000
16.86175 202.000
16.88170 189.000
16.90165 187.000
16.92160 210.000
16.94154 189.000
16.96149 219.000
16.98144 155.000
17.00138 179.000
17.02133 191.000
17.04128 162.000
17.06122 207.000
17.08117 207.000
17.10112 200.000
17.12107 224.000
17.14101 213.000
17.16096 199.000
17.18091 204.000
17.20085 204.000
17.22080 192.000
17.24075 205.000
17.26069 190.000
17.28064 203.000
17.30059 203.000
17.32053 206.000
17.34048 198.000
17.36043 186.000
17.38038 213.000
17.40032 205.000
17.42027 212.000
17.44022 176.000
17.46016 222.000
17.48011 229.000
17.50006 215.000
17.52000 215.000
17.53995 196.000
17.55990 206.000
17.57985 220.000
17.59979 191.000
17.61974 233.000
17.63969 190.000
17.65963 221.000
17.67958 216.000
17.69953 217.000
17.71947 207.000
17.73942 246.000
17.75937 209.000
17.77932 232.000
17.79926 221.000
17.81921 206.000
17.83916 243.000
17.85910 227.000
17.87905 241.000
17.89900 208.000
17.91894 213.000
17.93889 237.000
17.95884 213.000
17.97878 223.000
17.99873 243.000
18.01868 225.000
18.03863 236.000
18.05857 229.000
18.07852 229.000
18.09847 238.000
18.11841 232.000
18.13836 246.000
18.15831 232.000
18.17825 225.000
18.19820 251.000
18.21815 253.000
18.23810 230.000
18.25804 216.000
18.27799 238.000
18.29794 231.000
18.31788 224.000
18.33783 240.000
18.35778 243.000
18.37772 245.000
18.39767 282.000
18.41762 258.000
18.43756 256.000
18.45751 301.000
18.47746 270.000
18.49741 251.000
18.51735 248.000
18.53730 242.000
18.55725 260.000
18.57719 244.000
18.59714 219.000
18.61709 239.000
18.63703 253.000
18.65698 250.000
18.67693 228.000
18.69688 232.000
18.71682 261.000
18.73677 259.000
18.75672 261.000
18.77666 267.000
18.79661 247.000
18.81656 261.000
18.83650 266.000
18.85645 284.000
18.87640 247.000
18.89634 272.000
18.91629 271.000
18.93624 258.000
18.95619 265.000
18.97613 267.000
18.99608 283.000
19.01603 264.000
19.03597 282.000
19.05592 283.000
19.07587 272.000
19.09581 282.000
19.11576 266.000
19.13571 289.000
19.15566 300.000
19.17560 285.000
19.19555 292.000
19.21550 269.000
19.23544 283.000
19.25539 249.000
19.27534 303.000
19.29528 309.000
19.31523 296.000
19.33518 265.000
19.35513 280.000
19.37507 281.000
19.39502 319.000
19.41497 276.000
19.43491 275.000
19.45486 287.000
19.47481 303.000
19.49475 325.000
19.51470 311.000
19.53465 285.000
19.55459 277.000
19.57454 299.000
19.59449 275.000
19.61444 292.000
19.63438 297.000
19.65433 281.000
19.67428 299.000
19.69422 299.000
19.71417 322.000
19.73412 311.000
19.75406 316.000
19.77401 315.000
19.79396 360.000
19.81391 291.000
19.83385 296.000
19.85380 317.000
19.87375 293.000
19.89369 299.000
19.91364 304.000
19.93359 332.000
19.95353 317.000
19.97348 323.000
19.99343 320.000
20.01337 316.000
20.03332 307.000
20.05327 338.000
20.07322 294.000
20.09316 300.000
20.11311 309.000
20.13306 329.000
20.15300 333.000
20.17295 294.000
20.19290 349.000
20.21284 290.000
20.23279 336.000
20.25274 323.000
20.27269 316.000
20.29263 310.000
20.31258 296.000
20.33253 327.000
20.35247 312.000
20.37242 318.000
20.39237 311.000
20.41231 331.000
20.43226 337.000
20.45221 339.000
20.47215 317.000
20.49210 318.000
20.51205 341.000
20.53200 306.000
20.55194 296.000
20.57189 345.000
20.59184 367.000
20.61178 302.000
20.63173 303.000
20.65168 314.000
20.67162 324.000
20.69157 342.000
20.71152 342.000
20.73147 336.000
20.75141 364.000
20.77136 340.000
20.79131 346.000
20.81125 332.000
20.83120 295.000
20.85115 334.000
20.87109 333.000
20.89104 326.000
20.91099 355.000
20.93094 313.000
20.95088 335.000
20.97083 346.000
20.99078 328.000
21.01072 350.000
21.03067 307.000
21.05062 370.000
21.07056 351.000
21.09051 316.000
21.11046 347.000
21.13040 364.000
21.15035 336.000
21.17030 362.000
21.19025 368.000
21.21019 359.000
21.23014 352.000
21.25009 336.000
21.27003 352.000
21.28998 348.000
21.30993 360.000
21.32987 353.000
21.34982 344.000
21.36977 357.000
21.38972 349.000
21.40966 338.000
21.42961 356.000
21.44956 370.000
21.46950 360.000
21.48945 349.000
21.50940 398.000
21.52934 324.000
21.54929 339.000
21.56924 386.000
21.58918 381.000
21.60913 354.000
21.62908 346.000
21.64903 357.000
21.66897 370.000
21.68892 339.000
21.70887 321.000
21.72881 405.000
21.74876 352.000
21.76871 356.000
21.78865 375.000
21.80860 373.000
21.82855 367.000
21.84850 376.000
21.86844 384.000
21.88839 385.000
21.90834 379.000
21.92828 378.000
21.94823 374.000
21.96818 386.000
21.98812 373.000
22.00807 382.000
22.02802 400.000
22.04796 358.000
22.06791 377.000
22.08786 391.000
22.10781 376.000
22.12775 389.000
22.14770 381.000
22.16765 376.000
22.18759 410.000
22.20754 364.000
22.22749 358.000
22.24743 399.000
22.26738 397.000
22.28733 405.000
22.30728 364.000
22.32722 362.000
22.34717 426.000
22.36712 390.000
22.38706 401.000
22.40701 400.000
22.42696 406.000
22.44690 369.000
22.46685 393.000
22.48680 395.000
22.50675 383.000
22.52669 430.000
22.54664 379.000
22.56659 362.000
22.58653 425.000
22.60648 391.000
22.62643 385.000
22.64637 396.000
22.66632 436.000
22.68627 393.000
22.70621 395.000
22.72616 387.000
22.74611 418.000
22.76606 368.000
22.78600 433.000
22.80595 401.000
22.82590 367.000
22.84584 407.000
22.86579 420.000
22.88574 445.000
22.90568 404.000
22.92563 434.000
22.94558 399.000
22.96553 372.000
22.98547 415.000
23.00542 410.000
23.02537 421.000
23.04531 436.000
23.06526 381.000
23.08521 391.000
23.10515 386.000
23.12510 396.000
23.14505 388.000
23.16499 377.000
23.18494 425.000
23.20489 372.000
23.22484 419.000
23.24478 351.000
23.26473 380.000
23.28468 409.000
23.30462 392.000
23.32457 371.000
23.34452 410.000
23.36446 433.000
23.38441 403.000
23.40436 423.000
23.42431 433.000
23.44425 414.000
23.46420 426.000
23.48415 451.000
23.50409 403.000
23.52404 397.000
23.54399 449.000
23.56393 419.000
23.58388 372.000
23.60383 425.000
23.62377 447.000
23.64372 438.000
23.66367 440.000
23.68362 438.000
23.70356 430.000
23.72351 435.000
23.74346 426.000
23.76340 424.000
23.78335 454.000
23.80330 433.000
23.82324 411.000
23.84319 389.000
23.86314 416.000
23.88309 466.000
23.90303 445.000
23.92298 425.000
23.94293 469.000
23.96287 408.000
23.98282 474.000
24.00277 433.000
24.02271 457.000
24.04266 465.000
24.06261 435.000
24.08256 452.000
24.10250 445.000
24.12245 450.000
24.14240 463.000
24.16234 503.000
24.18229 458.000
24.20224 457.000
24.22218 462.000
24.24213 456.000
24.26208 458.000
24.28202 445.000
24.30197 459.000
24.32192 422.000
24.34187 449.000
24.36181 443.000
24.38176 498.000
24.40171 477.000
24.42165 464.000
24.44160 449.000
24.46155 500.000
24.48149 456.000
24.50144 474.000
24.52139 457.000
24.54134 463.000
24.56128 463.000
24.58123 467.000
24.60118 467.000
24.62112 447.000
24.64107 474.000
24.66102 518.000
24.68096 432.000
24.70091 449.000
24.72086 497.000
24.74080 457.000
24.76075 452.000
24.78070 468.000
24.80065 451.000
24.82059 475.000
24.84054 455.000
24.86049 517.000
24.88043 506.000
24.90038 468.000
24.92033 460.000
24.94027 485.000
24.96022 458.000
24.98017 496.000
25.00012 488.000
25.02006 467.000
25.04001 509.000
25.05996 488.000
25.07990 468.000
25.09985 502.000
25.11980 487.000
25.13974 525.000
25.15969 496.000
25.17964 501.000
25.19958 488.000
25.21953 513.000
25.23948 543.000
25.25943 502.000
25.27937 490.000
25.29932 502.000
25.31927 534.000
25.33921 526.000
25.35916 491.000
25.37911 491.000
25.39905 485.000
25.41900 518.000
25.43895 517.000
25.45890 511.000
25.47884 499.000
25.49879 521.000
25.51874 526.000
25.53868 545.000
25.55863 511.000
25.57858 513.000
25.59852 508.000
25.61847 488.000
25.63842 550.000
25.65837 583.000
25.67831 519.000
25.69826 525.000
25.71821 508.000
25.73815 531.000
25.75810 558.000
25.77805 535.000
25.79799 548.000
25.81794 501.000
25.83789 557.000
25.85783 541.000
25.87778 537.000
25.89773 552.000
25.91768 549.000
25.93762 548.000
25.95757 491.000
25.97752 524.000
25.99746 565.000
26.01741 530.000
26.03736 565.000
26.05730 537.000
26.07725 527.000
26.09720 545.000
26.11715 524.000
26.13709 520.000
26.15704 557.000
26.17699 536.000
26.19693 539.000
26.21688 527.000
26.23683 498.000
26.25677 571.000
26.27672 535.000
26.29667 551.000
26.31661 534.000
26.33656 570.000
26.35651 561.000
26.37646 542.000
26.39640 598.000
26.41635 550.000
26.43630 581.000
26.45624 556.000
26.47619 602.000
26.49614 534.000
26.51608 515.000
26.53603 587.000
26.55598 549.000
26.57593 592.000
26.59587 612.000
26.61582 542.000
26.63577 597.000
26.65571 545.000
26.67566 600.000
26.69561 608.000
26.71555 562.000
26.73550 564.000
26.75545 606.000
26.77539 557.000
26.79534 599.000
26.81529 586.000
26.83524 568.000
26.85518 581.000
26.87513 563.000
26.89508 559.000
26.91502 579.000
26.93497 565.000
26.95492 604.000
26.97486 556.000
26.99481 607.000
27.01476 557.000
27.03471 620.000
27.05465 558.000
27.07460 605.000
27.09455 596.000
27.11449 606.000
27.13444 630.000
27.15439 576.000
27.17433 552.000
27.19428 643.000
27.21423 574.000
27.23417 564.000
27.25412 590.000
27.27407 598.000
27.29402 599.000
27.31396 588.000
27.33391 639.000
27.35386 542.000
27.37380 575.000
27.39375 606.000
27.41370 602.000
27.43364 624.000
27.45359 638.000
27.47354 591.000
27.49349 600.000
27.51343 628.000
27.53338 618.000
27.55333 622.000
27.57327 626.000
27.59322 627.000
27.61317 579.000
27.63311 610.000
27.65306 624.000
27.67301 625.000
27.69296 639.000
27.71290 589.000
27.73285 629.000
27.75280 609.000
27.77274 611.000
27.79269 596.000
27.81264 588.000
27.83258 626.000
27.85253 653.000
27.87248 661.000
27.89242 623.000
27.91237 584.000
27.93232 611.000
27.95227 589.000
27.97221 622.000
27.99216 622.000
28.01211 643.000
28.03205 659.000
28.05200 617.000
28.07195 607.000
28.09189 622.000
28.11184 629.000
28.13179 651.000
28.15174 630.000
28.17168 631.000
28.19163 641.000
28.21158 636.000
28.23152 596.000
28.25147 646.000
28.27142 594.000
28.29136 620.000
28.31131 570.000
28.33126 634.000
28.35120 621.000
28.37115 670.000
28.39110 618.000
28.41105 658.000
28.43099 640.000
28.45094 653.000
28.47089 619.000
28.49083 634.000
28.51078 624.000
28.53073 583.000
28.55067 644.000
28.57062 682.000
28.59057 644.000
28.61052 628.000
28.63046 668.000
28.65041 643.000
28.67036 651.000
28.69030 633.000
28.71025 692.000
28.73020 629.000
28.75014 682.000
28.77009 663.000
28.79004 672.000
28.80998 665.000
28.82993 609.000
28.84988 580.000
28.86983 640.000
28.88977 699.000
28.90972 610.000
28.92967 653.000
28.94961 663.000
28.96956 649.000
28.98951 622.000
29.00945 625.000
29.02940 692.000
29.04935 648.000
29.06930 629.000
29.08924 676.000
29.10919 646.000
29.12914 681.000
29.14908 678.000
29.16903 624.000
29.18898 672.000
29.20892 685.000
29.22887 592.000
29.24882 704.000
29.26877 628.000
29.28871 654.000
29.30866 595.000
29.32861 676.000
29.34855 682.000
29.36850 652.000
29.38845 595.000
29.40839 645.000
29.42834 605.000
29.44829 705.000
29.46823 672.000
29.48818 680.000
29.50813 636.000
29.52808 644.000
29.54802 634.000
29.56797 678.000
29.58792 610.000
29.60786 679.000
29.62781 656.000
29.64776 618.000
29.66770 694.000
29.68765 655.000
29.70760 611.000
29.72755 670.000
29.74749 671.000
29.76744 630.000
29.78739 610.000
29.80733 644.000
29.82728 664.000
29.84723 677.000
29.86717 626.000
29.88712 659.000
29.90707 624.000
29.92701 605.000
29.94696 681.000
29.96691 593.000
29.98686 669.000
30.00680 621.000
30.02675 654.000
30.04670 615.000
30.06664 614.000
30.08659 667.000
30.10654 665.000
30.12648 632.000
30.14643 683.000
30.16638 735.000
30.18633 623.000
30.20627 640.000
30.22622 619.000
30.24617 620.000
30.26611 689.000
30.28606 607.000
30.30601 644.000
30.32595 634.000
30.34590 601.000
30.36585 643.000
30.38579 614.000
30.40574 620.000
30.42569 670.000
30.44564 614.000
30.46558 621.000
30.48553 639.000
30.50548 611.000
30.52542 641.000
30.54537 659.000
30.56532 675.000
30.58526 655.000
30.60521 632.000
30.62516 666.000
30.64511 681.000
30.66505 691.000
30.68500 592.000
30.70495 592.000
30.72489 631.000
30.74484 617.000
30.76479 666.000
30.78473 625.000
30.80468 619.000
30.82463 637.000
30.84458 619.000
30.86452 643.000
30.88447 615.000
30.90442 675.000
30.92436 652.000
30.94431 634.000
30.96426 628.000
30.98420 600.000
31.00415 571.000
31.02410 663.000
31.04404 650.000
31.06399 663.000
31.08394 650.000
31.10389 579.000
31.12383 617.000
31.14378 591.000
31.16373 573.000
31.18367 587.000
31.20362 649.000
31.22357 585.000
31.24351 627.000
31.26346 581.000
31.28341 600.000
31.30336 591.000
31.32330 622.000
31.34325 581.000
31.36320 541.000
31.38314 601.000
31.40309 619.000
31.42304 606.000
31.44298 606.000
31.46293 579.000
31.48288 625.000
31.50282 651.000
31.52277 627.000
31.54272 622.000
31.56267 586.000
31.58261 566.000
31.60256 598.000
31.62251 600.000
31.64245 606.000
31.66240 631.000
31.68235 600.000
31.70229 609.000
31.72224 642.000
31.74219 625.000
31.76214 607.000
31.78208 587.000
31.80203 590.000
31.82198 618.000
31.84192 669.000
31.86187 590.000
31.88182 566.000
31.90176 595.000
31.92171 623.000
31.94166 562.000
31.96160 602.000
31.98155 571.000
32.00150 580.000
32.02145 583.000
32.04139 589.000
32.06134 612.000
32.08129 602.000
32.10123 571.000
32.12118 567.000
32.14113 562.000
32.16107 567.000
32.18102 594.000
32.20097 588.000
32.22092 582.000
32.24086 532.000
32.26081 594.000
32.28076 616.000
32.30070 564.000
32.32065 579.000
32.34060 583.000
32.36054 572.000
32.38049 569.000
32.40044 641.000
32.42039 577.000
32.44033 585.000
32.46028 551.000
32.48023 587.000
32.50017 609.000
32.52012 545.000
32.54007 567.000
32.56001 605.000
32.57996 575.000
32.59991 580.000
32.61985 527.000
32.63980 582.000
32.65975 562.000
32.67970 562.000
32.69964 569.000
32.71959 558.000
32.73954 578.000
32.75948 601.000
32.77943 618.000
32.79938 555.000
32.81932 582.000
32.83927 574.000
32.85922 553.000
32.87917 562.000
32.89911 594.000
32.91906 578.000
32.93901 572.000
32.95895 579.000
32.97890 555.000
32.99885 545.000
33.01879 589.000
33.03874 562.000
33.05869 516.000
33.07863 600.000
33.09858 539.000
33.11853 558.000
33.13848 571.000
33.15842 546.000
33.17837 562.000
33.19832 581.000
33.21826 505.000
33.23821 563.000
33.25816 561.000
33.27810 545.000
33.29805 549.000
33.31800 588.000
33.33795 585.000
33.35789 514.000
33.37784 516.000
33.39779 560.000
33.41773 548.000
33.43768 583.000
33.45763 564.000
33.47757 520.000
33.49752 561.000
33.51747 533.000
33.53741 518.000
33.55736 547.000
33.57731 530.000
33.59726 530.000
33.61720 503.000
33.63715 546.000
33.65710 536.000
33.67704 503.000
33.69699 556.000
33.71694 548.000
33.73688 563.000
33.75683 538.000
33.77678 565.000
33.79673 523.000
33.81667 534.000
33.83662 510.000
33.85657 517.000
33.87651 521.000
33.89646 552.000
33.91641 535.000
33.93635 530.000
33.95630 500.000
33.97625 530.000
33.99620 563.000
34.01614 543.000
34.03609 536.000
34.05604 514.000
34.07598 472.000
34.09593 519.000
34.11588 519.000
34.13582 522.000
34.15577 530.000
34.17572 493.000
34.19566 531.000
34.21561 487.000
34.23556 504.000
34.25551 524.000
34.27545 534.000
34.29540 504.000
34.31535 492.000
34.33529 525.000
34.35524 478.000
34.37519 468.000
34.39513 486.000
34.41508 516.000
34.43503 479.000
34.45498 542.000
34.47492 513.000
34.49487 493.000
34.51482 493.000
34.53476 475.000
34.55471 526.000
34.57466 526.000
34.59460 502.000
34.61455 484.000
34.63450 499.000
34.65444 504.000
34.67439 522.000
34.69434 499.000
34.71429 489.000
34.73423 491.000
34.75418 497.000
34.77413 532.000
34.79407 508.000
34.81402 487.000
34.83397 496.000
34.85391 515.000
34.87386 492.000
34.89381 516.000
34.91376 507.000
34.93370 469.000
34.95365 499.000
34.97360 469.000
34.99354 488.000
35.01349 475.000
35.03344 489.000
35.05338 493.000
35.07333 520.000
35.09328 504.000
35.11322 494.000
35.13317 501.000
35.15312 463.000
35.17307 496.000
35.19301 482.000
35.21296 469.000
35.23291 509.000
35.25285 469.000
35.27280 496.000
35.29275 490.000
35.31269 485.000
35.33264 478.000
35.35259 485.000
35.37254 514.000
35.39248 461.000
35.41243 513.000
35.43238 528.000
35.45232 547.000
35.47227 481.000
35.49222 528.000
35.51216 459.000
35.53211 462.000
35.55206 512.000
35.57201 465.000
35.59195 459.000
35.61190 492.000
35.63185 498.000
35.65179 485.000
35.67174 493.000
35.69169 453.000
35.71163 493.000
35.73158 489.000
35.75153 494.000
35.77147 488.000
35.79142 506.000
35.81137 480.000
35.83132 477.000
35.85126 489.000
35.87121 499.000
35.89116 529.000
35.91110 530.000
35.93105 480.000
35.95100 532.000
35.97094 461.000
35.99089 503.000
36.01084 516.000
36.03079 500.000
36.05073 520.000
36.07068 491.000
36.09063 531.000
36.11057 510.000
36.13052 505.000
36.15047 500.000
36.17041 510.000
36.19036 521.000
36.21031 505.000
36.23025 531.000
36.25020 514.000
36.27015 531.000
36.29010 605.000
36.31004 599.000
36.32999 607.000
36.34994 640.000
36.36988 642.000
36.38983 646.000
36.40978 667.000
36.42972 700.000
36.44967 668.000
36.46962 703.000
36.48957 736.000
36.50951 695.000
36.52946 778.000
36.54941 835.000
36.56935 869.000
36.58930 849.000
36.60925 953.000
36.62919 1039.000
36.64914 1169.000
36.66909 1274.000
36.68903 1417.000
36.70898 1593.000
36.72893 1720.000
36.74888 1990.000
36.76882 2218.000
36.78877 2348.000
36.80872 2654.000
36.82866 2895.000
36.84861 3168.000
36.86856 3464.000
36.88850 3851.000
36.90845 4285.000
36.92840 4540.000
36.94835 5003.000
36.96829 5469.000
36.98824 5807.000
37.00819 6174.000
37.02813 5873.000
37.04808 5421.000
37.06803 4735.000
37.08797 4310.000
37.10792 3649.000
37.12787 3236.000
37.14781 2652.000
37.16776 2107.000
37.18771 1737.000
37.20766 1362.000
37.22760 1288.000
37.24755 1028.000
37.26750 934.000
37.28744 858.000
37.30739 823.000
37.32734 740.000
37.34728 720.000
37.36723 649.000
37.38718 609.000
37.40713 650.000
37.42707 591.000
37.44702 566.000
37.46697 592.000
37.48691 591.000
37.50686 564.000
37.52681 512.000
37.54675 519.000
37.56670 517.000
37.58665 543.000
37.60660 476.000
37.62654 514.000
37.64649 490.000
37.66644 515.000
37.68638 512.000
37.70633 523.000
37.72628 480.000
37.74622 498.000
37.76617 501.000
37.78612 484.000
37.80606 506.000
37.82601 479.000
37.84596 478.000
37.86591 447.000
37.88585 494.000
37.90580 469.000
37.92575 469.000
37.94569 486.000
37.96564 486.000
37.98559 443.000
38.00553 493.000
38.02548 462.000
38.04543 478.000
38.06538 428.000
38.08532 479.000
38.10527 489.000
38.12522 476.000
38.14516 475.000
38.16511 477.000
38.18506 457.000
38.20500 465.000
38.22495 483.000
38.24490 474.000
38.26484 455.000
38.28479 435.000
38.30474 433.000
38.32469 466.000
38.34463 445.000
38.36458 496.000
38.38453 486.000
38.40447 412.000
38.42442 455.000
38.44437 445.000
38.46431 431.000
38.48426 477.000
38.50421 475.000
38.52416 424.000
38.54410 445.000
38.56405 463.000
38.58400 473.000
38.60394 438.000
38.62389 456.000
38.64384 460.000
38.66378 480.000
38.68373 429.000
38.70368 458.000
38.72362 442.000
38.74357 468.000
38.76352 439.000
38.78347 451.000
38.80341 458.000
38.82336 437.000
38.84331 470.000
38.86325 468.000
38.88320 427.000
38.90315 447.000
38.92309 434.000
38.94304 455.000
38.96299 451.000
38.98294 472.000
39.00288 426.000
39.02283 401.000
39.04278 450.000
39.06272 472.000
39.08267 461.000
39.10262 452.000
39.12256 421.000
39.14251 457.000
39.16246 434.000
39.18241 444.000
39.20235 490.000
39.22230 460.000
39.24225 437.000
39.26219 435.000
39.28214 475.000
39.30209 455.000
39.32203 460.000
39.34198 438.000
39.36193 461.000
39.38187 435.000
39.40182 463.000
39.42177 457.000
39.44172 428.000
39.46166 469.000
39.48161 440.000
39.50156 478.000
39.52150 428.000
39.54145 459.000
39.56140 467.000
39.58134 473.000
39.60129 433.000
39.62124 450.000
39.64119 446.000
39.66113 424.000
39.68108 431.000
39.70103 493.000
39.72097 443.000
39.74092 441.000
39.76087 455.000
39.78081 448.000
39.80076 486.000
39.82071 449.000
39.84065 427.000
39.86060 470.000
39.88055 483.000
39.90050 439.000
39.92044 415.000
39.94039 415.000
39.96034 455.000
39.98028 438.000
40.00023 437.000
40.02018 384.000
40.04012 447.000
40.06007 443.000
40.08002 424.000
40.09997 443.000
40.11991 478.000
40.13986 471.000
40.15981 442.000
40.17975 456.000
40.19970 454.000
40.21965 422.000
40.23959 444.000
40.25954 478.000
40.27949 426.000
40.29943 448.000
40.31938 448.000
40.33933 419.000
40.35928 420.000
40.37922 426.000
40.39917 442.000
40.41912 430.000
40.43906 435.000
40.45901 461.000
40.47896 462.000
40.49890 411.000
40.51885 442.000
40.53880 447.000
40.55875 431.000
40.57869 446.000
40.59864 422.000
40.61859 406.000
40.63853 450.000
40.65848 438.000
40.67843 425.000
40.69837 467.000
40.71832 425.000
40.73827 453.000
40.75822 447.000
40.77816 453.000
40.79811 453.000
40.81806 431.000
40.83800 426.000
40.85795 434.000
40.87790 405.000
40.89784 426.000
40.91779 486.000
40.93774 466.000
40.95768 430.000
40.97763 401.000
40.99758 436.000
41.01753 451.000
41.03747 460.000
41.05742 449.000
41.07737 438.000
41.09731 435.000
41.11726 461.000
41.13721 429.000
41.15715 452.000
41.17710 437.000
41.19705 500.000
41.21700 475.000
41.23694 427.000
41.25689 439.000
41.27684 469.000
41.29678 456.000
41.31673 468.000
41.33668 467.000
41.35662 487.000
41.37657 440.000
41.39652 441.000
41.41646 429.000
41.43641 437.000
41.45636 517.000
41.47631 453.000
41.49625 458.000
41.51620 459.000
41.53615 483.000
41.55609 484.000
41.57604 477.000
41.59599 473.000
41.61593 503.000
41.63588 454.000
41.65583 491.000
41.67578 457.000
41.69572 469.000
41.71567 471.000
41.73562 470.000
41.75556 483.000
41.77551 461.000
41.79546 471.000
41.81540 481.000
41.83535 475.000
41.85530 480.000
41.87524 469.000
41.89519 462.000
41.91514 457.000
41.93509 480.000
41.95503 496.000
41.97498 483.000
41.99493 467.000
42.01487 513.000
42.03482 479.000
42.05477 514.000
42.07471 547.000
42.09466 483.000
42.11461 484.000
42.13456 551.000
42.15450 515.000
42.17445 491.000
42.19440 527.000
42.21434 539.000
42.23429 504.000
42.25424 579.000
42.27418 563.000
42.29413 591.000
42.31408 631.000
42.33403 605.000
42.35397 694.000
42.37392 608.000
42.39387 713.000
42.41381 771.000
42.43376 770.000
42.45371 760.000
42.47365 822.000
42.49360 894.000
42.51355 852.000
42.53349 886.000
42.55344 892.000
42.57339 1018.000
42.59334 1046.000
42.61328 1045.000
42.63323 1233.000
42.65318 1291.000
42.67312 1393.000
42.69307 1573.000
42.71302 1807.000
42.73296 2059.000
42.75291 2229.000
42.77286 2511.000
42.79281 2776.000
42.81275 3150.000
42.83270 3440.000
42.85265 3990.000
42.87259 4366.000
42.89254 4756.000
42.91249 5276.000
42.93243 5845.000
42.95238 6511.000
42.97233 7201.000
42.99227 8025.000
43.01222 8884.000
43.03217 9448.000
43.05212 9734.000
43.07206 9566.000
43.09201 8735.000
43.11196 7609.000
43.13190 6630.000
43.15185 5987.000
43.17180 5320.000
43.19174 4686.000
43.21169 3827.000
43.23164 2878.000
43.25159 2250.000
43.27153 1854.000
43.29148 1566.000
43.31143 1335.000
43.33137 1253.000
43.35132 1007.000
43.37127 986.000
43.39121 937.000
43.41116 873.000
43.43111 785.000
43.45105 764.000
43.47100 695.000
43.49095 691.000
43.51090 707.000
43.53084 627.000
43.55079 623.000
43.57074 596.000
43.59068 559.000
43.61063 552.000
43.63058 639.000
43.65052 526.000
43.67047 600.000
43.69042 522.000
43.71037 550.000
43.73031 506.000
43.75026 527.000
43.77021 467.000
43.79015 511.000
43.81010 514.000
43.83005 528.000
43.84999 495.000
43.86994 474.000
43.88989 468.000
43.90984 486.000
43.92978 462.000
43.94973 474.000
43.96968 435.000
43.98962 463.000
44.00957 478.000
44.02952 424.000
44.04946 448.000
44.06941 449.000
44.08936 437.000
44.10930 440.000
44.12925 451.000
44.14920 462.000
44.16915 455.000
44.18909 433.000
44.20904 451.000
44.22899 441.000
44.24893 442.000
44.26888 469.000
44.28883 443.000
44.30877 407.000
44.32872 400.000
44.34867 457.000
44.36862 422.000
44.38856 446.000
44.40851 403.000
44.42846 462.000
44.44840 412.000
44.46835 433.000
44.48830 436.000
44.50824 417.000
44.52819 430.000
44.54814 458.000
44.56808 409.000
44.58803 419.000
44.60798 424.000
44.62793 432.000
44.64787 397.000
44.66782 454.000
44.68777 439.000
44.70771 420.000
44.72766 418.000
44.74761 442.000
44.76755 416.000
44.78750 399.000
44.80745 447.000
44.82740 433.000
44.84734 423.000
44.86729 418.000
44.88724 424.000
44.90718 384.000
44.92713 414.000
44.94708 411.000
44.96702 425.000
44.98697 407.000
45.00692 419.000
45.02686 409.000
45.04681 402.000
45.06676 408.000
45.08671 420.000
45.10665 415.000
45.12660 350.000
45.14655 417.000
45.16649 412.000
45.18644 384.000
45.20639 398.000
45.22633 410.000
45.24628 373.000
45.26623 416.000
45.28618 385.000
45.30612 399.000
45.32607 434.000
45.34602 380.000
45.36596 409.000
45.38591 384.000
45.40586 419.000
45.42580 392.000
45.44575 395.000
45.46570 372.000
45.48565 392.000
45.50559 408.000
45.52554 390.000
45.54549 376.000
45.56543 369.000
45.58538 403.000
45.60533 368.000
45.62527 380.000
45.64522 409.000
45.66517 406.000
45.68511 413.000
45.70506 402.000
45.72501 371.000
45.74496 353.000
45.76490 395.000
45.78485 393.000
45.80480 383.000
45.82474 364.000
45.84469 383.000
45.86464 385.000
45.88458 400.000
45.90453 344.000
45.92448 367.000
45.94443 378.000
45.96437 367.000
45.98432 349.000
46.00427 353.000
46.02421 384.000
46.04416 372.000
46.06411 377.000
46.08405 431.000
46.10400 369.000
46.12395 352.000
46.14389 360.000
46.16384 349.000
46.18379 389.000
46.20374 349.000
46.22368 374.000
46.24363 381.000
46.26358 376.000
46.28352 373.000
46.30347 379.000
46.32342 393.000
46.34336 394.000
46.36331 397.000
46.38326 371.000
46.40321 342.000
46.42315 363.000
46.44310 372.000
46.46305 371.000
46.48299 357.000
46.50294 360.000
46.52289 376.000
46.54283 341.000
46.56278 368.000
46.58273 377.000
46.60267 356.000
46.62262 381.000
46.64257 333.000
46.66252 348.000
46.68246 368.000
46.70241 369.000
46.72236 362.000
46.74230 344.000
46.76225 379.000
46.78220 334.000
46.80214 362.000
46.82209 382.000
46.84204 354.000
46.86199 369.000
46.88193 342.000
46.90188 368.000
46.92183 350.000
46.94177 383.000
46.96172 334.000
46.98167 352.000
47.00161 348.000
47.02156 352.000
47.04151 364.000
47.06146 355.000
47.08140 336.000
47.10135 345.000
47.12130 376.000
47.14124 407.000
47.16119 319.000
47.18114 300.000
47.20108 389.000
47.22103 330.000
47.24098 358.000
47.26092 387.000
47.28087 377.000
47.30082 372.000
47.32077 351.000
47.34071 346.000
47.36066 403.000
47.38061 367.000
47.40055 341.000
47.42050 368.000
47.44045 351.000
47.46039 352.000
47.48034 351.000
47.50029 337.000
47.52024 336.000
47.54018 364.000
47.56013 335.000
47.58008 350.000
47.60002 333.000
47.61997 381.000
47.63992 392.000
47.65986 360.000
47.67981 351.000
47.69976 343.000
47.71970 371.000
47.73965 335.000
47.75960 329.000
47.77955 354.000
47.79949 358.000
47.81944 349.000
47.83939 320.000
47.85933 365.000
47.87928 370.000
47.89923 365.000
47.91917 326.000
47.93912 294.000
47.95907 381.000
47.97902 345.000
47.99896 342.000
48.01891 368.000
48.03886 389.000
48.05880 342.000
48.07875 346.000
48.09870 325.000
48.11864 374.000
48.13859 345.000
48.15854 357.000
48.17848 367.000
48.19843 335.000
48.21838 367.000
48.23833 373.000
48.25827 395.000
48.27822 348.000
48.29817 359.000
48.31811 320.000
48.33806 344.000
48.35801 344.000
48.37795 352.000
48.39790 377.000
48.41785 342.000
48.43780 351.000
48.45774 342.000
48.47769 320.000
48.49764 363.000
48.51758 373.000
48.53753 337.000
48.55748 335.000
48.57742 328.000
48.59737 372.000
48.61732 305.000
48.63726 335.000
48.65721 322.000
48.67716 346.000
48.69711 352.000
48.71705 338.000
48.73700 323.000
48.75695 335.000
48.77689 330.000
48.79684 334.000
48.81679 309.000
48.83673 332.000
48.85668 369.000
48.87663 355.000
48.89658 380.000
48.91652 332.000
48.93647 367.000
48.95642 337.000
48.97636 328.000
48.99631 327.000
49.01626 345.000
49.03620 324.000
49.05615 338.000
49.07610 336.000
49.09605 343.000
49.11599 345.000
49.13594 359.000
49.15589 328.000
49.17583 332.000
49.19578 344.000
49.21573 339.000
49.23567 320.000
49.25562 351.000
49.27557 354.000
49.29551 308.000
49.31546 325.000
49.33541 358.000
49.35536 330.000
49.37530 343.000
49.39525 356.000
49.41520 360.000
49.43514 359.000
49.45509 356.000
49.47504 305.000
49.49498 348.000
49.51493 365.000
49.53488 354.000
49.55483 352.000
49.57477 334.000
49.59472 339.000
49.61467 318.000
49.63461 303.000
49.65456 307.000
49.67451 338.000
49.69445 361.000
49.71440 364.000
49.73435 325.000
49.75429 352.000
49.77424 373.000
49.79419 342.000
49.81414 378.000
49.83408 345.000
49.85403 312.000
49.87398 344.000
49.89392 361.000
49.91387 379.000
49.93382 349.000
49.95376 360.000
49.97371 367.000
49.99366 350.000
50.01361 351.000
50.03355 326.000
50.05350 326.000
50.07345 350.000
50.09339 320.000
50.11334 345.000
50.13329 347.000
50.15323 342.000
50.17318 332.000
50.19313 330.000
50.21307 371.000
50.23302 294.000
50.25297 368.000
50.27292 322.000
50.29286 331.000
50.31281 344.000
50.33276 378.000
50.35270 337.000
50.37265 346.000
50.39260 291.000
50.41254 369.000
50.43249 340.000
50.45244 316.000
50.47239 343.000
50.49233 355.000
50.51228 354.000
50.53223 327.000
50.55217 338.000
50.57212 355.000
50.59207 343.000
50.61201 363.000
50.63196 367.000
50.65191 341.000
50.67186 360.000
50.69180 337.000
50.71175 347.000
50.73170 363.000
50.75164 315.000
50.77159 333.000
50.79154 354.000
50.81148 293.000
50.83143 346.000
50.85138 318.000
50.87132 375.000
50.89127 333.000
50.91122 348.000
50.93117 329.000
50.95111 356.000
50.97106 351.000
50.99101 329.000
51.01095 341.000
51.03090 335.000
51.05085 306.000
51.07079 342.000
51.09074 322.000
51.11069 329.000
51.13064 354.000
51.15058 330.000
51.17053 334.000
51.19048 328.000
51.21042 324.000
51.23037 307.000
51.25032 339.000
51.27026 316.000
51.29021 334.000
51.31016 324.000
51.33010 357.000
51.35005 333.000
51.37000 347.000
51.38995 352.000
51.40989 327.000
51.42984 337.000
51.44979 334.000
51.46973 322.000
51.48968 336.000
51.50963 318.000
51.52957 320.000
51.54952 305.000
51.56947 337.000
51.58942 305.000
51.60936 357.000
51.62931 328.000
51.64926 333.000
51.66920 337.000
51.68915 346.000
51.70910 331.000
51.72904 346.000
51.74899 309.000
51.76894 343.000
51.78888 362.000
51.80883 309.000
51.82878 307.000
51.84873 308.000
51.86867 345.000
51.88862 320.000
51.90857 304.000
51.92851 320.000
51.94846 332.000
51.96841 318.000
51.98835 305.000
52.00830 334.000
52.02825 323.000
52.04820 318.000
52.06814 316.000
52.08809 335.000
52.10804 298.000
52.12798 332.000
52.14793 335.000
52.16788 307.000
52.18782 304.000
52.20777 324.000
52.22772 329.000
52.24767 343.000
52.26761 342.000
52.28756 326.000
52.30751 326.000
52.32745 318.000
52.34740 302.000
52.36735 294.000
52.38729 308.000
52.40724 354.000
52.42719 324.000
52.44713 323.000
52.46708 302.000
52.48703 321.000
52.50698 312.000
52.52692 305.000
52.54687 336.000
52.56682 329.000
52.58676 324.000
52.60671 305.000
52.62666 356.000
52.64660 300.000
52.66655 331.000
52.68650 326.000
52.70645 306.000
52.72639 323.000
52.74634 295.000
52.76629 303.000
52.78623 328.000
52.80618 326.000
52.82613 341.000
52.84607 302.000
52.86602 340.000
52.88597 337.000
52.90591 326.000
52.92586 304.000
52.94581 292.000
52.96576 335.000
52.98570 335.000
53.00565 301.000
53.02560 321.000
53.04554 322.000
53.06549 325.000
53.08544 317.000
53.10538 325.000
53.12533 320.000
53.14528 286.000
53.16523 356.000
53.18517 324.000
53.20512 310.000
53.22507 332.000
53.24501 356.000
53.26496 355.000
53.28491 321.000
53.30485 337.000
53.32480 296.000
53.34475 329.000
53.36469 344.000
53.38464 323.000
53.40459 318.000
53.42454 326.000
53.44448 309.000
53.46443 331.000
53.48438 317.000
53.50432 309.000
53.52427 331.000
53.54422 324.000
53.56416 338.000
53.58411 309.000
53.60406 288.000
53.62401 303.000
53.64395 313.000
53.66390 297.000
53.68385 336.000
53.70379 329.000
53.72374 327.000
53.74369 296.000
53.76363 332.000
53.78358 315.000
53.80353 338.000
53.82348 335.000
53.84342 340.000
53.86337 306.000
53.88332 317.000
53.90326 308.000
53.92321 307.000
53.94316 312.000
53.96310 303.000
53.98305 312.000
54.00300 321.000
54.02294 326.000
54.04289 314.000
54.06284 318.000
54.08279 323.000
54.10273 333.000
54.12268 337.000
54.14263 339.000
54.16257 315.000
54.18252 332.000
54.20247 335.000
54.22241 320.000
54.24236 325.000
54.26231 329.000
54.28226 285.000
54.30220 321.000
54.32215 313.000
54.34210 329.000
54.36204 316.000
54.38199 325.000
54.40194 326.000
54.42188 320.000
54.44183 299.000
54.46178 336.000
54.48172 319.000
54.50167 301.000
54.52162 299.000
54.54157 330.000
54.56151 320.000
54.58146 325.000
54.60141 326.000
54.62135 330.000
54.64130 303.000
54.66125 338.000
54.68119 299.000
54.70114 320.000
54.72109 279.000
54.74104 341.000
54.76098 328.000
54.78093 299.000
54.80088 340.000
54.82082 289.000
54.84077 331.000
54.86072 309.000
54.88066 321.000
54.90061 332.000
54.92056 307.000
54.94050 267.000
54.96045 315.000
54.98040 316.000
55.00035 326.000
55.02029 292.000
55.04024 334.000
55.06019 336.000
55.08013 295.000
55.10008 304.000
55.12003 294.000
55.13997 326.000
55.15992 340.000
55.17987 302.000
55.19982 318.000
55.21976 334.000
55.23971 301.000
55.25966 296.000
55.27960 353.000
55.29955 327.000
55.31950 312.000
55.33944 293.000
55.35939 297.000
55.37934 312.000
55.39929 311.000
55.41923 312.000
55.43918 318.000
55.45913 331.000
55.47907 357.000
55.49902 317.000
55.51897 306.000
55.53891 312.000
55.55886 303.000
55.57881 313.000
55.59875 330.000
55.61870 310.000
55.63865 316.000
55.65860 296.000
55.67854 304.000
55.69849 329.000
55.71844 331.000
55.73838 338.000
55.75833 327.000
55.77828 305.000
55.79822 290.000
55.81817 322.000
55.83812 330.000
55.85807 300.000
55.87801 323.000
55.89796 325.000
55.91791 298.000
55.93785 314.000
55.95780 279.000
55.97775 303.000
55.99769 285.000
56.01764 298.000
56.03759 307.000
56.05753 368.000
56.07748 298.000
56.09743 324.000
56.11738 333.000
56.13732 328.000
56.15727 311.000
56.17722 296.000
56.19716 330.000
56.21711 292.000
56.23706 342.000
56.25700 310.000
56.27695 320.000
56.29690 305.000
56.31685 332.000
56.33679 301.000
56.35674 311.000
56.37669 313.000
56.39663 309.000
56.41658 304.000
56.43653 316.000
56.45647 289.000
56.47642 315.000
56.49637 287.000
56.51631 313.000
56.53626 327.000
56.55621 304.000
56.57616 313.000
56.59610 299.000
56.61605 333.000
56.63600 298.000
56.65594 280.000
56.67589 299.000
56.69584 287.000
56.71578 308.000
56.73573 318.000
56.75568 326.000
56.77563 323.000
56.79557 284.000
56.81552 291.000
56.83547 318.000
56.85541 340.000
56.87536 290.000
56.89531 319.000
56.91525 313.000
56.93520 292.000
56.95515 306.000
56.97510 293.000
56.99504 296.000
57.01499 339.000
57.03494 312.000
57.05488 301.000
57.07483 336.000
57.09478 316.000
57.11472 305.000
57.13467 317.000
57.15462 333.000
57.17456 316.000
57.19451 328.000
57.21446 319.000
57.23441 305.000
57.25435 298.000
57.27430 309.000
57.29425 327.000
57.31419 349.000
57.33414 349.000
57.35409 313.000
57.37403 349.000
57.39398 314.000
57.41393 314.000
57.43388 319.000
57.45382 339.000
57.47377 326.000
57.49372 312.000
57.51366 294.000
57.53361 290.000
57.55356 307.000
57.57350 319.000
57.59345 283.000
57.61340 311.000
57.63334 328.000
57.65329 289.000
57.67324 312.000
57.69319 271.000
57.71313 318.000
57.73308 323.000
57.75303 292.000
57.77297 324.000
57.79292 321.000
57.81287 311.000
57.83281 306.000
57.85276 318.000
57.87271 309.000
57.89266 299.000
57.91260 309.000
57.93255 306.000
57.95250 281.000
57.97244 330.000
57.99239 295.000
58.01234 289.000
58.03228 287.000
58.05223 351.000
58.07218 341.000
58.09212 321.000
58.11207 292.000
58.13202 319.000
58.15197 291.000
58.17191 276.000
58.19186 303.000
58.21181 317.000
58.23175 284.000
58.25170 317.000
58.27165 305.000
58.29159 334.000
58.31154 356.000
58.33149 344.000
58.35144 296.000
58.37138 334.000
58.39133 281.000
58.41128 305.000
58.43122 296.000
58.45117 318.000
58.47112 316.000
58.49106 305.000
58.51101 325.000
58.53096 316.000
58.55090 294.000
58.57085 320.000
58.59080 309.000
58.61075 320.000
58.63069 320.000
58.65064 323.000
58.67059 263.000
58.69053 323.000
58.71048 317.000
58.73043 318.000
58.75037 317.000
58.77032 298.000
58.79027 284.000
58.81022 318.000
58.83016 325.000
58.85011 284.000
58.87006 337.000
58.89000 335.000
58.90995 329.000
58.92990 327.000
58.94984 317.000
58.96979 295.000
58.98974 293.000
59.00969 304.000
59.02963 293.000
59.04958 310.000
59.06953 299.000
59.08947 327.000
59.10942 337.000
59.12937 302.000
59.14931 298.000
59.16926 341.000
59.18921 340.000
59.20915 323.000
59.22910 319.000
59.24905 272.000
59.26900 322.000
59.28894 280.000
59.30889 297.000
59.32884 321.000
59.34878 287.000
59.36873 309.000
59.38868 322.000
59.40862 312.000
59.42857 308.000
59.44852 328.000
59.46847 306.000
59.48841 312.000
59.50836 292.000
59.52831 302.000
59.54825 295.000
59.56820 305.000
59.58815 293.000
59.60809 357.000
59.62804 286.000
59.64799 299.000
59.66793 317.000
59.68788 284.000
59.70783 305.000
59.72778 295.000
59.74772 334.000
59.76767 305.000
59.78762 317.000
59.80756 304.000
59.82751 294.000
59.84746 303.000
59.86740 318.000
59.88735 331.000
59.90730 322.000
59.92725 287.000
59.94719 301.000
59.96714 306.000
59.98709 301.000
60.00703 319.000
60.02698 287.000
60.04693 306.000
60.06687 292.000
60.08682 306.000
60.10677 311.000
60.12671 342.000
60.14666 305.000
60.16661 340.000
60.18656 306.000
60.20650 305.000
60.22645 309.000
60.24640 319.000
60.26634 323.000
60.28629 294.000
60.30624 320.000
60.32618 291.000
60.34613 316.000
60.36608 311.000
60.38603 319.000
60.40597 325.000
60.42592 329.000
60.44587 314.000
60.46581 316.000
60.48576 298.000
60.50571 319.000
60.52565 298.000
60.54560 313.000
60.56555 296.000
60.58550 330.000
60.60544 299.000
60.62539 280.000
60.64534 315.000
60.66528 340.000
60.68523 347.000
60.70518 327.000
60.72512 300.000
60.74507 322.000
60.76502 347.000
60.78496 326.000
60.80491 330.000
60.82486 289.000
60.84481 302.000
60.86475 314.000
60.88470 340.000
60.90465 323.000
60.92459 313.000
60.94454 327.000
60.96449 328.000
60.98443 297.000
61.00438 326.000
61.02433 319.000
61.04428 331.000
61.06422 320.000
61.08417 361.000
61.10412 312.000
61.12406 307.000
61.14401 360.000
61.16396 319.000
61.18390 306.000
61.20385 317.000
61.22380 333.000
61.24374 309.000
61.26369 299.000
61.28364 341.000
61.30359 343.000
61.32353 316.000
61.34348 336.000
61.36343 317.000
61.38337 319.000
61.40332 322.000
61.42327 346.000
61.44321 357.000
61.46316 300.000
61.48311 325.000
61.50306 369.000
61.52300 328.000
61.54295 329.000
61.56290 367.000
61.58284 371.000
61.60279 328.000
61.62274 354.000
61.64268 331.000
61.66263 350.000
61.68258 355.000
61.70252 370.000
61.72247 387.000
61.74242 344.000
61.76237 364.000
61.78231 371.000
61.80226 365.000
61.82221 355.000
61.84215 400.000
61.86210 412.000
61.88205 393.000
61.90199 416.000
61.92194 412.000
61.94189 424.000
61.96184 429.000
61.98178 455.000
62.00173 459.000
62.02168 459.000
62.04162 449.000
62.06157 471.000
62.08152 495.000
62.10146 492.000
62.12141 574.000
62.14136 583.000
62.16131 648.000
62.18125 594.000
62.20120 686.000
62.22115 699.000
62.24109 753.000
62.26104 787.000
62.28099 868.000
62.30093 999.000
62.32088 1012.000
62.34083 1117.000
62.36077 1203.000
62.38072 1318.000
62.40067 1469.000
62.42062 1649.000
62.44056 1764.000
62.46051 1934.000
62.48046 2126.000
62.50040 2336.000
62.52035 2537.000
62.54030 2857.000
62.56024 3036.000
62.58019 3316.000
62.60014 3739.000
62.62009 4040.000
62.64003 4093.000
62.65998 3910.000
62.67993 3835.000
62.69987 3674.000
62.71982 3390.000
62.73977 3231.000
62.75971 2895.000
62.77966 2717.000
62.79961 2555.000
62.81955 2390.000
62.83950 2282.000
62.85945 2000.000
62.87940 1837.000
62.89934 1661.000
62.91929 1437.000
62.93924 1225.000
62.95918 963.000
62.97913 848.000
62.99908 835.000
63.01902 688.000
63.03897 647.000
63.05892 672.000
63.07887 590.000
63.09881 547.000
63.11876 551.000
63.13871 467.000
63.15865 477.000
63.17860 464.000
63.19855 460.000
63.21849 459.000
63.23844 414.000
63.25839 403.000
63.27833 403.000
63.29828 402.000
63.31823 400.000
63.33818 386.000
63.35812 402.000
63.37807 426.000
63.39802 349.000
63.41796 365.000
63.43791 387.000
63.45786 374.000
63.47780 338.000
63.49775 364.000
63.51770 314.000
63.53765 370.000
63.55759 355.000
63.57754 356.000
63.59749 342.000
63.61743 325.000
63.63738 335.000
63.65733 337.000
63.67727 340.000
63.69722 355.000
63.71717 360.000
63.73712 325.000
63.75706 343.000
63.77701 345.000
63.79696 334.000
63.81690 342.000
63.83685 301.000
63.85680 353.000
63.87674 323.000
63.89669 335.000
63.91664 316.000
63.93658 320.000
63.95653 315.000
63.97648 346.000
63.99643 332.000
64.01637 325.000
64.03632 343.000
64.05627 305.000
64.07621 313.000
64.09616 299.000
64.11611 312.000
64.13605 319.000
64.15600 315.000
64.17595 305.000
64.19590 323.000
64.21584 332.000
64.23579 288.000
64.25574 317.000
64.27568 331.000
64.29563 334.000
64.31558 318.000
64.33552 308.000
64.35547 325.000
64.37542 313.000
64.39536 313.000
64.41531 297.000
64.43526 300.000
64.45521 326.000
64.47515 304.000
64.49510 317.000
64.51505 293.000
64.53499 327.000
64.55494 323.000
64.57489 280.000
64.59483 283.000
64.61478 319.000
64.63473 316.000
64.65468 307.000
64.67462 293.000
64.69457 308.000
64.71452 303.000
64.73446 329.000
64.75441 291.000
64.77436 291.000
64.79430 265.000
64.81425 303.000
64.83420 297.000
64.85414 302.000
64.87409 335.000
64.89404 336.000
64.91399 267.000
64.93393 302.000
64.95388 296.000
64.97383 333.000
64.99377 305.000
65.01372 332.000
65.03367 331.000
65.05361 330.000
65.07356 314.000
65.09351 287.000
65.11346 320.000
65.13340 314.000
65.15335 324.000
65.17330 291.000
65.19324 281.000
65.21319 326.000
65.23314 297.000
65.25308 299.000
65.27303 271.000
65.29298 296.000
65.31293 289.000
65.33287 308.000
65.35282 293.000
65.37277 284.000
65.39271 310.000
65.41266 276.000
65.43261 289.000
65.45255 313.000
65.47250 299.000
65.49245 279.000
65.51239 304.000
65.53234 297.000
65.55229 291.000
65.57224 323.000
65.59218 272.000
65.61213 282.000
65.63208 279.000
65.65202 270.000
65.67197 268.000
65.69192 283.000
65.71186 295.000
65.73181 269.000
65.75176 303.000
65.77171 248.000
65.79165 313.000
65.81160 281.000
65.83155 326.000
65.85149 314.000
65.87144 299.000
65.89139 279.000
65.91133 295.000
65.93128 304.000
65.95123 301.000
65.97117 272.000
65.99112 279.000
66.01107 305.000
66.03102 292.000
66.05096 291.000
66.07091 282.000
66.09086 343.000
66.11080 306.000
66.13075 254.000
66.15070 291.000
66.17064 301.000
66.19059 294.000
66.21054 312.000
66.23049 297.000
66.25043 311.000
66.27038 312.000
66.29033 309.000
66.31027 305.000
66.33022 297.000
66.35017 311.000
66.37011 288.000
66.39006 293.000
66.41001 283.000
66.42995 300.000
66.44990 285.000
66.46985 271.000
66.48980 276.000
66.50974 281.000
66.52969 303.000
66.54964 282.000
66.56958 293.000
66.58953 298.000
66.60948 276.000
66.62942 308.000
66.64937 310.000
66.66932 312.000
66.68927 285.000
66.70921 280.000
66.72916 278.000
66.74911 352.000
66.76905 291.000
66.78900 298.000
66.80895 293.000
66.82889 287.000
66.84884 291.000
66.86879 272.000
66.88874 289.000
66.90868 311.000
66.92863 298.000
66.94858 296.000
66.96852 273.000
66.98847 288.000
67.00842 287.000
67.02836 273.000
67.04831 276.000
67.06826 284.000
67.08820 280.000
67.10815 275.000
67.12810 293.000
67.14805 253.000
67.16799 294.000
67.18794 273.000
67.20789 312.000
67.22783 279.000
67.24778 317.000
67.26773 284.000
67.28767 302.000
67.30762 307.000
67.32757 285.000
67.34752 281.000
67.36746 284.000
67.38741 312.000
67.40736 277.000
67.42730 290.000
67.44725 290.000
67.46720 287.000
67.48714 295.000
67.50709 255.000
67.52704 316.000
67.54698 289.000
67.56693 285.000
67.58688 277.000
67.60683 281.000
67.62677 322.000
67.64672 298.000
67.66667 266.000
67.68661 288.000
67.70656 258.000
67.72651 300.000
67.74645 309.000
67.76640 304.000
67.78635 293.000
67.80630 267.000
67.82624 296.000
67.84619 307.000
67.86614 287.000
67.88608 329.000
67.90603 305.000
67.92598 283.000
67.94592 309.000
67.96587 290.000
67.98582 299.000
68.00576 290.000
68.02571 292.000
68.04566 313.000
68.06561 288.000
68.08555 319.000
68.10550 246.000
68.12545 274.000
68.14539 296.000
68.16534 304.000
68.18529 313.000
68.20523 259.000
68.22518 300.000
68.24513 332.000
68.26508 314.000
68.28502 292.000
68.30497 254.000
68.32492 276.000
68.34486 298.000
68.36481 289.000
68.38476 289.000
68.40470 279.000
68.42465 310.000
68.44460 268.000
68.46455 274.000
68.48449 262.000
68.50444 296.000
68.52439 277.000
68.54433 291.000
68.56428 287.000
68.58423 306.000
68.60417 290.000
68.62412 286.000
68.64407 312.000
68.66401 294.000
68.68396 283.000
68.70391 307.000
68.72386 273.000
68.74380 300.000
68.76375 303.000
68.78370 297.000
68.80364 289.000
68.82359 278.000
68.84354 259.000
68.86348 272.000
68.88343 286.000
68.90338 275.000
68.92333 288.000
68.94327 317.000
68.96322 285.000
68.98317 317.000
69.00311 320.000
69.02306 309.000
69.04301 306.000
69.06295 294.000
69.08290 320.000
69.10285 302.000
69.12279 295.000
69.14274 265.000
69.16269 277.000
69.18264 305.000
69.20258 278.000
69.22253 273.000
69.24248 295.000
69.26242 269.000
69.28237 297.000
69.30232 299.000
69.32226 275.000
69.34221 283.000
69.36216 262.000
69.38211 285.000
69.40205 296.000
69.42200 308.000
69.44195 274.000
69.46189 286.000
69.48184 284.000
69.50179 292.000
69.52173 295.000
69.54168 305.000
69.56163 294.000
69.58157 290.000
69.60152 260.000
69.62147 293.000
69.64142 261.000
69.66136 262.000
69.68131 316.000
69.70126 293.000
69.72120 308.000
69.74115 320.000
69.76110 269.000
69.78104 285.000
69.80099 273.000
69.82094 287.000
69.84089 281.000
69.86083 303.000
69.88078 256.000
69.90073 292.000
69.92067 273.000
69.94062 286.000
69.96057 252.000
69.98051 292.000
70.00046 299.000
70.02041 289.000
70.04035 265.000
70.06030 286.000
70.08025 294.000
70.10020 288.000
70.12014 279.000
70.14009 282.000
70.16004 287.000
70.17998 278.000
70.19993 266.000
70.21988 321.000
70.23982 287.000
70.25977 282.000
70.27972 285.000
70.29967 286.000
70.31961 273.000
70.33956 290.000
70.35951 274.000
70.37945 277.000
70.39940 270.000
70.41935 277.000
70.43929 297.000
70.45924 243.000
70.47919 253.000
70.49914 274.000
70.51908 275.000
70.53903 278.000
70.55898 286.000
70.57892 287.000
70.59887 280.000
70.61882 253.000
70.63876 295.000
70.65871 300.000
70.67866 280.000
70.69860 280.000
70.71855 321.000
70.73850 272.000
70.75845 268.000
70.77839 273.000
70.79834 290.000
70.81829 290.000
70.83823 292.000
70.85818 297.000
70.87813 297.000
70.89807 290.000
70.91802 270.000
70.93797 274.000
70.95792 317.000
70.97786 295.000
70.99781 292.000
71.01776 285.000
71.03770 260.000
71.05765 278.000
71.07760 262.000
71.09754 298.000
71.11749 265.000
71.13744 273.000
71.15738 302.000
71.17733 284.000
71.19728 266.000
71.21723 269.000
71.23717 286.000
71.25712 288.000
71.27707 275.000
71.29701 282.000
71.31696 260.000
71.33691 291.000
71.35685 294.000
71.37680 269.000
71.39675 309.000
71.41670 273.000
71.43664 281.000
71.45659 271.000
71.47654 276.000
71.49648 281.000
71.51643 333.000
71.53638 295.000
71.55632 273.000
71.57627 285.000
71.59622 315.000
71.61616 262.000
71.63611 285.000
71.65606 281.000
71.67601 284.000
71.69595 278.000
71.71590 258.000
71.73585 303.000
71.75579 300.000
71.77574 286.000
71.79569 262.000
71.81563 276.000
71.83558 293.000
71.85553 307.000
71.87548 275.000
71.89542 298.000
71.91537 287.000
71.93532 289.000
71.95526 294.000
71.97521 286.000
71.99516 266.000
72.01510 296.000
72.03505 272.000
72.05500 297.000
72.07495 287.000
72.09489 295.000
72.11484 272.000
72.13479 273.000
72.15473 300.000
72.17468 278.000
72.19463 295.000
72.21457 264.000
72.23452 248.000
72.25447 304.000
72.27441 299.000
72.29436 276.000
72.31431 281.000
72.33426 291.000
72.35420 289.000
72.37415 300.000
72.39410 270.000
72.41404 299.000
72.43399 314.000
72.45394 273.000
72.47388 264.000
72.49383 280.000
72.51378 268.000
72.53373 292.000
72.55367 285.000
72.57362 263.000
72.59357 280.000
72.61351 291.000
72.63346 310.000
72.65341 265.000
72.67335 277.000
72.69330 294.000
72.71325 302.000
72.73319 279.000
72.75314 275.000
72.77309 285.000
72.79304 273.000
72.81298 322.000
72.83293 311.000
72.85288 255.000
72.87282 312.000
72.89277 274.000
72.91272 280.000
72.93266 288.000
72.95261 288.000
72.97256 266.000
72.99251 309.000
73.01245 299.000
73.03240 303.000
73.05235 296.000
73.07229 296.000
73.09224 280.000
73.11219 293.000
73.13213 288.000
73.15208 282.000
73.17203 267.000
73.19197 282.000
73.21192 281.000
73.23187 302.000
73.25182 267.000
73.27176 289.000
73.29171 272.000
73.31166 273.000
73.33160 309.000
73.35155 306.000
73.37150 264.000
73.39144 285.000
73.41139 292.000
73.43134 278.000
73.45129 272.000
73.47123 310.000
73.49118 278.000
73.51113 274.000
73.53107 272.000
73.55102 302.000
73.57097 282.000
73.59091 293.000
73.61086 299.000
73.63081 273.000
73.65076 264.000
73.67070 281.000
73.69065 299.000
73.71060 283.000
73.73054 310.000
73.75049 297.000
73.77044 314.000
73.79038 293.000
73.81033 287.000
73.83028 291.000
73.85022 269.000
73.87017 308.000
73.89012 310.000
73.91007 299.000
73.93001 311.000
73.94996 295.000
73.96991 291.000
73.98985 278.000
74.00980 295.000
74.02975 296.000
74.04969 313.000
74.06964 271.000
74.08959 307.000
74.10954 282.000
74.12948 322.000
74.14943 274.000
74.16938 288.000
74.18932 274.000
74.20927 276.000
74.22922 268.000
74.24916 345.000
74.26911 305.000
74.28906 330.000
74.30900 277.000
74.32895 311.000
74.34890 278.000
74.36885 289.000
74.38879 322.000
74.40874 332.000
74.42869 331.000
74.44863 318.000
74.46858 313.000
74.48853 311.000
74.50847 329.000
74.52842 299.000
74.54837 335.000
74.56832 344.000
74.58826 402.000
74.60821 326.000
74.62816 316.000
74.64810 376.000
74.66805 352.000
74.68800 404.000
74.70794 395.000
74.72789 418.000
74.74784 381.000
74.76778 428.000
74.78773 448.000
74.80768 452.000
74.82763 484.000
74.84757 511.000
74.86752 518.000
74.88747 541.000
74.90741 574.000
74.92736 647.000
74.94731 645.000
74.96725 770.000
74.98720 814.000
75.00715 837.000
75.02710 914.000
75.04704 1001.000
75.06699 1071.000
75.08694 1182.000
75.10688 1223.000
75.12683 1297.000
75.14678 1462.000
75.16672 1464.000
75.18667 1569.000
75.20662 1493.000
75.22657 1510.000
75.24651 1449.000
75.26646 1307.000
75.28641 1207.000
75.30635 1079.000
75.32630 1135.000
75.34625 1100.000
75.36619 1111.000
75.38614 1071.000
75.40609 1027.000
75.42603 993.000
75.44598 901.000
75.46593 784.000
75.48588 727.000
75.50582 651.000
75.52577 585.000
75.54572 559.000
75.56566 578.000
75.58561 494.000
75.60556 451.000
75.62550 420.000
75.64545 426.000
75.66540 400.000
75.68535 394.000
75.70529 416.000
75.72524 362.000
75.74519 368.000
75.76513 348.000
75.78508 314.000
75.80503 381.000
75.82497 294.000
75.84492 327.000
75.86487 338.000
75.88481 353.000
75.90476 385.000
75.92471 310.000
75.94466 287.000
75.96460 295.000
75.98455 301.000
76.00450 322.000
76.02444 311.000
76.04439 278.000
76.06434 273.000
76.08428 314.000
76.10423 295.000
76.12418 270.000
76.14413 296.000
76.16407 303.000
76.18402 303.000
76.20397 306.000
76.22391 311.000
76.24386 293.000
76.26381 284.000
76.28375 299.000
76.30370 287.000
76.32365 290.000
76.34359 284.000
76.36354 321.000
76.38349 284.000
76.40344 277.000
76.42338 293.000
76.44333 294.000
76.46328 290.000
76.48322 296.000
76.50317 273.000
76.52312 273.000
76.54306 290.000
76.56301 276.000
76.58296 295.000
76.60291 267.000
76.62285 310.000
76.64280 270.000
76.66275 310.000
76.68269 267.000
76.70264 274.000
76.72259 288.000
76.74253 286.000
76.76248 292.000
76.78243 278.000
76.80238 277.000
76.82232 303.000
76.84227 307.000
76.86222 312.000
76.88216 287.000
76.90211 275.000
76.92206 309.000
76.94200 307.000
76.96195 284.000
76.98190 301.000
77.00184 278.000
77.02179 283.000
77.04174 276.000
77.06169 281.000
77.08163 267.000
77.10158 281.000
77.12153 266.000
77.14147 263.000
77.16142 303.000
77.18137 285.000
77.20131 262.000
77.22126 273.000
77.24121 268.000
77.26116 308.000
77.28110 281.000
77.30105 281.000
77.32100 277.000
77.34094 280.000
77.36089 294.000
77.38084 275.000
77.40078 259.000
77.42073 267.000
77.44068 331.000
77.46062 280.000
77.48057 293.000
77.50052 307.000
77.52047 283.000
77.54041 263.000
77.56036 252.000
77.58031 294.000
77.60025 316.000
77.62020 269.000
77.64015 320.000
77.66009 262.000
77.68004 291.000
77.69999 262.000
77.71994 266.000
77.73988 271.000
77.75983 299.000
77.77978 291.000
77.79972 282.000
77.81967 283.000
77.83962 302.000
77.85956 277.000
77.87951 268.000
77.89946 290.000
77.91940 281.000
77.93935 278.000
77.95930 294.000
77.97925 282.000
77.99919 285.000
78.01914 300.000
78.03909 257.000
78.05903 302.000
78.07898 296.000
78.09893 303.000
78.11887 273.000
78.13882 279.000
78.15877 278.000
78.17872 307.000
78.19866 299.000
78.21861 293.000
78.23856 305.000
78.25850 317.000
78.27845 305.000
78.29840 288.000
78.31834 306.000
78.33829 305.000
78.35824 299.000
78.37819 321.000
78.39813 319.000
78.41808 309.000
78.43803 312.000
78.45797 329.000
78.47792 304.000
78.49787 301.000
78.51781 323.000
78.53776 313.000
78.55771 296.000
78.57765 306.000
78.59760 295.000
78.61755 329.000
78.63750 354.000
78.65744 338.000
78.67739 389.000
78.69734 367.000
78.71728 364.000
78.73723 413.000
78.75718 371.000
78.77712 394.000
78.79707 434.000
78.81702 462.000
78.83697 479.000
78.85691 430.000
78.87686 484.000
78.89681 519.000
78.91675 487.000
78.93670 594.000
78.95665 627.000
78.97659 641.000
78.99654 707.000
79.01649 745.000
79.03643 765.000
79.05638 827.000
79.07633 974.000
79.09628 996.000
79.11622 1041.000
79.13617 1080.000
79.15612 1120.000
79.17606 1123.000
79.19601 1193.000
79.21596 1075.000
79.23590 1039.000
79.25585 1027.000
79.27580 930.000
79.29575 927.000
79.31569 897.000
79.33564 883.000
79.35559 849.000
79.37553 863.000
79.39548 856.000
79.41543 803.000
79.43537 722.000
79.45532 723.000
79.47527 646.000
79.49521 604.000
79.51516 580.000
79.53511 565.000
79.55506 480.000
79.57500 513.000
79.59495 481.000
79.61490 427.000
79.63484 388.000
79.65479 395.000
79.67474 371.000
79.69468 346.000
79.71463 365.000
79.73458 367.000
79.75453 318.000
79.77447 317.000
79.79442 320.000
79.81437 317.000
79.83431 310.000
79.85426 315.000
79.87421 363.000
79.89415 322.000
79.91410 311.000
79.93405 299.000
79.95399 308.000
79.97394 311.000
79.99389 295.000
80.01384 291.000
80.03378 347.000
80.05373 281.000
80.07368 294.000
80.09362 289.000
80.11357 274.000
80.13352 292.000
80.15346 303.000
80.17341 326.000
80.19336 287.000
80.21331 285.000
80.23325 313.000
80.25320 287.000
80.27315 285.000
80.29309 265.000
80.31304 297.000
80.33299 306.000
80.35293 276.000
80.37288 264.000
80.39283 295.000
80.41278 294.000
80.43272 302.000
80.45267 288.000
80.47262 279.000
80.49256 259.000
80.51251 283.000
80.53246 257.000
80.55240 258.000
80.57235 277.000
80.59230 286.000
80.61224 312.000
80.63219 299.000
80.65214 277.000
80.67209 267.000
80.69203 280.000
80.71198 258.000
80.73193 249.000
80.75187 285.000
80.77182 291.000
80.79177 248.000
80.81171 280.000
80.83166 313.000
80.85161 264.000
80.87156 268.000
80.89150 290.000
80.91145 298.000
80.93140 264.000
80.95134 268.000
80.97129 292.000
80.99124 260.000
81.01118 297.000
81.03113 266.000
81.05108 267.000
81.07102 270.000
81.09097 289.000
81.11092 257.000
81.13087 245.000
81.15081 290.000
81.17076 267.000
81.19071 281.000
81.21065 269.000
81.23060 271.000
81.25055 279.000
81.27049 273.000
81.29044 282.000
81.31039 265.000
81.33034 260.000
81.35028 272.000
81.37023 277.000
81.39018 261.000
81.41012 259.000
81.43007 285.000
81.45002 313.000
81.46996 288.000
81.48991 256.000
81.50986 282.000
81.52980 259.000
81.54975 284.000
81.56970 307.000
81.58965 265.000
81.60959 244.000
81.62954 283.000
81.64949 298.000
81.66943 269.000
81.68938 258.000
81.70933 298.000
81.72927 264.000
81.74922 278.000
81.76917 296.000
81.78912 293.000
81.80906 259.000
81.82901 268.000
81.84896 281.000
81.86890 242.000
81.88885 270.000
81.90880 236.000
81.92874 280.000
81.94869 293.000
81.96864 234.000
81.98859 249.000
82.00853 275.000
82.02848 278.000
82.04843 273.000
82.06837 325.000
82.08832 282.000
82.10827 317.000
82.12821 273.000
82.14816 279.000
82.16811 281.000
82.18805 308.000
82.20800 273.000
82.22795 257.000
82.24790 260.000
82.26784 278.000
82.28779 278.000
82.30774 275.000
82.32768 268.000
82.34763 283.000
82.36758 276.000
82.38752 262.000
82.40747 245.000
82.42742 276.000
82.44737 274.000
82.46731 289.000
82.48726 260.000
82.50721 286.000
82.52715 241.000
82.54710 272.000
82.56705 262.000
82.58699 256.000
82.60694 280.000
82.62689 275.000
82.64683 284.000
82.66678 247.000
82.68673 282.000
82.70668 280.000
82.72662 238.000
82.74657 263.000
82.76652 282.000
82.78646 257.000
82.80641 319.000
82.82636 290.000
82.84630 257.000
82.86625 272.000
82.88620 280.000
82.90615 268.000
82.92609 278.000
82.94604 266.000
82.96599 279.000
82.98593 272.000
83.00588 262.000
83.02583 233.000
83.04577 270.000
83.06572 269.000
83.08567 273.000
83.10561 284.000
83.12556 259.000
83.14551 277.000
83.16546 292.000
83.18540 315.000
83.20535 259.000
83.22530 286.000
83.24524 272.000
83.26519 272.000
83.28514 277.000
83.30508 272.000
83.32503 267.000
83.34498 283.000
83.36493 274.000
83.38487 293.000
83.40482 262.000
83.42477 273.000
83.44471 283.000
83.46466 274.000
83.48461 307.000
83.50455 243.000
83.52450 288.000
83.54445 276.000
83.56440 251.000
83.58434 271.000
83.60429 251.000
83.62424 275.000
83.64418 262.000
83.66413 271.000
83.68408 276.000
83.70402 246.000
83.72397 284.000
83.74392 260.000
83.76386 230.000
83.78381 237.000
83.80376 257.000
83.82371 299.000
83.84365 264.000
83.86360 270.000
83.88355 273.000
83.90349 262.000
83.92344 283.000
83.94339 280.000
83.96333 269.000
83.98328 283.000
84.00323 261.000
84.02318 245.000
84.04312 272.000
84.06307 275.000
84.08302 265.000
84.10296 247.000
84.12291 246.000
84.14286 267.000
84.16280 223.000
84.18275 281.000
84.20270 274.000
84.22264 262.000
84.24259 264.000
84.26254 273.000
84.28249 241.000
84.30243 258.000
84.32238 280.000
84.34233 271.000
84.36227 246.000
84.38222 266.000
84.40217 249.000
84.42211 283.000
84.44206 257.000
84.46201 264.000
84.48196 282.000
84.50190 273.000
84.52185 310.000
84.54180 288.000
84.56174 266.000
84.58169 257.000
84.60164 272.000
84.62158 269.000
84.64153 272.000
84.66148 278.000
84.68142 287.000
84.70137 258.000
84.72132 270.000
84.74127 276.000
84.76121 212.000
84.78116 270.000
84.80111 274.000
84.82105 269.000
84.84100 287.000
84.86095 266.000
84.88089 273.000
84.90084 264.000
84.92079 249.000
84.94074 256.000
84.96068 266.000
84.98063 267.000
85.00058 239.000
85.02052 253.000
85.04047 235.000
85.06042 283.000
85.08036 260.000
85.10031 260.000
85.12026 279.000
85.14021 270.000
85.16015 278.000
85.18010 265.000
85.20005 269.000
85.21999 239.000
85.23994 277.000
85.25989 269.000
85.27983 267.000
85.29978 291.000
85.31973 279.000
85.33967 256.000
85.35962 259.000
85.37957 270.000
85.39952 268.000
85.41946 248.000
85.43941 255.000
85.45936 279.000
85.47930 272.000
85.49925 303.000
85.51920 271.000
85.53914 293.000
85.55909 268.000
85.57904 252.000
85.59899 248.000
85.61893 275.000
85.63888 258.000
85.65883 252.000
85.67877 252.000
85.69872 257.000
85.71867 283.000
85.73861 288.000
85.75856 239.000
85.77851 259.000
85.79845 306.000
85.81840 258.000
85.83835 274.000
85.85830 257.000
85.87824 260.000
85.89819 273.000
85.91814 245.000
85.93808 292.000
85.95803 239.000
85.97798 286.000
85.99792 306.000
86.01787 263.000
86.03782 285.000
86.05777 262.000
86.07771 283.000
86.09766 254.000
86.11761 244.000
86.13755 304.000
86.15750 268.000
86.17745 252.000
86.19739 263.000
86.21734 266.000
86.23729 276.000
86.25723 259.000
86.27718 273.000
86.29713 261.000
86.31708 253.000
86.33702 248.000
86.35697 253.000
86.37692 259.000
86.39686 266.000
86.41681 294.000
86.43676 255.000
86.45670 253.000
86.47665 255.000
86.49660 284.000
86.51655 290.000
86.53649 279.000
86.55644 278.000
86.57639 266.000
86.59633 268.000
86.61628 259.000
86.63623 243.000
86.65617 295.000
86.67612 265.000
86.69607 272.000
86.71602 226.000
86.73596 274.000
86.75591 254.000
86.77586 247.000
86.79580 244.000
86.81575 254.000
86.83570 271.000
86.85564 252.000
86.87559 266.000
86.89554 252.000
86.91548 262.000
86.93543 268.000
86.95538 255.000
86.97533 241.000
86.99527 262.000
87.01522 290.000
87.03517 275.000
87.05511 268.000
87.07506 238.000
87.09501 264.000
87.11495 244.000
87.13490 244.000
87.15485 267.000
87.17480 243.000
87.19474 288.000
87.21469 265.000
87.23464 243.000
87.25458 279.000
87.27453 275.000
87.29448 236.000
87.31442 269.000
87.33437 259.000
87.35432 268.000
87.37426 260.000
87.39421 231.000
87.41416 271.000
87.43411 278.000
87.45405 239.000
87.47400 250.000
87.49395 277.000
87.51389 241.000
87.53384 270.000
87.55379 263.000
87.57373 244.000
87.59368 237.000
87.61363 227.000
87.63358 236.000
87.65352 265.000
87.67347 260.000
87.69342 289.000
87.71336 254.000
87.73331 273.000
87.75326 255.000
87.77320 260.000
87.79315 289.000
87.81310 294.000
87.83304 255.000
87.85299 241.000
87.87294 255.000
87.89289 264.000
87.91283 263.000
87.93278 253.000
87.95273 257.000
87.97267 251.000
87.99262 267.000
88.01257 242.000
88.03251 265.000
88.05246 258.000
88.07241 297.000
88.09236 268.000
88.11230 295.000
88.13225 272.000
88.15220 250.000
88.17214 283.000
88.19209 270.000
88.21204 284.000
88.23198 251.000
88.25193 265.000
88.27188 290.000
88.29183 268.000
88.31177 254.000
88.33172 270.000
88.35167 248.000
88.37161 240.000
88.39156 265.000
88.41151 251.000
88.43145 261.000
88.45140 262.000
88.47135 273.000
88.49129 247.000
88.51124 301.000
88.53119 262.000
88.55114 246.000
88.57108 250.000
88.59103 254.000
88.61098 281.000
88.63092 264.000
88.65087 243.000
88.67082 259.000
88.69076 287.000
88.71071 245.000
88.73066 244.000
88.75061 266.000
88.77055 251.000
88.79050 247.000
88.81045 271.000
88.83039 282.000
88.85034 250.000
88.87029 265.000
88.89023 250.000
88.91018 255.000
88.93013 259.000
88.95007 266.000
88.97002 253.000
88.98997 259.000
89.00992 272.000
89.02986 240.000
89.04981 220.000
89.06976 248.000
89.08970 254.000
89.10965 250.000
89.12960 257.000
89.14954 266.000
89.16949 258.000
89.18944 259.000
89.20939 236.000
89.22933 291.000
89.24928 277.000
89.26923 279.000
89.28917 270.000
89.30912 256.000
89.32907 238.000
89.34901 283.000
89.36896 252.000
89.38891 256.000
89.40885 240.000
89.42880 264.000
89.44875 250.000
89.46870 284.000
89.48864 247.000
89.50859 281.000
89.52854 248.000
89.54848 238.000
89.56843 282.000
89.58838 249.000
89.60832 233.000
89.62827 258.000
89.64822 273.000
89.66817 286.000
89.68811 261.000
89.70806 254.000
89.72801 219.000
89.74795 276.000
89.76790 292.000
89.78785 266.000
89.80779 269.000
89.82774 255.000
89.84769 280.000
89.86764 268.000
89.88758 285.000
89.90753 273.000
89.92748 271.000
89.94742 257.000
89.96737 258.000
89.98732 291.000
90.00726 261.000
