10.00000 251.000
10.01995 238.000
10.03989 237.000
10.05984 208.000
10.07979 229.000
10.09973 225.000
10.11968 231.000
10.13963 257.000
10.15958 238.000
10.17952 205.000
10.19947 212.000
10.21942 252.000
10.23936 242.000
10.25931 228.000
10.27926 232.000
10.29920 235.000
10.31915 226.000
10.33910 246.000
10.35905 247.000
10.37899 225.000
10.39894 226.000
10.41889 227.000
10.43883 256.000
10.45878 236.000
10.47873 224.000
10.49867 227.000
10.51862 256.000
10.53857 234.000
10.55851 207.000
10.57846 272.000
10.59841 241.000
10.61836 260.000
10.63830 248.000
10.65825 237.000
10.67820 217.000
10.69814 267.000
10.71809 227.000
10.73804 246.000
10.75798 230.000
10.77793 247.000
10.79788 216.000
10.81783 236.000
10.83777 251.000
10.85772 218.000
10.87767 231.000
10.89761 270.000
10.91756 199.000
10.93751 241.000
10.95745 231.000
10.97740 228.000
10.99735 233.000
11.01730 258.000
11.03724 236.000
11.05719 258.000
11.07714 243.000
11.09708 241.000
11.11703 236.000
11.13698 227.000
11.15692 252.000
11.17687 229.000
11.19682 243.000
11.21676 255.000
11.23671 271.000
11.25666 252.000
11.27661 230.000
11.29655 257.000
11.31650 242.000
11.33645 236.000
11.35639 230.000
11.37634 208.000
11.39629 256.000
11.41623 254.000
11.43618 233.000
11.45613 227.000
11.47608 245.000
11.49602 243.000
11.51597 241.000
11.53592 249.000
11.55586 226.000
11.57581 267.000
11.59576 235.000
11.61570 271.000
11.63565 242.000
11.65560 256.000
11.67554 254.000
11.69549 253.000
11.71544 228.000
11.73539 242.000
11.75533 257.000
11.77528 242.000
11.79523 247.000
11.81517 254.000
11.83512 253.000
11.85507 273.000
11.87501 220.000
11.89496 223.000
11.91491 246.000
11.93486 209.000
11.95480 230.000
11.97475 266.000
11.99470 241.000
12.01464 236.000
12.03459 249.000
12.05454 207.000
12.07448 239.000
12.09443 278.000
12.11438 279.000
12.13432 233.000
12.15427 255.000
12.17422 215.000
12.19417 269.000
12.21411 220.000
12.23406 212.000
12.25401 263.000
12.27395 240.000
12.29390 256.000
12.31385 239.000
12.33379 258.000
12.35374 228.000
12.37369 246.000
12.39364 232.000
12.41358 249.000
12.43353 227.000
12.45348 239.000
12.47342 240.000
12.49337 209.000
12.51332 231.000
12.53326 242.000
12.55321 258.000
12.57316 227.000
12.59311 230.000
12.61305 227.000
12.63300 209.000
12.65295 225.000
12.67289 273.000
12.69284 233.000
12.71279 264.000
12.73273 241.000
12.75268 239.000
12.77263 224.000
12.79257 246.000
12.81252 259.000
12.83247 243.000
12.85242 243.000
12.87236 251.000
12.89231 235.000
12.91226 268.000
12.93220 247.000
12.95215 247.000
12.97210 224.000
12.99204 243.000
13.01199 258.000
13.03194 238.000
13.05189 244.000
13.07183 236.000
13.09178 240.000
13.11173 245.000
13.13167 210.000
13.15162 251.000
13.17157 238.000
13.19151 249.000
13.21146 247.000
13.23141 234.000
13.25135 244.000
13.27130 239.000
13.29125 259.000
13.31120 242.000
13.33114 251.000
13.35109 236.000
13.37104 273.000
13.39098 297.000
13.41093 256.000
13.43088 235.000
13.45082 279.000
13.47077 226.000
13.49072 236.000
13.51067 206.000
13.53061 220.000
13.55056 234.000
13.57051 236.000
13.59045 257.000
13.61040 253.000
13.63035 257.000
13.65029 223.000
13.67024 249.000
13.69019 210.000
13.71013 237.000
13.73008 263.000
13.75003 215.000
13.76998 249.000
13.78992 263.000
13.80987 237.000
13.82982 274.000
13.84976 237.000
13.86971 259.000
13.88966 242.000
13.90960 231.000
13.92955 259.000
13.94950 229.000
13.96945 238.000
13.98939 242.000
14.00934 272.000
14.02929 237.000
14.04923 218.000
14.06918 229.000
14.08913 227.000
14.10907 234.000
14.12902 239.000
14.14897 231.000
14.16892 275.000
14.18886 253.000
14.20881 259.000
14.22876 236.000
14.24870 243.000
14.26865 228.000
14.28860 257.000
14.30854 247.000
14.32849 253.000
14.34844 264.000
14.36838 228.000
14.38833 236.000
14.40828 245.000
14.42823 297.000
14.44817 248.000
14.46812 242.000
14.48807 219.000
14.50801 239.000
14.52796 238.000
14.54791 217.000
14.56785 252.000
14.58780 254.000
14.60775 228.000
14.62770 266.000
14.64764 240.000
14.66759 223.000
14.68754 237.000
14.70748 238.000
14.72743 237.000
14.74738 255.000
14.76732 238.000
14.78727 259.000
14.80722 222.000
14.82716 242.000
14.84711 248.000
14.86706 233.000
14.88701 260.000
14.90695 234.000
14.92690 248.000
14.94685 225.000
14.96679 260.000
14.98674 260.000
15.00669 232.000
15.02663 247.000
15.04658 250.000
15.06653 240.000
15.08648 269.000
15.10642 220.000
15.12637 245.000
15.14632 235.000
15.16626 226.000
15.18621 261.000
15.20616 245.000
15.22610 275.000
15.24605 235.000
15.26600 250.000
15.28594 278.000
15.30589 234.000
15.32584 263.000
15.34579 260.000
15.36573 284.000
15.38568 250.000
15.40563 247.000
15.42557 257.000
15.44552 275.000
15.46547 253.000
15.48541 272.000
15.50536 257.000
15.52531 238.000
15.54526 242.000
15.56520 247.000
15.58515 243.000
15.60510 256.000
15.62504 252.000
15.64499 280.000
15.66494 240.000
15.68488 256.000
15.70483 250.000
15.72478 233.000
15.74472 241.000
15.76467 250.000
15.78462 244.000
15.80457 238.000
15.82451 244.000
15.84446 220.000
15.86441 266.000
15.88435 265.000
15.90430 255.000
15.92425 257.000
15.94419 244.000
15.96414 255.000
15.98409 253.000
16.00404 227.000
16.02398 244.000
16.04393 226.000
16.06388 245.000
16.08382 239.000
16.10377 252.000
16.12372 226.000
16.14366 253.000
16.16361 263.000
16.18356 239.000
16.20351 267.000
16.22345 263.000
16.24340 252.000
16.26335 240.000
16.28329 227.000
16.30324 263.000
16.32319 264.000
16.34313 244.000
16.36308 263.000
16.38303 268.000
16.40297 237.000
16.42292 253.000
16.44287 259.000
16.46282 250.000
16.48276 242.000
16.50271 268.000
16.52266 239.000
16.54260 262.000
16.56255 265.000
16.58250 268.000
16.60244 244.000
16.62239 257.000
16.64234 245.000
16.66229 259.000
16.68223 257.000
16.70218 223.000
16.72213 268.000
16.74207 270.000
16.76202 275.000
16.78197 266.000
16.80191 265.000
16.82186 296.000
16.84181 285.000
16.86175 305.000
16.88170 301.000
16.90165 292.000
16.92160 273.000
16.94154 251.000
16.96149 280.000
16.98144 263.000
17.00138 259.000
17.02133 248.000
17.04128 243.000
17.06122 268.000
17.08117 265.000
17.10112 268.000
17.12107 302.000
17.14101 283.000
17.16096 263.000
17.18091 231.000
17.20085 263.000
17.22080 261.000
17.24075 277.000
17.26069 252.000
17.28064 271.000
17.30059 245.000
17.32053 264.000
17.34048 239.000
17.36043 258.000
17.38038 240.000
17.40032 256.000
17.42027 253.000
17.44022 259.000
17.46016 259.000
17.48011 261.000
17.50006 260.000
17.52000 298.000
17.53995 244.000
17.55990 246.000
17.57985 254.000
17.59979 268.000
17.61974 232.000
17.63969 259.000
17.65963 290.000
17.67958 249.000
17.69953 265.000
17.71947 251.000
17.73942 251.000
17.75937 263.000
17.77932 277.000
17.79926 274.000
17.81921 238.000
17.83916 251.000
17.85910 243.000
17.87905 265.000
17.89900 269.000
17.91894 253.000
17.93889 271.000
17.95884 242.000
17.97878 238.000
17.99873 290.000
18.01868 296.000
18.03863 252.000
18.05857 224.000
18.07852 276.000
18.09847 274.000
18.11841 252.000
18.13836 257.000
18.15831 280.000
18.17825 234.000
18.19820 253.000
18.21815 250.000
18.23810 284.000
18.25804 264.000
18.27799 292.000
18.29794 267.000
18.31788 323.000
18.33783 339.000
18.35778 385.000
18.37772 458.000
18.39767 606.000
18.41762 572.000
18.43756 451.000
18.45751 449.000
18.47746 357.000
18.49741 284.000
18.51735 278.000
18.53730 274.000
18.55725 263.000
18.57719 278.000
18.59714 279.000
18.61709 255.000
18.63703 251.000
18.65698 257.000
18.67693 270.000
18.69688 253.000
18.71682 252.000
18.73677 251.000
18.75672 263.000
18.77666 264.000
18.79661 266.000
18.81656 278.000
18.83650 253.000
18.85645 219.000
18.87640 265.000
18.89634 260.000
18.91629 259.000
18.93624 266.000
18.95619 279.000
18.97613 265.000
18.99608 265.000
19.01603 269.000
19.03597 261.000
19.05592 267.000
19.07587 251.000
19.09581 239.000
19.11576 249.000
19.13571 300.000
19.15566 259.000
19.17560 255.000
19.19555 245.000
19.21550 257.000
19.23544 234.000
19.25539 285.000
19.27534 271.000
19.29528 259.000
19.31523 253.000
19.33518 265.000
19.35513 271.000
19.37507 259.000
19.39502 229.000
19.41497 272.000
19.43491 247.000
19.45486 257.000
19.47481 259.000
19.49475 267.000
19.51470 274.000
19.53465 261.000
19.55459 238.000
19.57454 273.000
19.59449 250.000
19.61444 283.000
19.63438 259.000
19.65433 279.000
19.67428 266.000
19.69422 256.000
19.71417 271.000
19.73412 271.000
19.75406 236.000
19.77401 280.000
19.79396 288.000
19.81391 277.000
19.83385 291.000
19.85380 257.000
19.87375 255.000
19.89369 294.000
19.91364 273.000
19.93359 270.000
19.95353 264.000
19.97348 238.000
19.99343 270.000
20.01337 263.000
20.03332 246.000
20.05327 247.000
20.07322 272.000
20.09316 261.000
20.11311 241.000
20.13306 302.000
20.15300 281.000
20.17295 288.000
20.19290 277.000
20.21284 228.000
20.23279 265.000
20.25274 271.000
20.27269 285.000
20.29263 259.000
20.31258 260.000
20.33253 273.000
20.35247 311.000
20.37242 242.000
20.39237 282.000
20.41231 291.000
20.43226 319.000
20.45221 299.000
20.47215 281.000
20.49210 293.000
20.51205 331.000
20.53200 292.000
20.55194 293.000
20.57189 310.000
20.59184 337.000
20.61178 343.000
20.63173 295.000
20.65168 340.000
20.67162 314.000
20.69157 299.000
20.71152 341.000
20.73147 376.000
20.75141 380.000
20.77136 438.000
20.79131 429.000
20.81125 427.000
20.83120 476.000
20.85115 509.000
20.87109 477.000
20.89104 589.000
20.91099 614.000
20.93094 682.000
20.95088 685.000
20.97083 824.000
20.99078 894.000
21.01072 922.000
21.03067 973.000
21.05062 926.000
21.07056 862.000
21.09051 806.000
21.11046 675.000
21.13040 570.000
21.15035 496.000
21.17030 414.000
21.19025 311.000
21.21019 306.000
21.23014 282.000
21.25009 284.000
21.27003 294.000
21.28998 291.000
21.30993 302.000
21.32987 277.000
21.34982 272.000
21.36977 268.000
21.38972 283.000
21.40966 276.000
21.42961 255.000
21.44956 278.000
21.46950 247.000
21.48945 264.000
21.50940 281.000
21.52934 260.000
21.54929 251.000
21.56924 295.000
21.58918 235.000
21.60913 283.000
21.62908 250.000
21.64903 254.000
21.66897 219.000
21.68892 260.000
21.70887 286.000
21.72881 268.000
21.74876 268.000
21.76871 261.000
21.78865 255.000
21.80860 257.000
21.82855 287.000
21.84850 273.000
21.86844 266.000
21.88839 255.000
21.90834 246.000
21.92828 271.000
21.94823 269.000
21.96818 292.000
21.98812 285.000
22.00807 268.000
22.02802 274.000
22.04796 281.000
22.06791 289.000
22.08786 265.000
22.10781 290.000
22.12775 267.000
22.14770 279.000
22.16765 259.000
22.18759 259.000
22.20754 294.000
22.22749 265.000
22.24743 264.000
22.26738 266.000
22.28733 286.000
22.30728 246.000
22.32722 260.000
22.34717 298.000
22.36712 258.000
22.38706 284.000
22.40701 283.000
22.42696 280.000
22.44690 287.000
22.46685 262.000
22.48680 273.000
22.50675 247.000
22.52669 232.000
22.54664 304.000
22.56659 266.000
22.58653 276.000
22.60648 261.000
22.62643 287.000
22.64637 285.000
22.66632 267.000
22.68627 256.000
22.70621 279.000
22.72616 262.000
22.74611 252.000
22.76606 251.000
22.78600 286.000
22.80595 266.000
22.82590 298.000
22.84584 291.000
22.86579 257.000
22.88574 266.000
22.90568 236.000
22.92563 260.000
22.94558 261.000
22.96553 259.000
22.98547 292.000
23.00542 264.000
23.02537 270.000
23.04531 244.000
23.06526 291.000
23.08521 280.000
23.10515 251.000
23.12510 298.000
23.14505 271.000
23.16499 284.000
23.18494 275.000
23.20489 277.000
23.22484 298.000
23.24478 272.000
23.26473 245.000
23.28468 285.000
23.30462 269.000
23.32457 255.000
23.34452 306.000
23.36446 253.000
23.38441 273.000
23.40436 293.000
23.42431 254.000
23.44425 291.000
23.46420 263.000
23.48415 306.000
23.50409 285.000
23.52404 273.000
23.54399 288.000
23.56393 288.000
23.58388 291.000
23.60383 294.000
23.62377 290.000
23.64372 267.000
23.66367 291.000
23.68362 248.000
23.70356 290.000
23.72351 247.000
23.74346 269.000
23.76340 245.000
23.78335 284.000
23.80330 268.000
23.82324 279.000
23.84319 288.000
23.86314 282.000
23.88309 287.000
23.90303 285.000
23.92298 290.000
23.94293 265.000
23.96287 283.000
23.98282 262.000
24.00277 295.000
24.02271 289.000
24.04266 286.000
24.06261 239.000
24.08256 304.000
24.10250 284.000
24.12245 303.000
24.14240 268.000
24.16234 279.000
24.18229 298.000
24.20224 267.000
24.22218 276.000
24.24213 273.000
24.26208 309.000
24.28202 309.000
24.30197 310.000
24.32192 305.000
24.34187 267.000
24.36181 270.000
24.38176 296.000
24.40171 301.000
24.42165 287.000
24.44160 277.000
24.46155 243.000
24.48149 324.000
24.50144 286.000
24.52139 250.000
24.54134 256.000
24.56128 304.000
24.58123 300.000
24.60118 283.000
24.62112 280.000
24.64107 299.000
24.66102 295.000
24.68096 247.000
24.70091 300.000
24.72086 299.000
24.74080 289.000
24.76075 294.000
24.78070 309.000
24.80065 274.000
24.82059 314.000
24.84054 249.000
24.86049 296.000
24.88043 289.000
24.90038 270.000
24.92033 302.000
24.94027 281.000
24.96022 270.000
24.98017 309.000
25.00012 307.000
25.02006 298.000
25.04001 311.000
25.05996 269.000
25.07990 310.000
25.09985 310.000
25.11980 291.000
25.13974 303.000
25.15969 305.000
25.17964 289.000
25.19958 327.000
25.21953 296.000
25.23948 317.000
25.25943 279.000
25.27937 272.000
25.29932 282.000
25.31927 264.000
25.33921 263.000
25.35916 283.000
25.37911 283.000
25.39905 245.000
25.41900 303.000
25.43895 291.000
25.45890 304.000
25.47884 283.000
25.49879 336.000
25.51874 300.000
25.53868 278.000
25.55863 271.000
25.57858 249.000
25.59852 294.000
25.61847 286.000
25.63842 297.000
25.65837 297.000
25.67831 290.000
25.69826 250.000
25.71821 277.000
25.73815 295.000
25.75810 286.000
25.77805 328.000
25.79799 285.000
25.81794 303.000
25.83789 297.000
25.85783 277.000
25.87778 294.000
25.89773 295.000
25.91768 275.000
25.93762 322.000
25.95757 293.000
25.97752 335.000
25.99746 319.000
26.01741 292.000
26.03736 309.000
26.05730 311.000
26.07725 295.000
26.09720 274.000
26.11715 281.000
26.13709 321.000
26.15704 259.000
26.17699 284.000
26.19693 304.000
26.21688 286.000
26.23683 269.000
26.25677 307.000
26.27672 317.000
26.29667 303.000
26.31661 312.000
26.33656 279.000
26.35651 280.000
26.37646 297.000
26.39640 304.000
26.41635 295.000
26.43630 301.000
26.45624 297.000
26.47619 314.000
26.49614 317.000
26.51608 282.000
26.53603 294.000
26.55598 311.000
26.57593 296.000
26.59587 312.000
26.61582 321.000
26.63577 299.000
26.65571 308.000
26.67566 325.000
26.69561 286.000
26.71555 297.000
26.73550 271.000
26.75545 301.000
26.77539 314.000
26.79534 336.000
26.81529 297.000
26.83524 322.000
26.85518 283.000
26.87513 298.000
26.89508 300.000
26.91502 303.000
26.93497 325.000
26.95492 292.000
26.97486 318.000
26.99481 306.000
27.01476 290.000
27.03471 326.000
27.05465 286.000
27.07460 321.000
27.09455 318.000
27.11449 307.000
27.13444 285.000
27.15439 335.000
27.17433 350.000
27.19428 309.000
27.21423 299.000
27.23417 289.000
27.25412 323.000
27.27407 308.000
27.29402 306.000
27.31396 282.000
27.33391 296.000
27.35386 299.000
27.37380 294.000
27.39375 285.000
27.41370 291.000
27.43364 310.000
27.45359 318.000
27.47354 294.000
27.49349 316.000
27.51343 319.000
27.53338 290.000
27.55333 310.000
27.57327 320.000
27.59322 310.000
27.61317 292.000
27.63311 324.000
27.65306 316.000
27.67301 323.000
27.69296 270.000
27.71290 309.000
27.73285 305.000
27.75280 310.000
27.77274 317.000
27.79269 300.000
27.81264 306.000
27.83258 304.000
27.85253 293.000
27.87248 318.000
27.89242 325.000
27.91237 296.000
27.93232 289.000
27.95227 300.000
27.97221 317.000
27.99216 310.000
28.01211 349.000
28.03205 321.000
28.05200 328.000
28.07195 278.000
28.09189 347.000
28.11184 283.000
28.13179 296.000
28.15174 299.000
28.17168 308.000
28.19163 313.000
28.21158 329.000
28.23152 316.000
28.25147 310.000
28.27142 308.000
28.29136 314.000
28.31131 330.000
28.33126 326.000
28.35120 282.000
28.37115 305.000
28.39110 316.000
28.41105 333.000
28.43099 310.000
28.45094 311.000
28.47089 319.000
28.49083 296.000
28.51078 311.000
28.53073 284.000
28.55067 318.000
28.57062 293.000
28.59057 326.000
28.61052 311.000
28.63046 314.000
28.65041 295.000
28.67036 341.000
28.69030 329.000
28.71025 301.000
28.73020 304.000
28.75014 293.000
28.77009 305.000
28.79004 294.000
28.80998 308.000
28.82993 293.000
28.84988 290.000
28.86983 348.000
28.88977 321.000
28.90972 298.000
28.92967 326.000
28.94961 310.000
28.96956 329.000
28.98951 351.000
29.00945 295.000
29.02940 322.000
29.04935 321.000
29.06930 300.000
29.08924 320.000
29.10919 297.000
29.12914 333.000
29.14908 307.000
29.16903 317.000
29.18898 309.000
29.20892 336.000
29.22887 366.000
29.24882 355.000
29.26877 364.000
29.28871 341.000
29.30866 340.000
29.32861 365.000
29.34855 351.000
29.36850 383.000
29.38845 391.000
29.40839 354.000
29.42834 357.000
29.44829 361.000
29.46823 368.000
29.48818 361.000
29.50813 363.000
29.52808 346.000
29.54802 317.000
29.56797 328.000
29.58792 348.000
29.60786 340.000
29.62781 315.000
29.64776 317.000
29.66770 308.000
29.68765 315.000
29.70760 326.000
29.72755 293.000
29.74749 317.000
29.76744 343.000
29.78739 343.000
29.80733 328.000
29.82728 347.000
29.84723 342.000
29.86717 338.000
29.88712 350.000
29.90707 367.000
29.92701 362.000
29.94696 336.000
29.96691 337.000
29.98686 330.000
30.00680 345.000
30.02675 351.000
30.04670 380.000
30.06664 358.000
30.08659 379.000
30.10654 354.000
30.12648 394.000
30.14643 404.000
30.16638 391.000
30.18633 432.000
30.20627 555.000
30.22622 603.000
30.24617 780.000
30.26611 1061.000
30.28606 1049.000
30.30601 808.000
30.32595 689.000
30.34590 727.000
30.36585 695.000
30.38579 545.000
30.40574 411.000
30.42569 361.000
30.44564 350.000
30.46558 364.000
30.48553 360.000
30.50548 339.000
30.52542 348.000
30.54537 344.000
30.56532 353.000
30.58526 347.000
30.60521 378.000
30.62516 339.000
30.64511 332.000
30.66505 329.000
30.68500 339.000
30.70495 321.000
30.72489 294.000
30.74484 336.000
30.76479 363.000
30.78473 348.000
30.80468 317.000
30.82463 345.000
30.84458 290.000
30.86452 334.000
30.88447 333.000
30.90442 302.000
30.92436 304.000
30.94431 307.000
30.96426 335.000
30.98420 304.000
31.00415 352.000
31.02410 327.000
31.04404 311.000
31.06399 318.000
31.08394 312.000
31.10389 330.000
31.12383 324.000
31.14378 313.000
31.16373 324.000
31.18367 318.000
31.20362 318.000
31.22357 369.000
31.24351 345.000
31.26346 346.000
31.28341 324.000
31.30336 334.000
31.32330 321.000
31.34325 385.000
31.36320 333.000
31.38314 323.000
31.40309 346.000
31.42304 337.000
31.44298 320.000
31.46293 361.000
31.48288 317.000
31.50282 343.000
31.52277 360.000
31.54272 300.000
31.56267 313.000
31.58261 366.000
31.60256 324.000
31.62251 320.000
31.64245 342.000
31.66240 332.000
31.68235 297.000
31.70229 344.000
31.72224 322.000
31.74219 312.000
31.76214 344.000
31.78208 326.000
31.80203 326.000
31.82198 321.000
31.84192 366.000
31.86187 335.000
31.88182 333.000
31.90176 321.000
31.92171 327.000
31.94166 292.000
31.96160 329.000
31.98155 356.000
32.00150 348.000
32.02145 317.000
32.04139 335.000
32.06134 337.000
32.08129 320.000
32.10123 355.000
32.12118 339.000
32.14113 348.000
32.16107 342.000
32.18102 315.000
32.20097 365.000
32.22092 322.000
32.24086 385.000
32.26081 345.000
32.28076 347.000
32.30070 331.000
32.32065 364.000
32.34060 369.000
32.36054 347.000
32.38049 347.000
32.40044 422.000
32.42039 453.000
32.44033 478.000
32.46028 458.000
32.48023 443.000
32.50017 429.000
32.52012 393.000
32.54007 385.000
32.56001 387.000
32.57996 344.000
32.59991 362.000
32.61985 357.000
32.63980 345.000
32.65975 338.000
32.67970 359.000
32.69964 341.000
32.71959 356.000
32.73954 340.000
32.75948 325.000
32.77943 309.000
32.79938 318.000
32.81932 283.000
32.83927 322.000
32.85922 340.000
32.87917 351.000
32.89911 356.000
32.91906 344.000
32.93901 335.000
32.95895 321.000
32.97890 366.000
32.99885 319.000
33.01879 355.000
33.03874 328.000
33.05869 350.000
33.07863 333.000
33.09858 342.000
33.11853 341.000
33.13848 323.000
33.15842 337.000
33.17837 337.000
33.19832 346.000
33.21826 315.000
33.23821 338.000
33.25816 332.000
33.27810 303.000
33.29805 351.000
33.31800 330.000
33.33795 317.000
33.35789 402.000
33.37784 390.000
33.39779 318.000
33.41773 392.000
33.43768 352.000
33.45763 345.000
33.47757 350.000
33.49752 352.000
33.51747 341.000
33.53741 337.000
33.55736 325.000
33.57731 346.000
33.59726 347.000
33.61720 350.000
33.63715 347.000
33.65710 331.000
33.67704 339.000
33.69699 392.000
33.71694 357.000
33.73688 356.000
33.75683 353.000
33.77678 345.000
33.79673 367.000
33.81667 347.000
33.83662 382.000
33.85657 351.000
33.87651 360.000
33.89646 356.000
33.91641 339.000
33.93635 362.000
33.95630 388.000
33.97625 382.000
33.99620 401.000
34.01614 418.000
34.03609 382.000
34.05604 422.000
34.07598 420.000
34.09593 464.000
34.11588 410.000
34.13582 408.000
34.15577 464.000
34.17572 467.000
34.19566 471.000
34.21561 523.000
34.23556 457.000
34.25551 531.000
34.27545 541.000
34.29540 605.000
34.31535 606.000
34.33529 604.000
34.35524 656.000
34.37519 607.000
34.39513 676.000
34.41508 623.000
34.43503 665.000
34.45498 626.000
34.47492 644.000
34.49487 609.000
34.51482 690.000
34.53476 748.000
34.55471 795.000
34.57466 815.000
34.59460 861.000
34.61455 904.000
34.63450 866.000
34.65444 891.000
34.67439 786.000
34.69434 789.000
34.71429 801.000
34.73423 797.000
34.75418 694.000
34.77413 686.000
34.79407 636.000
34.81402 621.000
34.83397 611.000
34.85391 528.000
34.87386 490.000
34.89381 534.000
34.91376 516.000
34.93370 470.000
34.95365 487.000
34.97360 471.000
34.99354 437.000
35.01349 452.000
35.03344 464.000
35.05338 462.000
35.07333 453.000
35.09328 445.000
35.11322 448.000
35.13317 454.000
35.15312 431.000
35.17307 450.000
35.19301 469.000
35.21296 515.000
35.23291 470.000
35.25285 541.000
35.27280 539.000
35.29275 544.000
35.31269 581.000
35.33264 691.000
35.35259 761.000
35.37254 825.000
35.39248 931.000
35.41243 1099.000
35.43238 1203.000
35.45232 1354.000
35.47227 1589.000
35.49222 1902.000
35.51216 2145.000
35.53211 2050.000
35.55206 1841.000
35.57201 1812.000
35.59195 2023.000
35.61190 2335.000
35.63185 2808.000
35.65179 3444.000
35.67174 3616.000
35.69169 2690.000
35.71163 1969.000
35.73158 1906.000
35.75153 2152.000
35.77147 1777.000
35.79142 1244.000
35.81137 876.000
35.83132 673.000
35.85126 572.000
35.87121 545.000
35.89116 538.000
35.91110 470.000
35.93105 483.000
35.95100 461.000
35.97094 491.000
35.99089 428.000
36.01084 426.000
36.03079 417.000
36.05073 407.000
36.07068 439.000
36.09063 394.000
36.11057 397.000
36.13052 376.000
36.15047 406.000
36.17041 426.000
36.19036 399.000
36.21031 417.000
36.23025 388.000
36.25020 431.000
36.27015 468.000
36.29010 420.000
36.31004 447.000
36.32999 401.000
36.34994 436.000
36.36988 438.000
36.38983 444.000
36.40978 423.000
36.42972 416.000
36.44967 423.000
36.46962 475.000
36.48957 430.000
36.50951 417.000
36.52946 412.000
36.54941 427.000
36.56935 457.000
36.58930 430.000
36.60925 421.000
36.62919 395.000
36.64914 454.000
36.66909 460.000
36.68903 432.000
36.70898 436.000
36.72893 426.000
36.74888 462.000
36.76882 469.000
36.78877 425.000
36.80872 505.000
36.82866 440.000
36.84861 441.000
36.86856 488.000
36.88850 542.000
36.90845 531.000
36.92840 557.000
36.94835 613.000
36.96829 628.000
36.98824 700.000
37.00819 803.000
37.02813 879.000
37.04808 952.000
37.06803 1117.000
37.08797 1190.000
37.10792 1393.000
37.12787 1334.000
37.14781 1265.000
37.16776 1206.000
37.18771 1055.000
37.20766 1025.000
37.22760 958.000
37.24755 818.000
37.26750 736.000
37.28744 775.000
37.30739 719.000
37.32734 612.000
37.34728 522.000
37.36723 451.000
37.38718 507.000
37.40713 451.000
37.42707 411.000
37.44702 365.000
37.46697 385.000
37.48691 342.000
37.50686 356.000
37.52681 358.000
37.54675 324.000
37.56670 343.000
37.58665 323.000
37.60660 322.000
37.62654 327.000
37.64649 331.000
37.66644 349.000
37.68638 326.000
37.70633 353.000
37.72628 314.000
37.74622 334.000
37.76617 350.000
37.78612 341.000
37.80606 351.000
37.82601 365.000
37.84596 320.000
37.86591 319.000
37.88585 343.000
37.90580 364.000
37.92575 327.000
37.94569 343.000
37.96564 351.000
37.98559 375.000
38.00553 350.000
38.02548 355.000
38.04543 361.000
38.06538 363.000
38.08532 316.000
38.10527 366.000
38.12522 348.000
38.14516 338.000
38.16511 353.000
38.18506 373.000
38.20500 387.000
38.22495 399.000
38.24490 383.000
38.26484 352.000
38.28479 390.000
38.30474 388.000
38.32469 432.000
38.34463 434.000
38.36458 445.000
38.38453 487.000
38.40447 483.000
38.42442 500.000
38.44437 534.000
38.46431 578.000
38.48426 621.000
38.50421 649.000
38.52416 724.000
38.54410 803.000
38.56405 869.000
38.58400 1027.000
38.60394 1103.000
38.62389 1098.000
38.64384 1060.000
38.66378 1037.000
38.68373 1059.000
38.70368 994.000
38.72362 870.000
38.74357 831.000
38.76352 796.000
38.78347 713.000
38.80341 660.000
38.82336 638.000
38.84331 593.000
38.86325 575.000
38.88320 591.000
38.90315 554.000
38.92309 529.000
38.94304 575.000
38.96299 549.000
38.98294 591.000
39.00288 610.000
39.02283 621.000
39.04278 614.000
39.06272 594.000
39.08267 612.000
39.10262 580.000
39.12256 524.000
39.14251 499.000
39.16246 469.000
39.18241 459.000
39.20235 417.000
39.22230 428.000
39.24225 413.000
39.26219 408.000
39.28214 402.000
39.30209 355.000
39.32203 366.000
39.34198 375.000
39.36193 324.000
39.38187 355.000
39.40182 350.000
39.42177 353.000
39.44172 341.000
39.46166 328.000
39.48161 355.000
39.50156 387.000
39.52150 369.000
39.54145 338.000
39.56140 356.000
39.58134 326.000
39.60129 363.000
39.62124 332.000
39.64119 323.000
39.66113 330.000
39.68108 306.000
39.70103 335.000
39.72097 317.000
39.74092 347.000
39.76087 333.000
39.78081 367.000
39.80076 341.000
39.82071 365.000
39.84065 312.000
39.86060 342.000
39.88055 361.000
39.90050 369.000
39.92044 315.000
39.94039 334.000
39.96034 319.000
39.98028 285.000
40.00023 304.000
40.02018 325.000
40.04012 321.000
40.06007 339.000
40.08002 327.000
40.09997 326.000
40.11991 341.000
40.13986 322.000
40.15981 349.000
40.17975 321.000
40.19970 328.000
40.21965 353.000
40.23959 314.000
40.25954 330.000
40.27949 350.000
40.29943 324.000
40.31938 310.000
40.33933 310.000
40.35928 338.000
40.37922 308.000
40.39917 347.000
40.41912 298.000
40.43906 317.000
40.45901 292.000
40.47896 316.000
40.49890 322.000
40.51885 334.000
40.53880 334.000
40.55875 309.000
40.57869 340.000
40.59864 332.000
40.61859 314.000
40.63853 338.000
40.65848 318.000
40.67843 309.000
40.69837 319.000
40.71832 352.000
40.73827 334.000
40.75822 336.000
40.77816 358.000
40.79811 333.000
40.81806 308.000
40.83800 338.000
40.85795 321.000
40.87790 322.000
40.89784 298.000
40.91779 295.000
40.93774 351.000
40.95768 350.000
40.97763 324.000
40.99758 332.000
41.01753 321.000
41.03747 307.000
41.05742 329.000
41.07737 303.000
41.09731 329.000
41.11726 341.000
41.13721 313.000
41.15715 315.000
41.17710 325.000
41.19705 319.000
41.21700 317.000
41.23694 349.000
41.25689 347.000
41.27684 299.000
41.29678 324.000
41.31673 294.000
41.33668 333.000
41.35662 323.000
41.37657 340.000
41.39652 278.000
41.41646 292.000
41.43641 349.000
41.45636 349.000
41.47631 334.000
41.49625 312.000
41.51620 308.000
41.53615 343.000
41.55609 367.000
41.57604 351.000
41.59599 304.000
41.61593 346.000
41.63588 309.000
41.65583 319.000
41.67578 356.000
41.69572 331.000
41.71567 353.000
41.73562 353.000
41.75556 366.000
41.77551 318.000
41.79546 334.000
41.81540 345.000
41.83535 335.000
41.85530 330.000
41.87524 324.000
41.89519 366.000
41.91514 373.000
41.93509 364.000
41.95503 364.000
41.97498 367.000
41.99493 362.000
42.01487 347.000
42.03482 362.000
42.05477 361.000
42.07471 369.000
42.09466 362.000
42.11461 394.000
42.13456 352.000
42.15450 359.000
42.17445 396.000
42.19440 385.000
42.21434 388.000
42.23429 369.000
42.25424 363.000
42.27418 368.000
42.29413 353.000
42.31408 386.000
42.33403 376.000
42.35397 343.000
42.37392 395.000
42.39387 387.000
42.41381 383.000
42.43376 384.000
42.45371 378.000
42.47365 389.000
42.49360 401.000
42.51355 413.000
42.53349 388.000
42.55344 420.000
42.57339 406.000
42.59334 444.000
42.61328 425.000
42.63323 426.000
42.65318 455.000
42.67312 458.000
42.69307 480.000
42.71302 467.000
42.73296 501.000
42.75291 524.000
42.77286 527.000
42.79281 583.000
42.81275 566.000
42.83270 629.000
42.85265 572.000
42.87259 663.000
42.89254 693.000
42.91249 757.000
42.93243 748.000
42.95238 825.000
42.97233 819.000
42.99227 882.000
43.01222 994.000
43.03217 978.000
43.05212 1103.000
43.07206 1120.000
43.09201 1182.000
43.11196 1183.000
43.13190 1267.000
43.15185 1340.000
43.17180 1331.000
43.19174 1318.000
43.21169 1206.000
43.23164 1191.000
43.25159 1160.000
43.27153 1126.000
43.29148 1152.000
43.31143 1151.000
43.33137 1255.000
43.35132 1180.000
43.37127 1077.000
43.39121 906.000
43.41116 786.000
43.43111 750.000
43.45105 774.000
43.47100 733.000
43.49095 653.000
43.51090 507.000
43.53084 468.000
43.55079 439.000
43.57074 409.000
43.59068 364.000
43.61063 375.000
43.63058 377.000
43.65052 366.000
43.67047 330.000
43.69042 352.000
43.71037 313.000
43.73031 335.000
43.75026 302.000
43.77021 356.000
43.79015 350.000
43.81010 347.000
43.83005 330.000
43.84999 331.000
43.86994 332.000
43.88989 292.000
43.90984 295.000
43.92978 317.000
43.94973 352.000
43.96968 323.000
43.98962 309.000
44.00957 282.000
44.02952 319.000
44.04946 299.000
44.06941 317.000
44.08936 326.000
44.10930 290.000
44.12925 307.000
44.14920 325.000
44.16915 334.000
44.18909 292.000
44.20904 279.000
44.22899 313.000
44.24893 332.000
44.26888 310.000
44.28883 275.000
44.30877 303.000
44.32872 282.000
44.34867 289.000
44.36862 338.000
44.38856 339.000
44.40851 312.000
44.42846 320.000
44.44840 315.000
44.46835 304.000
44.48830 334.000
44.50824 302.000
44.52819 322.000
44.54814 282.000
44.56808 291.000
44.58803 331.000
44.60798 308.000
44.62793 326.000
44.64787 296.000
44.66782 307.000
44.68777 312.000
44.70771 301.000
44.72766 318.000
44.74761 293.000
44.76755 295.000
44.78750 318.000
44.80745 299.000
44.82740 312.000
44.84734 292.000
44.86729 295.000
44.88724 303.000
44.90718 312.000
44.92713 279.000
44.94708 291.000
44.96702 299.000
44.98697 324.000
45.00692 305.000
45.02686 258.000
45.04681 280.000
45.06676 320.000
45.08671 296.000
45.10665 287.000
45.12660 280.000
45.14655 299.000
45.16649 320.000
45.18644 268.000
45.20639 314.000
45.22633 275.000
45.24628 313.000
45.26623 313.000
45.28618 315.000
45.30612 314.000
45.32607 307.000
45.34602 297.000
45.36596 303.000
45.38591 271.000
45.40586 306.000
45.42580 325.000
45.44575 298.000
45.46570 325.000
45.48565 330.000
45.50559 298.000
45.52554 318.000
45.54549 335.000
45.56543 305.000
45.58538 294.000
45.60533 325.000
45.62527 282.000
45.64522 309.000
45.66517 322.000
45.68511 294.000
45.70506 286.000
45.72501 264.000
45.74496 309.000
45.76490 303.000
45.78485 304.000
45.80480 289.000
45.82474 294.000
45.84469 270.000
45.86464 302.000
45.88458 284.000
45.90453 297.000
45.92448 281.000
45.94443 296.000
45.96437 278.000
45.98432 305.000
46.00427 274.000
46.02421 331.000
46.04416 298.000
46.06411 294.000
46.08405 299.000
46.10400 295.000
46.12395 312.000
46.14389 316.000
46.16384 308.000
46.18379 281.000
46.20374 311.000
46.22368 304.000
46.24363 289.000
46.26358 297.000
46.28352 303.000
46.30347 301.000
46.32342 351.000
46.34336 321.000
46.36331 315.000
46.38326 338.000
46.40321 309.000
46.42315 301.000
46.44310 266.000
46.46305 250.000
46.48299 284.000
46.50294 287.000
46.52289 296.000
46.54283 300.000
46.56278 271.000
46.58273 316.000
46.60267 308.000
46.62262 307.000
46.64257 275.000
46.66252 290.000
46.68246 300.000
46.70241 273.000
46.72236 292.000
46.74230 324.000
46.76225 306.000
46.78220 281.000
46.80214 289.000
46.82209 263.000
46.84204 285.000
46.86199 295.000
46.88193 279.000
46.90188 287.000
46.92183 303.000
46.94177 314.000
46.96172 247.000
46.98167 308.000
47.00161 315.000
47.02156 282.000
47.04151 296.000
47.06146 295.000
47.08140 290.000
47.10135 277.000
47.12130 265.000
47.14124 302.000
47.16119 285.000
47.18114 289.000
47.20108 269.000
47.22103 307.000
47.24098 270.000
47.26092 297.000
47.28087 291.000
47.30082 295.000
47.32077 284.000
47.34071 280.000
47.36066 317.000
47.38061 296.000
47.40055 325.000
47.42050 304.000
47.44045 278.000
47.46039 292.000
47.48034 301.000
47.50029 298.000
47.52024 312.000
47.54018 277.000
47.56013 279.000
47.58008 293.000
47.60002 282.000
47.61997 304.000
47.63992 299.000
47.65986 290.000
47.67981 283.000
47.69976 276.000
47.71970 288.000
47.73965 251.000
47.75960 287.000
47.77955 315.000
47.79949 277.000
47.81944 278.000
47.83939 318.000
47.85933 324.000
47.87928 306.000
47.89923 315.000
47.91917 302.000
47.93912 302.000
47.95907 320.000
47.97902 303.000
47.99896 316.000
48.01891 335.000
48.03886 307.000
48.05880 339.000
48.07875 297.000
48.09870 293.000
48.11864 355.000
48.13859 325.000
48.15854 312.000
48.17848 292.000
48.19843 309.000
48.21838 323.000
48.23833 297.000
48.25827 337.000
48.27822 308.000
48.29817 330.000
48.31811 336.000
48.33806 307.000
48.35801 292.000
48.37795 317.000
48.39790 321.000
48.41785 338.000
48.43780 321.000
48.45774 309.000
48.47769 330.000
48.49764 330.000
48.51758 350.000
48.53753 326.000
48.55748 316.000
48.57742 332.000
48.59737 351.000
48.61732 354.000
48.63726 383.000
48.65721 387.000
48.67716 403.000
48.69711 422.000
48.71705 442.000
48.73700 387.000
48.75695 436.000
48.77689 465.000
48.79684 467.000
48.81679 500.000
48.83673 515.000
48.85668 471.000
48.87663 513.000
48.89658 436.000
48.91652 535.000
48.93647 522.000
48.95642 507.000
48.97636 497.000
48.99631 451.000
49.01626 440.000
49.03620 408.000
49.05615 380.000
49.07610 374.000
49.09605 377.000
49.11599 393.000
49.13594 354.000
49.15589 381.000
49.17583 354.000
49.19578 350.000
49.21573 351.000
49.23567 343.000
49.25562 331.000
49.27557 305.000
49.29551 306.000
49.31546 313.000
49.33541 320.000
49.35536 290.000
49.37530 303.000
49.39525 328.000
49.41520 331.000
49.43514 324.000
49.45509 336.000
49.47504 296.000
49.49498 331.000
49.51493 310.000
49.53488 351.000
49.55483 318.000
49.57477 332.000
49.59472 284.000
49.61467 326.000
49.63461 325.000
49.65456 330.000
49.67451 355.000
49.69445 319.000
49.71440 358.000
49.73435 331.000
49.75429 337.000
49.77424 327.000
49.79419 318.000
49.81414 319.000
49.83408 325.000
49.85403 328.000
49.87398 350.000
49.89392 343.000
49.91387 326.000
49.93382 311.000
49.95376 317.000
49.97371 335.000
49.99366 326.000
50.01361 324.000
50.03355 313.000
50.05350 303.000
50.07345 308.000
50.09339 288.000
50.11334 324.000
50.13329 315.000
50.15323 277.000
50.17318 317.000
50.19313 319.000
50.21307 318.000
50.23302 308.000
50.25297 309.000
50.27292 318.000
50.29286 307.000
50.31281 337.000
50.33276 278.000
50.35270 333.000
50.37265 295.000
50.39260 271.000
50.41254 302.000
50.43249 317.000
50.45244 302.000
50.47239 305.000
50.49233 299.000
50.51228 297.000
50.53223 277.000
50.55217 294.000
50.57212 304.000
50.59207 293.000
50.61201 298.000
50.63196 296.000
50.65191 285.000
50.67186 264.000
50.69180 303.000
50.71175 291.000
50.73170 285.000
50.75164 273.000
50.77159 301.000
50.79154 271.000
50.81148 283.000
50.83143 280.000
50.85138 280.000
50.87132 286.000
50.89127 271.000
50.91122 285.000
50.93117 260.000
50.95111 285.000
50.97106 262.000
50.99101 288.000
51.01095 281.000
51.03090 303.000
51.05085 277.000
51.07079 313.000
51.09074 300.000
51.11069 296.000
51.13064 292.000
51.15058 285.000
51.17053 286.000
51.19048 269.000
51.21042 285.000
51.23037 300.000
51.25032 308.000
51.27026 311.000
51.29021 300.000
51.31016 278.000
51.33010 270.000
51.35005 319.000
51.37000 316.000
51.38995 275.000
51.40989 305.000
51.42984 258.000
51.44979 265.000
51.46973 288.000
51.48968 302.000
51.50963 277.000
51.52957 286.000
51.54952 281.000
51.56947 288.000
51.58942 289.000
51.60936 285.000
51.62931 276.000
51.64926 263.000
51.66920 329.000
51.68915 296.000
51.70910 285.000
51.72904 290.000
51.74899 292.000
51.76894 300.000
51.78888 293.000
51.80883 288.000
51.82878 274.000
51.84873 298.000
51.86867 266.000
51.88862 269.000
51.90857 269.000
51.92851 306.000
51.94846 333.000
51.96841 320.000
51.98835 297.000
52.00830 278.000
52.02825 304.000
52.04820 276.000
52.06814 295.000
52.08809 313.000
52.10804 279.000
52.12798 304.000
52.14793 293.000
52.16788 295.000
52.18782 318.000
52.20777 290.000
52.22772 315.000
52.24767 275.000
52.26761 297.000
52.28756 297.000
52.30751 294.000
52.32745 283.000
52.34740 274.000
52.36735 284.000
52.38729 281.000
52.40724 287.000
52.42719 263.000
52.44713 271.000
52.46708 319.000
52.48703 295.000
52.50698 303.000
52.52692 306.000
52.54687 275.000
52.56682 270.000
52.58676 324.000
52.60671 271.000
52.62666 279.000
52.64660 313.000
52.66655 289.000
52.68650 322.000
52.70645 295.000
52.72639 310.000
52.74634 344.000
52.76629 308.000
52.78623 269.000
52.80618 291.000
52.82613 338.000
52.84607 290.000
52.86602 330.000
52.88597 283.000
52.90591 307.000
52.92586 318.000
52.94581 353.000
52.96576 310.000
52.98570 279.000
53.00565 355.000
53.02560 320.000
53.04554 342.000
53.06549 355.000
53.08544 351.000
53.10538 334.000
53.12533 337.000
53.14528 361.000
53.16523 329.000
53.18517 341.000
53.20512 353.000
53.22507 377.000
53.24501 372.000
53.26496 381.000
53.28491 406.000
53.30485 325.000
53.32480 370.000
53.34475 323.000
53.36469 333.000
53.38464 325.000
53.40459 298.000
53.42454 310.000
53.44448 327.000
53.46443 317.000
53.48438 315.000
53.50432 324.000
53.52427 341.000
53.54422 347.000
53.56416 352.000
53.58411 309.000
53.60406 315.000
53.62401 324.000
53.64395 328.000
53.66390 345.000
53.68385 359.000
53.70379 345.000
53.72374 393.000
53.74369 426.000
53.76363 461.000
53.78358 464.000
53.80353 466.000
53.82348 423.000
53.84342 426.000
53.86337 375.000
53.88332 370.000
53.90326 420.000
53.92321 398.000
53.94316 379.000
53.96310 380.000
53.98305 374.000
54.00300 335.000
54.02294 293.000
54.04289 345.000
54.06284 297.000
54.08279 291.000
54.10273 297.000
54.12268 321.000
54.14263 299.000
54.16257 331.000
54.18252 316.000
54.20247 288.000
54.22241 311.000
54.24236 299.000
54.26231 308.000
54.28226 307.000
54.30220 299.000
54.32215 284.000
54.34210 306.000
54.36204 288.000
54.38199 340.000
54.40194 297.000
54.42188 311.000
54.44183 258.000
54.46178 314.000
54.48172 303.000
54.50167 304.000
54.52162 302.000
54.54157 311.000
54.56151 286.000
54.58146 303.000
54.60141 293.000
54.62135 288.000
54.64130 320.000
54.66125 304.000
54.68119 317.000
54.70114 323.000
54.72109 255.000
54.74104 321.000
54.76098 334.000
54.78093 302.000
54.80088 321.000
54.82082 318.000
54.84077 308.000
54.86072 299.000
54.88066 359.000
54.90061 301.000
54.92056 287.000
54.94050 292.000
54.96045 289.000
54.98040 319.000
55.00035 289.000
55.02029 279.000
55.04024 276.000
55.06019 288.000
55.08013 279.000
55.10008 282.000
55.12003 287.000
55.13997 293.000
55.15992 302.000
55.17987 274.000
55.19982 277.000
55.21976 315.000
55.23971 304.000
55.25966 242.000
55.27960 310.000
55.29955 315.000
55.31950 287.000
55.33944 287.000
55.35939 279.000
55.37934 326.000
55.39929 296.000
55.41923 285.000
55.43918 263.000
55.45913 262.000
55.47907 322.000
55.49902 277.000
55.51897 293.000
55.53891 298.000
55.55886 293.000
55.57881 277.000
55.59875 303.000
55.61870 267.000
55.63865 289.000
55.65860 265.000
55.67854 284.000
55.69849 277.000
55.71844 294.000
55.73838 296.000
55.75833 296.000
55.77828 328.000
55.79822 268.000
55.81817 276.000
55.83812 266.000
55.85807 295.000
55.87801 288.000
55.89796 280.000
55.91791 296.000
55.93785 297.000
55.95780 282.000
55.97775 296.000
55.99769 277.000
56.01764 280.000
56.03759 289.000
56.05753 310.000
56.07748 263.000
56.09743 297.000
56.11738 315.000
56.13732 290.000
56.15727 301.000
56.17722 275.000
56.19716 288.000
56.21711 335.000
56.23706 289.000
56.25700 282.000
56.27695 288.000
56.29690 305.000
56.31685 301.000
56.33679 309.000
56.35674 286.000
56.37669 332.000
56.39663 332.000
56.41658 311.000
56.43653 282.000
56.45647 275.000
56.47642 262.000
56.49637 311.000
56.51631 285.000
56.53626 292.000
56.55621 311.000
56.57616 288.000
56.59610 296.000
56.61605 327.000
56.63600 316.000
56.65594 320.000
56.67589 300.000
56.69584 304.000
56.71578 301.000
56.73573 291.000
56.75568 314.000
56.77563 294.000
56.79557 290.000
56.81552 318.000
56.83547 287.000
56.85541 296.000
56.87536 290.000
56.89531 316.000
56.91525 300.000
56.93520 334.000
56.95515 347.000
56.97510 322.000
56.99504 370.000
57.01499 319.000
57.03494 329.000
57.05488 340.000
57.07483 341.000
57.09478 340.000
57.11472 347.000
57.13467 357.000
57.15462 371.000
57.17456 364.000
57.19451 386.000
57.21446 394.000
57.23441 437.000
57.25435 514.000
57.27430 625.000
57.29425 711.000
57.31419 907.000
57.33414 901.000
57.35409 808.000
57.37403 694.000
57.39398 592.000
57.41393 548.000
57.43388 505.000
57.45382 596.000
57.47377 641.000
57.49372 610.000
57.51366 570.000
57.53361 513.000
57.55356 456.000
57.57350 386.000
57.59345 344.000
57.61340 357.000
57.63334 334.000
57.65329 317.000
57.67324 309.000
57.69319 302.000
57.71313 338.000
57.73308 309.000
57.75303 308.000
57.77297 312.000
57.79292 315.000
57.81287 327.000
57.83281 329.000
57.85276 315.000
57.87271 325.000
57.89266 334.000
57.91260 344.000
57.93255 326.000
57.95250 309.000
57.97244 271.000
57.99239 329.000
58.01234 312.000
58.03228 322.000
58.05223 329.000
58.07218 320.000
58.09212 285.000
58.11207 369.000
58.13202 329.000
58.15197 356.000
58.17191 320.000
58.19186 335.000
58.21181 381.000
58.23175 351.000
58.25170 319.000
58.27165 361.000
58.29159 367.000
58.31154 365.000
58.33149 307.000
58.35144 347.000
58.37138 291.000
58.39133 340.000
58.41128 324.000
58.43122 367.000
58.45117 319.000
58.47112 324.000
58.49106 316.000
58.51101 313.000
58.53096 326.000
58.55090 339.000
58.57085 314.000
58.59080 310.000
58.61075 326.000
58.63069 312.000
58.65064 313.000
58.67059 295.000
58.69053 309.000
58.71048 295.000
58.73043 301.000
58.75037 316.000
58.77032 308.000
58.79027 298.000
58.81022 330.000
58.83016 309.000
58.85011 301.000
58.87006 301.000
58.89000 313.000
58.90995 304.000
58.92990 313.000
58.94984 319.000
58.96979 309.000
58.98974 284.000
59.00969 308.000
59.02963 281.000
59.04958 284.000
59.06953 287.000
59.08947 283.000
59.10942 287.000
59.12937 290.000
59.14931 285.000
59.16926 281.000
59.18921 297.000
59.20915 309.000
59.22910 296.000
59.24905 304.000
59.26900 286.000
59.28894 299.000
59.30889 289.000
59.32884 289.000
59.34878 304.000
59.36873 274.000
59.38868 310.000
59.40862 283.000
59.42857 321.000
59.44852 295.000
59.46847 313.000
59.48841 302.000
59.50836 292.000
59.52831 302.000
59.54825 316.000
59.56820 303.000
59.58815 282.000
59.60809 300.000
59.62804 304.000
59.64799 264.000
59.66793 323.000
59.68788 327.000
59.70783 329.000
59.72778 315.000
59.74772 324.000
59.76767 337.000
59.78762 300.000
59.80756 300.000
59.82751 300.000
59.84746 331.000
59.86740 300.000
59.88735 281.000
59.90730 304.000
59.92725 300.000
59.94719 310.000
59.96714 273.000
59.98709 318.000
60.00703 333.000
60.02698 303.000
60.04693 285.000
60.06687 297.000
60.08682 299.000
60.10677 346.000
60.12671 275.000
60.14666 291.000
60.16661 330.000
60.18656 307.000
60.20650 321.000
60.22645 320.000
60.24640 303.000
60.26634 325.000
60.28629 301.000
60.30624 310.000
60.32618 306.000
60.34613 290.000
60.36608 274.000
60.38603 271.000
60.40597 328.000
60.42592 284.000
60.44587 325.000
60.46581 329.000
60.48576 286.000
60.50571 296.000
60.52565 288.000
60.54560 282.000
60.56555 325.000
60.58550 298.000
60.60544 314.000
60.62539 303.000
60.64534 328.000
60.66528 338.000
60.68523 289.000
60.70518 299.000
60.72512 338.000
60.74507 307.000
60.76502 324.000
60.78496 311.000
60.80491 293.000
60.82486 326.000
60.84481 337.000
60.86475 294.000
60.88470 299.000
60.90465 320.000
60.92459 294.000
60.94454 297.000
60.96449 326.000
60.98443 359.000
61.00438 307.000
61.02433 318.000
61.04428 339.000
61.06422 310.000
61.08417 317.000
61.10412 355.000
61.12406 380.000
61.14401 303.000
61.16396 344.000
61.18390 313.000
61.20385 341.000
61.22380 341.000
61.24374 352.000
61.26369 357.000
61.28364 332.000
61.30359 370.000
61.32353 391.000
61.34348 369.000
61.36343 395.000
61.38337 378.000
61.40332 382.000
61.42327 412.000
61.44321 451.000
61.46316 483.000
61.48311 435.000
61.50306 498.000
61.52300 487.000
61.54295 490.000
61.56290 506.000
61.58284 458.000
61.60279 483.000
61.62274 443.000
61.64268 504.000
61.66263 464.000
61.68258 458.000
61.70252 475.000
61.72247 446.000
61.74242 444.000
61.76237 404.000
61.78231 440.000
61.80226 411.000
61.82221 432.000
61.84215 424.000
61.86210 402.000
61.88205 422.000
61.90199 402.000
61.92194 377.000
61.94189 434.000
61.96184 430.000
61.98178 417.000
62.00173 407.000
62.02168 393.000
62.04162 434.000
62.06157 437.000
62.08152 420.000
62.10146 444.000
62.12141 426.000
62.14136 432.000
62.16131 422.000
62.18125 458.000
62.20120 458.000
62.22115 462.000
62.24109 462.000
62.26104 479.000
62.28099 454.000
62.30093 477.000
62.32088 503.000
62.34083 553.000
62.36077 509.000
62.38072 485.000
62.40067 571.000
62.42062 566.000
62.44056 614.000
62.46051 541.000
62.48046 626.000
62.50040 605.000
62.52035 649.000
62.54030 708.000
62.56024 707.000
62.58019 727.000
62.60014 760.000
62.62009 796.000
62.64003 837.000
62.65998 799.000
62.67993 828.000
62.69987 793.000
62.71982 867.000
62.73977 724.000
62.75971 791.000
62.77966 773.000
62.79961 747.000
62.81955 740.000
62.83950 752.000
62.85945 704.000
62.87940 725.000
62.89934 806.000
62.91929 864.000
62.93924 944.000
62.95918 1054.000
62.97913 1023.000
62.99908 936.000
63.01902 789.000
63.03897 644.000
63.05892 611.000
63.07887 546.000
63.09881 564.000
63.11876 662.000
63.13871 649.000
63.15865 619.000
63.17860 580.000
63.19855 487.000
63.21849 443.000
63.23844 378.000
63.25839 390.000
63.27833 372.000
63.29828 339.000
63.31823 360.000
63.33818 329.000
63.35812 333.000
63.37807 323.000
63.39802 302.000
63.41796 332.000
63.43791 295.000
63.45786 320.000
63.47780 313.000
63.49775 352.000
63.51770 293.000
63.53765 287.000
63.55759 329.000
63.57754 301.000
63.59749 317.000
63.61743 304.000
63.63738 329.000
63.65733 294.000
63.67727 291.000
63.69722 329.000
63.71717 355.000
63.73712 280.000
63.75706 341.000
63.77701 277.000
63.79696 318.000
63.81690 318.000
63.83685 292.000
63.85680 311.000
63.87674 312.000
63.89669 263.000
63.91664 301.000
63.93658 299.000
63.95653 277.000
63.97648 296.000
63.99643 281.000
64.01637 276.000
64.03632 311.000
64.05627 308.000
64.07621 305.000
64.09616 310.000
64.11611 279.000
64.13605 295.000
64.15600 306.000
64.17595 295.000
64.19590 313.000
64.21584 308.000
64.23579 285.000
64.25574 314.000
64.27568 268.000
64.29563 284.000
64.31558 292.000
64.33552 309.000
64.35547 274.000
64.37542 268.000
64.39536 339.000
64.41531 305.000
64.43526 295.000
64.45521 271.000
64.47515 275.000
64.49510 304.000
64.51505 290.000
64.53499 316.000
64.55494 270.000
64.57489 333.000
64.59483 302.000
64.61478 319.000
64.63473 295.000
64.65468 287.000
64.67462 307.000
64.69457 295.000
64.71452 294.000
64.73446 279.000
64.75441 314.000
64.77436 284.000
64.79430 260.000
64.81425 296.000
64.83420 339.000
64.85414 301.000
64.87409 267.000
64.89404 277.000
64.91399 287.000
64.93393 294.000
64.95388 310.000
64.97383 301.000
64.99377 328.000
65.01372 290.000
65.03367 282.000
65.05361 310.000
65.07356 326.000
65.09351 298.000
65.11346 337.000
65.13340 309.000
65.15335 351.000
65.17330 290.000
65.19324 333.000
65.21319 341.000
65.23314 296.000
65.25308 329.000
65.27303 299.000
65.29298 352.000
65.31293 311.000
65.33287 350.000
65.35282 325.000
65.37277 328.000
65.39271 356.000
65.41266 345.000
65.43261 358.000
65.45255 332.000
65.47250 367.000
65.49245 335.000
65.51239 366.000
65.53234 373.000
65.55229 377.000
65.57224 378.000
65.59218 405.000
65.61213 395.000
65.63208 389.000
65.65202 383.000
65.67197 368.000
65.69192 418.000
65.71186 382.000
65.73181 384.000
65.75176 415.000
65.77171 408.000
65.79165 342.000
65.81160 421.000
65.83155 352.000
65.85149 353.000
65.87144 349.000
65.89139 368.000
65.91133 363.000
65.93128 336.000
65.95123 322.000
65.97117 306.000
65.99112 407.000
66.01107 359.000
66.03102 334.000
66.05096 333.000
66.07091 357.000
66.09086 373.000
66.11080 357.000
66.13075 342.000
66.15070 335.000
66.17064 348.000
66.19059 343.000
66.21054 409.000
66.23049 336.000
66.25043 368.000
66.27038 388.000
66.29033 394.000
66.31027 371.000
66.33022 395.000
66.35017 430.000
66.37011 384.000
66.39006 448.000
66.41001 445.000
66.42995 434.000
66.44990 415.000
66.46985 437.000
66.48980 409.000
66.50974 390.000
66.52969 381.000
66.54964 400.000
66.56958 351.000
66.58953 341.000
66.60948 372.000
66.62942 361.000
66.64937 393.000
66.66932 371.000
66.68927 331.000
66.70921 347.000
66.72916 317.000
66.74911 314.000
66.76905 308.000
66.78900 295.000
66.80895 328.000
66.82889 312.000
66.84884 311.000
66.86879 317.000
66.88874 325.000
66.90868 288.000
66.92863 287.000
66.94858 291.000
66.96852 306.000
66.98847 300.000
67.00842 289.000
67.02836 321.000
67.04831 319.000
67.06826 284.000
67.08820 298.000
67.10815 301.000
67.12810 315.000
67.14805 315.000
67.16799 278.000
67.18794 308.000
67.20789 320.000
67.22783 317.000
67.24778 294.000
67.26773 297.000
67.28767 303.000
67.30762 317.000
67.32757 268.000
67.34752 324.000
67.36746 314.000
67.38741 304.000
67.40736 305.000
67.42730 339.000
67.44725 332.000
67.46720 316.000
67.48714 327.000
67.50709 297.000
67.52704 336.000
67.54698 325.000
67.56693 333.000
67.58688 327.000
67.60683 298.000
67.62677 359.000
67.64672 317.000
67.66667 340.000
67.68661 316.000
67.70656 341.000
67.72651 334.000
67.74645 383.000
67.76640 351.000
67.78635 370.000
67.80630 376.000
67.82624 366.000
67.84619 417.000
67.86614 404.000
67.88608 418.000
67.90603 403.000
67.92598 425.000
67.94592 404.000
67.96587 403.000
67.98582 419.000
68.00576 411.000
68.02571 422.000
68.04566 411.000
68.06561 422.000
68.08555 383.000
68.10550 376.000
68.12545 377.000
68.14539 367.000
68.16534 385.000
68.18529 363.000
68.20523 361.000
68.22518 360.000
68.24513 346.000
68.26508 340.000
68.28502 298.000
68.30497 336.000
68.32492 342.000
68.34486 305.000
68.36481 319.000
68.38476 316.000
68.40470 329.000
68.42465 287.000
68.44460 324.000
68.46455 323.000
68.48449 298.000
68.50444 315.000
68.52439 315.000
68.54433 279.000
68.56428 306.000
68.58423 315.000
68.60417 309.000
68.62412 304.000
68.64407 271.000
68.66401 309.000
68.68396 333.000
68.70391 301.000
68.72386 300.000
68.74380 288.000
68.76375 313.000
68.78370 300.000
68.80364 279.000
68.82359 277.000
68.84354 293.000
68.86348 286.000
68.88343 309.000
68.90338 281.000
68.92333 319.000
68.94327 262.000
68.96322 263.000
68.98317 291.000
69.00311 286.000
69.02306 299.000
69.04301 292.000
69.06295 268.000
69.08290 258.000
69.10285 299.000
69.12279 272.000
69.14274 292.000
69.16269 294.000
69.18264 288.000
69.20258 300.000
69.22253 297.000
69.24248 271.000
69.26242 286.000
69.28237 327.000
69.30232 319.000
69.32226 272.000
69.34221 298.000
69.36216 290.000
69.38211 248.000
69.40205 301.000
69.42200 275.000
69.44195 276.000
69.46189 267.000
69.48184 291.000
69.50179 285.000
69.52173 294.000
69.54168 286.000
69.56163 288.000
69.58157 295.000
69.60152 283.000
69.62147 278.000
69.64142 275.000
69.66136 305.000
69.68131 290.000
69.70126 285.000
69.72120 283.000
69.74115 288.000
69.76110 280.000
69.78104 278.000
69.80099 272.000
69.82094 290.000
69.84089 290.000
69.86083 291.000
69.88078 270.000
69.90073 285.000
69.92067 313.000
69.94062 287.000
69.96057 259.000
69.98051 286.000
70.00046 313.000
70.02041 281.000
70.04035 264.000
70.06030 298.000
70.08025 306.000
70.10020 281.000
70.12014 281.000
70.14009 276.000
70.16004 285.000
70.17998 260.000
70.19993 289.000
70.21988 284.000
70.23982 253.000
70.25977 276.000
70.27972 312.000
70.29967 266.000
70.31961 274.000
70.33956 288.000
70.35951 314.000
70.37945 289.000
70.39940 288.000
70.41935 296.000
70.43929 317.000
70.45924 281.000
70.47919 308.000
70.49914 295.000
70.51908 287.000
70.53903 301.000
70.55898 309.000
70.57892 248.000
70.59887 308.000
70.61882 280.000
70.63876 293.000
70.65871 293.000
70.67866 265.000
70.69860 266.000
70.71855 300.000
70.73850 269.000
70.75845 287.000
70.77839 239.000
70.79834 283.000
70.81829 272.000
70.83823 295.000
70.85818 286.000
70.87813 303.000
70.89807 281.000
70.91802 302.000
70.93797 304.000
70.95792 275.000
70.97786 305.000
70.99781 273.000
71.01776 288.000
71.03770 272.000
71.05765 275.000
71.07760 309.000
71.09754 318.000
71.11749 284.000
71.13744 272.000
71.15738 250.000
71.17733 301.000
71.19728 306.000
71.21723 311.000
71.23717 285.000
71.25712 283.000
71.27707 291.000
71.29701 277.000
71.31696 312.000
71.33691 315.000
71.35685 281.000
71.37680 344.000
71.39675 331.000
71.41670 330.000
71.43664 335.000
71.45659 333.000
71.47654 312.000
71.49648 344.000
71.51643 338.000
71.53638 287.000
71.55632 327.000
71.57627 302.000
71.59622 334.000
71.61616 285.000
71.63611 293.000
71.65606 327.000
71.67601 325.000
71.69595 306.000
71.71590 321.000
71.73585 327.000
71.75579 286.000
71.77574 277.000
71.79569 305.000
71.81563 337.000
71.83558 339.000
71.85553 297.000
71.87548 282.000
71.89542 298.000
71.91537 283.000
71.93532 299.000
71.95526 341.000
71.97521 270.000
71.99516 269.000
72.01510 297.000
72.03505 276.000
72.05500 277.000
72.07495 285.000
72.09489 286.000
72.11484 302.000
72.13479 299.000
72.15473 292.000
72.17468 288.000
72.19463 328.000
72.21457 310.000
72.23452 301.000
72.25447 301.000
72.27441 318.000
72.29436 324.000
72.31431 359.000
72.33426 367.000
72.35420 355.000
72.37415 354.000
72.39410 350.000
72.41404 352.000
72.43399 352.000
72.45394 324.000
72.47388 346.000
72.49383 333.000
72.51378 341.000
72.53373 337.000
72.55367 354.000
72.57362 351.000
72.59357 276.000
72.61351 318.000
72.63346 326.000
72.65341 330.000
72.67335 336.000
72.69330 325.000
72.71325 351.000
72.73319 304.000
72.75314 338.000
72.77309 294.000
72.79304 266.000
72.81298 305.000
72.83293 271.000
72.85288 298.000
72.87282 308.000
72.89277 285.000
72.91272 285.000
72.93266 289.000
72.95261 284.000
72.97256 298.000
72.99251 286.000
73.01245 336.000
73.03240 312.000
73.05235 338.000
73.07229 293.000
73.09224 272.000
73.11219 315.000
73.13213 318.000
73.15208 302.000
73.17203 301.000
73.19197 275.000
73.21192 297.000
73.23187 288.000
73.25182 264.000
73.27176 289.000
73.29171 327.000
73.31166 276.000
73.33160 258.000
73.35155 287.000
73.37150 300.000
73.39144 291.000
73.41139 289.000
73.43134 301.000
73.45129 314.000
73.47123 302.000
73.49118 299.000
73.51113 311.000
73.53107 291.000
73.55102 294.000
73.57097 293.000
73.59091 300.000
73.61086 309.000
73.63081 289.000
73.65076 328.000
73.67070 321.000
73.69065 308.000
73.71060 299.000
73.73054 317.000
73.75049 311.000
73.77044 277.000
73.79038 259.000
73.81033 291.000
73.83028 269.000
73.85022 324.000
73.87017 302.000
73.89012 272.000
73.91007 315.000
73.93001 281.000
73.94996 324.000
73.96991 295.000
73.98985 246.000
74.00980 288.000
74.02975 285.000
74.04969 269.000
74.06964 315.000
74.08959 300.000
74.10954 295.000
74.12948 282.000
74.14943 305.000
74.16938 282.000
74.18932 278.000
74.20927 315.000
74.22922 318.000
74.24916 342.000
74.26911 316.000
74.28906 298.000
74.30900 329.000
74.32895 294.000
74.34890 340.000
74.36885 364.000
74.38879 301.000
74.40874 328.000
74.42869 362.000
74.44863 361.000
74.46858 402.000
74.48853 451.000
74.50847 423.000
74.52842 449.000
74.54837 446.000
74.56832 418.000
74.58826 367.000
74.60821 339.000
74.62816 393.000
74.64810 388.000
74.66805 406.000
74.68800 361.000
74.70794 457.000
74.72789 393.000
74.74784 403.000
74.76778 426.000
74.78773 389.000
74.80768 370.000
74.82763 394.000
74.84757 396.000
74.86752 420.000
74.88747 383.000
74.90741 431.000
74.92736 403.000
74.94731 415.000
74.96725 409.000
74.98720 411.000
75.00715 442.000
75.02710 421.000
75.04704 422.000
75.06699 499.000
75.08694 454.000
75.10688 471.000
75.12683 502.000
75.14678 518.000
75.16672 493.000
75.18667 492.000
75.20662 468.000
75.22657 461.000
75.24651 510.000
75.26646 461.000
75.28641 483.000
75.30635 434.000
75.32630 411.000
75.34625 392.000
75.36619 416.000
75.38614 384.000
75.40609 466.000
75.42603 373.000
75.44598 411.000
75.46593 425.000
75.48588 400.000
75.50582 387.000
75.52577 428.000
75.54572 398.000
75.56566 400.000
75.58561 405.000
75.60556 354.000
75.62550 319.000
75.64545 335.000
75.66540 350.000
75.68535 328.000
75.70529 318.000
75.72524 375.000
75.74519 306.000
75.76513 312.000
75.78508 314.000
75.80503 335.000
75.82497 293.000
75.84492 319.000
75.86487 315.000
75.88481 303.000
75.90476 327.000
75.92471 350.000
75.94466 274.000
75.96460 281.000
75.98455 295.000
76.00450 322.000
76.02444 306.000
76.04439 265.000
76.06434 298.000
76.08428 279.000
76.10423 283.000
76.12418 290.000
76.14413 308.000
76.16407 277.000
76.18402 319.000
76.20397 280.000
76.22391 264.000
76.24386 252.000
76.26381 274.000
76.28375 301.000
76.30370 300.000
76.32365 264.000
76.34359 305.000
76.36354 284.000
76.38349 275.000
76.40344 286.000
76.42338 280.000
76.44333 268.000
76.46328 285.000
76.48322 277.000
76.50317 290.000
76.52312 249.000
76.54306 276.000
76.56301 279.000
76.58296 312.000
76.60291 299.000
76.62285 293.000
76.64280 283.000
76.66275 284.000
76.68269 275.000
76.70264 283.000
76.72259 265.000
76.74253 282.000
76.76248 290.000
76.78243 286.000
76.80238 305.000
76.82232 251.000
76.84227 274.000
76.86222 304.000
76.88216 317.000
76.90211 268.000
76.92206 293.000
76.94200 274.000
76.96195 295.000
76.98190 277.000
77.00184 327.000
77.02179 307.000
77.04174 317.000
77.06169 272.000
77.08163 276.000
77.10158 288.000
77.12153 329.000
77.14147 308.000
77.16142 307.000
77.18137 308.000
77.20131 281.000
77.22126 280.000
77.24121 261.000
77.26116 303.000
77.28110 261.000
77.30105 330.000
77.32100 280.000
77.34094 254.000
77.36089 275.000
77.38084 285.000
77.40078 308.000
77.42073 290.000
77.44068 332.000
77.46062 279.000
77.48057 267.000
77.50052 266.000
77.52047 270.000
77.54041 298.000
77.56036 285.000
77.58031 293.000
77.60025 312.000
77.62020 276.000
77.64015 274.000
77.66009 305.000
77.68004 281.000
77.69999 276.000
77.71994 313.000
77.73988 302.000
77.75983 297.000
77.77978 292.000
77.79972 292.000
77.81967 298.000
77.83962 306.000
77.85956 278.000
77.87951 304.000
77.89946 289.000
77.91940 265.000
77.93935 339.000
77.95930 278.000
77.97925 263.000
77.99919 281.000
78.01914 276.000
78.03909 309.000
78.05903 281.000
78.07898 285.000
78.09893 275.000
78.11887 285.000
78.13882 287.000
78.15877 285.000
78.17872 250.000
78.19866 272.000
78.21861 271.000
78.23856 273.000
78.25850 299.000
78.27845 294.000
78.29840 294.000
78.31834 303.000
78.33829 274.000
78.35824 256.000
78.37819 296.000
78.39813 265.000
78.41808 291.000
78.43803 302.000
78.45797 257.000
78.47792 290.000
78.49787 287.000
78.51781 297.000
78.53776 311.000
78.55771 284.000
78.57765 316.000
78.59760 307.000
78.61755 332.000
78.63750 284.000
78.65744 312.000
78.67739 303.000
78.69734 296.000
78.71728 300.000
78.73723 279.000
78.75718 305.000
78.77712 321.000
78.79707 304.000
78.81702 346.000
78.83697 318.000
78.85691 333.000
78.87686 348.000
78.89681 336.000
78.91675 396.000
78.93670 352.000
78.95665 371.000
78.97659 415.000
78.99654 389.000
79.01649 387.000
79.03643 363.000
79.05638 384.000
79.07633 447.000
79.09628 389.000
79.11622 382.000
79.13617 407.000
79.15612 386.000
79.17606 387.000
79.19601 382.000
79.21596 385.000
79.23590 396.000
79.25585 371.000
79.27580 362.000
79.29575 359.000
79.31569 340.000
79.33564 374.000
79.35559 366.000
79.37553 368.000
79.39548 381.000
79.41543 328.000
79.43537 351.000
79.45532 319.000
79.47527 334.000
79.49521 367.000
79.51516 365.000
79.53511 355.000
79.55506 341.000
79.57500 288.000
79.59495 325.000
79.61490 297.000
79.63484 308.000
79.65479 264.000
79.67474 325.000
79.69468 307.000
79.71463 317.000
79.73458 332.000
79.75453 326.000
79.77447 300.000
79.79442 293.000
79.81437 289.000
79.83431 319.000
79.85426 314.000
79.87421 295.000
79.89415 306.000
79.91410 303.000
79.93405 275.000
79.95399 278.000
79.97394 305.000
79.99389 285.000
80.01384 263.000
80.03378 291.000
80.05373 288.000
80.07368 291.000
80.09362 264.000
80.11357 268.000
80.13352 262.000
80.15346 284.000
80.17341 249.000
80.19336 270.000
80.21331 278.000
80.23325 282.000
80.25320 261.000
80.27315 288.000
80.29309 301.000
80.31304 281.000
80.33299 299.000
80.35293 302.000
80.37288 306.000
80.39283 274.000
80.41278 260.000
80.43272 271.000
80.45267 296.000
80.47262 262.000
80.49256 274.000
80.51251 310.000
80.53246 250.000
80.55240 292.000
80.57235 299.000
80.59230 293.000
80.61224 291.000
80.63219 273.000
80.65214 303.000
80.67209 289.000
80.69203 285.000
80.71198 275.000
80.73193 293.000
80.75187 267.000
80.77182 349.000
80.79177 283.000
80.81171 311.000
80.83166 280.000
80.85161 289.000
80.87156 284.000
80.89150 267.000
80.91145 250.000
80.93140 279.000
80.95134 280.000
80.97129 301.000
80.99124 276.000
81.01118 285.000
81.03113 271.000
81.05108 288.000
81.07102 265.000
81.09097 301.000
81.11092 267.000
81.13087 275.000
81.15081 278.000
81.17076 282.000
81.19071 287.000
81.21065 277.000
81.23060 297.000
81.25055 292.000
81.27049 282.000
81.29044 274.000
81.31039 287.000
81.33034 263.000
81.35028 301.000
81.37023 261.000
81.39018 270.000
81.41012 255.000
81.43007 273.000
81.45002 248.000
81.46996 261.000
81.48991 271.000
81.50986 279.000
81.52980 263.000
81.54975 274.000
81.56970 273.000
81.58965 274.000
81.60959 273.000
81.62954 296.000
81.64949 305.000
81.66943 290.000
81.68938 265.000
81.70933 276.000
81.72927 311.000
81.74922 261.000
81.76917 291.000
81.78912 317.000
81.80906 287.000
81.82901 276.000
81.84896 274.000
81.86890 306.000
81.88885 286.000
81.90880 289.000
81.92874 279.000
81.94869 256.000
81.96864 259.000
81.98859 292.000
82.00853 231.000
82.02848 293.000
82.04843 258.000
82.06837 305.000
82.08832 284.000
82.10827 294.000
82.12821 270.000
82.14816 276.000
82.16811 283.000
82.18805 256.000
82.20800 286.000
82.22795 295.000
82.24790 306.000
82.26784 288.000
82.28779 279.000
82.30774 326.000
82.32768 300.000
82.34763 296.000
82.36758 289.000
82.38752 299.000
82.40747 311.000
82.42742 306.000
82.44737 303.000
82.46731 327.000
82.48726 297.000
82.50721 338.000
82.52715 317.000
82.54710 311.000
82.56705 338.000
82.58699 311.000
82.60694 329.000
82.62689 348.000
82.64683 309.000
82.66678 321.000
82.68673 352.000
82.70668 330.000
82.72662 350.000
82.74657 321.000
82.76652 303.000
82.78646 333.000
82.80641 332.000
82.82636 330.000
82.84630 328.000
82.86625 291.000
82.88620 377.000
82.90615 335.000
82.92609 350.000
82.94604 308.000
82.96599 303.000
82.98593 342.000
83.00588 326.000
83.02583 288.000
83.04577 328.000
83.06572 299.000
83.08567 293.000
83.10561 294.000
83.12556 321.000
83.14551 275.000
83.16546 290.000
83.18540 288.000
83.20535 272.000
83.22530 263.000
83.24524 288.000
83.26519 325.000
83.28514 331.000
83.30508 291.000
83.32503 321.000
83.34498 296.000
83.36493 280.000
83.38487 293.000
83.40482 310.000
83.42477 303.000
83.44471 274.000
83.46466 275.000
83.48461 273.000
83.50455 311.000
83.52450 322.000
83.54445 287.000
83.56440 296.000
83.58434 312.000
83.60429 284.000
83.62424 338.000
83.64418 347.000
83.66413 307.000
83.68408 290.000
83.70402 306.000
83.72397 315.000
83.74392 280.000
83.76386 289.000
83.78381 302.000
83.80376 268.000
83.82371 315.000
83.84365 304.000
83.86360 309.000
83.88355 308.000
83.90349 306.000
83.92344 296.000
83.94339 287.000
83.96333 280.000
83.98328 308.000
84.00323 303.000
84.02318 311.000
84.04312 301.000
84.06307 288.000
84.08302 263.000
84.10296 302.000
84.12291 296.000
84.14286 291.000
84.16280 296.000
84.18275 284.000
84.20270 290.000
84.22264 275.000
84.24259 278.000
84.26254 295.000
84.28249 299.000
84.30243 249.000
84.32238 293.000
84.34233 279.000
84.36227 293.000
84.38222 286.000
84.40217 301.000
84.42211 309.000
84.44206 323.000
84.46201 284.000
84.48196 295.000
84.50190 273.000
84.52185 293.000
84.54180 286.000
84.56174 268.000
84.58169 271.000
84.60164 297.000
84.62158 299.000
84.64153 281.000
84.66148 274.000
84.68142 268.000
84.70137 271.000
84.72132 266.000
84.74127 271.000
84.76121 261.000
84.78116 272.000
84.80111 280.000
84.82105 283.000
84.84100 287.000
84.86095 277.000
84.88089 269.000
84.90084 260.000
84.92079 277.000
84.94074 278.000
84.96068 255.000
84.98063 279.000
85.00058 277.000
85.02052 280.000
85.04047 321.000
85.06042 268.000
85.08036 258.000
85.10031 225.000
85.12026 277.000
85.14021 260.000
85.16015 265.000
85.18010 302.000
85.20005 279.000
85.21999 304.000
85.23994 290.000
85.25989 282.000
85.27983 273.000
85.29978 272.000
85.31973 280.000
85.33967 327.000
85.35962 229.000
85.37957 283.000
85.39952 261.000
85.41946 257.000
85.43941 285.000
85.45936 269.000
85.47930 299.000
85.49925 266.000
85.51920 255.000
85.53914 304.000
85.55909 275.000
85.57904 269.000
85.59899 271.000
85.61893 291.000
85.63888 275.000
85.65883 260.000
85.67877 313.000
85.69872 267.000
85.71867 262.000
85.73861 314.000
85.75856 243.000
85.77851 294.000
85.79845 271.000
85.81840 270.000
85.83835 298.000
85.85830 291.000
85.87824 263.000
85.89819 281.000
85.91814 272.000
85.93808 306.000
85.95803 304.000
85.97798 278.000
85.99792 282.000
86.01787 248.000
86.03782 261.000
86.05777 269.000
86.07771 284.000
86.09766 252.000
86.11761 293.000
86.13755 265.000
86.15750 278.000
86.17745 296.000
86.19739 285.000
86.21734 281.000
86.23729 305.000
86.25723 287.000
86.27718 275.000
86.29713 295.000
86.31708 283.000
86.33702 302.000
86.35697 286.000
86.37692 284.000
86.39686 289.000
86.41681 264.000
86.43676 298.000
86.45670 284.000
86.47665 260.000
86.49660 268.000
86.51655 279.000
86.53649 313.000
86.55644 271.000
86.57639 271.000
86.59633 240.000
86.61628 268.000
86.63623 306.000
86.65617 302.000
86.67612 286.000
86.69607 254.000
86.71602 254.000
86.73596 304.000
86.75591 304.000
86.77586 251.000
86.79580 279.000
86.81575 295.000
86.83570 265.000
86.85564 274.000
86.87559 318.000
86.89554 281.000
86.91548 269.000
86.93543 304.000
86.95538 310.000
86.97533 286.000
86.99527 303.000
87.01522 298.000
87.03517 282.000
87.05511 295.000
87.07506 280.000
87.09501 281.000
87.11495 264.000
87.13490 283.000
87.15485 298.000
87.17480 274.000
87.19474 285.000
87.21469 306.000
87.23464 295.000
87.25458 314.000
87.27453 311.000
87.29448 296.000
87.31442 287.000
87.33437 284.000
87.35432 352.000
87.37426 300.000
87.39421 307.000
87.41416 339.000
87.43411 319.000
87.45405 336.000
87.47400 323.000
87.49395 294.000
87.51389 258.000
87.53384 297.000
87.55379 316.000
87.57373 293.000
87.59368 310.000
87.61363 309.000
87.63358 322.000
87.65352 301.000
87.67347 301.000
87.69342 300.000
87.71336 317.000
87.73331 304.000
87.75326 318.000
87.77320 287.000
87.79315 265.000
87.81310 293.000
87.83304 307.000
87.85299 303.000
87.87294 274.000
87.89289 261.000
87.91283 271.000
87.93278 280.000
87.95273 290.000
87.97267 290.000
87.99262 267.000
88.01257 270.000
88.03251 288.000
88.05246 266.000
88.07241 282.000
88.09236 270.000
88.11230 268.000
88.13225 276.000
88.15220 280.000
88.17214 291.000
88.19209 291.000
88.21204 267.000
88.23198 295.000
88.25193 269.000
88.27188 270.000
88.29183 297.000
88.31177 273.000
88.33172 268.000
88.35167 280.000
88.37161 272.000
88.39156 300.000
88.41151 291.000
88.43145 279.000
88.45140 280.000
88.47135 325.000
88.49129 274.000
88.51124 293.000
88.53119 291.000
88.55114 295.000
88.57108 258.000
88.59103 269.000
88.61098 283.000
88.63092 282.000
88.65087 270.000
88.67082 277.000
88.69076 274.000
88.71071 271.000
88.73066 278.000
88.75061 255.000
88.77055 325.000
88.79050 280.000
88.81045 301.000
88.83039 304.000
88.85034 309.000
88.87029 295.000
88.89023 274.000
88.91018 283.000
88.93013 267.000
88.95007 292.000
88.97002 277.000
88.98997 300.000
89.00992 325.000
89.02986 244.000
89.04981 306.000
89.06976 290.000
89.08970 319.000
89.10965 285.000
89.12960 284.000
89.14954 284.000
89.16949 279.000
89.18944 293.000
89.20939 265.000
89.22933 320.000
89.24928 297.000
89.26923 274.000
89.28917 278.000
89.30912 290.000
89.32907 283.000
89.34901 280.000
89.36896 273.000
89.38891 295.000
89.40885 294.000
89.42880 317.000
89.44875 296.000
89.46870 254.000
89.48864 278.000
89.50859 283.000
89.52854 272.000
89.54848 273.000
89.56843 299.000
89.58838 296.000
89.60832 268.000
89.62827 282.000
89.64822 286.000
89.66817 272.000
89.68811 313.000
89.70806 297.000
89.72801 316.000
89.74795 300.000
89.76790 304.000
89.78785 233.000
89.80779 285.000
89.82774 323.000
89.84769 257.000
89.86764 290.000
89.88758 326.000
89.90753 309.000
89.92748 337.000
89.94742 291.000
89.96737 289.000
89.98732 263.000
90.00726 291.000
