10.00000 187.000
10.01995 223.000
10.03989 212.000
10.05984 209.000
10.07979 202.000
10.09973 219.000
10.11968 211.000
10.13963 201.000
10.15958 218.000
10.17952 187.000
10.19947 203.000
10.21942 222.000
10.23936 237.000
10.25931 182.000
10.27926 192.000
10.29920 203.000
10.31915 193.000
10.33910 201.000
10.35905 230.000
10.37899 219.000
10.39894 196.000
10.41889 218.000
10.43883 203.000
10.45878 213.000
10.47873 216.000
10.49867 193.000
10.51862 189.000
10.53857 208.000
10.55851 212.000
10.57846 199.000
10.59841 186.000
10.61836 211.000
10.63830 199.000
10.65825 191.000
10.67820 219.000
10.69814 224.000
10.71809 211.000
10.73804 223.000
10.75798 230.000
10.77793 208.000
10.79788 210.000
10.81783 222.000
10.83777 196.000
10.85772 217.000
10.87767 210.000
10.89761 199.000
10.91756 235.000
10.93751 212.000
10.95745 191.000
10.97740 194.000
10.99735 203.000
11.01730 181.000
11.03724 211.000
11.05719 200.000
11.07714 216.000
11.09708 216.000
11.11703 233.000
11.13698 231.000
11.15692 218.000
11.17687 222.000
11.19682 213.000
11.21676 226.000
11.23671 191.000
11.25666 208.000
11.27661 200.000
11.29655 189.000
11.31650 203.000
11.33645 232.000
11.35639 217.000
11.37634 211.000
11.39629 209.000
11.41623 223.000
11.43618 205.000
11.45613 213.000
11.47608 223.000
11.49602 202.000
11.51597 231.000
11.53592 195.000
11.55586 222.000
11.57581 239.000
11.59576 201.000
11.61570 210.000
11.63565 215.000
11.65560 209.000
11.67554 210.000
11.69549 210.000
11.71544 230.000
11.73539 215.000
11.75533 211.000
11.77528 216.000
11.79523 221.000
11.81517 209.000
11.83512 193.000
11.85507 211.000
11.87501 213.000
11.89496 211.000
11.91491 208.000
11.93486 200.000
11.95480 230.000
11.97475 217.000
11.99470 207.000
12.01464 207.000
12.03459 205.000
12.05454 207.000
12.07448 207.000
12.09443 218.000
12.11438 217.000
12.13432 229.000
12.15427 248.000
12.17422 209.000
12.19417 212.000
12.21411 202.000
12.23406 233.000
12.25401 220.000
12.27395 198.000
12.29390 223.000
12.31385 212.000
12.33379 191.000
12.35374 209.000
12.37369 209.000
12.39364 210.000
12.41358 212.000
12.43353 214.000
12.45348 221.000
12.47342 222.000
12.49337 234.000
12.51332 201.000
12.53326 190.000
12.55321 211.000
12.57316 203.000
12.59311 228.000
12.61305 208.000
12.63300 206.000
12.65295 217.000
12.67289 210.000
12.69284 206.000
12.71279 230.000
12.73273 221.000
12.75268 192.000
12.77263 231.000
12.79257 202.000
12.81252 209.000
12.83247 215.000
12.85242 222.000
12.87236 193.000
12.89231 222.000
12.91226 223.000
12.93220 236.000
12.95215 211.000
12.97210 188.000
12.99204 209.000
13.01199 208.000
13.03194 213.000
13.05189 222.000
13.07183 193.000
13.09178 201.000
13.11173 209.000
13.13167 183.000
13.15162 225.000
13.17157 207.000
13.19151 231.000
13.21146 204.000
13.23141 241.000
13.25135 201.000
13.27130 198.000
13.29125 196.000
13.31120 212.000
13.33114 208.000
13.35109 221.000
13.37104 220.000
13.39098 223.000
13.41093 200.000
13.43088 215.000
13.45082 219.000
13.47077 212.000
13.49072 184.000
13.51067 200.000
13.53061 222.000
13.55056 223.000
13.57051 212.000
13.59045 175.000
13.61040 240.000
13.63035 215.000
13.65029 224.000
13.67024 228.000
13.69019 197.000
13.71013 206.000
13.73008 220.000
13.75003 242.000
13.76998 216.000
13.78992 236.000
13.80987 223.000
13.82982 210.000
13.84976 205.000
13.86971 212.000
13.88966 189.000
13.90960 192.000
13.92955 271.000
13.94950 220.000
13.96945 205.000
13.98939 199.000
14.00934 203.000
14.02929 228.000
14.04923 220.000
14.06918 217.000
14.08913 205.000
14.10907 212.000
14.12902 217.000
14.14897 231.000
14.16892 214.000
14.18886 209.000
14.20881 224.000
14.22876 219.000
14.24870 195.000
14.26865 212.000
14.28860 219.000
14.30854 232.000
14.32849 245.000
14.34844 203.000
14.36838 210.000
14.38833 217.000
14.40828 209.000
14.42823 221.000
14.44817 212.000
14.46812 223.000
14.48807 208.000
14.50801 222.000
14.52796 224.000
14.54791 231.000
14.56785 240.000
14.58780 225.000
14.60775 236.000
14.62770 204.000
14.64764 218.000
14.66759 222.000
14.68754 215.000
14.70748 207.000
14.72743 208.000
14.74738 249.000
14.76732 230.000
14.78727 211.000
14.80722 204.000
14.82716 224.000
14.84711 232.000
14.86706 241.000
14.88701 193.000
14.90695 213.000
14.92690 197.000
14.94685 229.000
14.96679 212.000
14.98674 236.000
15.00669 239.000
15.02663 207.000
15.04658 223.000
15.06653 213.000
15.08648 208.000
15.10642 224.000
15.12637 209.000
15.14632 214.000
15.16626 241.000
15.18621 220.000
15.20616 210.000
15.22610 196.000
15.24605 201.000
15.26600 233.000
15.28594 224.000
15.30589 207.000
15.32584 220.000
15.34579 216.000
15.36573 215.000
15.38568 238.000
15.40563 226.000
15.42557 237.000
15.44552 208.000
15.46547 240.000
15.48541 226.000
15.50536 231.000
15.52531 251.000
15.54526 226.000
15.56520 202.000
15.58515 237.000
15.60510 201.000
15.62504 214.000
15.64499 202.000
15.66494 210.000
15.68488 262.000
15.70483 222.000
15.72478 206.000
15.74472 230.000
15.76467 242.000
15.78462 238.000
15.80457 227.000
15.82451 219.000
15.84446 222.000
15.86441 233.000
15.88435 230.000
15.90430 236.000
15.92425 241.000
15.94419 205.000
15.96414 249.000
15.98409 231.000
16.00404 222.000
16.02398 234.000
16.04393 209.000
16.06388 198.000
16.08382 222.000
16.10377 246.000
16.12372 229.000
16.14366 230.000
16.16361 244.000
16.18356 243.000
16.20351 241.000
16.22345 218.000
16.24340 227.000
16.26335 236.000
16.28329 232.000
16.30324 216.000
16.32319 219.000
16.34313 200.000
16.36308 218.000
16.38303 212.000
16.40297 257.000
16.42292 234.000
16.44287 228.000
16.46282 256.000
16.48276 260.000
16.50271 237.000
16.52266 261.000
16.54260 239.000
16.56255 246.000
16.58250 254.000
16.60244 258.000
16.62239 240.000
16.64234 238.000
16.66229 263.000
16.68223 227.000
16.70218 250.000
16.72213 248.000
16.74207 222.000
16.76202 240.000
16.78197 246.000
16.80191 256.000
16.82186 258.000
16.84181 270.000
16.86175 280.000
16.88170 238.000
16.90165 246.000
16.92160 268.000
16.94154 245.000
16.96149 254.000
16.98144 274.000
17.00138 255.000
17.02133 259.000
17.04128 262.000
17.06122 267.000
17.08117 308.000
17.10112 267.000
17.12107 303.000
17.14101 294.000
17.16096 316.000
17.18091 312.000
17.20085 288.000
17.22080 265.000
17.24075 278.000
17.26069 266.000
17.28064 226.000
17.30059 244.000
17.32053 285.000
17.34048 263.000
17.36043 252.000
17.38038 263.000
17.40032 242.000
17.42027 251.000
17.44022 226.000
17.46016 249.000
17.48011 237.000
17.50006 240.000
17.52000 268.000
17.53995 233.000
17.55990 239.000
17.57985 241.000
17.59979 254.000
17.61974 241.000
17.63969 256.000
17.65963 223.000
17.67958 252.000
17.69953 233.000
17.71947 239.000
17.73942 216.000
17.75937 215.000
17.77932 237.000
17.79926 229.000
17.81921 249.000
17.83916 200.000
17.85910 212.000
17.87905 244.000
17.89900 213.000
17.91894 205.000
17.93889 234.000
17.95884 245.000
17.97878 249.000
17.99873 230.000
18.01868 253.000
18.03863 242.000
18.05857 237.000
18.07852 263.000
18.09847 231.000
18.11841 260.000
18.13836 213.000
18.15831 212.000
18.17825 242.000
18.19820 259.000
18.21815 214.000
18.23810 251.000
18.25804 239.000
18.27799 248.000
18.29794 219.000
18.31788 263.000
18.33783 299.000
18.35778 344.000
18.37772 391.000
18.39767 418.000
18.41762 334.000
18.43756 357.000
18.45751 284.000
18.47746 248.000
18.49741 271.000
18.51735 245.000
18.53730 216.000
18.55725 235.000
18.57719 266.000
18.59714 242.000
18.61709 257.000
18.63703 221.000
18.65698 234.000
18.67693 215.000
18.69688 260.000
18.71682 249.000
18.73677 203.000
18.75672 231.000
18.77666 232.000
18.79661 216.000
18.81656 249.000
18.83650 223.000
18.85645 235.000
18.87640 227.000
18.89634 240.000
18.91629 209.000
18.93624 228.000
18.95619 245.000
18.97613 266.000
18.99608 240.000
19.01603 236.000
19.03597 215.000
19.05592 236.000
19.07587 214.000
19.09581 255.000
19.11576 265.000
19.13571 243.000
19.15566 245.000
19.17560 238.000
19.19555 226.000
19.21550 247.000
19.23544 217.000
19.25539 212.000
19.27534 251.000
19.29528 232.000
19.31523 263.000
19.33518 247.000
19.35513 234.000
19.37507 229.000
19.39502 252.000
19.41497 238.000
19.43491 250.000
19.45486 218.000
19.47481 232.000
19.49475 246.000
19.51470 235.000
19.53465 249.000
19.55459 223.000
19.57454 267.000
19.59449 234.000
19.61444 257.000
19.63438 264.000
19.65433 260.000
19.67428 236.000
19.69422 243.000
19.71417 232.000
19.73412 270.000
19.75406 244.000
19.77401 222.000
19.79396 241.000
19.81391 246.000
19.83385 217.000
19.85380 255.000
19.87375 232.000
19.89369 254.000
19.91364 269.000
19.93359 257.000
19.95353 274.000
19.97348 257.000
19.99343 234.000
20.01337 234.000
20.03332 240.000
20.05327 290.000
20.07322 264.000
20.09316 298.000
20.11311 267.000
20.13306 248.000
20.15300 264.000
20.17295 264.000
20.19290 280.000
20.21284 254.000
20.23279 264.000
20.25274 264.000
20.27269 219.000
20.29263 240.000
20.31258 235.000
20.33253 288.000
20.35247 241.000
20.37242 276.000
20.39237 259.000
20.41231 251.000
20.43226 279.000
20.45221 286.000
20.47215 296.000
20.49210 316.000
20.51205 314.000
20.53200 277.000
20.55194 293.000
20.57189 302.000
20.59184 303.000
20.61178 316.000
20.63173 295.000
20.65168 313.000
20.67162 321.000
20.69157 326.000
20.71152 365.000
20.73147 343.000
20.75141 375.000
20.77136 346.000
20.79131 344.000
20.81125 331.000
20.83120 355.000
20.85115 333.000
20.87109 329.000
20.89104 351.000
20.91099 327.000
20.93094 342.000
20.95088 322.000
20.97083 392.000
20.99078 336.000
21.01072 297.000
21.03067 287.000
21.05062 299.000
21.07056 303.000
21.09051 299.000
21.11046 272.000
21.13040 271.000
21.15035 279.000
21.17030 253.000
21.19025 282.000
21.21019 253.000
21.23014 245.000
21.25009 260.000
21.27003 273.000
21.28998 290.000
21.30993 284.000
21.32987 281.000
21.34982 250.000
21.36977 266.000
21.38972 274.000
21.40966 264.000
21.42961 283.000
21.44956 266.000
21.46950 266.000
21.48945 292.000
21.50940 260.000
21.52934 263.000
21.54929 254.000
21.56924 307.000
21.58918 247.000
21.60913 256.000
21.62908 263.000
21.64903 273.000
21.66897 282.000
21.68892 234.000
21.70887 264.000
21.72881 278.000
21.74876 278.000
21.76871 258.000
21.78865 287.000
21.80860 249.000
21.82855 269.000
21.84850 271.000
21.86844 289.000
21.88839 253.000
21.90834 253.000
21.92828 277.000
21.94823 248.000
21.96818 273.000
21.98812 274.000
22.00807 257.000
22.02802 253.000
22.04796 278.000
22.06791 268.000
22.08786 276.000
22.10781 272.000
22.12775 267.000
22.14770 279.000
22.16765 274.000
22.18759 250.000
22.20754 231.000
22.22749 291.000
22.24743 252.000
22.26738 250.000
22.28733 265.000
22.30728 254.000
22.32722 251.000
22.34717 251.000
22.36712 249.000
22.38706 265.000
22.40701 266.000
22.42696 273.000
22.44690 253.000
22.46685 259.000
22.48680 279.000
22.50675 265.000
22.52669 255.000
22.54664 250.000
22.56659 247.000
22.58653 265.000
22.60648 268.000
22.62643 257.000
22.64637 261.000
22.66632 289.000
22.68627 287.000
22.70621 269.000
22.72616 245.000
22.74611 283.000
22.76606 271.000
22.78600 251.000
22.80595 251.000
22.82590 295.000
22.84584 276.000
22.86579 281.000
22.88574 272.000
22.90568 262.000
22.92563 308.000
22.94558 282.000
22.96553 256.000
22.98547 287.000
23.00542 294.000
23.02537 260.000
23.04531 260.000
23.06526 284.000
23.08521 256.000
23.10515 294.000
23.12510 264.000
23.14505 299.000
23.16499 282.000
23.18494 281.000
23.20489 273.000
23.22484 279.000
23.24478 283.000
23.26473 287.000
23.28468 277.000
23.30462 279.000
23.32457 266.000
23.34452 263.000
23.36446 262.000
23.38441 262.000
23.40436 282.000
23.42431 252.000
23.44425 290.000
23.46420 272.000
23.48415 274.000
23.50409 302.000
23.52404 288.000
23.54399 272.000
23.56393 256.000
23.58388 289.000
23.60383 255.000
23.62377 249.000
23.64372 276.000
23.66367 257.000
23.68362 281.000
23.70356 295.000
23.72351 265.000
23.74346 273.000
23.76340 266.000
23.78335 262.000
23.80330 304.000
23.82324 283.000
23.84319 267.000
23.86314 270.000
23.88309 280.000
23.90303 275.000
23.92298 301.000
23.94293 278.000
23.96287 285.000
23.98282 304.000
24.00277 285.000
24.02271 287.000
24.04266 313.000
24.06261 250.000
24.08256 302.000
24.10250 288.000
24.12245 285.000
24.14240 292.000
24.16234 303.000
24.18229 298.000
24.20224 284.000
24.22218 280.000
24.24213 297.000
24.26208 270.000
24.28202 286.000
24.30197 284.000
24.32192 300.000
24.34187 295.000
24.36181 311.000
24.38176 276.000
24.40171 314.000
24.42165 291.000
24.44160 309.000
24.46155 286.000
24.48149 299.000
24.50144 315.000
24.52139 320.000
24.54134 306.000
24.56128 281.000
24.58123 306.000
24.60118 320.000
24.62112 303.000
24.64107 329.000
24.66102 300.000
24.68096 301.000
24.70091 298.000
24.72086 311.000
24.74080 316.000
24.76075 280.000
24.78070 320.000
24.80065 324.000
24.82059 290.000
24.84054 332.000
24.86049 298.000
24.88043 307.000
24.90038 315.000
24.92033 300.000
24.94027 315.000
24.96022 309.000
24.98017 292.000
25.00012 307.000
25.02006 303.000
25.04001 275.000
25.05996 299.000
25.07990 325.000
25.09985 294.000
25.11980 280.000
25.13974 315.000
25.15969 304.000
25.17964 307.000
25.19958 314.000
25.21953 312.000
25.23948 337.000
25.25943 348.000
25.27937 325.000
25.29932 320.000
25.31927 311.000
25.33921 303.000
25.35916 307.000
25.37911 312.000
25.39905 334.000
25.41900 304.000
25.43895 334.000
25.45890 328.000
25.47884 312.000
25.49879 324.000
25.51874 330.000
25.53868 330.000
25.55863 320.000
25.57858 335.000
25.59852 341.000
25.61847 318.000
25.63842 309.000
25.65837 312.000
25.67831 312.000
25.69826 330.000
25.71821 300.000
25.73815 322.000
25.75810 324.000
25.77805 336.000
25.79799 349.000
25.81794 342.000
25.83789 327.000
25.85783 359.000
25.87778 365.000
25.89773 334.000
25.91768 348.000
25.93762 323.000
25.95757 332.000
25.97752 357.000
25.99746 347.000
26.01741 355.000
26.03736 342.000
26.05730 315.000
26.07725 344.000
26.09720 362.000
26.11715 347.000
26.13709 355.000
26.15704 352.000
26.17699 322.000
26.19693 364.000
26.21688 323.000
26.23683 372.000
26.25677 340.000
26.27672 351.000
26.29667 345.000
26.31661 366.000
26.33656 351.000
26.35651 344.000
26.37646 319.000
26.39640 331.000
26.41635 321.000
26.43630 368.000
26.45624 336.000
26.47619 323.000
26.49614 336.000
26.51608 348.000
26.53603 353.000
26.55598 379.000
26.57593 362.000
26.59587 343.000
26.61582 318.000
26.63577 350.000
26.65571 362.000
26.67566 325.000
26.69561 333.000
26.71555 325.000
26.73550 346.000
26.75545 330.000
26.77539 320.000
26.79534 346.000
26.81529 342.000
26.83524 379.000
26.85518 350.000
26.87513 355.000
26.89508 327.000
26.91502 361.000
26.93497 330.000
26.95492 359.000
26.97486 346.000
26.99481 335.000
27.01476 344.000
27.03471 344.000
27.05465 351.000
27.07460 343.000
27.09455 325.000
27.11449 341.000
27.13444 345.000
27.15439 361.000
27.17433 358.000
27.19428 340.000
27.21423 356.000
27.23417 332.000
27.25412 376.000
27.27407 366.000
27.29402 398.000
27.31396 366.000
27.33391 332.000
27.35386 377.000
27.37380 366.000
27.39375 357.000
27.41370 370.000
27.43364 369.000
27.45359 346.000
27.47354 362.000
27.49349 377.000
27.51343 368.000
27.53338 336.000
27.55333 347.000
27.57327 364.000
27.59322 377.000
27.61317 350.000
27.63311 396.000
27.65306 369.000
27.67301 389.000
27.69296 353.000
27.71290 348.000
27.73285 362.000
27.75280 337.000
27.77274 373.000
27.79269 330.000
27.81264 369.000
27.83258 348.000
27.85253 358.000
27.87248 378.000
27.89242 386.000
27.91237 402.000
27.93232 354.000
27.95227 389.000
27.97221 353.000
27.99216 394.000
28.01211 401.000
28.03205 361.000
28.05200 346.000
28.07195 341.000
28.09189 366.000
28.11184 388.000
28.13179 360.000
28.15174 406.000
28.17168 345.000
28.19163 390.000
28.21158 406.000
28.23152 352.000
28.25147 374.000
28.27142 381.000
28.29136 391.000
28.31131 326.000
28.33126 360.000
28.35120 389.000
28.37115 317.000
28.39110 351.000
28.41105 366.000
28.43099 389.000
28.45094 349.000
28.47089 355.000
28.49083 335.000
28.51078 385.000
28.53073 430.000
28.55067 339.000
28.57062 376.000
28.59057 365.000
28.61052 368.000
28.63046 369.000
28.65041 326.000
28.67036 401.000
28.69030 397.000
28.71025 379.000
28.73020 420.000
28.75014 362.000
28.77009 345.000
28.79004 393.000
28.80998 369.000
28.82993 406.000
28.84988 363.000
28.86983 392.000
28.88977 404.000
28.90972 403.000
28.92967 363.000
28.94961 407.000
28.96956 358.000
28.98951 365.000
29.00945 389.000
29.02940 381.000
29.04935 392.000
29.06930 366.000
29.08924 384.000
29.10919 396.000
29.12914 404.000
29.14908 396.000
29.16903 399.000
29.18898 317.000
29.20892 385.000
29.22887 423.000
29.24882 398.000
29.26877 383.000
29.28871 409.000
29.30866 397.000
29.32861 395.000
29.34855 393.000
29.36850 377.000
29.38845 441.000
29.40839 410.000
29.42834 407.000
29.44829 421.000
29.46823 431.000
29.48818 420.000
29.50813 378.000
29.52808 417.000
29.54802 480.000
29.56797 438.000
29.58792 413.000
29.60786 394.000
29.62781 447.000
29.64776 405.000
29.66770 405.000
29.68765 417.000
29.70760 413.000
29.72755 417.000
29.74749 426.000
29.76744 435.000
29.78739 381.000
29.80733 420.000
29.82728 406.000
29.84723 422.000
29.86717 395.000
29.88712 394.000
29.90707 421.000
29.92701 428.000
29.94696 411.000
29.96691 436.000
29.98686 411.000
30.00680 437.000
30.02675 427.000
30.04670 441.000
30.06664 445.000
30.08659 432.000
30.10654 460.000
30.12648 453.000
30.14643 480.000
30.16638 511.000
30.18633 495.000
30.20627 558.000
30.22622 716.000
30.24617 859.000
30.26611 927.000
30.28606 770.000
30.30601 691.000
30.32595 676.000
30.34590 634.000
30.36585 537.000
30.38579 470.000
30.40574 418.000
30.42569 465.000
30.44564 481.000
30.46558 434.000
30.48553 440.000
30.50548 441.000
30.52542 394.000
30.54537 428.000
30.56532 371.000
30.58526 404.000
30.60521 392.000
30.62516 388.000
30.64511 379.000
30.66505 418.000
30.68500 416.000
30.70495 385.000
30.72489 403.000
30.74484 373.000
30.76479 402.000
30.78473 382.000
30.80468 374.000
30.82463 423.000
30.84458 402.000
30.86452 416.000
30.88447 396.000
30.90442 387.000
30.92436 407.000
30.94431 412.000
30.96426 405.000
30.98420 407.000
31.00415 425.000
31.02410 427.000
31.04404 415.000
31.06399 387.000
31.08394 384.000
31.10389 400.000
31.12383 393.000
31.14378 425.000
31.16373 398.000
31.18367 413.000
31.20362 422.000
31.22357 361.000
31.24351 394.000
31.26346 405.000
31.28341 369.000
31.30336 382.000
31.32330 406.000
31.34325 383.000
31.36320 379.000
31.38314 366.000
31.40309 423.000
31.42304 385.000
31.44298 401.000
31.46293 396.000
31.48288 401.000
31.50282 408.000
31.52277 393.000
31.54272 398.000
31.56267 396.000
31.58261 424.000
31.60256 388.000
31.62251 384.000
31.64245 385.000
31.66240 412.000
31.68235 402.000
31.70229 396.000
31.72224 365.000
31.74219 380.000
31.76214 393.000
31.78208 396.000
31.80203 379.000
31.82198 383.000
31.84192 375.000
31.86187 397.000
31.88182 344.000
31.90176 405.000
31.92171 335.000
31.94166 393.000
31.96160 382.000
31.98155 397.000
32.00150 447.000
32.02145 393.000
32.04139 387.000
32.06134 370.000
32.08129 329.000
32.10123 387.000
32.12118 414.000
32.14113 408.000
32.16107 382.000
32.18102 435.000
32.20097 382.000
32.22092 419.000
32.24086 405.000
32.26081 386.000
32.28076 401.000
32.30070 386.000
32.32065 385.000
32.34060 385.000
32.36054 369.000
32.38049 395.000
32.40044 379.000
32.42039 459.000
32.44033 434.000
32.46028 497.000
32.48023 479.000
32.50017 401.000
32.52012 462.000
32.54007 427.000
32.56001 413.000
32.57996 385.000
32.59991 420.000
32.61985 383.000
32.63980 417.000
32.65975 396.000
32.67970 390.000
32.69964 396.000
32.71959 424.000
32.73954 375.000
32.75948 366.000
32.77943 403.000
32.79938 339.000
32.81932 374.000
32.83927 407.000
32.85922 395.000
32.87917 350.000
32.89911 395.000
32.91906 370.000
32.93901 391.000
32.95895 356.000
32.97890 350.000
32.99885 363.000
33.01879 405.000
33.03874 392.000
33.05869 378.000
33.07863 344.000
33.09858 363.000
33.11853 372.000
33.13848 364.000
33.15842 358.000
33.17837 363.000
33.19832 383.000
33.21826 392.000
33.23821 390.000
33.25816 393.000
33.27810 399.000
33.29805 432.000
33.31800 417.000
33.33795 429.000
33.35789 404.000
33.37784 425.000
33.39779 421.000
33.41773 409.000
33.43768 448.000
33.45763 429.000
33.47757 402.000
33.49752 425.000
33.51747 396.000
33.53741 389.000
33.55736 377.000
33.57731 390.000
33.59726 405.000
33.61720 419.000
33.63715 374.000
33.65710 367.000
33.67704 369.000
33.69699 377.000
33.71694 395.000
33.73688 386.000
33.75683 436.000
33.77678 444.000
33.79673 389.000
33.81667 426.000
33.83662 418.000
33.85657 438.000
33.87651 409.000
33.89646 374.000
33.91641 434.000
33.93635 410.000
33.95630 466.000
33.97625 432.000
33.99620 414.000
34.01614 494.000
34.03609 478.000
34.05604 450.000
34.07598 463.000
34.09593 461.000
34.11588 449.000
34.13582 502.000
34.15577 490.000
34.17572 501.000
34.19566 503.000
34.21561 476.000
34.23556 512.000
34.25551 492.000
34.27545 481.000
34.29540 462.000
34.31535 501.000
34.33529 507.000
34.35524 469.000
34.37519 531.000
34.39513 520.000
34.41508 490.000
34.43503 526.000
34.45498 506.000
34.47492 503.000
34.49487 520.000
34.51482 482.000
34.53476 455.000
34.55471 548.000
34.57466 478.000
34.59460 498.000
34.61455 473.000
34.63450 503.000
34.65444 498.000
34.67439 496.000
34.69434 475.000
34.71429 527.000
34.73423 520.000
34.75418 475.000
34.77413 497.000
34.79407 481.000
34.81402 526.000
34.83397 465.000
34.85391 499.000
34.87386 474.000
34.89381 496.000
34.91376 510.000
34.93370 469.000
34.95365 498.000
34.97360 528.000
34.99354 492.000
35.01349 509.000
35.03344 505.000
35.05338 498.000
35.07333 543.000
35.09328 547.000
35.11322 561.000
35.13317 577.000
35.15312 598.000
35.17307 540.000
35.19301 610.000
35.21296 617.000
35.23291 659.000
35.25285 625.000
35.27280 665.000
35.29275 630.000
35.31269 727.000
35.33264 750.000
35.35259 734.000
35.37254 841.000
35.39248 897.000
35.41243 928.000
35.43238 1027.000
35.45232 1089.000
35.47227 1194.000
35.49222 1290.000
35.51216 1267.000
35.53211 1279.000
35.55206 1321.000
35.57201 1498.000
35.59195 1693.000
35.61190 1909.000
35.63185 2233.000
35.65179 2258.000
35.67174 1883.000
35.69169 1545.000
35.71163 1578.000
35.73158 1589.000
35.75153 1305.000
35.77147 1037.000
35.79142 871.000
35.81137 740.000
35.83132 669.000
35.85126 619.000
35.87121 587.000
35.89116 570.000
35.91110 558.000
35.93105 575.000
35.95100 554.000
35.97094 588.000
35.99089 562.000
36.01084 588.000
36.03079 498.000
36.05073 498.000
36.07068 518.000
36.09063 536.000
36.11057 578.000
36.13052 547.000
36.15047 547.000
36.17041 573.000
36.19036 558.000
36.21031 638.000
36.23025 638.000
36.25020 718.000
36.27015 671.000
36.29010 647.000
36.31004 657.000
36.32999 614.000
36.34994 610.000
36.36988 677.000
36.38983 668.000
36.40978 618.000
36.42972 618.000
36.44967 637.000
36.46962 617.000
36.48957 588.000
36.50951 640.000
36.52946 620.000
36.54941 649.000
36.56935 598.000
36.58930 669.000
36.60925 669.000
36.62919 608.000
36.64914 648.000
36.66909 647.000
36.68903 644.000
36.70898 662.000
36.72893 623.000
36.74888 582.000
36.76882 614.000
36.78877 638.000
36.80872 630.000
36.82866 592.000
36.84861 626.000
36.86856 628.000
36.88850 587.000
36.90845 578.000
36.92840 620.000
36.94835 583.000
36.96829 578.000
36.98824 598.000
37.00819 553.000
37.02813 616.000
37.04808 628.000
37.06803 560.000
37.08797 670.000
37.10792 682.000
37.12787 667.000
37.14781 641.000
37.16776 584.000
37.18771 582.000
37.20766 551.000
37.22760 563.000
37.24755 561.000
37.26750 557.000
37.28744 547.000
37.30739 553.000
37.32734 451.000
37.34728 463.000
37.36723 483.000
37.38718 483.000
37.40713 431.000
37.42707 435.000
37.44702 396.000
37.46697 403.000
37.48691 396.000
37.50686 393.000
37.52681 393.000
37.54675 379.000
37.56670 386.000
37.58665 366.000
37.60660 361.000
37.62654 405.000
37.64649 357.000
37.66644 343.000
37.68638 382.000
37.70633 390.000
37.72628 408.000
37.74622 397.000
37.76617 391.000
37.78612 388.000
37.80606 407.000
37.82601 390.000
37.84596 379.000
37.86591 371.000
37.88585 362.000
37.90580 372.000
37.92575 362.000
37.94569 415.000
37.96564 422.000
37.98559 403.000
38.00553 363.000
38.02548 377.000
38.04543 451.000
38.06538 426.000
38.08532 414.000
38.10527 428.000
38.12522 409.000
38.14516 423.000
38.16511 434.000
38.18506 431.000
38.20500 438.000
38.22495 422.000
38.24490 413.000
38.26484 459.000
38.28479 472.000
38.30474 427.000
38.32469 434.000
38.34463 464.000
38.36458 476.000
38.38453 471.000
38.40447 504.000
38.42442 545.000
38.44437 542.000
38.46431 531.000
38.48426 536.000
38.50421 573.000
38.52416 609.000
38.54410 640.000
38.56405 731.000
38.58400 749.000
38.60394 819.000
38.62389 767.000
38.64384 803.000
38.66378 817.000
38.68373 839.000
38.70368 896.000
38.72362 854.000
38.74357 806.000
38.76352 787.000
38.78347 772.000
38.80341 737.000
38.82336 682.000
38.84331 680.000
38.86325 649.000
38.88320 628.000
38.90315 648.000
38.92309 599.000
38.94304 617.000
38.96299 638.000
38.98294 578.000
39.00288 585.000
39.02283 535.000
39.04278 569.000
39.06272 553.000
39.08267 556.000
39.10262 538.000
39.12256 517.000
39.14251 442.000
39.16246 487.000
39.18241 468.000
39.20235 437.000
39.22230 444.000
39.24225 421.000
39.26219 451.000
39.28214 415.000
39.30209 438.000
39.32203 386.000
39.34198 443.000
39.36193 381.000
39.38187 402.000
39.40182 407.000
39.42177 367.000
39.44172 391.000
39.46166 396.000
39.48161 424.000
39.50156 385.000
39.52150 356.000
39.54145 396.000
39.56140 388.000
39.58134 396.000
39.60129 375.000
39.62124 366.000
39.64119 377.000
39.66113 420.000
39.68108 390.000
39.70103 392.000
39.72097 381.000
39.74092 379.000
39.76087 364.000
39.78081 374.000
39.80076 398.000
39.82071 365.000
39.84065 388.000
39.86060 384.000
39.88055 378.000
39.90050 347.000
39.92044 374.000
39.94039 360.000
39.96034 402.000
39.98028 355.000
40.00023 392.000
40.02018 415.000
40.04012 376.000
40.06007 358.000
40.08002 372.000
40.09997 340.000
40.11991 355.000
40.13986 384.000
40.15981 381.000
40.17975 393.000
40.19970 365.000
40.21965 412.000
40.23959 376.000
40.25954 396.000
40.27949 363.000
40.29943 382.000
40.31938 379.000
40.33933 397.000
40.35928 382.000
40.37922 364.000
40.39917 365.000
40.41912 390.000
40.43906 381.000
40.45901 379.000
40.47896 383.000
40.49890 379.000
40.51885 376.000
40.53880 372.000
40.55875 427.000
40.57869 374.000
40.59864 410.000
40.61859 405.000
40.63853 428.000
40.65848 410.000
40.67843 368.000
40.69837 416.000
40.71832 392.000
40.73827 410.000
40.75822 405.000
40.77816 437.000
40.79811 427.000
40.81806 443.000
40.83800 429.000
40.85795 456.000
40.87790 403.000
40.89784 432.000
40.91779 457.000
40.93774 440.000
40.95768 435.000
40.97763 485.000
40.99758 486.000
41.01753 458.000
41.03747 459.000
41.05742 491.000
41.07737 441.000
41.09731 498.000
41.11726 514.000
41.13721 524.000
41.15715 503.000
41.17710 499.000
41.19705 508.000
41.21700 471.000
41.23694 527.000
41.25689 513.000
41.27684 523.000
41.29678 479.000
41.31673 530.000
41.33668 503.000
41.35662 546.000
41.37657 567.000
41.39652 587.000
41.41646 540.000
41.43641 577.000
41.45636 559.000
41.47631 560.000
41.49625 597.000
41.51620 609.000
41.53615 625.000
41.55609 617.000
41.57604 682.000
41.59599 684.000
41.61593 707.000
41.63588 767.000
41.65583 784.000
41.67578 801.000
41.69572 786.000
41.71567 769.000
41.73562 758.000
41.75556 787.000
41.77551 739.000
41.79546 743.000
41.81540 728.000
41.83535 666.000
41.85530 673.000
41.87524 619.000
41.89519 666.000
41.91514 654.000
41.93509 621.000
41.95503 605.000
41.97498 557.000
41.99493 572.000
42.01487 587.000
42.03482 610.000
42.05477 598.000
42.07471 579.000
42.09466 523.000
42.11461 579.000
42.13456 547.000
42.15450 528.000
42.17445 539.000
42.19440 532.000
42.21434 555.000
42.23429 558.000
42.25424 539.000
42.27418 541.000
42.29413 505.000
42.31408 542.000
42.33403 517.000
42.35397 572.000
42.37392 532.000
42.39387 585.000
42.41381 509.000
42.43376 512.000
42.45371 561.000
42.47365 585.000
42.49360 553.000
42.51355 529.000
42.53349 533.000
42.55344 584.000
42.57339 555.000
42.59334 546.000
42.61328 585.000
42.63323 567.000
42.65318 583.000
42.67312 550.000
42.69307 570.000
42.71302 503.000
42.73296 544.000
42.75291 584.000
42.77286 560.000
42.79281 561.000
42.81275 559.000
42.83270 557.000
42.85265 584.000
42.87259 545.000
42.89254 624.000
42.91249 582.000
42.93243 632.000
42.95238 586.000
42.97233 645.000
42.99227 654.000
43.01222 603.000
43.03217 629.000
43.05212 652.000
43.07206 672.000
43.09201 711.000
43.11196 696.000
43.13190 695.000
43.15185 685.000
43.17180 734.000
43.19174 604.000
43.21169 672.000
43.23164 672.000
43.25159 699.000
43.27153 696.000
43.29148 692.000
43.31143 721.000
43.33137 760.000
43.35132 730.000
43.37127 620.000
43.39121 622.000
43.41116 574.000
43.43111 571.000
43.45105 501.000
43.47100 527.000
43.49095 454.000
43.51090 465.000
43.53084 421.000
43.55079 385.000
43.57074 392.000
43.59068 389.000
43.61063 402.000
43.63058 391.000
43.65052 384.000
43.67047 401.000
43.69042 363.000
43.71037 383.000
43.73031 353.000
43.75026 356.000
43.77021 396.000
43.79015 366.000
43.81010 396.000
43.83005 344.000
43.84999 348.000
43.86994 374.000
43.88989 344.000
43.90984 350.000
43.92978 356.000
43.94973 329.000
43.96968 352.000
43.98962 364.000
44.00957 328.000
44.02952 340.000
44.04946 331.000
44.06941 343.000
44.08936 335.000
44.10930 335.000
44.12925 341.000
44.14920 303.000
44.16915 345.000
44.18909 344.000
44.20904 354.000
44.22899 326.000
44.24893 353.000
44.26888 324.000
44.28883 319.000
44.30877 351.000
44.32872 336.000
44.34867 293.000
44.36862 333.000
44.38856 324.000
44.40851 312.000
44.42846 321.000
44.44840 332.000
44.46835 354.000
44.48830 361.000
44.50824 315.000
44.52819 362.000
44.54814 331.000
44.56808 360.000
44.58803 354.000
44.60798 298.000
44.62793 335.000
44.64787 323.000
44.66782 359.000
44.68777 343.000
44.70771 337.000
44.72766 345.000
44.74761 360.000
44.76755 348.000
44.78750 325.000
44.80745 367.000
44.82740 316.000
44.84734 354.000
44.86729 322.000
44.88724 291.000
44.90718 355.000
44.92713 325.000
44.94708 332.000
44.96702 346.000
44.98697 332.000
45.00692 328.000
45.02686 334.000
45.04681 328.000
45.06676 321.000
45.08671 319.000
45.10665 357.000
45.12660 325.000
45.14655 357.000
45.16649 356.000
45.18644 345.000
45.20639 319.000
45.22633 353.000
45.24628 316.000
45.26623 358.000
45.28618 321.000
45.30612 338.000
45.32607 352.000
45.34602 305.000
45.36596 307.000
45.38591 319.000
45.40586 332.000
45.42580 337.000
45.44575 347.000
45.46570 351.000
45.48565 329.000
45.50559 368.000
45.52554 311.000
45.54549 343.000
45.56543 342.000
45.58538 325.000
45.60533 351.000
45.62527 342.000
45.64522 297.000
45.66517 316.000
45.68511 328.000
45.70506 312.000
45.72501 337.000
45.74496 349.000
45.76490 322.000
45.78485 326.000
45.80480 322.000
45.82474 303.000
45.84469 346.000
45.86464 314.000
45.88458 338.000
45.90453 354.000
45.92448 337.000
45.94443 309.000
45.96437 348.000
45.98432 337.000
46.00427 327.000
46.02421 343.000
46.04416 340.000
46.06411 312.000
46.08405 301.000
46.10400 333.000
46.12395 336.000
46.14389 316.000
46.16384 327.000
46.18379 326.000
46.20374 314.000
46.22368 342.000
46.24363 339.000
46.26358 359.000
46.28352 312.000
46.30347 325.000
46.32342 315.000
46.34336 321.000
46.36331 346.000
46.38326 333.000
46.40321 325.000
46.42315 328.000
46.44310 335.000
46.46305 341.000
46.48299 304.000
46.50294 337.000
46.52289 335.000
46.54283 337.000
46.56278 343.000
46.58273 321.000
46.60267 319.000
46.62262 348.000
46.64257 276.000
46.66252 325.000
46.68246 320.000
46.70241 320.000
46.72236 331.000
46.74230 290.000
46.76225 364.000
46.78220 320.000
46.80214 314.000
46.82209 327.000
46.84204 293.000
46.86199 313.000
46.88193 307.000
46.90188 323.000
46.92183 318.000
46.94177 313.000
46.96172 307.000
46.98167 300.000
47.00161 313.000
47.02156 314.000
47.04151 299.000
47.06146 303.000
47.08140 324.000
47.10135 336.000
47.12130 319.000
47.14124 312.000
47.16119 294.000
47.18114 351.000
47.20108 307.000
47.22103 347.000
47.24098 320.000
47.26092 314.000
47.28087 328.000
47.30082 312.000
47.32077 313.000
47.34071 345.000
47.36066 317.000
47.38061 327.000
47.40055 319.000
47.42050 304.000
47.44045 349.000
47.46039 337.000
47.48034 322.000
47.50029 345.000
47.52024 334.000
47.54018 320.000
47.56013 331.000
47.58008 277.000
47.60002 338.000
47.61997 351.000
47.63992 305.000
47.65986 318.000
47.67981 297.000
47.69976 321.000
47.71970 286.000
47.73965 295.000
47.75960 315.000
47.77955 319.000
47.79949 339.000
47.81944 335.000
47.83939 339.000
47.85933 320.000
47.87928 333.000
47.89923 331.000
47.91917 342.000
47.93912 346.000
47.95907 328.000
47.97902 307.000
47.99896 336.000
48.01891 310.000
48.03886 340.000
48.05880 367.000
48.07875 348.000
48.09870 321.000
48.11864 331.000
48.13859 324.000
48.15854 334.000
48.17848 354.000
48.19843 328.000
48.21838 338.000
48.23833 368.000
48.25827 331.000
48.27822 335.000
48.29817 333.000
48.31811 350.000
48.33806 332.000
48.35801 360.000
48.37795 325.000
48.39790 346.000
48.41785 372.000
48.43780 376.000
48.45774 371.000
48.47769 369.000
48.49764 363.000
48.51758 350.000
48.53753 388.000
48.55748 335.000
48.57742 336.000
48.59737 383.000
48.61732 360.000
48.63726 380.000
48.65721 380.000
48.67716 391.000
48.69711 384.000
48.71705 367.000
48.73700 417.000
48.75695 403.000
48.77689 424.000
48.79684 392.000
48.81679 426.000
48.83673 443.000
48.85668 421.000
48.87663 398.000
48.89658 411.000
48.91652 401.000
48.93647 426.000
48.95642 416.000
48.97636 400.000
48.99631 402.000
49.01626 399.000
49.03620 374.000
49.05615 341.000
49.07610 359.000
49.09605 373.000
49.11599 316.000
49.13594 396.000
49.15589 346.000
49.17583 323.000
49.19578 325.000
49.21573 306.000
49.23567 285.000
49.25562 318.000
49.27557 319.000
49.29551 309.000
49.31546 319.000
49.33541 300.000
49.35536 328.000
49.37530 332.000
49.39525 332.000
49.41520 297.000
49.43514 309.000
49.45509 321.000
49.47504 312.000
49.49498 322.000
49.51493 286.000
49.53488 298.000
49.55483 306.000
49.57477 307.000
49.59472 329.000
49.61467 301.000
49.63461 290.000
49.65456 343.000
49.67451 323.000
49.69445 335.000
49.71440 286.000
49.73435 295.000
49.75429 286.000
49.77424 330.000
49.79419 264.000
49.81414 288.000
49.83408 286.000
49.85403 295.000
49.87398 339.000
49.89392 267.000
49.91387 291.000
49.93382 340.000
49.95376 311.000
49.97371 290.000
49.99366 297.000
50.01361 305.000
50.03355 317.000
50.05350 306.000
50.07345 274.000
50.09339 278.000
50.11334 295.000
50.13329 278.000
50.15323 283.000
50.17318 288.000
50.19313 304.000
50.21307 296.000
50.23302 257.000
50.25297 304.000
50.27292 278.000
50.29286 308.000
50.31281 318.000
50.33276 305.000
50.35270 288.000
50.37265 319.000
50.39260 259.000
50.41254 280.000
50.43249 256.000
50.45244 282.000
50.47239 271.000
50.49233 293.000
50.51228 316.000
50.53223 302.000
50.55217 287.000
50.57212 281.000
50.59207 272.000
50.61201 282.000
50.63196 263.000
50.65191 307.000
50.67186 311.000
50.69180 300.000
50.71175 279.000
50.73170 276.000
50.75164 299.000
50.77159 302.000
50.79154 323.000
50.81148 276.000
50.83143 312.000
50.85138 298.000
50.87132 291.000
50.89127 313.000
50.91122 314.000
50.93117 317.000
50.95111 312.000
50.97106 297.000
50.99101 291.000
51.01095 292.000
51.03090 289.000
51.05085 296.000
51.07079 291.000
51.09074 293.000
51.11069 297.000
51.13064 334.000
51.15058 309.000
51.17053 291.000
51.19048 292.000
51.21042 303.000
51.23037 303.000
51.25032 317.000
51.27026 304.000
51.29021 317.000
51.31016 271.000
51.33010 301.000
51.35005 287.000
51.37000 333.000
51.38995 326.000
51.40989 314.000
51.42984 291.000
51.44979 343.000
51.46973 285.000
51.48968 286.000
51.50963 272.000
51.52957 305.000
51.54952 303.000
51.56947 288.000
51.58942 305.000
51.60936 311.000
51.62931 289.000
51.64926 314.000
51.66920 309.000
51.68915 259.000
51.70910 294.000
51.72904 280.000
51.74899 284.000
51.76894 260.000
51.78888 300.000
51.80883 324.000
51.82878 293.000
51.84873 322.000
51.86867 270.000
51.88862 272.000
51.90857 298.000
51.92851 276.000
51.94846 247.000
51.96841 286.000
51.98835 288.000
52.00830 292.000
52.02825 303.000
52.04820 291.000
52.06814 332.000
52.08809 301.000
52.10804 290.000
52.12798 298.000
52.14793 298.000
52.16788 310.000
52.18782 270.000
52.20777 293.000
52.22772 322.000
52.24767 282.000
52.26761 312.000
52.28756 282.000
52.30751 322.000
52.32745 279.000
52.34740 252.000
52.36735 317.000
52.38729 279.000
52.40724 290.000
52.42719 274.000
52.44713 287.000
52.46708 292.000
52.48703 289.000
52.50698 321.000
52.52692 301.000
52.54687 290.000
52.56682 278.000
52.58676 284.000
52.60671 288.000
52.62666 307.000
52.64660 289.000
52.66655 290.000
52.68650 318.000
52.70645 316.000
52.72639 303.000
52.74634 282.000
52.76629 315.000
52.78623 311.000
52.80618 293.000
52.82613 339.000
52.84607 307.000
52.86602 292.000
52.88597 296.000
52.90591 313.000
52.92586 326.000
52.94581 292.000
52.96576 297.000
52.98570 316.000
53.00565 323.000
53.02560 302.000
53.04554 325.000
53.06549 312.000
53.08544 323.000
53.10538 321.000
53.12533 323.000
53.14528 315.000
53.16523 321.000
53.18517 340.000
53.20512 334.000
53.22507 308.000
53.24501 316.000
53.26496 305.000
53.28491 315.000
53.30485 316.000
53.32480 314.000
53.34475 351.000
53.36469 298.000
53.38464 338.000
53.40459 320.000
53.42454 335.000
53.44448 327.000
53.46443 329.000
53.48438 296.000
53.50432 369.000
53.52427 312.000
53.54422 292.000
53.56416 346.000
53.58411 336.000
53.60406 325.000
53.62401 345.000
53.64395 360.000
53.66390 315.000
53.68385 336.000
53.70379 368.000
53.72374 387.000
53.74369 424.000
53.76363 424.000
53.78358 431.000
53.80353 420.000
53.82348 374.000
53.84342 373.000
53.86337 417.000
53.88332 383.000
53.90326 378.000
53.92321 337.000
53.94316 354.000
53.96310 364.000
53.98305 308.000
54.00300 336.000
54.02294 324.000
54.04289 317.000
54.06284 307.000
54.08279 328.000
54.10273 327.000
54.12268 326.000
54.14263 296.000
54.16257 307.000
54.18252 294.000
54.20247 331.000
54.22241 289.000
54.24236 286.000
54.26231 327.000
54.28226 298.000
54.30220 296.000
54.32215 299.000
54.34210 278.000
54.36204 310.000
54.38199 325.000
54.40194 294.000
54.42188 308.000
54.44183 312.000
54.46178 317.000
54.48172 310.000
54.50167 317.000
54.52162 299.000
54.54157 307.000
54.56151 326.000
54.58146 295.000
54.60141 312.000
54.62135 291.000
54.64130 307.000
54.66125 249.000
54.68119 344.000
54.70114 309.000
54.72109 300.000
54.74104 304.000
54.76098 331.000
54.78093 283.000
54.80088 315.000
54.82082 251.000
54.84077 309.000
54.86072 304.000
54.88066 312.000
54.90061 289.000
54.92056 295.000
54.94050 279.000
54.96045 325.000
54.98040 286.000
55.00035 285.000
55.02029 294.000
55.04024 291.000
55.06019 280.000
55.08013 334.000
55.10008 324.000
55.12003 312.000
55.13997 316.000
55.15992 314.000
55.17987 283.000
55.19982 271.000
55.21976 323.000
55.23971 291.000
55.25966 291.000
55.27960 292.000
55.29955 297.000
55.31950 276.000
55.33944 293.000
55.35939 298.000
55.37934 307.000
55.39929 276.000
55.41923 283.000
55.43918 297.000
55.45913 284.000
55.47907 314.000
55.49902 319.000
55.51897 316.000
55.53891 324.000
55.55886 290.000
55.57881 284.000
55.59875 280.000
55.61870 283.000
55.63865 318.000
55.65860 283.000
55.67854 294.000
55.69849 297.000
55.71844 280.000
55.73838 294.000
55.75833 294.000
55.77828 302.000
55.79822 304.000
55.81817 292.000
55.83812 314.000
55.85807 313.000
55.87801 310.000
55.89796 312.000
55.91791 286.000
55.93785 317.000
55.95780 314.000
55.97775 303.000
55.99769 313.000
56.01764 324.000
56.03759 290.000
56.05753 268.000
56.07748 309.000
56.09743 306.000
56.11738 286.000
56.13732 287.000
56.15727 319.000
56.17722 282.000
56.19716 304.000
56.21711 313.000
56.23706 298.000
56.25700 279.000
56.27695 313.000
56.29690 261.000
56.31685 318.000
56.33679 304.000
56.35674 293.000
56.37669 286.000
56.39663 297.000
56.41658 310.000
56.43653 299.000
56.45647 330.000
56.47642 322.000
56.49637 318.000
56.51631 326.000
56.53626 281.000
56.55621 305.000
56.57616 285.000
56.59610 289.000
56.61605 295.000
56.63600 325.000
56.65594 288.000
56.67589 310.000
56.69584 303.000
56.71578 308.000
56.73573 294.000
56.75568 272.000
56.77563 321.000
56.79557 320.000
56.81552 295.000
56.83547 332.000
56.85541 320.000
56.87536 342.000
56.89531 325.000
56.91525 349.000
56.93520 324.000
56.95515 290.000
56.97510 307.000
56.99504 304.000
57.01499 341.000
57.03494 367.000
57.05488 368.000
57.07483 347.000
57.09478 338.000
57.11472 342.000
57.13467 346.000
57.15462 389.000
57.17456 350.000
57.19451 389.000
57.21446 399.000
57.23441 431.000
57.25435 476.000
57.27430 559.000
57.29425 598.000
57.31419 647.000
57.33414 618.000
57.35409 544.000
57.37403 474.000
57.39398 518.000
57.41393 500.000
57.43388 470.000
57.45382 460.000
57.47377 496.000
57.49372 487.000
57.51366 437.000
57.53361 386.000
57.55356 384.000
57.57350 355.000
57.59345 369.000
57.61340 310.000
57.63334 323.000
57.65329 352.000
57.67324 333.000
57.69319 331.000
57.71313 338.000
57.73308 311.000
57.75303 343.000
57.77297 326.000
57.79292 342.000
57.81287 291.000
57.83281 357.000
57.85276 333.000
57.87271 345.000
57.89266 326.000
57.91260 338.000
57.93255 357.000
57.95250 333.000
57.97244 341.000
57.99239 328.000
58.01234 324.000
58.03228 356.000
58.05223 359.000
58.07218 365.000
58.09212 334.000
58.11207 387.000
58.13202 399.000
58.15197 392.000
58.17191 374.000
58.19186 411.000
58.21181 376.000
58.23175 372.000
58.25170 407.000
58.27165 353.000
58.29159 403.000
58.31154 391.000
58.33149 356.000
58.35144 370.000
58.37138 376.000
58.39133 336.000
58.41128 361.000
58.43122 359.000
58.45117 355.000
58.47112 325.000
58.49106 352.000
58.51101 349.000
58.53096 348.000
58.55090 318.000
58.57085 334.000
58.59080 340.000
58.61075 333.000
58.63069 320.000
58.65064 299.000
58.67059 339.000
58.69053 318.000
58.71048 308.000
58.73043 319.000
58.75037 361.000
58.77032 320.000
58.79027 319.000
58.81022 296.000
58.83016 295.000
58.85011 287.000
58.87006 357.000
58.89000 305.000
58.90995 313.000
58.92990 335.000
58.94984 324.000
58.96979 322.000
58.98974 351.000
59.00969 334.000
59.02963 339.000
59.04958 294.000
59.06953 279.000
59.08947 349.000
59.10942 332.000
59.12937 329.000
59.14931 326.000
59.16926 323.000
59.18921 316.000
59.20915 341.000
59.22910 314.000
59.24905 328.000
59.26900 344.000
59.28894 349.000
59.30889 344.000
59.32884 348.000
59.34878 350.000
59.36873 374.000
59.38868 358.000
59.40862 332.000
59.42857 358.000
59.44852 353.000
59.46847 352.000
59.48841 376.000
59.50836 363.000
59.52831 359.000
59.54825 355.000
59.56820 365.000
59.58815 342.000
59.60809 395.000
59.62804 324.000
59.64799 351.000
59.66793 365.000
59.68788 336.000
59.70783 356.000
59.72778 362.000
59.74772 363.000
59.76767 359.000
59.78762 334.000
59.80756 337.000
59.82751 368.000
59.84746 339.000
59.86740 368.000
59.88735 342.000
59.90730 365.000
59.92725 368.000
59.94719 358.000
59.96714 341.000
59.98709 358.000
60.00703 382.000
60.02698 392.000
60.04693 339.000
60.06687 337.000
60.08682 369.000
60.10677 340.000
60.12671 340.000
60.14666 330.000
60.16661 383.000
60.18656 319.000
60.20650 335.000
60.22645 339.000
60.24640 359.000
60.26634 368.000
60.28629 362.000
60.30624 325.000
60.32618 370.000
60.34613 299.000
60.36608 313.000
60.38603 334.000
60.40597 379.000
60.42592 322.000
60.44587 322.000
60.46581 340.000
60.48576 317.000
60.50571 336.000
60.52565 310.000
60.54560 294.000
60.56555 333.000
60.58550 332.000
60.60544 350.000
60.62539 329.000
60.64534 333.000
60.66528 368.000
60.68523 354.000
60.70518 317.000
60.72512 364.000
60.74507 316.000
60.76502 314.000
60.78496 328.000
60.80491 332.000
60.82486 351.000
60.84481 377.000
60.86475 323.000
60.88470 359.000
60.90465 344.000
60.92459 354.000
60.94454 368.000
60.96449 384.000
60.98443 384.000
61.00438 382.000
61.02433 357.000
61.04428 334.000
61.06422 359.000
61.08417 365.000
61.10412 386.000
61.12406 385.000
61.14401 406.000
61.16396 413.000
61.18390 385.000
61.20385 432.000
61.22380 453.000
61.24374 429.000
61.26369 439.000
61.28364 444.000
61.30359 489.000
61.32353 435.000
61.34348 474.000
61.36343 443.000
61.38337 492.000
61.40332 534.000
61.42327 579.000
61.44321 543.000
61.46316 569.000
61.48311 575.000
61.50306 562.000
61.52300 554.000
61.54295 534.000
61.56290 557.000
61.58284 610.000
61.60279 554.000
61.62274 512.000
61.64268 544.000
61.66263 509.000
61.68258 504.000
61.70252 473.000
61.72247 531.000
61.74242 502.000
61.76237 511.000
61.78231 472.000
61.80226 472.000
61.82221 496.000
61.84215 458.000
61.86210 429.000
61.88205 447.000
61.90199 465.000
61.92194 474.000
61.94189 446.000
61.96184 453.000
61.98178 459.000
62.00173 447.000
62.02168 441.000
62.04162 423.000
62.06157 442.000
62.08152 430.000
62.10146 452.000
62.12141 448.000
62.14136 434.000
62.16131 446.000
62.18125 420.000
62.20120 492.000
62.22115 412.000
62.24109 463.000
62.26104 455.000
62.28099 432.000
62.30093 442.000
62.32088 472.000
62.34083 440.000
62.36077 494.000
62.38072 461.000
62.40067 464.000
62.42062 467.000
62.44056 448.000
62.46051 496.000
62.48046 457.000
62.50040 470.000
62.52035 490.000
62.54030 517.000
62.56024 494.000
62.58019 497.000
62.60014 521.000
62.62009 524.000
62.64003 509.000
62.65998 527.000
62.67993 516.000
62.69987 494.000
62.71982 516.000
62.73977 495.000
62.75971 541.000
62.77966 497.000
62.79961 546.000
62.81955 519.000
62.83950 523.000
62.85945 570.000
62.87940 585.000
62.89934 702.000
62.91929 725.000
62.93924 798.000
62.95918 807.000
62.97913 731.000
62.99908 619.000
63.01902 589.000
63.03897 493.000
63.05892 531.000
63.07887 531.000
63.09881 584.000
63.11876 568.000
63.13871 591.000
63.15865 559.000
63.17860 527.000
63.19855 440.000
63.21849 404.000
63.23844 360.000
63.25839 357.000
63.27833 390.000
63.29828 358.000
63.31823 321.000
63.33818 321.000
63.35812 344.000
63.37807 321.000
63.39802 329.000
63.41796 322.000
63.43791 361.000
63.45786 318.000
63.47780 314.000
63.49775 295.000
63.51770 322.000
63.53765 320.000
63.55759 298.000
63.57754 309.000
63.59749 306.000
63.61743 305.000
63.63738 314.000
63.65733 323.000
63.67727 298.000
63.69722 318.000
63.71717 330.000
63.73712 330.000
63.75706 319.000
63.77701 295.000
63.79696 311.000
63.81690 287.000
63.83685 303.000
63.85680 317.000
63.87674 307.000
63.89669 312.000
63.91664 304.000
63.93658 300.000
63.95653 316.000
63.97648 307.000
63.99643 287.000
64.01637 294.000
64.03632 338.000
64.05627 345.000
64.07621 307.000
64.09616 322.000
64.11611 292.000
64.13605 295.000
64.15600 307.000
64.17595 323.000
64.19590 329.000
64.21584 309.000
64.23579 333.000
64.25574 297.000
64.27568 315.000
64.29563 318.000
64.31558 290.000
64.33552 325.000
64.35547 315.000
64.37542 284.000
64.39536 286.000
64.41531 342.000
64.43526 308.000
64.45521 305.000
64.47515 320.000
64.49510 348.000
64.51505 342.000
64.53499 271.000
64.55494 314.000
64.57489 303.000
64.59483 303.000
64.61478 326.000
64.63473 303.000
64.65468 318.000
64.67462 314.000
64.69457 291.000
64.71452 319.000
64.73446 329.000
64.75441 299.000
64.77436 301.000
64.79430 290.000
64.81425 342.000
64.83420 313.000
64.85414 276.000
64.87409 295.000
64.89404 287.000
64.91399 322.000
64.93393 324.000
64.95388 285.000
64.97383 238.000
64.99377 293.000
65.01372 296.000
65.03367 327.000
65.05361 306.000
65.07356 316.000
65.09351 296.000
65.11346 318.000
65.13340 295.000
65.15335 328.000
65.17330 323.000
65.19324 305.000
65.21319 312.000
65.23314 343.000
65.25308 362.000
65.27303 319.000
65.29298 326.000
65.31293 353.000
65.33287 323.000
65.35282 298.000
65.37277 351.000
65.39271 315.000
65.41266 348.000
65.43261 301.000
65.45255 344.000
65.47250 313.000
65.49245 337.000
65.51239 368.000
65.53234 353.000
65.55229 358.000
65.57224 330.000
65.59218 322.000
65.61213 371.000
65.63208 375.000
65.65202 352.000
65.67197 351.000
65.69192 340.000
65.71186 328.000
65.73181 362.000
65.75176 352.000
65.77171 378.000
65.79165 324.000
65.81160 357.000
65.83155 321.000
65.85149 375.000
65.87144 384.000
65.89139 350.000
65.91133 361.000
65.93128 332.000
65.95123 331.000
65.97117 372.000
65.99112 326.000
66.01107 323.000
66.03102 335.000
66.05096 359.000
66.07091 377.000
66.09086 344.000
66.11080 353.000
66.13075 353.000
66.15070 354.000
66.17064 350.000
66.19059 373.000
66.21054 391.000
66.23049 381.000
66.25043 383.000
66.27038 353.000
66.29033 377.000
66.31027 385.000
66.33022 394.000
66.35017 376.000
66.37011 400.000
66.39006 401.000
66.41001 341.000
66.42995 387.000
66.44990 398.000
66.46985 373.000
66.48980 348.000
66.50974 356.000
66.52969 347.000
66.54964 335.000
66.56958 371.000
66.58953 362.000
66.60948 331.000
66.62942 326.000
66.64937 359.000
66.66932 285.000
66.68927 298.000
66.70921 327.000
66.72916 317.000
66.74911 322.000
66.76905 283.000
66.78900 304.000
66.80895 306.000
66.82889 300.000
66.84884 308.000
66.86879 312.000
66.88874 275.000
66.90868 290.000
66.92863 311.000
66.94858 320.000
66.96852 286.000
66.98847 320.000
67.00842 294.000
67.02836 344.000
67.04831 321.000
67.06826 313.000
67.08820 316.000
67.10815 275.000
67.12810 286.000
67.14805 313.000
67.16799 298.000
67.18794 301.000
67.20789 305.000
67.22783 281.000
67.24778 322.000
67.26773 289.000
67.28767 294.000
67.30762 301.000
67.32757 289.000
67.34752 299.000
67.36746 330.000
67.38741 297.000
67.40736 324.000
67.42730 318.000
67.44725 313.000
67.46720 311.000
67.48714 307.000
67.50709 326.000
67.52704 313.000
67.54698 284.000
67.56693 326.000
67.58688 317.000
67.60683 364.000
67.62677 329.000
67.64672 353.000
67.66667 337.000
67.68661 337.000
67.70656 333.000
67.72651 336.000
67.74645 353.000
67.76640 361.000
67.78635 364.000
67.80630 355.000
67.82624 361.000
67.84619 370.000
67.86614 376.000
67.88608 380.000
67.90603 377.000
67.92598 398.000
67.94592 458.000
67.96587 410.000
67.98582 440.000
68.00576 425.000
68.02571 427.000
68.04566 430.000
68.06561 415.000
68.08555 392.000
68.10550 377.000
68.12545 383.000
68.14539 389.000
68.16534 381.000
68.18529 418.000
68.20523 379.000
68.22518 406.000
68.24513 371.000
68.26508 356.000
68.28502 351.000
68.30497 319.000
68.32492 332.000
68.34486 314.000
68.36481 347.000
68.38476 328.000
68.40470 298.000
68.42465 313.000
68.44460 312.000
68.46455 317.000
68.48449 323.000
68.50444 333.000
68.52439 317.000
68.54433 300.000
68.56428 309.000
68.58423 350.000
68.60417 316.000
68.62412 316.000
68.64407 302.000
68.66401 308.000
68.68396 289.000
68.70391 305.000
68.72386 310.000
68.74380 331.000
68.76375 296.000
68.78370 308.000
68.80364 308.000
68.82359 277.000
68.84354 296.000
68.86348 312.000
68.88343 312.000
68.90338 278.000
68.92333 293.000
68.94327 308.000
68.96322 340.000
68.98317 280.000
69.00311 269.000
69.02306 343.000
69.04301 297.000
69.06295 284.000
69.08290 296.000
69.10285 281.000
69.12279 284.000
69.14274 294.000
69.16269 364.000
69.18264 295.000
69.20258 293.000
69.22253 293.000
69.24248 308.000
69.26242 300.000
69.28237 295.000
69.30232 285.000
69.32226 279.000
69.34221 281.000
69.36216 275.000
69.38211 281.000
69.40205 313.000
69.42200 301.000
69.44195 278.000
69.46189 290.000
69.48184 291.000
69.50179 256.000
69.52173 272.000
69.54168 293.000
69.56163 316.000
69.58157 279.000
69.60152 280.000
69.62147 302.000
69.64142 297.000
69.66136 287.000
69.68131 269.000
69.70126 321.000
69.72120 285.000
69.74115 278.000
69.76110 300.000
69.78104 289.000
69.80099 307.000
69.82094 274.000
69.84089 324.000
69.86083 290.000
69.88078 297.000
69.90073 311.000
69.92067 301.000
69.94062 262.000
69.96057 288.000
69.98051 308.000
70.00046 280.000
70.02041 266.000
70.04035 313.000
70.06030 290.000
70.08025 303.000
70.10020 300.000
70.12014 299.000
70.14009 299.000
70.16004 289.000
70.17998 295.000
70.19993 281.000
70.21988 308.000
70.23982 267.000
70.25977 315.000
70.27972 272.000
70.29967 274.000
70.31961 285.000
70.33956 273.000
70.35951 311.000
70.37945 298.000
70.39940 276.000
70.41935 296.000
70.43929 280.000
70.45924 296.000
70.47919 322.000
70.49914 303.000
70.51908 307.000
70.53903 297.000
70.55898 302.000
70.57892 307.000
70.59887 280.000
70.61882 303.000
70.63876 297.000
70.65871 306.000
70.67866 280.000
70.69860 309.000
70.71855 306.000
70.73850 272.000
70.75845 309.000
70.77839 269.000
70.79834 321.000
70.81829 314.000
70.83823 293.000
70.85818 301.000
70.87813 292.000
70.89807 304.000
70.91802 305.000
70.93797 292.000
70.95792 291.000
70.97786 340.000
70.99781 322.000
71.01776 275.000
71.03770 295.000
71.05765 267.000
71.07760 307.000
71.09754 308.000
71.11749 274.000
71.13744 286.000
71.15738 305.000
71.17733 331.000
71.19728 286.000
71.21723 308.000
71.23717 318.000
71.25712 306.000
71.27707 319.000
71.29701 369.000
71.31696 299.000
71.33691 287.000
71.35685 333.000
71.37680 314.000
71.39675 314.000
71.41670 320.000
71.43664 347.000
71.45659 333.000
71.47654 327.000
71.49648 328.000
71.51643 343.000
71.53638 308.000
71.55632 311.000
71.57627 305.000
71.59622 325.000
71.61616 323.000
71.63611 346.000
71.65606 342.000
71.67601 322.000
71.69595 327.000
71.71590 326.000
71.73585 312.000
71.75579 336.000
71.77574 295.000
71.79569 292.000
71.81563 338.000
71.83558 328.000
71.85553 308.000
71.87548 295.000
71.89542 308.000
71.91537 302.000
71.93532 325.000
71.95526 304.000
71.97521 315.000
71.99516 323.000
72.01510 301.000
72.03505 299.000
72.05500 323.000
72.07495 335.000
72.09489 323.000
72.11484 335.000
72.13479 310.000
72.15473 337.000
72.17468 318.000
72.19463 341.000
72.21457 318.000
72.23452 348.000
72.25447 377.000
72.27441 335.000
72.29436 330.000
72.31431 336.000
72.33426 314.000
72.35420 339.000
72.37415 321.000
72.39410 366.000
72.41404 334.000
72.43399 339.000
72.45394 343.000
72.47388 319.000
72.49383 334.000
72.51378 313.000
72.53373 349.000
72.55367 350.000
72.57362 323.000
72.59357 319.000
72.61351 324.000
72.63346 347.000
72.65341 343.000
72.67335 338.000
72.69330 332.000
72.71325 314.000
72.73319 367.000
72.75314 318.000
72.77309 344.000
72.79304 314.000
72.81298 318.000
72.83293 347.000
72.85288 328.000
72.87282 367.000
72.89277 300.000
72.91272 326.000
72.93266 341.000
72.95261 325.000
72.97256 339.000
72.99251 324.000
73.01245 329.000
73.03240 333.000
73.05235 332.000
73.07229 320.000
73.09224 338.000
73.11219 338.000
73.13213 318.000
73.15208 308.000
73.17203 327.000
73.19197 326.000
73.21192 302.000
73.23187 310.000
73.25182 303.000
73.27176 307.000
73.29171 324.000
73.31166 324.000
73.33160 293.000
73.35155 322.000
73.37150 340.000
73.39144 328.000
73.41139 323.000
73.43134 320.000
73.45129 344.000
73.47123 310.000
73.49118 325.000
73.51113 316.000
73.53107 282.000
73.55102 311.000
73.57097 321.000
73.59091 292.000
73.61086 330.000
73.63081 299.000
73.65076 342.000
73.67070 317.000
73.69065 334.000
73.71060 314.000
73.73054 338.000
73.75049 324.000
73.77044 312.000
73.79038 356.000
73.81033 319.000
73.83028 347.000
73.85022 308.000
73.87017 303.000
73.89012 267.000
73.91007 292.000
73.93001 332.000
73.94996 309.000
73.96991 307.000
73.98985 295.000
74.00980 291.000
74.02975 311.000
74.04969 303.000
74.06964 337.000
74.08959 299.000
74.10954 331.000
74.12948 333.000
74.14943 345.000
74.16938 349.000
74.18932 326.000
74.20927 336.000
74.22922 343.000
74.24916 299.000
74.26911 351.000
74.28906 300.000
74.30900 347.000
74.32895 330.000
74.34890 335.000
74.36885 339.000
74.38879 335.000
74.40874 351.000
74.42869 350.000
74.44863 387.000
74.46858 372.000
74.48853 415.000
74.50847 386.000
74.52842 383.000
74.54837 367.000
74.56832 359.000
74.58826 340.000
74.60821 347.000
74.62816 317.000
74.64810 350.000
74.66805 369.000
74.68800 374.000
74.70794 356.000
74.72789 358.000
74.74784 351.000
74.76778 357.000
74.78773 348.000
74.80768 361.000
74.82763 371.000
74.84757 352.000
74.86752 357.000
74.88747 337.000
74.90741 351.000
74.92736 331.000
74.94731 365.000
74.96725 372.000
74.98720 351.000
75.00715 398.000
75.02710 370.000
75.04704 339.000
75.06699 392.000
75.08694 364.000
75.10688 415.000
75.12683 350.000
75.14678 399.000
75.16672 364.000
75.18667 378.000
75.20662 384.000
75.22657 370.000
75.24651 371.000
75.26646 357.000
75.28641 367.000
75.30635 363.000
75.32630 350.000
75.34625 366.000
75.36619 339.000
75.38614 360.000
75.40609 359.000
75.42603 352.000
75.44598 353.000
75.46593 331.000
75.48588 355.000
75.50582 339.000
75.52577 367.000
75.54572 347.000
75.56566 338.000
75.58561 344.000
75.60556 307.000
75.62550 316.000
75.64545 343.000
75.66540 299.000
75.68535 328.000
75.70529 334.000
75.72524 323.000
75.74519 310.000
75.76513 313.000
75.78508 312.000
75.80503 294.000
75.82497 306.000
75.84492 333.000
75.86487 344.000
75.88481 330.000
75.90476 306.000
75.92471 278.000
75.94466 300.000
75.96460 313.000
75.98455 307.000
76.00450 288.000
76.02444 315.000
76.04439 329.000
76.06434 344.000
76.08428 293.000
76.10423 276.000
76.12418 338.000
76.14413 293.000
76.16407 271.000
76.18402 295.000
76.20397 283.000
76.22391 335.000
76.24386 303.000
76.26381 289.000
76.28375 281.000
76.30370 313.000
76.32365 286.000
76.34359 305.000
76.36354 255.000
76.38349 279.000
76.40344 298.000
76.42338 311.000
76.44333 283.000
76.46328 295.000
76.48322 338.000
76.50317 308.000
76.52312 284.000
76.54306 309.000
76.56301 298.000
76.58296 292.000
76.60291 297.000
76.62285 348.000
76.64280 292.000
76.66275 292.000
76.68269 298.000
76.70264 307.000
76.72259 315.000
76.74253 307.000
76.76248 318.000
76.78243 325.000
76.80238 304.000
76.82232 313.000
76.84227 308.000
76.86222 283.000
76.88216 309.000
76.90211 348.000
76.92206 313.000
76.94200 323.000
76.96195 306.000
76.98190 350.000
77.00184 330.000
77.02179 294.000
77.04174 325.000
77.06169 332.000
77.08163 336.000
77.10158 313.000
77.12153 310.000
77.14147 326.000
77.16142 309.000
77.18137 333.000
77.20131 348.000
77.22126 318.000
77.24121 335.000
77.26116 303.000
77.28110 307.000
77.30105 302.000
77.32100 296.000
77.34094 298.000
77.36089 321.000
77.38084 307.000
77.40078 313.000
77.42073 278.000
77.44068 307.000
77.46062 330.000
77.48057 319.000
77.50052 344.000
77.52047 339.000
77.54041 330.000
77.56036 279.000
77.58031 336.000
77.60025 325.000
77.62020 314.000
77.64015 322.000
77.66009 316.000
77.68004 292.000
77.69999 270.000
77.71994 318.000
77.73988 288.000
77.75983 321.000
77.77978 316.000
77.79972 316.000
77.81967 328.000
77.83962 329.000
77.85956 307.000
77.87951 296.000
77.89946 351.000
77.91940 325.000
77.93935 291.000
77.95930 302.000
77.97925 305.000
77.99919 315.000
78.01914 311.000
78.03909 311.000
78.05903 300.000
78.07898 297.000
78.09893 329.000
78.11887 300.000
78.13882 297.000
78.15877 325.000
78.17872 363.000
78.19866 322.000
78.21861 319.000
78.23856 324.000
78.25850 310.000
78.27845 302.000
78.29840 286.000
78.31834 279.000
78.33829 315.000
78.35824 313.000
78.37819 288.000
78.39813 275.000
78.41808 289.000
78.43803 293.000
78.45797 318.000
78.47792 333.000
78.49787 344.000
78.51781 288.000
78.53776 283.000
78.55771 274.000
78.57765 252.000
78.59760 310.000
78.61755 321.000
78.63750 320.000
78.65744 328.000
78.67739 303.000
78.69734 310.000
78.71728 311.000
78.73723 343.000
78.75718 281.000
78.77712 322.000
78.79707 306.000
78.81702 320.000
78.83697 309.000
78.85691 317.000
78.87686 338.000
78.89681 275.000
78.91675 300.000
78.93670 341.000
78.95665 317.000
78.97659 316.000
78.99654 297.000
79.01649 323.000
79.03643 355.000
79.05638 328.000
79.07633 307.000
79.09628 322.000
79.11622 340.000
79.13617 332.000
79.15612 324.000
79.17606 315.000
79.19601 311.000
79.21596 333.000
79.23590 300.000
79.25585 343.000
79.27580 280.000
79.29575 307.000
79.31569 288.000
79.33564 335.000
79.35559 299.000
79.37553 336.000
79.39548 330.000
79.41543 308.000
79.43537 317.000
79.45532 298.000
79.47527 346.000
79.49521 307.000
79.51516 309.000
79.53511 314.000
79.55506 312.000
79.57500 303.000
79.59495 299.000
79.61490 265.000
79.63484 316.000
79.65479 288.000
79.67474 297.000
79.69468 301.000
79.71463 314.000
79.73458 315.000
79.75453 306.000
79.77447 318.000
79.79442 289.000
79.81437 286.000
79.83431 281.000
79.85426 288.000
79.87421 306.000
79.89415 296.000
79.91410 288.000
79.93405 268.000
79.95399 287.000
79.97394 310.000
79.99389 278.000
80.01384 312.000
80.03378 309.000
80.05373 291.000
80.07368 272.000
80.09362 267.000
80.11357 293.000
80.13352 300.000
80.15346 289.000
80.17341 275.000
80.19336 329.000
80.21331 314.000
80.23325 292.000
80.25320 288.000
80.27315 265.000
80.29309 287.000
80.31304 323.000
80.33299 278.000
80.35293 314.000
80.37288 243.000
80.39283 280.000
80.41278 277.000
80.43272 278.000
80.45267 276.000
80.47262 277.000
80.49256 297.000
80.51251 316.000
80.53246 312.000
80.55240 309.000
80.57235 304.000
80.59230 299.000
80.61224 285.000
80.63219 275.000
80.65214 309.000
80.67209 254.000
80.69203 271.000
80.71198 317.000
80.73193 304.000
80.75187 301.000
80.77182 276.000
80.79177 324.000
80.81171 255.000
80.83166 289.000
80.85161 286.000
80.87156 278.000
80.89150 261.000
80.91145 284.000
80.93140 278.000
80.95134 277.000
80.97129 301.000
80.99124 282.000
81.01118 245.000
81.03113 297.000
81.05108 271.000
81.07102 279.000
81.09097 290.000
81.11092 278.000
81.13087 301.000
81.15081 303.000
81.17076 297.000
81.19071 260.000
81.21065 295.000
81.23060 250.000
81.25055 281.000
81.27049 285.000
81.29044 273.000
81.31039 283.000
81.33034 314.000
81.35028 292.000
81.37023 279.000
81.39018 291.000
81.41012 271.000
81.43007 264.000
81.45002 292.000
81.46996 299.000
81.48991 301.000
81.50986 302.000
81.52980 263.000
81.54975 288.000
81.56970 306.000
81.58965 300.000
81.60959 282.000
81.62954 277.000
81.64949 282.000
81.66943 285.000
81.68938 300.000
81.70933 303.000
81.72927 273.000
81.74922 281.000
81.76917 317.000
81.78912 272.000
81.80906 310.000
81.82901 293.000
81.84896 270.000
81.86890 282.000
81.88885 277.000
81.90880 254.000
81.92874 295.000
81.94869 253.000
81.96864 300.000
81.98859 282.000
82.00853 272.000
82.02848 296.000
82.04843 288.000
82.06837 280.000
82.08832 301.000
82.10827 285.000
82.12821 283.000
82.14816 313.000
82.16811 325.000
82.18805 303.000
82.20800 293.000
82.22795 266.000
82.24790 279.000
82.26784 296.000
82.28779 348.000
82.30774 307.000
82.32768 310.000
82.34763 318.000
82.36758 294.000
82.38752 299.000
82.40747 298.000
82.42742 285.000
82.44737 289.000
82.46731 314.000
82.48726 297.000
82.50721 300.000
82.52715 344.000
82.54710 300.000
82.56705 295.000
82.58699 281.000
82.60694 301.000
82.62689 321.000
82.64683 298.000
82.66678 271.000
82.68673 317.000
82.70668 312.000
82.72662 299.000
82.74657 270.000
82.76652 300.000
82.78646 303.000
82.80641 287.000
82.82636 306.000
82.84630 309.000
82.86625 305.000
82.88620 311.000
82.90615 280.000
82.92609 326.000
82.94604 294.000
82.96599 298.000
82.98593 308.000
83.00588 284.000
83.02583 306.000
83.04577 297.000
83.06572 261.000
83.08567 301.000
83.10561 264.000
83.12556 298.000
83.14551 288.000
83.16546 317.000
83.18540 282.000
83.20535 286.000
83.22530 312.000
83.24524 279.000
83.26519 288.000
83.28514 298.000
83.30508 292.000
83.32503 311.000
83.34498 270.000
83.36493 310.000
83.38487 276.000
83.40482 271.000
83.42477 299.000
83.44471 309.000
83.46466 302.000
83.48461 293.000
83.50455 281.000
83.52450 329.000
83.54445 285.000
83.56440 300.000
83.58434 293.000
83.60429 298.000
83.62424 276.000
83.64418 273.000
83.66413 267.000
83.68408 287.000
83.70402 297.000
83.72397 308.000
83.74392 275.000
83.76386 325.000
83.78381 283.000
83.80376 286.000
83.82371 305.000
83.84365 266.000
83.86360 303.000
83.88355 281.000
83.90349 298.000
83.92344 304.000
83.94339 293.000
83.96333 304.000
83.98328 279.000
84.00323 285.000
84.02318 283.000
84.04312 282.000
84.06307 282.000
84.08302 271.000
84.10296 289.000
84.12291 289.000
84.14286 279.000
84.16280 307.000
84.18275 265.000
84.20270 278.000
84.22264 280.000
84.24259 262.000
84.26254 313.000
84.28249 258.000
84.30243 281.000
84.32238 249.000
84.34233 294.000
84.36227 264.000
84.38222 253.000
84.40217 282.000
84.42211 252.000
84.44206 287.000
84.46201 289.000
84.48196 274.000
84.50190 291.000
84.52185 273.000
84.54180 273.000
84.56174 286.000
84.58169 278.000
84.60164 284.000
84.62158 301.000
84.64153 291.000
84.66148 269.000
84.68142 286.000
84.70137 268.000
84.72132 254.000
84.74127 286.000
84.76121 273.000
84.78116 315.000
84.80111 305.000
84.82105 250.000
84.84100 283.000
84.86095 264.000
84.88089 253.000
84.90084 285.000
84.92079 296.000
84.94074 295.000
84.96068 279.000
84.98063 285.000
85.00058 252.000
85.02052 259.000
85.04047 289.000
85.06042 258.000
85.08036 265.000
85.10031 327.000
85.12026 302.000
85.14021 264.000
85.16015 261.000
85.18010 270.000
85.20005 305.000
85.21999 284.000
85.23994 269.000
85.25989 264.000
85.27983 283.000
85.29978 268.000
85.31973 276.000
85.33967 298.000
85.35962 269.000
85.37957 264.000
85.39952 305.000
85.41946 278.000
85.43941 286.000
85.45936 273.000
85.47930 276.000
85.49925 283.000
85.51920 302.000
85.53914 280.000
85.55909 273.000
85.57904 252.000
85.59899 290.000
85.61893 308.000
85.63888 293.000
85.65883 280.000
85.67877 277.000
85.69872 260.000
85.71867 251.000
85.73861 305.000
85.75856 250.000
85.77851 268.000
85.79845 296.000
85.81840 260.000
85.83835 272.000
85.85830 295.000
85.87824 290.000
85.89819 313.000
85.91814 279.000
85.93808 279.000
85.95803 266.000
85.97798 295.000
85.99792 276.000
86.01787 282.000
86.03782 295.000
86.05777 284.000
86.07771 307.000
86.09766 304.000
86.11761 296.000
86.13755 296.000
86.15750 279.000
86.17745 257.000
86.19739 290.000
86.21734 280.000
86.23729 286.000
86.25723 272.000
86.27718 274.000
86.29713 295.000
86.31708 277.000
86.33702 221.000
86.35697 295.000
86.37692 274.000
86.39686 291.000
86.41681 268.000
86.43676 262.000
86.45670 268.000
86.47665 275.000
86.49660 301.000
86.51655 287.000
86.53649 284.000
86.55644 275.000
86.57639 286.000
86.59633 280.000
86.61628 309.000
86.63623 303.000
86.65617 276.000
86.67612 276.000
86.69607 270.000
86.71602 318.000
86.73596 265.000
86.75591 267.000
86.77586 270.000
86.79580 303.000
86.81575 281.000
86.83570 279.000
86.85564 282.000
86.87559 287.000
86.89554 301.000
86.91548 271.000
86.93543 293.000
86.95538 319.000
86.97533 267.000
86.99527 274.000
87.01522 275.000
87.03517 272.000
87.05511 292.000
87.07506 291.000
87.09501 304.000
87.11495 278.000
87.13490 296.000
87.15485 269.000
87.17480 301.000
87.19474 293.000
87.21469 285.000
87.23464 279.000
87.25458 264.000
87.27453 278.000
87.29448 323.000
87.31442 312.000
87.33437 301.000
87.35432 318.000
87.37426 334.000
87.39421 315.000
87.41416 286.000
87.43411 314.000
87.45405 273.000
87.47400 307.000
87.49395 290.000
87.51389 315.000
87.53384 320.000
87.55379 313.000
87.57373 313.000
87.59368 303.000
87.61363 311.000
87.63358 279.000
87.65352 293.000
87.67347 304.000
87.69342 291.000
87.71336 315.000
87.73331 292.000
87.75326 272.000
87.77320 295.000
87.79315 293.000
87.81310 292.000
87.83304 287.000
87.85299 244.000
87.87294 288.000
87.89289 281.000
87.91283 262.000
87.93278 319.000
87.95273 286.000
87.97267 278.000
87.99262 283.000
88.01257 286.000
88.03251 291.000
88.05246 269.000
88.07241 288.000
88.09236 256.000
88.11230 273.000
88.13225 286.000
88.15220 286.000
88.17214 273.000
88.19209 264.000
88.21204 283.000
88.23198 271.000
88.25193 261.000
88.27188 278.000
88.29183 277.000
88.31177 262.000
88.33172 267.000
88.35167 273.000
88.37161 283.000
88.39156 283.000
88.41151 255.000
88.43145 295.000
88.45140 272.000
88.47135 283.000
88.49129 254.000
88.51124 272.000
88.53119 271.000
88.55114 263.000
88.57108 254.000
88.59103 288.000
88.61098 289.000
88.63092 274.000
88.65087 255.000
88.67082 329.000
88.69076 307.000
88.71071 290.000
88.73066 286.000
88.75061 269.000
88.77055 301.000
88.79050 258.000
88.81045 307.000
88.83039 297.000
88.85034 300.000
88.87029 301.000
88.89023 267.000
88.91018 278.000
88.93013 279.000
88.95007 280.000
88.97002 255.000
88.98997 284.000
89.00992 283.000
89.02986 290.000
89.04981 256.000
89.06976 270.000
89.08970 296.000
89.10965 288.000
89.12960 276.000
89.14954 319.000
89.16949 297.000
89.18944 303.000
89.20939 274.000
89.22933 259.000
89.24928 285.000
89.26923 272.000
89.28917 290.000
89.30912 319.000
89.32907 271.000
89.34901 283.000
89.36896 281.000
89.38891 298.000
89.40885 277.000
89.42880 293.000
89.44875 305.000
89.46870 289.000
89.48864 282.000
89.50859 297.000
89.52854 305.000
89.54848 279.000
89.56843 272.000
89.58838 273.000
89.60832 299.000
89.62827 307.000
89.64822 296.000
89.66817 267.000
89.68811 275.000
89.70806 300.000
89.72801 302.000
89.74795 261.000
89.76790 275.000
89.78785 316.000
89.80779 283.000
89.82774 309.000
89.84769 266.000
89.86764 293.000
89.88758 279.000
89.90753 263.000
89.92748 312.000
89.94742 305.000
89.96737 255.000
89.98732 302.000
90.00726 347.000
