10.00000 141.000
10.01995 137.000
10.03989 120.000
10.05984 158.000
10.07979 152.000
10.09973 156.000
10.11968 157.000
10.13963 124.000
10.15958 158.000
10.17952 142.000
10.19947 151.000
10.21942 147.000
10.23936 149.000
10.25931 151.000
10.27926 141.000
10.29920 148.000
10.31915 136.000
10.33910 156.000
10.35905 147.000
10.37899 126.000
10.39894 131.000
10.41889 160.000
10.43883 158.000
10.45878 158.000
10.47873 143.000
10.49867 150.000
10.51862 141.000
10.53857 161.000
10.55851 151.000
10.57846 151.000
10.59841 149.000
10.61836 156.000
10.63830 141.000
10.65825 172.000
10.67820 141.000
10.69814 157.000
10.71809 127.000
10.73804 155.000
10.75798 162.000
10.77793 147.000
10.79788 149.000
10.81783 142.000
10.83777 148.000
10.85772 144.000
10.87767 153.000
10.89761 130.000
10.91756 160.000
10.93751 150.000
10.95745 163.000
10.97740 128.000
10.99735 148.000
11.01730 141.000
11.03724 169.000
11.05719 143.000
11.07714 137.000
11.09708 124.000
11.11703 137.000
11.13698 153.000
11.15692 140.000
11.17687 151.000
11.19682 150.000
11.21676 165.000
11.23671 138.000
11.25666 148.000
11.27661 162.000
11.29655 114.000
11.31650 146.000
11.33645 157.000
11.35639 155.000
11.37634 161.000
11.39629 169.000
11.41623 141.000
11.43618 148.000
11.45613 137.000
11.47608 139.000
11.49602 137.000
11.51597 145.000
11.53592 145.000
11.55586 142.000
11.57581 171.000
11.59576 142.000
11.61570 152.000
11.63565 140.000
11.65560 142.000
11.67554 155.000
11.69549 146.000
11.71544 162.000
11.73539 153.000
11.75533 159.000
11.77528 147.000
11.79523 129.000
11.81517 146.000
11.83512 136.000
11.85507 162.000
11.87501 152.000
11.89496 150.000
11.91491 163.000
11.93486 141.000
11.95480 127.000
11.97475 171.000
11.99470 154.000
12.01464 137.000
12.03459 169.000
12.05454 147.000
12.07448 150.000
12.09443 164.000
12.11438 148.000
12.13432 148.000
12.15427 152.000
12.17422 148.000
12.19417 151.000
12.21411 154.000
12.23406 136.000
12.25401 156.000
12.27395 152.000
12.29390 144.000
12.31385 139.000
12.33379 139.000
12.35374 139.000
12.37369 163.000
12.39364 133.000
12.41358 140.000
12.43353 156.000
12.45348 152.000
12.47342 126.000
12.49337 138.000
12.51332 162.000
12.53326 153.000
12.55321 148.000
12.57316 155.000
12.59311 140.000
12.61305 144.000
12.63300 163.000
12.65295 147.000
12.67289 141.000
12.69284 135.000
12.71279 126.000
12.73273 161.000
12.75268 150.000
12.77263 157.000
12.79257 144.000
12.81252 163.000
12.83247 149.000
12.85242 125.000
12.87236 140.000
12.89231 119.000
12.91226 156.000
12.93220 161.000
12.95215 156.000
12.97210 156.000
12.99204 142.000
13.01199 163.000
13.03194 135.000
13.05189 149.000
13.07183 153.000
13.09178 148.000
13.11173 168.000
13.13167 135.000
13.15162 159.000
13.17157 160.000
13.19151 164.000
13.21146 134.000
13.23141 167.000
13.25135 175.000
13.27130 145.000
13.29125 141.000
13.31120 146.000
13.33114 168.000
13.35109 155.000
13.37104 142.000
13.39098 145.000
13.41093 140.000
13.43088 134.000
13.45082 139.000
13.47077 144.000
13.49072 152.000
13.51067 137.000
13.53061 134.000
13.55056 141.000
13.57051 156.000
13.59045 154.000
13.61040 171.000
13.63035 163.000
13.65029 148.000
13.67024 142.000
13.69019 151.000
13.71013 139.000
13.73008 141.000
13.75003 132.000
13.76998 162.000
13.78992 149.000
13.80987 154.000
13.82982 150.000
13.84976 157.000
13.86971 151.000
13.88966 136.000
13.90960 137.000
13.92955 157.000
13.94950 151.000
13.96945 161.000
13.98939 136.000
14.00934 150.000
14.02929 141.000
14.04923 137.000
14.06918 157.000
14.08913 152.000
14.10907 128.000
14.12902 137.000
14.14897 165.000
14.16892 149.000
14.18886 154.000
14.20881 140.000
14.22876 132.000
14.24870 170.000
14.26865 146.000
14.28860 160.000
14.30854 167.000
14.32849 143.000
14.34844 119.000
14.36838 145.000
14.38833 142.000
14.40828 128.000
14.42823 142.000
14.44817 140.000
14.46812 146.000
14.48807 145.000
14.50801 161.000
14.52796 142.000
14.54791 149.000
14.56785 169.000
14.58780 147.000
14.60775 150.000
14.62770 167.000
14.64764 159.000
14.66759 155.000
14.68754 158.000
14.70748 163.000
14.72743 164.000
14.74738 141.000
14.76732 136.000
14.78727 137.000
14.80722 170.000
14.82716 142.000
14.84711 150.000
14.86706 173.000
14.88701 168.000
14.90695 132.000
14.92690 141.000
14.94685 155.000
14.96679 159.000
14.98674 140.000
15.00669 138.000
15.02663 180.000
15.04658 174.000
15.06653 175.000
15.08648 162.000
15.10642 165.000
15.12637 205.000
15.14632 172.000
15.16626 188.000
15.18621 171.000
15.20616 171.000
15.22610 175.000
15.24605 179.000
15.26600 185.000
15.28594 192.000
15.30589 196.000
15.32584 190.000
15.34579 199.000
15.36573 190.000
15.38568 201.000
15.40563 219.000
15.42557 195.000
15.44552 191.000
15.46547 188.000
15.48541 231.000
15.50536 213.000
15.52531 220.000
15.54526 235.000
15.56520 238.000
15.58515 268.000
15.60510 312.000
15.62504 311.000
15.64499 394.000
15.66494 499.000
15.68488 623.000
15.70483 921.000
15.72478 1434.000
15.74472 2185.000
15.76467 3617.000
15.78462 5266.000
15.80457 6820.000
15.82451 6614.000
15.84446 4864.000
15.86441 3381.000
15.88435 1846.000
15.90430 1251.000
15.92425 1071.000
15.94419 1199.000
15.96414 1499.000
15.98409 2006.000
16.00404 2341.000
16.02398 2423.000
16.04393 2141.000
16.06388 1774.000
16.08382 1333.000
16.10377 809.000
16.12372 576.000
16.14366 347.000
16.16361 278.000
16.18356 253.000
16.20351 228.000
16.22345 230.000
16.24340 197.000
16.26335 204.000
16.28329 226.000
16.30324 212.000
16.32319 189.000
16.34313 164.000
16.36308 188.000
16.38303 217.000
16.40297 161.000
16.42292 164.000
16.44287 154.000
16.46282 164.000
16.48276 166.000
16.50271 167.000
16.52266 189.000
16.54260 181.000
16.56255 171.000
16.58250 183.000
16.60244 190.000
16.62239 179.000
16.64234 174.000
16.66229 132.000
16.68223 165.000
16.70218 171.000
16.72213 160.000
16.74207 147.000
16.76202 164.000
16.78197 180.000
16.80191 175.000
16.82186 185.000
16.84181 180.000
16.86175 187.000
16.88170 193.000
16.90165 171.000
16.92160 185.000
16.94154 191.000
16.96149 157.000
16.98144 146.000
17.00138 137.000
17.02133 152.000
17.04128 165.000
17.06122 163.000
17.08117 164.000
17.10112 151.000
17.12107 148.000
17.14101 142.000
17.16096 130.000
17.18091 163.000
17.20085 145.000
17.22080 138.000
17.24075 156.000
17.26069 143.000
17.28064 140.000
17.30059 140.000
17.32053 155.000
17.34048 137.000
17.36043 147.000
17.38038 156.000
17.40032 166.000
17.42027 145.000
17.44022 144.000
17.46016 152.000
17.48011 156.000
17.50006 146.000
17.52000 130.000
17.53995 153.000
17.55990 116.000
17.57985 156.000
17.59979 147.000
17.61974 130.000
17.63969 130.000
17.65963 129.000
17.67958 162.000
17.69953 134.000
17.71947 137.000
17.73942 153.000
17.75937 154.000
17.77932 154.000
17.79926 151.000
17.81921 196.000
17.83916 125.000
17.85910 150.000
17.87905 157.000
17.89900 142.000
17.91894 124.000
17.93889 150.000
17.95884 136.000
17.97878 143.000
17.99873 143.000
18.01868 147.000
18.03863 165.000
18.05857 151.000
18.07852 153.000
18.09847 151.000
18.11841 161.000
18.13836 134.000
18.15831 152.000
18.17825 155.000
18.19820 146.000
18.21815 133.000
18.23810 144.000
18.25804 155.000
18.27799 140.000
18.29794 146.000
18.31788 147.000
18.33783 141.000
18.35778 134.000
18.37772 141.000
18.39767 141.000
18.41762 150.000
18.43756 126.000
18.45751 122.000
18.47746 140.000
18.49741 111.000
18.51735 131.000
18.53730 131.000
18.55725 148.000
18.57719 155.000
18.59714 143.000
18.61709 159.000
18.63703 121.000
18.65698 146.000
18.67693 142.000
18.69688 144.000
18.71682 139.000
18.73677 122.000
18.75672 155.000
18.77666 143.000
18.79661 124.000
18.81656 131.000
18.83650 157.000
18.85645 139.000
18.87640 158.000
18.89634 146.000
18.91629 148.000
18.93624 148.000
18.95619 139.000
18.97613 139.000
18.99608 156.000
19.01603 169.000
19.03597 153.000
19.05592 144.000
19.07587 147.000
19.09581 155.000
19.11576 125.000
19.13571 129.000
19.15566 158.000
19.17560 145.000
19.19555 161.000
19.21550 148.000
19.23544 139.000
19.25539 140.000
19.27534 166.000
19.29528 134.000
19.31523 126.000
19.33518 161.000
19.35513 148.000
19.37507 148.000
19.39502 158.000
19.41497 142.000
19.43491 140.000
19.45486 147.000
19.47481 145.000
19.49475 159.000
19.51470 132.000
19.53465 141.000
19.55459 160.000
19.57454 140.000
19.59449 163.000
19.61444 163.000
19.63438 133.000
19.65433 149.000
19.67428 143.000
19.69422 134.000
19.71417 174.000
19.73412 153.000
19.75406 157.000
19.77401 135.000
19.79396 176.000
19.81391 164.000
19.83385 148.000
19.85380 155.000
19.87375 133.000
19.89369 141.000
19.91364 146.000
19.93359 130.000
19.95353 154.000
19.97348 157.000
19.99343 147.000
20.01337 129.000
20.03332 138.000
20.05327 164.000
20.07322 121.000
20.09316 140.000
20.11311 143.000
20.13306 159.000
20.15300 149.000
20.17295 155.000
20.19290 140.000
20.21284 151.000
20.23279 134.000
20.25274 125.000
20.27269 148.000
20.29263 151.000
20.31258 147.000
20.33253 120.000
20.35247 114.000
20.37242 152.000
20.39237 163.000
20.41231 166.000
20.43226 120.000
20.45221 162.000
20.47215 150.000
20.49210 168.000
20.51205 123.000
20.53200 136.000
20.55194 169.000
20.57189 119.000
20.59184 194.000
20.61178 149.000
20.63173 171.000
20.65168 140.000
20.67162 160.000
20.69157 156.000
20.71152 183.000
20.73147 184.000
20.75141 189.000
20.77136 209.000
20.79131 228.000
20.81125 245.000
20.83120 279.000
20.85115 332.000
20.87109 367.000
20.89104 396.000
20.91099 353.000
20.93094 405.000
20.95088 342.000
20.97083 306.000
20.99078 286.000
21.01072 310.000
21.03067 231.000
21.05062 234.000
21.07056 212.000
21.09051 180.000
21.11046 175.000
21.13040 160.000
21.15035 180.000
21.17030 144.000
21.19025 149.000
21.21019 151.000
21.23014 159.000
21.25009 135.000
21.27003 141.000
21.28998 149.000
21.30993 143.000
21.32987 151.000
21.34982 164.000
21.36977 155.000
21.38972 165.000
21.40966 139.000
21.42961 136.000
21.44956 129.000
21.46950 148.000
21.48945 156.000
21.50940 165.000
21.52934 158.000
21.54929 156.000
21.56924 168.000
21.58918 141.000
21.60913 143.000
21.62908 136.000
21.64903 143.000
21.66897 158.000
21.68892 140.000
21.70887 155.000
21.72881 139.000
21.74876 143.000
21.76871 151.000
21.78865 148.000
21.80860 159.000
21.82855 123.000
21.84850 141.000
21.86844 135.000
21.88839 161.000
21.90834 139.000
21.92828 150.000
21.94823 143.000
21.96818 149.000
21.98812 117.000
22.00807 152.000
22.02802 161.000
22.04796 161.000
22.06791 148.000
22.08786 159.000
22.10781 143.000
22.12775 154.000
22.14770 165.000
22.16765 157.000
22.18759 131.000
22.20754 144.000
22.22749 149.000
22.24743 156.000
22.26738 155.000
22.28733 151.000
22.30728 158.000
22.32722 140.000
22.34717 137.000
22.36712 147.000
22.38706 159.000
22.40701 142.000
22.42696 142.000
22.44690 127.000
22.46685 142.000
22.48680 110.000
22.50675 138.000
22.52669 129.000
22.54664 128.000
22.56659 150.000
22.58653 147.000
22.60648 141.000
22.62643 144.000
22.64637 139.000
22.66632 136.000
22.68627 147.000
22.70621 147.000
22.72616 137.000
22.74611 147.000
22.76606 141.000
22.78600 148.000
22.80595 125.000
22.82590 151.000
22.84584 153.000
22.86579 151.000
22.88574 152.000
22.90568 138.000
22.92563 126.000
22.94558 143.000
22.96553 149.000
22.98547 147.000
23.00542 169.000
23.02537 164.000
23.04531 152.000
23.06526 137.000
23.08521 159.000
23.10515 155.000
23.12510 141.000
23.14505 152.000
23.16499 155.000
23.18494 146.000
23.20489 137.000
23.22484 138.000
23.24478 147.000
23.26473 127.000
23.28468 150.000
23.30462 151.000
23.32457 141.000
23.34452 137.000
23.36446 136.000
23.38441 164.000
23.40436 144.000
23.42431 157.000
23.44425 120.000
23.46420 143.000
23.48415 148.000
23.50409 153.000
23.52404 145.000
23.54399 152.000
23.56393 148.000
23.58388 142.000
23.60383 148.000
23.62377 139.000
23.64372 152.000
23.66367 116.000
23.68362 129.000
23.70356 129.000
23.72351 164.000
23.74346 137.000
23.76340 149.000
23.78335 171.000
23.80330 153.000
23.82324 163.000
23.84319 151.000
23.86314 161.000
23.88309 153.000
23.90303 158.000
23.92298 150.000
23.94293 141.000
23.96287 180.000
23.98282 121.000
24.00277 154.000
24.02271 143.000
24.04266 134.000
24.06261 143.000
24.08256 138.000
24.10250 140.000
24.12245 154.000
24.14240 141.000
24.16234 188.000
24.18229 163.000
24.20224 167.000
24.22218 165.000
24.24213 152.000
24.26208 150.000
24.28202 135.000
24.30197 143.000
24.32192 169.000
24.34187 134.000
24.36181 160.000
24.38176 142.000
24.40171 160.000
24.42165 138.000
24.44160 154.000
24.46155 147.000
24.48149 137.000
24.50144 152.000
24.52139 157.000
24.54134 149.000
24.56128 151.000
24.58123 160.000
24.60118 145.000
24.62112 132.000
24.64107 124.000
24.66102 146.000
24.68096 166.000
24.70091 161.000
24.72086 130.000
24.74080 157.000
24.76075 138.000
24.78070 157.000
24.80065 168.000
24.82059 148.000
24.84054 146.000
24.86049 151.000
24.88043 153.000
24.90038 144.000
24.92033 162.000
24.94027 171.000
24.96022 176.000
24.98017 171.000
25.00012 154.000
25.02006 183.000
25.04001 160.000
25.05996 139.000
25.07990 160.000
25.09985 126.000
25.11980 190.000
25.13974 152.000
25.15969 142.000
25.17964 151.000
25.19958 161.000
25.21953 169.000
25.23948 155.000
25.25943 137.000
25.27937 169.000
25.29932 137.000
25.31927 143.000
25.33921 160.000
25.35916 157.000
25.37911 145.000
25.39905 167.000
25.41900 133.000
25.43895 151.000
25.45890 150.000
25.47884 159.000
25.49879 144.000
25.51874 139.000
25.53868 144.000
25.55863 155.000
25.57858 138.000
25.59852 144.000
25.61847 147.000
25.63842 158.000
25.65837 169.000
25.67831 153.000
25.69826 163.000
25.71821 135.000
25.73815 128.000
25.75810 149.000
25.77805 153.000
25.79799 173.000
25.81794 147.000
25.83789 182.000
25.85783 162.000
25.87778 139.000
25.89773 159.000
25.91768 143.000
25.93762 162.000
25.95757 163.000
25.97752 151.000
25.99746 152.000
26.01741 156.000
26.03736 162.000
26.05730 156.000
26.07725 145.000
26.09720 163.000
26.11715 171.000
26.13709 166.000
26.15704 153.000
26.17699 150.000
26.19693 164.000
26.21688 175.000
26.23683 153.000
26.25677 157.000
26.27672 164.000
26.29667 164.000
26.31661 137.000
26.33656 144.000
26.35651 142.000
26.37646 162.000
26.39640 150.000
26.41635 151.000
26.43630 139.000
26.45624 155.000
26.47619 142.000
26.49614 173.000
26.51608 159.000
26.53603 171.000
26.55598 162.000
26.57593 163.000
26.59587 151.000
26.61582 132.000
26.63577 148.000
26.65571 166.000
26.67566 168.000
26.69561 154.000
26.71555 159.000
26.73550 154.000
26.75545 160.000
26.77539 157.000
26.79534 146.000
26.81529 151.000
26.83524 160.000
26.85518 150.000
26.87513 142.000
26.89508 162.000
26.91502 143.000
26.93497 153.000
26.95492 154.000
26.97486 139.000
26.99481 166.000
27.01476 162.000
27.03471 153.000
27.05465 173.000
27.07460 160.000
27.09455 149.000
27.11449 170.000
27.13444 155.000
27.15439 172.000
27.17433 140.000
27.19428 161.000
27.21423 162.000
27.23417 148.000
27.25412 147.000
27.27407 163.000
27.29402 182.000
27.31396 149.000
27.33391 133.000
27.35386 152.000
27.37380 165.000
27.39375 154.000
27.41370 167.000
27.43364 126.000
27.45359 165.000
27.47354 154.000
27.49349 152.000
27.51343 165.000
27.53338 183.000
27.55333 164.000
27.57327 168.000
27.59322 158.000
27.61317 167.000
27.63311 165.000
27.65306 153.000
27.67301 178.000
27.69296 146.000
27.71290 146.000
27.73285 140.000
27.75280 151.000
27.77274 179.000
27.79269 145.000
27.81264 169.000
27.83258 158.000
27.85253 161.000
27.87248 155.000
27.89242 149.000
27.91237 149.000
27.93232 141.000
27.95227 170.000
27.97221 139.000
27.99216 168.000
28.01211 148.000
28.03205 140.000
28.05200 138.000
28.07195 153.000
28.09189 161.000
28.11184 153.000
28.13179 137.000
28.15174 134.000
28.17168 152.000
28.19163 153.000
28.21158 143.000
28.23152 143.000
28.25147 165.000
28.27142 160.000
28.29136 131.000
28.31131 161.000
28.33126 161.000
28.35120 169.000
28.37115 164.000
28.39110 162.000
28.41105 149.000
28.43099 165.000
28.45094 159.000
28.47089 155.000
28.49083 129.000
28.51078 152.000
28.53073 171.000
28.55067 153.000
28.57062 149.000
28.59057 153.000
28.61052 157.000
28.63046 154.000
28.65041 164.000
28.67036 145.000
28.69030 137.000
28.71025 160.000
28.73020 179.000
28.75014 155.000
28.77009 148.000
28.79004 150.000
28.80998 157.000
28.82993 135.000
28.84988 152.000
28.86983 167.000
28.88977 138.000
28.90972 154.000
28.92967 175.000
28.94961 147.000
28.96956 154.000
28.98951 151.000
29.00945 150.000
29.02940 164.000
29.04935 162.000
29.06930 155.000
29.08924 152.000
29.10919 153.000
29.12914 177.000
29.14908 166.000
29.16903 183.000
29.18898 164.000
29.20892 157.000
29.22887 173.000
29.24882 184.000
29.26877 197.000
29.28871 172.000
29.30866 182.000
29.32861 179.000
29.34855 217.000
29.36850 221.000
29.38845 205.000
29.40839 253.000
29.42834 229.000
29.44829 214.000
29.46823 209.000
29.48818 178.000
29.50813 179.000
29.52808 200.000
29.54802 189.000
29.56797 174.000
29.58792 181.000
29.60786 167.000
29.62781 171.000
29.64776 176.000
29.66770 173.000
29.68765 172.000
29.70760 138.000
29.72755 183.000
29.74749 163.000
29.76744 171.000
29.78739 159.000
29.80733 149.000
29.82728 151.000
29.84723 151.000
29.86717 193.000
29.88712 156.000
29.90707 165.000
29.92701 164.000
29.94696 179.000
29.96691 166.000
29.98686 166.000
30.00680 166.000
30.02675 190.000
30.04670 186.000
30.06664 193.000
30.08659 151.000
30.10654 186.000
30.12648 173.000
30.14643 181.000
30.16638 180.000
30.18633 165.000
30.20627 175.000
30.22622 157.000
30.24617 191.000
30.26611 159.000
30.28606 171.000
30.30601 167.000
30.32595 175.000
30.34590 160.000
30.36585 152.000
30.38579 174.000
30.40574 157.000
30.42569 164.000
30.44564 142.000
30.46558 150.000
30.48553 187.000
30.50548 147.000
30.52542 169.000
30.54537 151.000
30.56532 162.000
30.58526 139.000
30.60521 156.000
30.62516 154.000
30.64511 170.000
30.66505 172.000
30.68500 178.000
30.70495 169.000
30.72489 170.000
30.74484 138.000
30.76479 169.000
30.78473 147.000
30.80468 172.000
30.82463 193.000
30.84458 150.000
30.86452 168.000
30.88447 167.000
30.90442 174.000
30.92436 186.000
30.94431 148.000
30.96426 139.000
30.98420 136.000
31.00415 147.000
31.02410 175.000
31.04404 171.000
31.06399 154.000
31.08394 160.000
31.10389 148.000
31.12383 179.000
31.14378 172.000
31.16373 159.000
31.18367 148.000
31.20362 159.000
31.22357 159.000
31.24351 169.000
31.26346 164.000
31.28341 184.000
31.30336 160.000
31.32330 173.000
31.34325 150.000
31.36320 157.000
31.38314 169.000
31.40309 179.000
31.42304 184.000
31.44298 152.000
31.46293 176.000
31.48288 165.000
31.50282 182.000
31.52277 143.000
31.54272 185.000
31.56267 190.000
31.58261 184.000
31.60256 183.000
31.62251 194.000
31.64245 203.000
31.66240 200.000
31.68235 199.000
31.70229 168.000
31.72224 218.000
31.74219 198.000
31.76214 236.000
31.78208 220.000
31.80203 236.000
31.82198 241.000
31.84192 339.000
31.86187 379.000
31.88182 523.000
31.90176 596.000
31.92171 612.000
31.94166 568.000
31.96160 460.000
31.98155 496.000
32.00150 456.000
32.02145 408.000
32.04139 341.000
32.06134 249.000
32.08129 242.000
32.10123 226.000
32.12118 220.000
32.14113 218.000
32.16107 187.000
32.18102 202.000
32.20097 238.000
32.22092 228.000
32.24086 232.000
32.26081 238.000
32.28076 280.000
32.30070 315.000
32.32065 306.000
32.34060 344.000
32.36054 363.000
32.38049 326.000
32.40044 342.000
32.42039 340.000
32.44033 309.000
32.46028 326.000
32.48023 273.000
32.50017 284.000
32.52012 281.000
32.54007 254.000
32.56001 283.000
32.57996 271.000
32.59991 228.000
32.61985 241.000
32.63980 223.000
32.65975 181.000
32.67970 162.000
32.69964 175.000
32.71959 180.000
32.73954 167.000
32.75948 159.000
32.77943 176.000
32.79938 187.000
32.81932 170.000
32.83927 161.000
32.85922 170.000
32.87917 178.000
32.89911 159.000
32.91906 191.000
32.93901 156.000
32.95895 155.000
32.97890 176.000
32.99885 143.000
33.01879 183.000
33.03874 183.000
33.05869 177.000
33.07863 164.000
33.09858 171.000
33.11853 176.000
33.13848 147.000
33.15842 167.000
33.17837 179.000
33.19832 153.000
33.21826 167.000
33.23821 183.000
33.25816 165.000
33.27810 144.000
33.29805 160.000
33.31800 168.000
33.33795 151.000
33.35789 168.000
33.37784 162.000
33.39779 162.000
33.41773 157.000
33.43768 160.000
33.45763 186.000
33.47757 167.000
33.49752 161.000
33.51747 177.000
33.53741 160.000
33.55736 157.000
33.57731 181.000
33.59726 172.000
33.61720 158.000
33.63715 156.000
33.65710 158.000
33.67704 171.000
33.69699 178.000
33.71694 176.000
33.73688 157.000
33.75683 157.000
33.77678 186.000
33.79673 170.000
33.81667 184.000
33.83662 157.000
33.85657 176.000
33.87651 181.000
33.89646 201.000
33.91641 182.000
33.93635 192.000
33.95630 191.000
33.97625 165.000
33.99620 199.000
34.01614 190.000
34.03609 175.000
34.05604 188.000
34.07598 184.000
34.09593 180.000
34.11588 214.000
34.13582 182.000
34.15577 211.000
34.17572 205.000
34.19566 212.000
34.21561 227.000
34.23556 233.000
34.25551 250.000
34.27545 245.000
34.29540 284.000
34.31535 299.000
34.33529 363.000
34.35524 355.000
34.37519 409.000
34.39513 446.000
34.41508 503.000
34.43503 515.000
34.45498 467.000
34.47492 401.000
34.49487 416.000
34.51482 391.000
34.53476 379.000
34.55471 323.000
34.57466 330.000
34.59460 326.000
34.61455 274.000
34.63450 251.000
34.65444 248.000
34.67439 240.000
34.69434 225.000
34.71429 217.000
34.73423 243.000
34.75418 240.000
34.77413 197.000
34.79407 214.000
34.81402 227.000
34.83397 191.000
34.85391 254.000
34.87386 228.000
34.89381 231.000
34.91376 187.000
34.93370 217.000
34.95365 207.000
34.97360 197.000
34.99354 214.000
35.01349 211.000
35.03344 208.000
35.05338 227.000
35.07333 200.000
35.09328 186.000
35.11322 211.000
35.13317 199.000
35.15312 216.000
35.17307 245.000
35.19301 215.000
35.21296 268.000
35.23291 213.000
35.25285 240.000
35.27280 265.000
35.29275 331.000
35.31269 352.000
35.33264 344.000
35.35259 348.000
35.37254 354.000
35.39248 465.000
35.41243 571.000
35.43238 674.000
35.45232 791.000
35.47227 812.000
35.49222 912.000
35.51216 1038.000
35.53211 1252.000
35.55206 1467.000
35.57201 1453.000
35.59195 1257.000
35.61190 1228.000
35.63185 1121.000
35.65179 1034.000
35.67174 849.000
35.69169 716.000
35.71163 589.000
35.73158 528.000
35.75153 481.000
35.77147 367.000
35.79142 365.000
35.81137 330.000
35.83132 339.000
35.85126 298.000
35.87121 281.000
35.89116 268.000
35.91110 242.000
35.93105 254.000
35.95100 241.000
35.97094 287.000
35.99089 227.000
36.01084 250.000
36.03079 251.000
36.05073 230.000
36.07068 197.000
36.09063 222.000
36.11057 196.000
36.13052 226.000
36.15047 226.000
36.17041 199.000
36.19036 225.000
36.21031 202.000
36.23025 195.000
36.25020 205.000
36.27015 198.000
36.29010 201.000
36.31004 198.000
36.32999 187.000
36.34994 212.000
36.36988 233.000
36.38983 180.000
36.40978 185.000
36.42972 187.000
36.44967 201.000
36.46962 200.000
36.48957 225.000
36.50951 198.000
36.52946 189.000
36.54941 201.000
36.56935 191.000
36.58930 220.000
36.60925 180.000
36.62919 200.000
36.64914 216.000
36.66909 213.000
36.68903 224.000
36.70898 228.000
36.72893 237.000
36.74888 277.000
36.76882 245.000
36.78877 308.000
36.80872 342.000
36.82866 372.000
36.84861 424.000
36.86856 462.000
36.88850 434.000
36.90845 387.000
36.92840 401.000
36.94835 388.000
36.96829 370.000
36.98824 380.000
37.00819 349.000
37.02813 341.000
37.04808 377.000
37.06803 312.000
37.08797 327.000
37.10792 280.000
37.12787 336.000
37.14781 268.000
37.16776 260.000
37.18771 237.000
37.20766 219.000
37.22760 226.000
37.24755 218.000
37.26750 238.000
37.28744 218.000
37.30739 193.000
37.32734 173.000
37.34728 187.000
37.36723 161.000
37.38718 176.000
37.40713 185.000
37.42707 182.000
37.44702 184.000
37.46697 186.000
37.48691 180.000
37.50686 185.000
37.52681 168.000
37.54675 168.000
37.56670 174.000
37.58665 166.000
37.60660 184.000
37.62654 151.000
37.64649 172.000
37.66644 171.000
37.68638 179.000
37.70633 166.000
37.72628 178.000
37.74622 171.000
37.76617 164.000
37.78612 167.000
37.80606 150.000
37.82601 179.000
37.84596 191.000
37.86591 175.000
37.88585 164.000
37.90580 195.000
37.92575 180.000
37.94569 198.000
37.96564 190.000
37.98559 187.000
38.00553 188.000
38.02548 185.000
38.04543 176.000
38.06538 162.000
38.08532 179.000
38.10527 188.000
38.12522 189.000
38.14516 194.000
38.16511 199.000
38.18506 190.000
38.20500 169.000
38.22495 185.000
38.24490 183.000
38.26484 191.000
38.28479 194.000
38.30474 173.000
38.32469 201.000
38.34463 190.000
38.36458 201.000
38.38453 224.000
38.40447 204.000
38.42442 183.000
38.44437 223.000
38.46431 225.000
38.48426 227.000
38.50421 240.000
38.52416 220.000
38.54410 248.000
38.56405 265.000
38.58400 308.000
38.60394 296.000
38.62389 350.000
38.64384 407.000
38.66378 433.000
38.68373 542.000
38.70368 630.000
38.72362 750.000
38.74357 954.000
38.76352 1026.000
38.78347 999.000
38.80341 929.000
38.82336 866.000
38.84331 840.000
38.86325 807.000
38.88320 765.000
38.90315 759.000
38.92309 636.000
38.94304 639.000
38.96299 615.000
38.98294 588.000
39.00288 624.000
39.02283 747.000
39.04278 807.000
39.06272 739.000
39.08267 621.000
39.10262 583.000
39.12256 571.000
39.14251 542.000
39.16246 505.000
39.18241 443.000
39.20235 412.000
39.22230 390.000
39.24225 353.000
39.26219 350.000
39.28214 303.000
39.30209 309.000
39.32203 266.000
39.34198 260.000
39.36193 239.000
39.38187 235.000
39.40182 219.000
39.42177 218.000
39.44172 210.000
39.46166 211.000
39.48161 216.000
39.50156 196.000
39.52150 192.000
39.54145 175.000
39.56140 170.000
39.58134 214.000
39.60129 163.000
39.62124 174.000
39.64119 193.000
39.66113 183.000
39.68108 168.000
39.70103 177.000
39.72097 176.000
39.74092 175.000
39.76087 169.000
39.78081 179.000
39.80076 178.000
39.82071 196.000
39.84065 157.000
39.86060 195.000
39.88055 153.000
39.90050 185.000
39.92044 179.000
39.94039 162.000
39.96034 169.000
39.98028 167.000
40.00023 158.000
40.02018 168.000
40.04012 180.000
40.06007 174.000
40.08002 155.000
40.09997 187.000
40.11991 185.000
40.13986 145.000
40.15981 186.000
40.17975 180.000
40.19970 176.000
40.21965 165.000
40.23959 134.000
40.25954 169.000
40.27949 170.000
40.29943 159.000
40.31938 158.000
40.33933 161.000
40.35928 178.000
40.37922 168.000
40.39917 192.000
40.41912 176.000
40.43906 179.000
40.45901 180.000
40.47896 171.000
40.49890 166.000
40.51885 166.000
40.53880 162.000
40.55875 150.000
40.57869 154.000
40.59864 172.000
40.61859 189.000
40.63853 166.000
40.65848 197.000
40.67843 164.000
40.69837 155.000
40.71832 175.000
40.73827 147.000
40.75822 172.000
40.77816 163.000
40.79811 176.000
40.81806 174.000
40.83800 188.000
40.85795 176.000
40.87790 194.000
40.89784 184.000
40.91779 167.000
40.93774 165.000
40.95768 199.000
40.97763 169.000
40.99758 196.000
41.01753 184.000
41.03747 174.000
41.05742 191.000
41.07737 160.000
41.09731 177.000
41.11726 211.000
41.13721 178.000
41.15715 177.000
41.17710 180.000
41.19705 196.000
41.21700 199.000
41.23694 218.000
41.25689 211.000
41.27684 202.000
41.29678 218.000
41.31673 262.000
41.33668 248.000
41.35662 236.000
41.37657 266.000
41.39652 262.000
41.41646 334.000
41.43641 374.000
41.45636 438.000
41.47631 527.000
41.49625 651.000
41.51620 913.000
41.53615 1090.000
41.55609 1278.000
41.57604 1196.000
41.59599 1058.000
41.61593 922.000
41.63588 889.000
41.65583 863.000
41.67578 820.000
41.69572 717.000
41.71567 561.000
41.73562 460.000
41.75556 387.000
41.77551 285.000
41.79546 292.000
41.81540 270.000
41.83535 265.000
41.85530 252.000
41.87524 254.000
41.89519 224.000
41.91514 215.000
41.93509 200.000
41.95503 211.000
41.97498 207.000
41.99493 184.000
42.01487 224.000
42.03482 225.000
42.05477 190.000
42.07471 165.000
42.09466 217.000
42.11461 205.000
42.13456 187.000
42.15450 186.000
42.17445 177.000
42.19440 195.000
42.21434 185.000
42.23429 168.000
42.25424 148.000
42.27418 178.000
42.29413 177.000
42.31408 170.000
42.33403 186.000
42.35397 180.000
42.37392 176.000
42.39387 184.000
42.41381 229.000
42.43376 181.000
42.45371 202.000
42.47365 203.000
42.49360 198.000
42.51355 189.000
42.53349 169.000
42.55344 187.000
42.57339 195.000
42.59334 199.000
42.61328 178.000
42.63323 179.000
42.65318 171.000
42.67312 174.000
42.69307 192.000
42.71302 185.000
42.73296 167.000
42.75291 156.000
42.77286 181.000
42.79281 190.000
42.81275 195.000
42.83270 220.000
42.85265 191.000
42.87259 172.000
42.89254 189.000
42.91249 210.000
42.93243 195.000
42.95238 196.000
42.97233 205.000
42.99227 226.000
43.01222 227.000
43.03217 204.000
43.05212 227.000
43.07206 221.000
43.09201 289.000
43.11196 287.000
43.13190 328.000
43.15185 355.000
43.17180 318.000
43.19174 381.000
43.21169 347.000
43.23164 331.000
43.25159 326.000
43.27153 312.000
43.29148 316.000
43.31143 301.000
43.33137 278.000
43.35132 234.000
43.37127 245.000
43.39121 232.000
43.41116 240.000
43.43111 187.000
43.45105 209.000
43.47100 191.000
43.49095 196.000
43.51090 175.000
43.53084 187.000
43.55079 201.000
43.57074 173.000
43.59068 187.000
43.61063 176.000
43.63058 165.000
43.65052 180.000
43.67047 169.000
43.69042 171.000
43.71037 154.000
43.73031 168.000
43.75026 169.000
43.77021 176.000
43.79015 176.000
43.81010 166.000
43.83005 173.000
43.84999 171.000
43.86994 172.000
43.88989 137.000
43.90984 166.000
43.92978 173.000
43.94973 184.000
43.96968 180.000
43.98962 157.000
44.00957 165.000
44.02952 140.000
44.04946 155.000
44.06941 160.000
44.08936 169.000
44.10930 152.000
44.12925 178.000
44.14920 197.000
44.16915 150.000
44.18909 185.000
44.20904 172.000
44.22899 178.000
44.24893 184.000
44.26888 156.000
44.28883 175.000
44.30877 170.000
44.32872 152.000
44.34867 196.000
44.36862 164.000
44.38856 185.000
44.40851 186.000
44.42846 170.000
44.44840 193.000
44.46835 184.000
44.48830 169.000
44.50824 185.000
44.52819 189.000
44.54814 195.000
44.56808 191.000
44.58803 194.000
44.60798 204.000
44.62793 206.000
44.64787 242.000
44.66782 238.000
44.68777 264.000
44.70771 277.000
44.72766 282.000
44.74761 284.000
44.76755 307.000
44.78750 331.000
44.80745 338.000
44.82740 308.000
44.84734 275.000
44.86729 279.000
44.88724 275.000
44.90718 226.000
44.92713 266.000
44.94708 219.000
44.96702 201.000
44.98697 188.000
45.00692 190.000
45.02686 198.000
45.04681 178.000
45.06676 205.000
45.08671 174.000
45.10665 170.000
45.12660 168.000
45.14655 170.000
45.16649 152.000
45.18644 154.000
45.20639 152.000
45.22633 165.000
45.24628 161.000
45.26623 154.000
45.28618 180.000
45.30612 159.000
45.32607 154.000
45.34602 169.000
45.36596 155.000
45.38591 169.000
45.40586 165.000
45.42580 168.000
45.44575 174.000
45.46570 172.000
45.48565 151.000
45.50559 154.000
45.52554 178.000
45.54549 151.000
45.56543 149.000
45.58538 160.000
45.60533 171.000
45.62527 145.000
45.64522 176.000
45.66517 169.000
45.68511 163.000
45.70506 162.000
45.72501 139.000
45.74496 158.000
45.76490 171.000
45.78485 158.000
45.80480 171.000
45.82474 170.000
45.84469 151.000
45.86464 157.000
45.88458 172.000
45.90453 171.000
45.92448 175.000
45.94443 155.000
45.96437 144.000
45.98432 145.000
46.00427 162.000
46.02421 168.000
46.04416 118.000
46.06411 161.000
46.08405 156.000
46.10400 156.000
46.12395 153.000
46.14389 184.000
46.16384 173.000
46.18379 166.000
46.20374 140.000
46.22368 184.000
46.24363 199.000
46.26358 176.000
46.28352 183.000
46.30347 195.000
46.32342 166.000
46.34336 195.000
46.36331 174.000
46.38326 181.000
46.40321 182.000
46.42315 185.000
46.44310 170.000
46.46305 177.000
46.48299 180.000
46.50294 174.000
46.52289 176.000
46.54283 124.000
46.56278 174.000
46.58273 160.000
46.60267 177.000
46.62262 182.000
46.64257 166.000
46.66252 168.000
46.68246 157.000
46.70241 195.000
46.72236 147.000
46.74230 172.000
46.76225 154.000
46.78220 144.000
46.80214 194.000
46.82209 163.000
46.84204 167.000
46.86199 175.000
46.88193 148.000
46.90188 162.000
46.92183 154.000
46.94177 161.000
46.96172 147.000
46.98167 158.000
47.00161 157.000
47.02156 158.000
47.04151 143.000
47.06146 137.000
47.08140 147.000
47.10135 170.000
47.12130 158.000
47.14124 169.000
47.16119 150.000
47.18114 172.000
47.20108 149.000
47.22103 176.000
47.24098 148.000
47.26092 169.000
47.28087 163.000
47.30082 164.000
47.32077 151.000
47.34071 162.000
47.36066 170.000
47.38061 161.000
47.40055 183.000
47.42050 166.000
47.44045 154.000
47.46039 182.000
47.48034 172.000
47.50029 133.000
47.52024 143.000
47.54018 185.000
47.56013 146.000
47.58008 170.000
47.60002 174.000
47.61997 160.000
47.63992 149.000
47.65986 169.000
47.67981 179.000
47.69976 156.000
47.71970 170.000
47.73965 158.000
47.75960 154.000
47.77955 152.000
47.79949 166.000
47.81944 157.000
47.83939 176.000
47.85933 154.000
47.87928 202.000
47.89923 171.000
47.91917 166.000
47.93912 153.000
47.95907 174.000
47.97902 187.000
47.99896 176.000
48.01891 189.000
48.03886 178.000
48.05880 192.000
48.07875 204.000
48.09870 204.000
48.11864 183.000
48.13859 202.000
48.15854 187.000
48.17848 232.000
48.19843 201.000
48.21838 235.000
48.23833 200.000
48.25827 210.000
48.27822 237.000
48.29817 244.000
48.31811 248.000
48.33806 286.000
48.35801 288.000
48.37795 372.000
48.39790 414.000
48.41785 487.000
48.43780 570.000
48.45774 583.000
48.47769 614.000
48.49764 539.000
48.51758 572.000
48.53753 515.000
48.55748 602.000
48.57742 568.000
48.59737 571.000
48.61732 568.000
48.63726 557.000
48.65721 556.000
48.67716 557.000
48.69711 525.000
48.71705 527.000
48.73700 454.000
48.75695 423.000
48.77689 393.000
48.79684 367.000
48.81679 387.000
48.83673 332.000
48.85668 289.000
48.87663 261.000
48.89658 273.000
48.91652 262.000
48.93647 186.000
48.95642 179.000
48.97636 180.000
48.99631 197.000
49.01626 181.000
49.03620 204.000
49.05615 189.000
49.07610 186.000
49.09605 180.000
49.11599 154.000
49.13594 168.000
49.15589 159.000
49.17583 181.000
49.19578 188.000
49.21573 180.000
49.23567 170.000
49.25562 186.000
49.27557 165.000
49.29551 169.000
49.31546 177.000
49.33541 159.000
49.35536 177.000
49.37530 188.000
49.39525 163.000
49.41520 221.000
49.43514 218.000
49.45509 167.000
49.47504 217.000
49.49498 171.000
49.51493 200.000
49.53488 175.000
49.55483 192.000
49.57477 185.000
49.59472 199.000
49.61467 168.000
49.63461 179.000
49.65456 193.000
49.67451 183.000
49.69445 150.000
49.71440 180.000
49.73435 164.000
49.75429 164.000
49.77424 195.000
49.79419 166.000
49.81414 161.000
49.83408 178.000
49.85403 162.000
49.87398 172.000
49.89392 174.000
49.91387 177.000
49.93382 188.000
49.95376 146.000
49.97371 145.000
49.99366 160.000
50.01361 163.000
50.03355 164.000
50.05350 159.000
50.07345 147.000
50.09339 154.000
50.11334 162.000
50.13329 168.000
50.15323 165.000
50.17318 164.000
50.19313 168.000
50.21307 154.000
50.23302 153.000
50.25297 166.000
50.27292 156.000
50.29286 154.000
50.31281 166.000
50.33276 146.000
50.35270 145.000
50.37265 161.000
50.39260 164.000
50.41254 141.000
50.43249 166.000
50.45244 143.000
50.47239 149.000
50.49233 151.000
50.51228 159.000
50.53223 133.000
50.55217 144.000
50.57212 148.000
50.59207 151.000
50.61201 153.000
50.63196 158.000
50.65191 161.000
50.67186 154.000
50.69180 142.000
50.71175 163.000
50.73170 152.000
50.75164 149.000
50.77159 174.000
50.79154 167.000
50.81148 159.000
50.83143 154.000
50.85138 186.000
50.87132 159.000
50.89127 162.000
50.91122 162.000
50.93117 137.000
50.95111 145.000
50.97106 174.000
50.99101 160.000
51.01095 148.000
51.03090 170.000
51.05085 138.000
51.07079 132.000
51.09074 164.000
51.11069 159.000
51.13064 138.000
51.15058 165.000
51.17053 160.000
51.19048 158.000
51.21042 148.000
51.23037 176.000
51.25032 181.000
51.27026 158.000
51.29021 148.000
51.31016 176.000
51.33010 166.000
51.35005 154.000
51.37000 147.000
51.38995 147.000
51.40989 166.000
51.42984 174.000
51.44979 160.000
51.46973 171.000
51.48968 178.000
51.50963 183.000
51.52957 172.000
51.54952 161.000
51.56947 175.000
51.58942 154.000
51.60936 154.000
51.62931 147.000
51.64926 183.000
51.66920 177.000
51.68915 156.000
51.70910 169.000
51.72904 119.000
51.74899 175.000
51.76894 140.000
51.78888 180.000
51.80883 160.000
51.82878 158.000
51.84873 171.000
51.86867 156.000
51.88862 182.000
51.90857 168.000
51.92851 148.000
51.94846 161.000
51.96841 187.000
51.98835 162.000
52.00830 175.000
52.02825 153.000
52.04820 174.000
52.06814 166.000
52.08809 183.000
52.10804 169.000
52.12798 195.000
52.14793 165.000
52.16788 170.000
52.18782 174.000
52.20777 187.000
52.22772 176.000
52.24767 199.000
52.26761 171.000
52.28756 163.000
52.30751 154.000
52.32745 190.000
52.34740 198.000
52.36735 181.000
52.38729 205.000
52.40724 191.000
52.42719 172.000
52.44713 198.000
52.46708 199.000
52.48703 214.000
52.50698 208.000
52.52692 218.000
52.54687 195.000
52.56682 237.000
52.58676 220.000
52.60671 229.000
52.62666 258.000
52.64660 263.000
52.66655 284.000
52.68650 310.000
52.70645 314.000
52.72639 347.000
52.74634 313.000
52.76629 296.000
52.78623 282.000
52.80618 304.000
52.82613 239.000
52.84607 271.000
52.86602 243.000
52.88597 259.000
52.90591 227.000
52.92586 204.000
52.94581 205.000
52.96576 178.000
52.98570 198.000
53.00565 165.000
53.02560 192.000
53.04554 172.000
53.06549 174.000
53.08544 177.000
53.10538 179.000
53.12533 177.000
53.14528 162.000
53.16523 189.000
53.18517 183.000
53.20512 165.000
53.22507 186.000
53.24501 186.000
53.26496 148.000
53.28491 170.000
53.30485 180.000
53.32480 170.000
53.34475 182.000
53.36469 173.000
53.38464 165.000
53.40459 163.000
53.42454 204.000
53.44448 210.000
53.46443 179.000
53.48438 186.000
53.50432 195.000
53.52427 231.000
53.54422 198.000
53.56416 202.000
53.58411 215.000
53.60406 206.000
53.62401 185.000
53.64395 209.000
53.66390 191.000
53.68385 195.000
53.70379 190.000
53.72374 182.000
53.74369 171.000
53.76363 172.000
53.78358 177.000
53.80353 162.000
53.82348 190.000
53.84342 157.000
53.86337 166.000
53.88332 198.000
53.90326 148.000
53.92321 155.000
53.94316 174.000
53.96310 183.000
53.98305 168.000
54.00300 171.000
54.02294 137.000
54.04289 179.000
54.06284 155.000
54.08279 177.000
54.10273 170.000
54.12268 177.000
54.14263 183.000
54.16257 172.000
54.18252 173.000
54.20247 158.000
54.22241 170.000
54.24236 179.000
54.26231 181.000
54.28226 183.000
54.30220 162.000
54.32215 151.000
54.34210 136.000
54.36204 151.000
54.38199 169.000
54.40194 177.000
54.42188 141.000
54.44183 188.000
54.46178 159.000
54.48172 150.000
54.50167 163.000
54.52162 182.000
54.54157 174.000
54.56151 141.000
54.58146 173.000
54.60141 165.000
54.62135 157.000
54.64130 151.000
54.66125 161.000
54.68119 174.000
54.70114 157.000
54.72109 167.000
54.74104 161.000
54.76098 140.000
54.78093 144.000
54.80088 150.000
54.82082 175.000
54.84077 182.000
54.86072 128.000
54.88066 175.000
54.90061 144.000
54.92056 157.000
54.94050 148.000
54.96045 181.000
54.98040 151.000
55.00035 153.000
55.02029 153.000
55.04024 134.000
55.06019 172.000
55.08013 155.000
55.10008 129.000
55.12003 153.000
55.13997 141.000
55.15992 184.000
55.17987 141.000
55.19982 158.000
55.21976 166.000
55.23971 133.000
55.25966 138.000
55.27960 144.000
55.29955 159.000
55.31950 175.000
55.33944 137.000
55.35939 156.000
55.37934 168.000
55.39929 156.000
55.41923 171.000
55.43918 194.000
55.45913 134.000
55.47907 145.000
55.49902 159.000
55.51897 140.000
55.53891 154.000
55.55886 161.000
55.57881 138.000
55.59875 151.000
55.61870 145.000
55.63865 162.000
55.65860 167.000
55.67854 156.000
55.69849 143.000
55.71844 138.000
55.73838 156.000
55.75833 152.000
55.77828 158.000
55.79822 170.000
55.81817 177.000
55.83812 174.000
55.85807 165.000
55.87801 158.000
55.89796 166.000
55.91791 163.000
55.93785 146.000
55.95780 139.000
55.97775 147.000
55.99769 136.000
56.01764 149.000
56.03759 182.000
56.05753 138.000
56.07748 170.000
56.09743 148.000
56.11738 175.000
56.13732 152.000
56.15727 182.000
56.17722 185.000
56.19716 140.000
56.21711 182.000
56.23706 155.000
56.25700 156.000
56.27695 175.000
56.29690 162.000
56.31685 182.000
56.33679 175.000
56.35674 148.000
56.37669 163.000
56.39663 150.000
56.41658 152.000
56.43653 175.000
56.45647 189.000
56.47642 156.000
56.49637 176.000
56.51631 178.000
56.53626 148.000
56.55621 182.000
56.57616 197.000
56.59610 191.000
56.61605 174.000
56.63600 175.000
56.65594 179.000
56.67589 193.000
56.69584 178.000
56.71578 165.000
56.73573 175.000
56.75568 181.000
56.77563 182.000
56.79557 183.000
56.81552 211.000
56.83547 186.000
56.85541 191.000
56.87536 205.000
56.89531 212.000
56.91525 162.000
56.93520 196.000
56.95515 202.000
56.97510 196.000
56.99504 190.000
57.01499 217.000
57.03494 208.000
57.05488 198.000
57.07483 205.000
57.09478 219.000
57.11472 213.000
57.13467 247.000
57.15462 241.000
57.17456 260.000
57.19451 297.000
57.21446 342.000
57.23441 364.000
57.25435 353.000
57.27430 335.000
57.29425 299.000
57.31419 302.000
57.33414 284.000
57.35409 268.000
57.37403 301.000
57.39398 249.000
57.41393 270.000
57.43388 265.000
57.45382 242.000
57.47377 221.000
57.49372 195.000
57.51366 195.000
57.53361 208.000
57.55356 155.000
57.57350 191.000
57.59345 183.000
57.61340 174.000
57.63334 142.000
57.65329 171.000
57.67324 169.000
57.69319 183.000
57.71313 158.000
57.73308 146.000
57.75303 181.000
57.77297 160.000
57.79292 149.000
57.81287 173.000
57.83281 164.000
57.85276 171.000
57.87271 159.000
57.89266 153.000
57.91260 158.000
57.93255 162.000
57.95250 154.000
57.97244 150.000
57.99239 167.000
58.01234 163.000
58.03228 162.000
58.05223 150.000
58.07218 185.000
58.09212 169.000
58.11207 181.000
58.13202 186.000
58.15197 168.000
58.17191 169.000
58.19186 204.000
58.21181 194.000
58.23175 188.000
58.25170 214.000
58.27165 231.000
58.29159 244.000
58.31154 265.000
58.33149 241.000
58.35144 257.000
58.37138 246.000
58.39133 223.000
58.41128 215.000
58.43122 218.000
58.45117 257.000
58.47112 236.000
58.49106 221.000
58.51101 187.000
58.53096 209.000
58.55090 192.000
58.57085 166.000
58.59080 189.000
58.61075 173.000
58.63069 146.000
58.65064 178.000
58.67059 174.000
58.69053 153.000
58.71048 178.000
58.73043 190.000
58.75037 166.000
58.77032 214.000
58.79027 167.000
58.81022 165.000
58.83016 179.000
58.85011 162.000
58.87006 166.000
58.89000 167.000
58.90995 149.000
58.92990 165.000
58.94984 165.000
58.96979 162.000
58.98974 177.000
59.00969 172.000
59.02963 155.000
59.04958 170.000
59.06953 156.000
59.08947 171.000
59.10942 158.000
59.12937 181.000
59.14931 159.000
59.16926 164.000
59.18921 148.000
59.20915 153.000
59.22910 149.000
59.24905 165.000
59.26900 163.000
59.28894 175.000
59.30889 153.000
59.32884 151.000
59.34878 172.000
59.36873 155.000
59.38868 167.000
59.40862 178.000
59.42857 150.000
59.44852 152.000
59.46847 158.000
59.48841 186.000
59.50836 191.000
59.52831 142.000
59.54825 173.000
59.56820 148.000
59.58815 165.000
59.60809 134.000
59.62804 149.000
59.64799 171.000
59.66793 137.000
59.68788 150.000
59.70783 186.000
59.72778 162.000
59.74772 156.000
59.76767 167.000
59.78762 158.000
59.80756 168.000
59.82751 170.000
59.84746 169.000
59.86740 148.000
59.88735 174.000
59.90730 181.000
59.92725 154.000
59.94719 154.000
59.96714 143.000
59.98709 143.000
60.00703 181.000
60.02698 133.000
60.04693 140.000
60.06687 159.000
60.08682 155.000
60.10677 165.000
60.12671 149.000
60.14666 171.000
60.16661 172.000
60.18656 146.000
60.20650 164.000
60.22645 152.000
60.24640 180.000
60.26634 164.000
60.28629 152.000
60.30624 168.000
60.32618 163.000
60.34613 182.000
60.36608 171.000
60.38603 181.000
60.40597 187.000
60.42592 169.000
60.44587 176.000
60.46581 160.000
60.48576 159.000
60.50571 189.000
60.52565 180.000
60.54560 164.000
60.56555 150.000
60.58550 163.000
60.60544 172.000
60.62539 158.000
60.64534 163.000
60.66528 169.000
60.68523 152.000
60.70518 176.000
60.72512 181.000
60.74507 175.000
60.76502 174.000
60.78496 174.000
60.80491 176.000
60.82486 145.000
60.84481 156.000
60.86475 163.000
60.88470 154.000
60.90465 181.000
60.92459 141.000
60.94454 176.000
60.96449 182.000
60.98443 168.000
61.00438 179.000
61.02433 174.000
61.04428 160.000
61.06422 174.000
61.08417 174.000
61.10412 176.000
61.12406 177.000
61.14401 131.000
61.16396 189.000
61.18390 169.000
61.20385 166.000
61.22380 177.000
61.24374 175.000
61.26369 213.000
61.28364 200.000
61.30359 183.000
61.32353 184.000
61.34348 198.000
61.36343 229.000
61.38337 211.000
61.40332 231.000
61.42327 253.000
61.44321 244.000
61.46316 292.000
61.48311 301.000
61.50306 328.000
61.52300 395.000
61.54295 387.000
61.56290 433.000
61.58284 388.000
61.60279 421.000
61.62274 451.000
61.64268 422.000
61.66263 495.000
61.68258 509.000
61.70252 514.000
61.72247 489.000
61.74242 416.000
61.76237 426.000
61.78231 389.000
61.80226 373.000
61.82221 349.000
61.84215 340.000
61.86210 357.000
61.88205 320.000
61.90199 326.000
61.92194 284.000
61.94189 249.000
61.96184 227.000
61.98178 268.000
62.00173 202.000
62.02168 239.000
62.04162 203.000
62.06157 175.000
62.08152 198.000
62.10146 188.000
62.12141 189.000
62.14136 204.000
62.16131 175.000
62.18125 189.000
62.20120 176.000
62.22115 201.000
62.24109 168.000
62.26104 176.000
62.28099 193.000
62.30093 186.000
62.32088 172.000
62.34083 167.000
62.36077 178.000
62.38072 181.000
62.40067 168.000
62.42062 183.000
62.44056 160.000
62.46051 164.000
62.48046 186.000
62.50040 158.000
62.52035 171.000
62.54030 189.000
62.56024 169.000
62.58019 159.000
62.60014 183.000
62.62009 177.000
62.64003 175.000
62.65998 173.000
62.67993 169.000
62.69987 176.000
62.71982 164.000
62.73977 160.000
62.75971 185.000
62.77966 169.000
62.79961 167.000
62.81955 177.000
62.83950 190.000
62.85945 173.000
62.87940 182.000
62.89934 228.000
62.91929 192.000
62.93924 201.000
62.95918 235.000
62.97913 233.000
62.99908 225.000
63.01902 235.000
63.03897 267.000
63.05892 312.000
63.07887 322.000
63.09881 315.000
63.11876 283.000
63.13871 329.000
63.15865 325.000
63.17860 301.000
63.19855 305.000
63.21849 291.000
63.23844 298.000
63.25839 293.000
63.27833 279.000
63.29828 277.000
63.31823 282.000
63.33818 280.000
63.35812 261.000
63.37807 260.000
63.39802 250.000
63.41796 217.000
63.43791 240.000
63.45786 245.000
63.47780 228.000
63.49775 253.000
63.51770 226.000
63.53765 260.000
63.55759 213.000
63.57754 237.000
63.59749 231.000
63.61743 278.000
63.63738 279.000
63.65733 293.000
63.67727 309.000
63.69722 282.000
63.71717 266.000
63.73712 269.000
63.75706 271.000
63.77701 241.000
63.79696 257.000
63.81690 249.000
63.83685 270.000
63.85680 228.000
63.87674 259.000
63.89669 234.000
63.91664 249.000
63.93658 223.000
63.95653 264.000
63.97648 223.000
63.99643 214.000
64.01637 205.000
64.03632 200.000
64.05627 198.000
64.07621 204.000
64.09616 185.000
64.11611 171.000
64.13605 195.000
64.15600 186.000
64.17595 208.000
64.19590 190.000
64.21584 173.000
64.23579 176.000
64.25574 167.000
64.27568 193.000
64.29563 186.000
64.31558 167.000
64.33552 172.000
64.35547 183.000
64.37542 188.000
64.39536 197.000
64.41531 193.000
64.43526 173.000
64.45521 156.000
64.47515 175.000
64.49510 154.000
64.51505 178.000
64.53499 174.000
64.55494 155.000
64.57489 153.000
64.59483 162.000
64.61478 173.000
64.63473 159.000
64.65468 143.000
64.67462 177.000
64.69457 170.000
64.71452 157.000
64.73446 175.000
64.75441 164.000
64.77436 160.000
64.79430 159.000
64.81425 141.000
64.83420 182.000
64.85414 148.000
64.87409 166.000
64.89404 180.000
64.91399 181.000
64.93393 173.000
64.95388 165.000
64.97383 159.000
64.99377 163.000
65.01372 186.000
65.03367 155.000
65.05361 157.000
65.07356 187.000
65.09351 156.000
65.11346 165.000
65.13340 159.000
65.15335 172.000
65.17330 191.000
65.19324 164.000
65.21319 158.000
65.23314 155.000
65.25308 172.000
65.27303 161.000
65.29298 200.000
65.31293 164.000
65.33287 191.000
65.35282 180.000
65.37277 165.000
65.39271 189.000
65.41266 193.000
65.43261 223.000
65.45255 216.000
65.47250 210.000
65.49245 231.000
65.51239 243.000
65.53234 265.000
65.55229 259.000
65.57224 271.000
65.59218 281.000
65.61213 293.000
65.63208 300.000
65.65202 313.000
65.67197 304.000
65.69192 271.000
65.71186 294.000
65.73181 302.000
65.75176 276.000
65.77171 284.000
65.79165 313.000
65.81160 350.000
65.83155 312.000
65.85149 309.000
65.87144 342.000
65.89139 287.000
65.91133 348.000
65.93128 306.000
65.95123 299.000
65.97117 308.000
65.99112 292.000
66.01107 305.000
66.03102 337.000
66.05096 336.000
66.07091 338.000
66.09086 306.000
66.11080 328.000
66.13075 339.000
66.15070 349.000
66.17064 344.000
66.19059 316.000
66.21054 371.000
66.23049 333.000
66.25043 353.000
66.27038 312.000
66.29033 258.000
66.31027 291.000
66.33022 270.000
66.35017 256.000
66.37011 268.000
66.39006 256.000
66.41001 270.000
66.42995 232.000
66.44990 226.000
66.46985 221.000
66.48980 247.000
66.50974 202.000
66.52969 208.000
66.54964 209.000
66.56958 205.000
66.58953 223.000
66.60948 201.000
66.62942 229.000
66.64937 240.000
66.66932 229.000
66.68927 230.000
66.70921 211.000
66.72916 242.000
66.74911 236.000
66.76905 215.000
66.78900 190.000
66.80895 216.000
66.82889 216.000
66.84884 215.000
66.86879 201.000
66.88874 196.000
66.90868 211.000
66.92863 193.000
66.94858 207.000
66.96852 203.000
66.98847 207.000
67.00842 185.000
67.02836 171.000
67.04831 199.000
67.06826 214.000
67.08820 177.000
67.10815 197.000
67.12810 158.000
67.14805 182.000
67.16799 194.000
67.18794 209.000
67.20789 205.000
67.22783 216.000
67.24778 205.000
67.26773 212.000
67.28767 189.000
67.30762 214.000
67.32757 209.000
67.34752 232.000
67.36746 213.000
67.38741 229.000
67.40736 193.000
67.42730 205.000
67.44725 211.000
67.46720 207.000
67.48714 185.000
67.50709 194.000
67.52704 213.000
67.54698 227.000
67.56693 211.000
67.58688 202.000
67.60683 217.000
67.62677 221.000
67.64672 196.000
67.66667 181.000
67.68661 230.000
67.70656 195.000
67.72651 216.000
67.74645 178.000
67.76640 190.000
67.78635 206.000
67.80630 215.000
67.82624 203.000
67.84619 212.000
67.86614 204.000
67.88608 198.000
67.90603 231.000
67.92598 240.000
67.94592 232.000
67.96587 237.000
67.98582 216.000
68.00576 231.000
68.02571 277.000
68.04566 220.000
68.06561 252.000
68.08555 237.000
68.10550 285.000
68.12545 309.000
68.14539 285.000
68.16534 274.000
68.18529 258.000
68.20523 256.000
68.22518 261.000
68.24513 234.000
68.26508 212.000
68.28502 228.000
68.30497 233.000
68.32492 199.000
68.34486 222.000
68.36481 192.000
68.38476 222.000
68.40470 202.000
68.42465 194.000
68.44460 177.000
68.46455 201.000
68.48449 170.000
68.50444 188.000
68.52439 160.000
68.54433 151.000
68.56428 163.000
68.58423 169.000
68.60417 183.000
68.62412 147.000
68.64407 173.000
68.66401 135.000
68.68396 158.000
68.70391 177.000
68.72386 160.000
68.74380 160.000
68.76375 145.000
68.78370 152.000
68.80364 174.000
68.82359 166.000
68.84354 138.000
68.86348 142.000
68.88343 167.000
68.90338 175.000
68.92333 148.000
68.94327 161.000
68.96322 151.000
68.98317 158.000
69.00311 154.000
69.02306 163.000
69.04301 176.000
69.06295 172.000
69.08290 158.000
69.10285 156.000
69.12279 140.000
69.14274 140.000
69.16269 169.000
69.18264 145.000
69.20258 154.000
69.22253 161.000
69.24248 160.000
69.26242 168.000
69.28237 147.000
69.30232 162.000
69.32226 160.000
69.34221 150.000
69.36216 167.000
69.38211 162.000
69.40205 167.000
69.42200 179.000
69.44195 164.000
69.46189 145.000
69.48184 150.000
69.50179 154.000
69.52173 161.000
69.54168 149.000
69.56163 147.000
69.58157 137.000
69.60152 150.000
69.62147 151.000
69.64142 151.000
69.66136 169.000
69.68131 155.000
69.70126 157.000
69.72120 172.000
69.74115 146.000
69.76110 147.000
69.78104 135.000
69.80099 160.000
69.82094 132.000
69.84089 181.000
69.86083 155.000
69.88078 152.000
69.90073 173.000
69.92067 141.000
69.94062 162.000
69.96057 180.000
69.98051 143.000
70.00046 184.000
70.02041 160.000
70.04035 157.000
70.06030 148.000
70.08025 170.000
70.10020 158.000
70.12014 168.000
70.14009 142.000
70.16004 172.000
70.17998 157.000
70.19993 172.000
70.21988 151.000
70.23982 156.000
70.25977 146.000
70.27972 141.000
70.29967 151.000
70.31961 154.000
70.33956 157.000
70.35951 169.000
70.37945 156.000
70.39940 158.000
70.41935 138.000
70.43929 145.000
70.45924 130.000
70.47919 148.000
70.49914 150.000
70.51908 166.000
70.53903 151.000
70.55898 157.000
70.57892 141.000
70.59887 158.000
70.61882 166.000
70.63876 163.000
70.65871 160.000
70.67866 156.000
70.69860 160.000
70.71855 155.000
70.73850 135.000
70.75845 152.000
70.77839 148.000
70.79834 146.000
70.81829 152.000
70.83823 144.000
70.85818 146.000
70.87813 161.000
70.89807 169.000
70.91802 147.000
70.93797 167.000
70.95792 182.000
70.97786 147.000
70.99781 130.000
71.01776 161.000
71.03770 164.000
71.05765 156.000
71.07760 146.000
71.09754 158.000
71.11749 140.000
71.13744 166.000
71.15738 161.000
71.17733 159.000
71.19728 150.000
71.21723 141.000
71.23717 148.000
71.25712 160.000
71.27707 181.000
71.29701 147.000
71.31696 158.000
71.33691 159.000
71.35685 169.000
71.37680 178.000
71.39675 152.000
71.41670 160.000
71.43664 156.000
71.45659 170.000
71.47654 128.000
71.49648 153.000
71.51643 151.000
71.53638 148.000
71.55632 159.000
71.57627 155.000
71.59622 176.000
71.61616 168.000
71.63611 176.000
71.65606 168.000
71.67601 159.000
71.69595 161.000
71.71590 141.000
71.73585 132.000
71.75579 179.000
71.77574 147.000
71.79569 158.000
71.81563 154.000
71.83558 146.000
71.85553 158.000
71.87548 168.000
71.89542 156.000
71.91537 178.000
71.93532 187.000
71.95526 162.000
71.97521 164.000
71.99516 139.000
72.01510 174.000
72.03505 154.000
72.05500 172.000
72.07495 163.000
72.09489 186.000
72.11484 164.000
72.13479 159.000
72.15473 157.000
72.17468 181.000
72.19463 168.000
72.21457 164.000
72.23452 185.000
72.25447 179.000
72.27441 159.000
72.29436 199.000
72.31431 220.000
72.33426 214.000
72.35420 194.000
72.37415 219.000
72.39410 213.000
72.41404 211.000
72.43399 211.000
72.45394 224.000
72.47388 209.000
72.49383 210.000
72.51378 202.000
72.53373 227.000
72.55367 217.000
72.57362 206.000
72.59357 215.000
72.61351 240.000
72.63346 210.000
72.65341 217.000
72.67335 239.000
72.69330 241.000
72.71325 269.000
72.73319 287.000
72.75314 238.000
72.77309 241.000
72.79304 245.000
72.81298 228.000
72.83293 243.000
72.85288 260.000
72.87282 237.000
72.89277 249.000
72.91272 238.000
72.93266 220.000
72.95261 276.000
72.97256 247.000
72.99251 237.000
73.01245 236.000
73.03240 231.000
73.05235 257.000
73.07229 219.000
73.09224 190.000
73.11219 194.000
73.13213 199.000
73.15208 182.000
73.17203 204.000
73.19197 184.000
73.21192 208.000
73.23187 207.000
73.25182 184.000
73.27176 188.000
73.29171 172.000
73.31166 191.000
73.33160 193.000
73.35155 174.000
73.37150 155.000
73.39144 172.000
73.41139 164.000
73.43134 182.000
73.45129 173.000
73.47123 177.000
73.49118 181.000
73.51113 160.000
73.53107 179.000
73.55102 153.000
73.57097 170.000
73.59091 134.000
73.61086 141.000
73.63081 168.000
73.65076 162.000
73.67070 155.000
73.69065 144.000
73.71060 170.000
73.73054 170.000
73.75049 161.000
73.77044 142.000
73.79038 142.000
73.81033 167.000
73.83028 153.000
73.85022 162.000
73.87017 176.000
73.89012 167.000
73.91007 160.000
73.93001 151.000
73.94996 158.000
73.96991 156.000
73.98985 161.000
74.00980 170.000
74.02975 177.000
74.04969 155.000
74.06964 163.000
74.08959 185.000
74.10954 157.000
74.12948 160.000
74.14943 171.000
74.16938 171.000
74.18932 162.000
74.20927 172.000
74.22922 160.000
74.24916 148.000
74.26911 148.000
74.28906 145.000
74.30900 145.000
74.32895 153.000
74.34890 162.000
74.36885 150.000
74.38879 138.000
74.40874 157.000
74.42869 174.000
74.44863 159.000
74.46858 156.000
74.48853 164.000
74.50847 171.000
74.52842 174.000
74.54837 180.000
74.56832 182.000
74.58826 178.000
74.60821 191.000
74.62816 161.000
74.64810 174.000
74.66805 169.000
74.68800 161.000
74.70794 190.000
74.72789 180.000
74.74784 175.000
74.76778 197.000
74.78773 159.000
74.80768 159.000
74.82763 184.000
74.84757 167.000
74.86752 178.000
74.88747 168.000
74.90741 191.000
74.92736 183.000
74.94731 186.000
74.96725 226.000
74.98720 175.000
75.00715 196.000
75.02710 198.000
75.04704 205.000
75.06699 216.000
75.08694 190.000
75.10688 210.000
75.12683 195.000
75.14678 181.000
75.16672 192.000
75.18667 203.000
75.20662 190.000
75.22657 216.000
75.24651 225.000
75.26646 206.000
75.28641 223.000
75.30635 224.000
75.32630 232.000
75.34625 219.000
75.36619 216.000
75.38614 209.000
75.40609 199.000
75.42603 231.000
75.44598 210.000
75.46593 179.000
75.48588 215.000
75.50582 171.000
75.52577 200.000
75.54572 186.000
75.56566 187.000
75.58561 183.000
75.60556 194.000
75.62550 165.000
75.64545 171.000
75.66540 174.000
75.68535 174.000
75.70529 153.000
75.72524 169.000
75.74519 165.000
75.76513 172.000
75.78508 148.000
75.80503 160.000
75.82497 174.000
75.84492 147.000
75.86487 189.000
75.88481 176.000
75.90476 166.000
75.92471 169.000
75.94466 174.000
75.96460 169.000
75.98455 169.000
76.00450 149.000
76.02444 172.000
76.04439 153.000
76.06434 194.000
76.08428 169.000
76.10423 150.000
76.12418 166.000
76.14413 141.000
76.16407 164.000
76.18402 187.000
76.20397 155.000
76.22391 188.000
76.24386 151.000
76.26381 160.000
76.28375 160.000
76.30370 165.000
76.32365 162.000
76.34359 150.000
76.36354 152.000
76.38349 149.000
76.40344 167.000
76.42338 164.000
76.44333 152.000
76.46328 164.000
76.48322 151.000
76.50317 171.000
76.52312 166.000
76.54306 165.000
76.56301 169.000
76.58296 170.000
76.60291 143.000
76.62285 142.000
76.64280 158.000
76.66275 164.000
76.68269 166.000
76.70264 167.000
76.72259 145.000
76.74253 160.000
76.76248 178.000
76.78243 136.000
76.80238 143.000
76.82232 166.000
76.84227 150.000
76.86222 157.000
76.88216 167.000
76.90211 157.000
76.92206 161.000
76.94200 158.000
76.96195 166.000
76.98190 162.000
77.00184 167.000
77.02179 171.000
77.04174 160.000
77.06169 176.000
77.08163 180.000
77.10158 167.000
77.12153 168.000
77.14147 166.000
77.16142 180.000
77.18137 178.000
77.20131 168.000
77.22126 156.000
77.24121 184.000
77.26116 177.000
77.28110 188.000
77.30105 180.000
77.32100 194.000
77.34094 185.000
77.36089 164.000
77.38084 173.000
77.40078 175.000
77.42073 180.000
77.44068 151.000
77.46062 171.000
77.48057 163.000
77.50052 180.000
77.52047 201.000
77.54041 175.000
77.56036 185.000
77.58031 152.000
77.60025 157.000
77.62020 179.000
77.64015 172.000
77.66009 197.000
77.68004 172.000
77.69999 166.000
77.71994 156.000
77.73988 188.000
77.75983 179.000
77.77978 189.000
77.79972 179.000
77.81967 184.000
77.83962 206.000
77.85956 224.000
77.87951 224.000
77.89946 228.000
77.91940 204.000
77.93935 228.000
77.95930 207.000
77.97925 200.000
77.99919 212.000
78.01914 212.000
78.03909 186.000
78.05903 177.000
78.07898 185.000
78.09893 181.000
78.11887 184.000
78.13882 209.000
78.15877 219.000
78.17872 179.000
78.19866 208.000
78.21861 182.000
78.23856 183.000
78.25850 229.000
78.27845 183.000
78.29840 211.000
78.31834 179.000
78.33829 186.000
78.35824 193.000
78.37819 216.000
78.39813 202.000
78.41808 223.000
78.43803 213.000
78.45797 194.000
78.47792 190.000
78.49787 215.000
78.51781 175.000
78.53776 182.000
78.55771 206.000
78.57765 169.000
78.59760 163.000
78.61755 192.000
78.63750 192.000
78.65744 172.000
78.67739 184.000
78.69734 183.000
78.71728 156.000
78.73723 183.000
78.75718 192.000
78.77712 152.000
78.79707 188.000
78.81702 170.000
78.83697 162.000
78.85691 171.000
78.87686 154.000
78.89681 160.000
78.91675 153.000
78.93670 154.000
78.95665 175.000
78.97659 181.000
78.99654 164.000
79.01649 165.000
79.03643 156.000
79.05638 141.000
79.07633 146.000
79.09628 150.000
79.11622 183.000
79.13617 152.000
79.15612 141.000
79.17606 163.000
79.19601 157.000
79.21596 157.000
79.23590 153.000
79.25585 149.000
79.27580 148.000
79.29575 180.000
79.31569 157.000
79.33564 157.000
79.35559 162.000
79.37553 134.000
79.39548 155.000
79.41543 166.000
79.43537 158.000
79.45532 130.000
79.47527 146.000
79.49521 170.000
79.51516 164.000
79.53511 137.000
79.55506 168.000
79.57500 140.000
79.59495 147.000
79.61490 149.000
79.63484 170.000
79.65479 153.000
79.67474 156.000
79.69468 153.000
79.71463 150.000
79.73458 142.000
79.75453 176.000
79.77447 129.000
79.79442 162.000
79.81437 156.000
79.83431 147.000
79.85426 161.000
79.87421 171.000
79.89415 129.000
79.91410 186.000
79.93405 150.000
79.95399 163.000
79.97394 143.000
79.99389 157.000
80.01384 155.000
80.03378 147.000
80.05373 169.000
80.07368 172.000
80.09362 183.000
80.11357 174.000
80.13352 177.000
80.15346 158.000
80.17341 173.000
80.19336 177.000
80.21331 165.000
80.23325 160.000
80.25320 163.000
80.27315 150.000
80.29309 189.000
80.31304 163.000
80.33299 182.000
80.35293 153.000
80.37288 171.000
80.39283 186.000
80.41278 160.000
80.43272 142.000
80.45267 177.000
80.47262 158.000
80.49256 165.000
80.51251 135.000
80.53246 148.000
80.55240 141.000
80.57235 167.000
80.59230 200.000
80.61224 169.000
80.63219 158.000
80.65214 171.000
80.67209 172.000
80.69203 158.000
80.71198 168.000
80.73193 155.000
80.75187 150.000
80.77182 169.000
80.79177 139.000
80.81171 143.000
80.83166 136.000
80.85161 139.000
80.87156 176.000
80.89150 153.000
80.91145 172.000
80.93140 166.000
80.95134 143.000
80.97129 161.000
80.99124 177.000
81.01118 188.000
81.03113 148.000
81.05108 150.000
81.07102 179.000
81.09097 158.000
81.11092 161.000
81.13087 161.000
81.15081 159.000
81.17076 154.000
81.19071 130.000
81.21065 158.000
81.23060 176.000
81.25055 168.000
81.27049 160.000
81.29044 174.000
81.31039 128.000
81.33034 126.000
81.35028 132.000
81.37023 166.000
81.39018 154.000
81.41012 139.000
81.43007 128.000
81.45002 144.000
81.46996 160.000
81.48991 127.000
81.50986 165.000
81.52980 145.000
81.54975 148.000
81.56970 174.000
81.58965 177.000
81.60959 154.000
81.62954 166.000
81.64949 131.000
81.66943 145.000
81.68938 146.000
81.70933 169.000
81.72927 162.000
81.74922 163.000
81.76917 150.000
81.78912 156.000
81.80906 144.000
81.82901 139.000
81.84896 134.000
81.86890 164.000
81.88885 152.000
81.90880 164.000
81.92874 135.000
81.94869 156.000
81.96864 180.000
81.98859 158.000
82.00853 148.000
82.02848 158.000
82.04843 154.000
82.06837 142.000
82.08832 166.000
82.10827 148.000
82.12821 146.000
82.14816 166.000
82.16811 164.000
82.18805 167.000
82.20800 168.000
82.22795 185.000
82.24790 173.000
82.26784 167.000
82.28779 185.000
82.30774 190.000
82.32768 187.000
82.34763 191.000
82.36758 177.000
82.38752 177.000
82.40747 166.000
82.42742 197.000
82.44737 174.000
82.46731 176.000
82.48726 186.000
82.50721 180.000
82.52715 169.000
82.54710 174.000
82.56705 177.000
82.58699 168.000
82.60694 181.000
82.62689 158.000
82.64683 183.000
82.66678 170.000
82.68673 192.000
82.70668 180.000
82.72662 177.000
82.74657 170.000
82.76652 160.000
82.78646 165.000
82.80641 189.000
82.82636 187.000
82.84630 147.000
82.86625 144.000
82.88620 172.000
82.90615 131.000
82.92609 161.000
82.94604 173.000
82.96599 177.000
82.98593 165.000
83.00588 162.000
83.02583 174.000
83.04577 162.000
83.06572 179.000
83.08567 174.000
83.10561 164.000
83.12556 184.000
83.14551 161.000
83.16546 181.000
83.18540 173.000
83.20535 176.000
83.22530 150.000
83.24524 174.000
83.26519 169.000
83.28514 151.000
83.30508 180.000
83.32503 159.000
83.34498 188.000
83.36493 163.000
83.38487 175.000
83.40482 191.000
83.42477 169.000
83.44471 188.000
83.46466 196.000
83.48461 168.000
83.50455 176.000
83.52450 180.000
83.54445 181.000
83.56440 183.000
83.58434 189.000
83.60429 180.000
83.62424 176.000
83.64418 175.000
83.66413 190.000
83.68408 181.000
83.70402 161.000
83.72397 163.000
83.74392 202.000
83.76386 159.000
83.78381 192.000
83.80376 191.000
83.82371 177.000
83.84365 197.000
83.86360 197.000
83.88355 182.000
83.90349 224.000
83.92344 188.000
83.94339 178.000
83.96333 169.000
83.98328 208.000
84.00323 180.000
84.02318 197.000
84.04312 168.000
84.06307 206.000
84.08302 234.000
84.10296 176.000
84.12291 197.000
84.14286 205.000
84.16280 179.000
84.18275 162.000
84.20270 199.000
84.22264 186.000
84.24259 196.000
84.26254 172.000
84.28249 176.000
84.30243 162.000
84.32238 170.000
84.34233 187.000
84.36227 168.000
84.38222 180.000
84.40217 161.000
84.42211 182.000
84.44206 174.000
84.46201 162.000
84.48196 188.000
84.50190 164.000
84.52185 174.000
84.54180 154.000
84.56174 177.000
84.58169 164.000
84.60164 166.000
84.62158 146.000
84.64153 137.000
84.66148 151.000
84.68142 178.000
84.70137 169.000
84.72132 159.000
84.74127 169.000
84.76121 161.000
84.78116 142.000
84.80111 165.000
84.82105 157.000
84.84100 160.000
84.86095 181.000
84.88089 137.000
84.90084 164.000
84.92079 171.000
84.94074 151.000
84.96068 157.000
84.98063 182.000
85.00058 167.000
85.02052 177.000
85.04047 159.000
85.06042 143.000
85.08036 144.000
85.10031 161.000
85.12026 156.000
85.14021 159.000
85.16015 156.000
85.18010 186.000
85.20005 144.000
85.21999 162.000
85.23994 171.000
85.25989 156.000
85.27983 160.000
85.29978 149.000
85.31973 165.000
85.33967 140.000
85.35962 176.000
85.37957 144.000
85.39952 146.000
85.41946 158.000
85.43941 158.000
85.45936 156.000
85.47930 139.000
85.49925 154.000
85.51920 162.000
85.53914 148.000
85.55909 147.000
85.57904 150.000
85.59899 152.000
85.61893 130.000
85.63888 144.000
85.65883 162.000
85.67877 137.000
85.69872 148.000
85.71867 155.000
85.73861 148.000
85.75856 127.000
85.77851 148.000
85.79845 166.000
85.81840 149.000
85.83835 151.000
85.85830 150.000
85.87824 156.000
85.89819 146.000
85.91814 153.000
85.93808 167.000
85.95803 151.000
85.97798 153.000
85.99792 143.000
86.01787 174.000
86.03782 133.000
86.05777 155.000
86.07771 156.000
86.09766 156.000
86.11761 166.000
86.13755 149.000
86.15750 170.000
86.17745 142.000
86.19739 155.000
86.21734 170.000
86.23729 143.000
86.25723 174.000
86.27718 149.000
86.29713 150.000
86.31708 170.000
86.33702 169.000
86.35697 135.000
86.37692 164.000
86.39686 171.000
86.41681 161.000
86.43676 162.000
86.45670 153.000
86.47665 169.000
86.49660 162.000
86.51655 181.000
86.53649 180.000
86.55644 169.000
86.57639 175.000
86.59633 178.000
86.61628 166.000
86.63623 170.000
86.65617 179.000
86.67612 196.000
86.69607 187.000
86.71602 168.000
86.73596 177.000
86.75591 201.000
86.77586 183.000
86.79580 180.000
86.81575 197.000
86.83570 185.000
86.85564 179.000
86.87559 156.000
86.89554 181.000
86.91548 166.000
86.93543 163.000
86.95538 191.000
86.97533 187.000
86.99527 187.000
87.01522 173.000
87.03517 161.000
87.05511 156.000
87.07506 161.000
87.09501 195.000
87.11495 166.000
87.13490 180.000
87.15485 179.000
87.17480 196.000
87.19474 153.000
87.21469 169.000
87.23464 137.000
87.25458 171.000
87.27453 161.000
87.29448 180.000
87.31442 172.000
87.33437 183.000
87.35432 159.000
87.37426 164.000
87.39421 163.000
87.41416 183.000
87.43411 175.000
87.45405 171.000
87.47400 193.000
87.49395 146.000
87.51389 143.000
87.53384 137.000
87.55379 152.000
87.57373 150.000
87.59368 174.000
87.61363 147.000
87.63358 158.000
87.65352 171.000
87.67347 147.000
87.69342 165.000
87.71336 150.000
87.73331 134.000
87.75326 151.000
87.77320 184.000
87.79315 143.000
87.81310 176.000
87.83304 158.000
87.85299 148.000
87.87294 190.000
87.89289 149.000
87.91283 175.000
87.93278 154.000
87.95273 140.000
87.97267 182.000
87.99262 143.000
88.01257 162.000
88.03251 152.000
88.05246 150.000
88.07241 163.000
88.09236 170.000
88.11230 160.000
88.13225 147.000
88.15220 140.000
88.17214 168.000
88.19209 143.000
88.21204 136.000
88.23198 142.000
88.25193 185.000
88.27188 157.000
88.29183 158.000
88.31177 135.000
88.33172 160.000
88.35167 176.000
88.37161 176.000
88.39156 145.000
88.41151 186.000
88.43145 146.000
88.45140 173.000
88.47135 187.000
88.49129 147.000
88.51124 160.000
88.53119 187.000
88.55114 169.000
88.57108 154.000
88.59103 163.000
88.61098 166.000
88.63092 177.000
88.65087 150.000
88.67082 184.000
88.69076 168.000
88.71071 166.000
88.73066 164.000
88.75061 156.000
88.77055 156.000
88.79050 140.000
88.81045 149.000
88.83039 144.000
88.85034 159.000
88.87029 175.000
88.89023 147.000
88.91018 161.000
88.93013 154.000
88.95007 152.000
88.97002 179.000
88.98997 145.000
89.00992 157.000
89.02986 155.000
89.04981 162.000
89.06976 144.000
89.08970 139.000
89.10965 134.000
89.12960 151.000
89.14954 137.000
89.16949 164.000
89.18944 166.000
89.20939 177.000
89.22933 131.000
89.24928 139.000
89.26923 170.000
89.28917 144.000
89.30912 145.000
89.32907 169.000
89.34901 136.000
89.36896 160.000
89.38891 165.000
89.40885 147.000
89.42880 139.000
89.44875 157.000
89.46870 160.000
89.48864 151.000
89.50859 150.000
89.52854 168.000
89.54848 158.000
89.56843 172.000
89.58838 172.000
89.60832 158.000
89.62827 179.000
89.64822 170.000
89.66817 185.000
89.68811 155.000
89.70806 164.000
89.72801 170.000
89.74795 175.000
89.76790 154.000
89.78785 171.000
89.80779 170.000
89.82774 203.000
89.84769 185.000
89.86764 193.000
89.88758 177.000
89.90753 169.000
89.92748 158.000
89.94742 197.000
89.96737 167.000
89.98732 176.000
90.00726 174.000
