10.00000 201.000
10.01995 197.000
10.03989 181.000
10.05984 180.000
10.07979 219.000
10.09973 217.000
10.11968 201.000
10.13963 198.000
10.15958 185.000
10.17952 181.000
10.19947 239.000
10.21942 193.000
10.23936 190.000
10.25931 215.000
10.27926 203.000
10.29920 236.000
10.31915 217.000
10.33910 222.000
10.35905 218.000
10.37899 207.000
10.39894 220.000
10.41889 236.000
10.43883 197.000
10.45878 209.000
10.47873 198.000
10.49867 214.000
10.51862 206.000
10.53857 212.000
10.55851 207.000
10.57846 214.000
10.59841 211.000
10.61836 193.000
10.63830 191.000
10.65825 209.000
10.67820 199.000
10.69814 204.000
10.71809 215.000
10.73804 224.000
10.75798 202.000
10.77793 196.000
10.79788 185.000
10.81783 210.000
10.83777 197.000
10.85772 207.000
10.87767 204.000
10.89761 208.000
10.91756 219.000
10.93751 226.000
10.95745 211.000
10.97740 207.000
10.99735 191.000
11.01730 211.000
11.03724 194.000
11.05719 206.000
11.07714 200.000
11.09708 198.000
11.11703 186.000
11.13698 217.000
11.15692 183.000
11.17687 219.000
11.19682 212.000
11.21676 199.000
11.23671 223.000
11.25666 218.000
11.27661 226.000
11.29655 209.000
11.31650 247.000
11.33645 197.000
11.35639 210.000
11.37634 204.000
11.39629 228.000
11.41623 212.000
11.43618 214.000
11.45613 198.000
11.47608 182.000
11.49602 232.000
11.51597 212.000
11.53592 222.000
11.55586 214.000
11.57581 215.000
11.59576 208.000
11.61570 216.000
11.63565 212.000
11.65560 192.000
11.67554 219.000
11.69549 205.000
11.71544 197.000
11.73539 213.000
11.75533 210.000
11.77528 235.000
11.79523 211.000
11.81517 231.000
11.83512 221.000
11.85507 182.000
11.87501 217.000
11.89496 210.000
11.91491 236.000
11.93486 193.000
11.95480 186.000
11.97475 225.000
11.99470 219.000
12.01464 207.000
12.03459 228.000
12.05454 210.000
12.07448 227.000
12.09443 220.000
12.11438 237.000
12.13432 193.000
12.15427 199.000
12.17422 220.000
12.19417 228.000
12.21411 220.000
12.23406 203.000
12.25401 225.000
12.27395 213.000
12.29390 227.000
12.31385 198.000
12.33379 220.000
12.35374 234.000
12.37369 220.000
12.39364 207.000
12.41358 216.000
12.43353 223.000
12.45348 231.000
12.47342 233.000
12.49337 210.000
12.51332 222.000
12.53326 230.000
12.55321 245.000
12.57316 202.000
12.59311 196.000
12.61305 216.000
12.63300 200.000
12.65295 240.000
12.67289 213.000
12.69284 246.000
12.71279 207.000
12.73273 214.000
12.75268 227.000
12.77263 218.000
12.79257 224.000
12.81252 222.000
12.83247 225.000
12.85242 199.000
12.87236 228.000
12.89231 211.000
12.91226 225.000
12.93220 226.000
12.95215 226.000
12.97210 209.000
12.99204 213.000
13.01199 218.000
13.03194 211.000
13.05189 231.000
13.07183 213.000
13.09178 219.000
13.11173 206.000
13.13167 221.000
13.15162 235.000
13.17157 242.000
13.19151 234.000
13.21146 237.000
13.23141 226.000
13.25135 243.000
13.27130 218.000
13.29125 219.000
13.31120 256.000
13.33114 230.000
13.35109 230.000
13.37104 230.000
13.39098 191.000
13.41093 204.000
13.43088 217.000
13.45082 190.000
13.47077 239.000
13.49072 235.000
13.51067 225.000
13.53061 216.000
13.55056 224.000
13.57051 216.000
13.59045 239.000
13.61040 235.000
13.63035 234.000
13.65029 246.000
13.67024 235.000
13.69019 242.000
13.71013 202.000
13.73008 229.000
13.75003 217.000
13.76998 205.000
13.78992 234.000
13.80987 212.000
13.82982 204.000
13.84976 210.000
13.86971 208.000
13.88966 216.000
13.90960 243.000
13.92955 210.000
13.94950 235.000
13.96945 240.000
13.98939 202.000
14.00934 201.000
14.02929 222.000
14.04923 217.000
14.06918 217.000
14.08913 217.000
14.10907 236.000
14.12902 214.000
14.14897 252.000
14.16892 223.000
14.18886 236.000
14.20881 204.000
14.22876 202.000
14.24870 214.000
14.26865 224.000
14.28860 212.000
14.30854 199.000
14.32849 226.000
14.34844 241.000
14.36838 233.000
14.38833 239.000
14.40828 246.000
14.42823 204.000
14.44817 240.000
14.46812 212.000
14.48807 233.000
14.50801 229.000
14.52796 232.000
14.54791 210.000
14.56785 235.000
14.58780 231.000
14.60775 207.000
14.62770 209.000
14.64764 227.000
14.66759 218.000
14.68754 221.000
14.70748 233.000
14.72743 205.000
14.74738 204.000
14.76732 242.000
14.78727 224.000
14.80722 189.000
14.82716 218.000
14.84711 251.000
14.86706 224.000
14.88701 216.000
14.90695 203.000
14.92690 221.000
14.94685 239.000
14.96679 229.000
14.98674 231.000
15.00669 227.000
15.02663 237.000
15.04658 185.000
15.06653 255.000
15.08648 207.000
15.10642 231.000
15.12637 221.000
15.14632 255.000
15.16626 233.000
15.18621 228.000
15.20616 242.000
15.22610 232.000
15.24605 226.000
15.26600 241.000
15.28594 263.000
15.30589 216.000
15.32584 219.000
15.34579 211.000
15.36573 234.000
15.38568 228.000
15.40563 238.000
15.42557 243.000
15.44552 237.000
15.46547 213.000
15.48541 242.000
15.50536 253.000
15.52531 224.000
15.54526 216.000
15.56520 191.000
15.58515 243.000
15.60510 201.000
15.62504 218.000
15.64499 241.000
15.66494 231.000
15.68488 207.000
15.70483 202.000
15.72478 223.000
15.74472 226.000
15.76467 216.000
15.78462 225.000
15.80457 231.000
15.82451 225.000
15.84446 254.000
15.86441 216.000
15.88435 199.000
15.90430 233.000
15.92425 236.000
15.94419 237.000
15.96414 251.000
15.98409 245.000
16.00404 224.000
16.02398 249.000
16.04393 219.000
16.06388 231.000
16.08382 219.000
16.10377 250.000
16.12372 205.000
16.14366 231.000
16.16361 226.000
16.18356 222.000
16.20351 212.000
16.22345 215.000
16.24340 215.000
16.26335 232.000
16.28329 234.000
16.30324 250.000
16.32319 212.000
16.34313 241.000
16.36308 210.000
16.38303 231.000
16.40297 204.000
16.42292 275.000
16.44287 204.000
16.46282 232.000
16.48276 238.000
16.50271 227.000
16.52266 214.000
16.54260 230.000
16.56255 219.000
16.58250 206.000
16.60244 225.000
16.62239 253.000
16.64234 238.000
16.66229 246.000
16.68223 224.000
16.70218 238.000
16.72213 205.000
16.74207 292.000
16.76202 227.000
16.78197 210.000
16.80191 206.000
16.82186 256.000
16.84181 241.000
16.86175 242.000
16.88170 217.000
16.90165 205.000
16.92160 246.000
16.94154 206.000
16.96149 229.000
16.98144 213.000
17.00138 217.000
17.02133 205.000
17.04128 249.000
17.06122 231.000
17.08117 212.000
17.10112 235.000
17.12107 246.000
17.14101 242.000
17.16096 244.000
17.18091 228.000
17.20085 241.000
17.22080 238.000
17.24075 214.000
17.26069 218.000
17.28064 216.000
17.30059 222.000
17.32053 244.000
17.34048 215.000
17.36043 252.000
17.38038 209.000
17.40032 223.000
17.42027 235.000
17.44022 218.000
17.46016 218.000
17.48011 213.000
17.50006 240.000
17.52000 263.000
17.53995 219.000
17.55990 228.000
17.57985 260.000
17.59979 224.000
17.61974 228.000
17.63969 237.000
17.65963 225.000
17.67958 209.000
17.69953 231.000
17.71947 195.000
17.73942 238.000
17.75937 240.000
17.77932 250.000
17.79926 237.000
17.81921 244.000
17.83916 204.000
17.85910 247.000
17.87905 198.000
17.89900 221.000
17.91894 229.000
17.93889 263.000
17.95884 227.000
17.97878 256.000
17.99873 222.000
18.01868 249.000
18.03863 227.000
18.05857 239.000
18.07852 246.000
18.09847 242.000
18.11841 252.000
18.13836 261.000
18.15831 275.000
18.17825 318.000
18.19820 373.000
18.21815 415.000
18.23810 442.000
18.25804 484.000
18.27799 444.000
18.29794 397.000
18.31788 351.000
18.33783 276.000
18.35778 217.000
18.37772 231.000
18.39767 243.000
18.41762 252.000
18.43756 245.000
18.45751 250.000
18.47746 228.000
18.49741 223.000
18.51735 216.000
18.53730 200.000
18.55725 241.000
18.57719 246.000
18.59714 246.000
18.61709 217.000
18.63703 185.000
18.65698 223.000
18.67693 249.000
18.69688 239.000
18.71682 220.000
18.73677 243.000
18.75672 252.000
18.77666 214.000
18.79661 230.000
18.81656 209.000
18.83650 259.000
18.85645 234.000
18.87640 247.000
18.89634 265.000
18.91629 222.000
18.93624 220.000
18.95619 236.000
18.97613 280.000
18.99608 234.000
19.01603 231.000
19.03597 237.000
19.05592 265.000
19.07587 217.000
19.09581 199.000
19.11576 233.000
19.13571 208.000
19.15566 244.000
19.17560 218.000
19.19555 242.000
19.21550 266.000
19.23544 216.000
19.25539 216.000
19.27534 258.000
19.29528 263.000
19.31523 204.000
19.33518 232.000
19.35513 245.000
19.37507 239.000
19.39502 264.000
19.41497 247.000
19.43491 255.000
19.45486 229.000
19.47481 231.000
19.49475 261.000
19.51470 242.000
19.53465 239.000
19.55459 230.000
19.57454 228.000
19.59449 267.000
19.61444 236.000
19.63438 238.000
19.65433 226.000
19.67428 248.000
19.69422 261.000
19.71417 261.000
19.73412 241.000
19.75406 246.000
19.77401 243.000
19.79396 223.000
19.81391 233.000
19.83385 249.000
19.85380 279.000
19.87375 269.000
19.89369 241.000
19.91364 305.000
19.93359 308.000
19.95353 297.000
19.97348 328.000
19.99343 295.000
20.01337 272.000
20.03332 245.000
20.05327 270.000
20.07322 267.000
20.09316 257.000
20.11311 251.000
20.13306 241.000
20.15300 238.000
20.17295 255.000
20.19290 240.000
20.21284 256.000
20.23279 257.000
20.25274 250.000
20.27269 242.000
20.29263 300.000
20.31258 275.000
20.33253 261.000
20.35247 302.000
20.37242 328.000
20.39237 380.000
20.41231 389.000
20.43226 476.000
20.45221 521.000
20.47215 587.000
20.49210 648.000
20.51205 777.000
20.53200 882.000
20.55194 848.000
20.57189 901.000
20.59184 928.000
20.61178 891.000
20.63173 803.000
20.65168 799.000
20.67162 732.000
20.69157 677.000
20.71152 665.000
20.73147 619.000
20.75141 601.000
20.77136 571.000
20.79131 525.000
20.81125 425.000
20.83120 385.000
20.85115 394.000
20.87109 361.000
20.89104 340.000
20.91099 300.000
20.93094 289.000
20.95088 282.000
20.97083 271.000
20.99078 288.000
21.01072 295.000
21.03067 280.000
21.05062 286.000
21.07056 254.000
21.09051 275.000
21.11046 241.000
21.13040 252.000
21.15035 264.000
21.17030 252.000
21.19025 257.000
21.21019 250.000
21.23014 256.000
21.25009 265.000
21.27003 261.000
21.28998 245.000
21.30993 252.000
21.32987 259.000
21.34982 229.000
21.36977 236.000
21.38972 215.000
21.40966 236.000
21.42961 256.000
21.44956 263.000
21.46950 235.000
21.48945 278.000
21.50940 256.000
21.52934 238.000
21.54929 266.000
21.56924 245.000
21.58918 297.000
21.60913 230.000
21.62908 246.000
21.64903 260.000
21.66897 270.000
21.68892 240.000
21.70887 248.000
21.72881 235.000
21.74876 273.000
21.76871 240.000
21.78865 238.000
21.80860 236.000
21.82855 252.000
21.84850 278.000
21.86844 264.000
21.88839 253.000
21.90834 256.000
21.92828 249.000
21.94823 287.000
21.96818 227.000
21.98812 235.000
22.00807 221.000
22.02802 258.000
22.04796 227.000
22.06791 264.000
22.08786 247.000
22.10781 282.000
22.12775 239.000
22.14770 264.000
22.16765 258.000
22.18759 255.000
22.20754 234.000
22.22749 285.000
22.24743 253.000
22.26738 242.000
22.28733 253.000
22.30728 243.000
22.32722 252.000
22.34717 230.000
22.36712 256.000
22.38706 260.000
22.40701 279.000
22.42696 252.000
22.44690 251.000
22.46685 235.000
22.48680 275.000
22.50675 220.000
22.52669 282.000
22.54664 246.000
22.56659 235.000
22.58653 261.000
22.60648 246.000
22.62643 271.000
22.64637 232.000
22.66632 224.000
22.68627 271.000
22.70621 231.000
22.72616 247.000
22.74611 246.000
22.76606 257.000
22.78600 245.000
22.80595 265.000
22.82590 235.000
22.84584 246.000
22.86579 268.000
22.88574 274.000
22.90568 255.000
22.92563 240.000
22.94558 256.000
22.96553 255.000
22.98547 248.000
23.00542 246.000
23.02537 235.000
23.04531 250.000
23.06526 273.000
23.08521 246.000
23.10515 232.000
23.12510 270.000
23.14505 246.000
23.16499 259.000
23.18494 264.000
23.20489 230.000
23.22484 253.000
23.24478 236.000
23.26473 250.000
23.28468 226.000
23.30462 276.000
23.32457 236.000
23.34452 253.000
23.36446 255.000
23.38441 258.000
23.40436 253.000
23.42431 277.000
23.44425 225.000
23.46420 234.000
23.48415 232.000
23.50409 265.000
23.52404 239.000
23.54399 245.000
23.56393 268.000
23.58388 247.000
23.60383 258.000
23.62377 244.000
23.64372 252.000
23.66367 257.000
23.68362 250.000
23.70356 275.000
23.72351 265.000
23.74346 255.000
23.76340 244.000
23.78335 247.000
23.80330 257.000
23.82324 244.000
23.84319 272.000
23.86314 267.000
23.88309 248.000
23.90303 268.000
23.92298 285.000
23.94293 266.000
23.96287 230.000
23.98282 260.000
24.00277 252.000
24.02271 249.000
24.04266 254.000
24.06261 227.000
24.08256 250.000
24.10250 262.000
24.12245 279.000
24.14240 267.000
24.16234 264.000
24.18229 251.000
24.20224 252.000
24.22218 253.000
24.24213 237.000
24.26208 274.000
24.28202 263.000
24.30197 247.000
24.32192 276.000
24.34187 254.000
24.36181 244.000
24.38176 257.000
24.40171 291.000
24.42165 287.000
24.44160 268.000
24.46155 260.000
24.48149 293.000
24.50144 243.000
24.52139 284.000
24.54134 282.000
24.56128 270.000
24.58123 263.000
24.60118 257.000
24.62112 277.000
24.64107 270.000
24.66102 281.000
24.68096 275.000
24.70091 267.000
24.72086 264.000
24.74080 289.000
24.76075 271.000
24.78070 259.000
24.80065 269.000
24.82059 269.000
24.84054 256.000
24.86049 255.000
24.88043 289.000
24.90038 291.000
24.92033 315.000
24.94027 253.000
24.96022 242.000
24.98017 270.000
25.00012 274.000
25.02006 272.000
25.04001 264.000
25.05996 263.000
25.07990 265.000
25.09985 275.000
25.11980 273.000
25.13974 272.000
25.15969 258.000
25.17964 267.000
25.19958 272.000
25.21953 268.000
25.23948 286.000
25.25943 295.000
25.27937 288.000
25.29932 270.000
25.31927 259.000
25.33921 280.000
25.35916 284.000
25.37911 302.000
25.39905 269.000
25.41900 319.000
25.43895 288.000
25.45890 290.000
25.47884 284.000
25.49879 292.000
25.51874 275.000
25.53868 288.000
25.55863 276.000
25.57858 291.000
25.59852 262.000
25.61847 235.000
25.63842 277.000
25.65837 292.000
25.67831 276.000
25.69826 291.000
25.71821 265.000
25.73815 272.000
25.75810 300.000
25.77805 286.000
25.79799 298.000
25.81794 247.000
25.83789 275.000
25.85783 289.000
25.87778 313.000
25.89773 318.000
25.91768 342.000
25.93762 314.000
25.95757 290.000
25.97752 301.000
25.99746 306.000
26.01741 302.000
26.03736 328.000
26.05730 299.000
26.07725 283.000
26.09720 286.000
26.11715 268.000
26.13709 322.000
26.15704 280.000
26.17699 304.000
26.19693 305.000
26.21688 305.000
26.23683 278.000
26.25677 295.000
26.27672 281.000
26.29667 305.000
26.31661 301.000
26.33656 309.000
26.35651 282.000
26.37646 329.000
26.39640 320.000
26.41635 278.000
26.43630 289.000
26.45624 333.000
26.47619 299.000
26.49614 291.000
26.51608 319.000
26.53603 313.000
26.55598 302.000
26.57593 312.000
26.59587 322.000
26.61582 328.000
26.63577 321.000
26.65571 322.000
26.67566 300.000
26.69561 270.000
26.71555 297.000
26.73550 284.000
26.75545 275.000
26.77539 284.000
26.79534 293.000
26.81529 288.000
26.83524 297.000
26.85518 316.000
26.87513 310.000
26.89508 313.000
26.91502 296.000
26.93497 314.000
26.95492 316.000
26.97486 295.000
26.99481 314.000
27.01476 293.000
27.03471 301.000
27.05465 307.000
27.07460 298.000
27.09455 298.000
27.11449 312.000
27.13444 266.000
27.15439 293.000
27.17433 282.000
27.19428 310.000
27.21423 312.000
27.23417 297.000
27.25412 294.000
27.27407 315.000
27.29402 312.000
27.31396 301.000
27.33391 273.000
27.35386 284.000
27.37380 335.000
27.39375 331.000
27.41370 329.000
27.43364 321.000
27.45359 323.000
27.47354 286.000
27.49349 311.000
27.51343 308.000
27.53338 321.000
27.55333 257.000
27.57327 283.000
27.59322 330.000
27.61317 332.000
27.63311 313.000
27.65306 312.000
27.67301 296.000
27.69296 290.000
27.71290 293.000
27.73285 344.000
27.75280 339.000
27.77274 342.000
27.79269 312.000
27.81264 291.000
27.83258 324.000
27.85253 339.000
27.87248 329.000
27.89242 348.000
27.91237 279.000
27.93232 330.000
27.95227 308.000
27.97221 312.000
27.99216 325.000
28.01211 306.000
28.03205 301.000
28.05200 319.000
28.07195 299.000
28.09189 314.000
28.11184 295.000
28.13179 310.000
28.15174 309.000
28.17168 316.000
28.19163 299.000
28.21158 304.000
28.23152 268.000
28.25147 299.000
28.27142 285.000
28.29136 299.000
28.31131 322.000
28.33126 319.000
28.35120 328.000
28.37115 352.000
28.39110 333.000
28.41105 327.000
28.43099 317.000
28.45094 305.000
28.47089 321.000
28.49083 311.000
28.51078 308.000
28.53073 315.000
28.55067 294.000
28.57062 300.000
28.59057 301.000
28.61052 316.000
28.63046 339.000
28.65041 330.000
28.67036 287.000
28.69030 299.000
28.71025 301.000
28.73020 307.000
28.75014 326.000
28.77009 333.000
28.79004 280.000
28.80998 305.000
28.82993 312.000
28.84988 352.000
28.86983 320.000
28.88977 337.000
28.90972 317.000
28.92967 316.000
28.94961 306.000
28.96956 320.000
28.98951 336.000
29.00945 328.000
29.02940 287.000
29.04935 335.000
29.06930 321.000
29.08924 303.000
29.10919 317.000
29.12914 312.000
29.14908 309.000
29.16903 337.000
29.18898 345.000
29.20892 333.000
29.22887 340.000
29.24882 329.000
29.26877 340.000
29.28871 332.000
29.30866 344.000
29.32861 326.000
29.34855 340.000
29.36850 346.000
29.38845 337.000
29.40839 387.000
29.42834 357.000
29.44829 356.000
29.46823 388.000
29.48818 362.000
29.50813 366.000
29.52808 377.000
29.54802 381.000
29.56797 358.000
29.58792 369.000
29.60786 362.000
29.62781 369.000
29.64776 361.000
29.66770 342.000
29.68765 354.000
29.70760 325.000
29.72755 348.000
29.74749 373.000
29.76744 369.000
29.78739 343.000
29.80733 373.000
29.82728 391.000
29.84723 342.000
29.86717 352.000
29.88712 413.000
29.90707 415.000
29.92701 473.000
29.94696 495.000
29.96691 573.000
29.98686 626.000
30.00680 685.000
30.02675 785.000
30.04670 753.000
30.06664 757.000
30.08659 703.000
30.10654 621.000
30.12648 566.000
30.14643 583.000
30.16638 462.000
30.18633 431.000
30.20627 395.000
30.22622 387.000
30.24617 361.000
30.26611 344.000
30.28606 327.000
30.30601 325.000
30.32595 360.000
30.34590 290.000
30.36585 304.000
30.38579 330.000
30.40574 340.000
30.42569 346.000
30.44564 339.000
30.46558 318.000
30.48553 300.000
30.50548 313.000
30.52542 354.000
30.54537 330.000
30.56532 310.000
30.58526 335.000
30.60521 379.000
30.62516 341.000
30.64511 343.000
30.66505 344.000
30.68500 332.000
30.70495 357.000
30.72489 344.000
30.74484 332.000
30.76479 368.000
30.78473 358.000
30.80468 336.000
30.82463 348.000
30.84458 364.000
30.86452 335.000
30.88447 348.000
30.90442 342.000
30.92436 306.000
30.94431 326.000
30.96426 318.000
30.98420 326.000
31.00415 343.000
31.02410 333.000
31.04404 314.000
31.06399 325.000
31.08394 307.000
31.10389 317.000
31.12383 324.000
31.14378 364.000
31.16373 310.000
31.18367 339.000
31.20362 339.000
31.22357 317.000
31.24351 308.000
31.26346 331.000
31.28341 324.000
31.30336 323.000
31.32330 350.000
31.34325 349.000
31.36320 339.000
31.38314 301.000
31.40309 352.000
31.42304 344.000
31.44298 380.000
31.46293 328.000
31.48288 375.000
31.50282 360.000
31.52277 360.000
31.54272 373.000
31.56267 335.000
31.58261 375.000
31.60256 369.000
31.62251 304.000
31.64245 310.000
31.66240 298.000
31.68235 373.000
31.70229 342.000
31.72224 319.000
31.74219 317.000
31.76214 325.000
31.78208 301.000
31.80203 297.000
31.82198 345.000
31.84192 293.000
31.86187 317.000
31.88182 326.000
31.90176 334.000
31.92171 364.000
31.94166 343.000
31.96160 315.000
31.98155 332.000
32.00150 323.000
32.02145 368.000
32.04139 291.000
32.06134 319.000
32.08129 329.000
32.10123 342.000
32.12118 330.000
32.14113 322.000
32.16107 316.000
32.18102 327.000
32.20097 335.000
32.22092 308.000
32.24086 354.000
32.26081 353.000
32.28076 338.000
32.30070 358.000
32.32065 329.000
32.34060 392.000
32.36054 368.000
32.38049 354.000
32.40044 372.000
32.42039 388.000
32.44033 415.000
32.46028 396.000
32.48023 505.000
32.50017 474.000
32.52012 476.000
32.54007 458.000
32.56001 459.000
32.57996 402.000
32.59991 418.000
32.61985 428.000
32.63980 377.000
32.65975 353.000
32.67970 329.000
32.69964 328.000
32.71959 323.000
32.73954 312.000
32.75948 305.000
32.77943 303.000
32.79938 291.000
32.81932 332.000
32.83927 340.000
32.85922 329.000
32.87917 359.000
32.89911 319.000
32.91906 316.000
32.93901 306.000
32.95895 319.000
32.97890 364.000
32.99885 337.000
33.01879 331.000
33.03874 341.000
33.05869 306.000
33.07863 335.000
33.09858 339.000
33.11853 364.000
33.13848 373.000
33.15842 346.000
33.17837 376.000
33.19832 474.000
33.21826 415.000
33.23821 404.000
33.25816 412.000
33.27810 417.000
33.29805 423.000
33.31800 388.000
33.33795 404.000
33.35789 385.000
33.37784 401.000
33.39779 416.000
33.41773 426.000
33.43768 392.000
33.45763 407.000
33.47757 419.000
33.49752 418.000
33.51747 416.000
33.53741 460.000
33.55736 440.000
33.57731 390.000
33.59726 435.000
33.61720 433.000
33.63715 496.000
33.65710 464.000
33.67704 489.000
33.69699 562.000
33.71694 556.000
33.73688 592.000
33.75683 669.000
33.77678 668.000
33.79673 678.000
33.81667 738.000
33.83662 771.000
33.85657 797.000
33.87651 705.000
33.89646 797.000
33.91641 758.000
33.93635 818.000
33.95630 823.000
33.97625 801.000
33.99620 769.000
34.01614 765.000
34.03609 755.000
34.05604 724.000
34.07598 694.000
34.09593 649.000
34.11588 591.000
34.13582 622.000
34.15577 601.000
34.17572 561.000
34.19566 614.000
34.21561 594.000
34.23556 542.000
34.25551 492.000
34.27545 534.000
34.29540 489.000
34.31535 446.000
34.33529 429.000
34.35524 452.000
34.37519 459.000
34.39513 452.000
34.41508 405.000
34.43503 412.000
34.45498 395.000
34.47492 374.000
34.49487 424.000
34.51482 376.000
34.53476 347.000
34.55471 389.000
34.57466 373.000
34.59460 378.000
34.61455 391.000
34.63450 357.000
34.65444 385.000
34.67439 396.000
34.69434 400.000
34.71429 395.000
34.73423 391.000
34.75418 398.000
34.77413 431.000
34.79407 362.000
34.81402 394.000
34.83397 369.000
34.85391 408.000
34.87386 371.000
34.89381 386.000
34.91376 381.000
34.93370 410.000
34.95365 446.000
34.97360 401.000
34.99354 431.000
35.01349 413.000
35.03344 477.000
35.05338 447.000
35.07333 475.000
35.09328 457.000
35.11322 538.000
35.13317 546.000
35.15312 587.000
35.17307 588.000
35.19301 668.000
35.21296 757.000
35.23291 824.000
35.25285 940.000
35.27280 1104.000
35.29275 1191.000
35.31269 1473.000
35.33264 1603.000
35.35259 1855.000
35.37254 2084.000
35.39248 2255.000
35.41243 2479.000
35.43238 2576.000
35.45232 2617.000
35.47227 2591.000
35.49222 2590.000
35.51216 2850.000
35.53211 2629.000
35.55206 2380.000
35.57201 1944.000
35.59195 1700.000
35.61190 1516.000
35.63185 1342.000
35.65179 1094.000
35.67174 839.000
35.69169 686.000
35.71163 630.000
35.73158 582.000
35.75153 502.000
35.77147 470.000
35.79142 456.000
35.81137 433.000
35.83132 430.000
35.85126 458.000
35.87121 400.000
35.89116 393.000
35.91110 356.000
35.93105 388.000
35.95100 354.000
35.97094 367.000
35.99089 359.000
36.01084 317.000
36.03079 339.000
36.05073 343.000
36.07068 348.000
36.09063 324.000
36.11057 341.000
36.13052 337.000
36.15047 330.000
36.17041 339.000
36.19036 364.000
36.21031 321.000
36.23025 311.000
36.25020 293.000
36.27015 313.000
36.29010 330.000
36.31004 342.000
36.32999 312.000
36.34994 333.000
36.36988 291.000
36.38983 343.000
36.40978 349.000
36.42972 330.000
36.44967 318.000
36.46962 349.000
36.48957 332.000
36.50951 307.000
36.52946 285.000
36.54941 320.000
36.56935 306.000
36.58930 349.000
36.60925 316.000
36.62919 326.000
36.64914 320.000
36.66909 325.000
36.68903 311.000
36.70898 294.000
36.72893 307.000
36.74888 319.000
36.76882 327.000
36.78877 338.000
36.80872 318.000
36.82866 306.000
36.84861 330.000
36.86856 319.000
36.88850 312.000
36.90845 345.000
36.92840 344.000
36.94835 358.000
36.96829 408.000
36.98824 408.000
37.00819 461.000
37.02813 443.000
37.04808 413.000
37.06803 392.000
37.08797 370.000
37.10792 364.000
37.12787 381.000
37.14781 349.000
37.16776 349.000
37.18771 308.000
37.20766 305.000
37.22760 302.000
37.24755 326.000
37.26750 292.000
37.28744 310.000
37.30739 316.000
37.32734 334.000
37.34728 286.000
37.36723 314.000
37.38718 275.000
37.40713 354.000
37.42707 316.000
37.44702 314.000
37.46697 321.000
37.48691 316.000
37.50686 362.000
37.52681 299.000
37.54675 314.000
37.56670 284.000
37.58665 311.000
37.60660 330.000
37.62654 320.000
37.64649 328.000
37.66644 300.000
37.68638 346.000
37.70633 313.000
37.72628 313.000
37.74622 312.000
37.76617 296.000
37.78612 346.000
37.80606 333.000
37.82601 310.000
37.84596 326.000
37.86591 309.000
37.88585 352.000
37.90580 314.000
37.92575 333.000
37.94569 376.000
37.96564 332.000
37.98559 332.000
38.00553 357.000
38.02548 373.000
38.04543 369.000
38.06538 390.000
38.08532 359.000
38.10527 354.000
38.12522 349.000
38.14516 366.000
38.16511 361.000
38.18506 356.000
38.20500 381.000
38.22495 364.000
38.24490 391.000
38.26484 378.000
38.28479 394.000
38.30474 390.000
38.32469 392.000
38.34463 424.000
38.36458 403.000
38.38453 410.000
38.40447 448.000
38.42442 424.000
38.44437 436.000
38.46431 460.000
38.48426 522.000
38.50421 563.000
38.52416 548.000
38.54410 604.000
38.56405 663.000
38.58400 771.000
38.60394 869.000
38.62389 963.000
38.64384 1125.000
38.66378 1234.000
38.68373 1536.000
38.70368 1790.000
38.72362 1875.000
38.74357 1899.000
38.76352 1693.000
38.78347 1513.000
38.80341 1419.000
38.82336 1357.000
38.84331 1208.000
38.86325 1098.000
38.88320 982.000
38.90315 914.000
38.92309 787.000
38.94304 750.000
38.96299 677.000
38.98294 583.000
39.00288 603.000
39.02283 542.000
39.04278 519.000
39.06272 465.000
39.08267 405.000
39.10262 371.000
39.12256 376.000
39.14251 381.000
39.16246 344.000
39.18241 345.000
39.20235 342.000
39.22230 312.000
39.24225 344.000
39.26219 314.000
39.28214 351.000
39.30209 313.000
39.32203 321.000
39.34198 338.000
39.36193 302.000
39.38187 304.000
39.40182 317.000
39.42177 302.000
39.44172 313.000
39.46166 307.000
39.48161 340.000
39.50156 293.000
39.52150 333.000
39.54145 291.000
39.56140 346.000
39.58134 309.000
39.60129 317.000
39.62124 283.000
39.64119 303.000
39.66113 310.000
39.68108 312.000
39.70103 308.000
39.72097 299.000
39.74092 339.000
39.76087 292.000
39.78081 302.000
39.80076 304.000
39.82071 315.000
39.84065 323.000
39.86060 314.000
39.88055 337.000
39.90050 307.000
39.92044 291.000
39.94039 316.000
39.96034 328.000
39.98028 309.000
40.00023 325.000
40.02018 297.000
40.04012 307.000
40.06007 295.000
40.08002 286.000
40.09997 305.000
40.11991 287.000
40.13986 299.000
40.15981 307.000
40.17975 296.000
40.19970 323.000
40.21965 275.000
40.23959 301.000
40.25954 321.000
40.27949 291.000
40.29943 290.000
40.31938 297.000
40.33933 295.000
40.35928 301.000
40.37922 325.000
40.39917 302.000
40.41912 266.000
40.43906 284.000
40.45901 300.000
40.47896 283.000
40.49890 282.000
40.51885 297.000
40.53880 295.000
40.55875 299.000
40.57869 293.000
40.59864 286.000
40.61859 276.000
40.63853 290.000
40.65848 289.000
40.67843 291.000
40.69837 285.000
40.71832 306.000
40.73827 275.000
40.75822 284.000
40.77816 299.000
40.79811 329.000
40.81806 269.000
40.83800 289.000
40.85795 274.000
40.87790 276.000
40.89784 290.000
40.91779 287.000
40.93774 309.000
40.95768 291.000
40.97763 290.000
40.99758 301.000
41.01753 294.000
41.03747 315.000
41.05742 307.000
41.07737 291.000
41.09731 276.000
41.11726 279.000
41.13721 285.000
41.15715 304.000
41.17710 282.000
41.19705 299.000
41.21700 295.000
41.23694 276.000
41.25689 289.000
41.27684 313.000
41.29678 286.000
41.31673 272.000
41.33668 319.000
41.35662 297.000
41.37657 267.000
41.39652 283.000
41.41646 283.000
41.43641 302.000
41.45636 300.000
41.47631 296.000
41.49625 328.000
41.51620 317.000
41.53615 261.000
41.55609 305.000
41.57604 276.000
41.59599 295.000
41.61593 288.000
41.63588 310.000
41.65583 271.000
41.67578 280.000
41.69572 292.000
41.71567 261.000
41.73562 296.000
41.75556 268.000
41.77551 290.000
41.79546 302.000
41.81540 287.000
41.83535 295.000
41.85530 288.000
41.87524 251.000
41.89519 309.000
41.91514 301.000
41.93509 260.000
41.95503 285.000
41.97498 258.000
41.99493 320.000
42.01487 284.000
42.03482 293.000
42.05477 294.000
42.07471 292.000
42.09466 277.000
42.11461 305.000
42.13456 322.000
42.15450 281.000
42.17445 282.000
42.19440 330.000
42.21434 273.000
42.23429 286.000
42.25424 316.000
42.27418 306.000
42.29413 298.000
42.31408 307.000
42.33403 301.000
42.35397 330.000
42.37392 295.000
42.39387 320.000
42.41381 308.000
42.43376 334.000
42.45371 270.000
42.47365 308.000
42.49360 305.000
42.51355 308.000
42.53349 261.000
42.55344 289.000
42.57339 315.000
42.59334 344.000
42.61328 266.000
42.63323 319.000
42.65318 287.000
42.67312 307.000
42.69307 305.000
42.71302 285.000
42.73296 321.000
42.75291 309.000
42.77286 303.000
42.79281 345.000
42.81275 334.000
42.83270 352.000
42.85265 397.000
42.87259 390.000
42.89254 402.000
42.91249 418.000
42.93243 410.000
42.95238 445.000
42.97233 474.000
42.99227 487.000
43.01222 503.000
43.03217 465.000
43.05212 496.000
43.07206 478.000
43.09201 461.000
43.11196 458.000
43.13190 408.000
43.15185 405.000
43.17180 393.000
43.19174 358.000
43.21169 369.000
43.23164 375.000
43.25159 355.000
43.27153 343.000
43.29148 304.000
43.31143 299.000
43.33137 326.000
43.35132 301.000
43.37127 298.000
43.39121 303.000
43.41116 304.000
43.43111 273.000
43.45105 287.000
43.47100 284.000
43.49095 305.000
43.51090 282.000
43.53084 282.000
43.55079 255.000
43.57074 246.000
43.59068 293.000
43.61063 295.000
43.63058 280.000
43.65052 253.000
43.67047 273.000
43.69042 279.000
43.71037 278.000
43.73031 323.000
43.75026 281.000
43.77021 250.000
43.79015 261.000
43.81010 294.000
43.83005 272.000
43.84999 270.000
43.86994 273.000
43.88989 272.000
43.90984 270.000
43.92978 292.000
43.94973 271.000
43.96968 301.000
43.98962 273.000
44.00957 250.000
44.02952 331.000
44.04946 298.000
44.06941 234.000
44.08936 249.000
44.10930 264.000
44.12925 280.000
44.14920 252.000
44.16915 264.000
44.18909 279.000
44.20904 253.000
44.22899 287.000
44.24893 274.000
44.26888 269.000
44.28883 277.000
44.30877 264.000
44.32872 286.000
44.34867 270.000
44.36862 275.000
44.38856 263.000
44.40851 295.000
44.42846 307.000
44.44840 273.000
44.46835 284.000
44.48830 288.000
44.50824 262.000
44.52819 249.000
44.54814 253.000
44.56808 268.000
44.58803 256.000
44.60798 250.000
44.62793 275.000
44.64787 254.000
44.66782 241.000
44.68777 263.000
44.70771 277.000
44.72766 300.000
44.74761 269.000
44.76755 264.000
44.78750 262.000
44.80745 281.000
44.82740 285.000
44.84734 257.000
44.86729 284.000
44.88724 292.000
44.90718 305.000
44.92713 247.000
44.94708 251.000
44.96702 286.000
44.98697 290.000
45.00692 285.000
45.02686 305.000
45.04681 267.000
45.06676 295.000
45.08671 282.000
45.10665 296.000
45.12660 274.000
45.14655 297.000
45.16649 307.000
45.18644 272.000
45.20639 289.000
45.22633 252.000
45.24628 264.000
45.26623 278.000
45.28618 241.000
45.30612 246.000
45.32607 280.000
45.34602 249.000
45.36596 285.000
45.38591 304.000
45.40586 279.000
45.42580 272.000
45.44575 295.000
45.46570 279.000
45.48565 272.000
45.50559 261.000
45.52554 257.000
45.54549 284.000
45.56543 298.000
45.58538 266.000
45.60533 297.000
45.62527 264.000
45.64522 294.000
45.66517 281.000
45.68511 244.000
45.70506 272.000
45.72501 273.000
45.74496 258.000
45.76490 263.000
45.78485 297.000
45.80480 290.000
45.82474 298.000
45.84469 283.000
45.86464 275.000
45.88458 255.000
45.90453 267.000
45.92448 251.000
45.94443 256.000
45.96437 259.000
45.98432 274.000
46.00427 249.000
46.02421 266.000
46.04416 273.000
46.06411 280.000
46.08405 248.000
46.10400 312.000
46.12395 292.000
46.14389 281.000
46.16384 281.000
46.18379 282.000
46.20374 286.000
46.22368 311.000
46.24363 324.000
46.26358 298.000
46.28352 270.000
46.30347 291.000
46.32342 324.000
46.34336 249.000
46.36331 325.000
46.38326 308.000
46.40321 274.000
46.42315 288.000
46.44310 277.000
46.46305 309.000
46.48299 283.000
46.50294 285.000
46.52289 235.000
46.54283 269.000
46.56278 255.000
46.58273 275.000
46.60267 261.000
46.62262 261.000
46.64257 277.000
46.66252 318.000
46.68246 245.000
46.70241 261.000
46.72236 282.000
46.74230 261.000
46.76225 273.000
46.78220 276.000
46.80214 289.000
46.82209 289.000
46.84204 280.000
46.86199 241.000
46.88193 255.000
46.90188 262.000
46.92183 271.000
46.94177 267.000
46.96172 275.000
46.98167 272.000
47.00161 263.000
47.02156 275.000
47.04151 297.000
47.06146 274.000
47.08140 276.000
47.10135 277.000
47.12130 291.000
47.14124 314.000
47.16119 282.000
47.18114 293.000
47.20108 287.000
47.22103 266.000
47.24098 297.000
47.26092 276.000
47.28087 258.000
47.30082 274.000
47.32077 271.000
47.34071 255.000
47.36066 283.000
47.38061 269.000
47.40055 248.000
47.42050 307.000
47.44045 253.000
47.46039 234.000
47.48034 276.000
47.50029 261.000
47.52024 286.000
47.54018 251.000
47.56013 277.000
47.58008 216.000
47.60002 251.000
47.61997 277.000
47.63992 238.000
47.65986 261.000
47.67981 290.000
47.69976 274.000
47.71970 275.000
47.73965 250.000
47.75960 279.000
47.77955 254.000
47.79949 283.000
47.81944 278.000
47.83939 285.000
47.85933 257.000
47.87928 284.000
47.89923 304.000
47.91917 290.000
47.93912 267.000
47.95907 270.000
47.97902 264.000
47.99896 268.000
48.01891 252.000
48.03886 274.000
48.05880 332.000
48.07875 273.000
48.09870 279.000
48.11864 278.000
48.13859 288.000
48.15854 323.000
48.17848 292.000
48.19843 289.000
48.21838 264.000
48.23833 265.000
48.25827 325.000
48.27822 283.000
48.29817 276.000
48.31811 321.000
48.33806 299.000
48.35801 327.000
48.37795 328.000
48.39790 336.000
48.41785 365.000
48.43780 326.000
48.45774 366.000
48.47769 370.000
48.49764 363.000
48.51758 372.000
48.53753 380.000
48.55748 418.000
48.57742 443.000
48.59737 485.000
48.61732 487.000
48.63726 516.000
48.65721 641.000
48.67716 653.000
48.69711 720.000
48.71705 664.000
48.73700 650.000
48.75695 589.000
48.77689 608.000
48.79684 578.000
48.81679 558.000
48.83673 562.000
48.85668 519.000
48.87663 460.000
48.89658 435.000
48.91652 392.000
48.93647 377.000
48.95642 350.000
48.97636 337.000
48.99631 334.000
49.01626 320.000
49.03620 303.000
49.05615 314.000
49.07610 296.000
49.09605 282.000
49.11599 310.000
49.13594 298.000
49.15589 298.000
49.17583 300.000
49.19578 301.000
49.21573 280.000
49.23567 274.000
49.25562 277.000
49.27557 302.000
49.29551 291.000
49.31546 310.000
49.33541 324.000
49.35536 307.000
49.37530 289.000
49.39525 293.000
49.41520 284.000
49.43514 245.000
49.45509 253.000
49.47504 295.000
49.49498 295.000
49.51493 326.000
49.53488 277.000
49.55483 263.000
49.57477 265.000
49.59472 292.000
49.61467 290.000
49.63461 275.000
49.65456 275.000
49.67451 271.000
49.69445 277.000
49.71440 282.000
49.73435 283.000
49.75429 261.000
49.77424 280.000
49.79419 252.000
49.81414 275.000
49.83408 251.000
49.85403 276.000
49.87398 276.000
49.89392 303.000
49.91387 256.000
49.93382 281.000
49.95376 276.000
49.97371 280.000
49.99366 285.000
50.01361 256.000
50.03355 235.000
50.05350 277.000
50.07345 261.000
50.09339 248.000
50.11334 264.000
50.13329 274.000
50.15323 260.000
50.17318 274.000
50.19313 259.000
50.21307 247.000
50.23302 254.000
50.25297 227.000
50.27292 235.000
50.29286 244.000
50.31281 280.000
50.33276 240.000
50.35270 272.000
50.37265 280.000
50.39260 282.000
50.41254 257.000
50.43249 275.000
50.45244 227.000
50.47239 257.000
50.49233 275.000
50.51228 271.000
50.53223 248.000
50.55217 287.000
50.57212 251.000
50.59207 252.000
50.61201 265.000
50.63196 247.000
50.65191 262.000
50.67186 272.000
50.69180 261.000
50.71175 242.000
50.73170 272.000
50.75164 273.000
50.77159 271.000
50.79154 248.000
50.81148 256.000
50.83143 261.000
50.85138 249.000
50.87132 246.000
50.89127 258.000
50.91122 270.000
50.93117 280.000
50.95111 284.000
50.97106 239.000
50.99101 258.000
51.01095 265.000
51.03090 260.000
51.05085 255.000
51.07079 300.000
51.09074 298.000
51.11069 296.000
51.13064 276.000
51.15058 257.000
51.17053 270.000
51.19048 290.000
51.21042 257.000
51.23037 287.000
51.25032 284.000
51.27026 273.000
51.29021 281.000
51.31016 290.000
51.33010 283.000
51.35005 258.000
51.37000 251.000
51.38995 273.000
51.40989 261.000
51.42984 289.000
51.44979 261.000
51.46973 268.000
51.48968 286.000
51.50963 268.000
51.52957 269.000
51.54952 251.000
51.56947 297.000
51.58942 246.000
51.60936 269.000
51.62931 254.000
51.64926 269.000
51.66920 223.000
51.68915 270.000
51.70910 252.000
51.72904 278.000
51.74899 300.000
51.76894 239.000
51.78888 247.000
51.80883 267.000
51.82878 277.000
51.84873 256.000
51.86867 240.000
51.88862 252.000
51.90857 261.000
51.92851 275.000
51.94846 281.000
51.96841 239.000
51.98835 302.000
52.00830 246.000
52.02825 280.000
52.04820 276.000
52.06814 253.000
52.08809 238.000
52.10804 253.000
52.12798 250.000
52.14793 262.000
52.16788 278.000
52.18782 297.000
52.20777 283.000
52.22772 286.000
52.24767 264.000
52.26761 250.000
52.28756 278.000
52.30751 265.000
52.32745 277.000
52.34740 289.000
52.36735 239.000
52.38729 244.000
52.40724 276.000
52.42719 259.000
52.44713 264.000
52.46708 285.000
52.48703 273.000
52.50698 256.000
52.52692 270.000
52.54687 281.000
52.56682 270.000
52.58676 276.000
52.60671 241.000
52.62666 268.000
52.64660 271.000
52.66655 256.000
52.68650 270.000
52.70645 253.000
52.72639 269.000
52.74634 300.000
52.76629 259.000
52.78623 287.000
52.80618 299.000
52.82613 300.000
52.84607 269.000
52.86602 302.000
52.88597 268.000
52.90591 289.000
52.92586 289.000
52.94581 298.000
52.96576 294.000
52.98570 268.000
53.00565 287.000
53.02560 281.000
53.04554 308.000
53.06549 300.000
53.08544 289.000
53.10538 315.000
53.12533 311.000
53.14528 311.000
53.16523 264.000
53.18517 313.000
53.20512 305.000
53.22507 311.000
53.24501 329.000
53.26496 353.000
53.28491 373.000
53.30485 360.000
53.32480 382.000
53.34475 399.000
53.36469 412.000
53.38464 411.000
53.40459 443.000
53.42454 417.000
53.44448 441.000
53.46443 446.000
53.48438 422.000
53.50432 439.000
53.52427 419.000
53.54422 420.000
53.56416 408.000
53.58411 370.000
53.60406 380.000
53.62401 368.000
53.64395 390.000
53.66390 338.000
53.68385 310.000
53.70379 310.000
53.72374 295.000
53.74369 316.000
53.76363 295.000
53.78358 291.000
53.80353 272.000
53.82348 280.000
53.84342 292.000
53.86337 272.000
53.88332 289.000
53.90326 295.000
53.92321 243.000
53.94316 289.000
53.96310 281.000
53.98305 260.000
54.00300 269.000
54.02294 265.000
54.04289 268.000
54.06284 272.000
54.08279 247.000
54.10273 268.000
54.12268 282.000
54.14263 293.000
54.16257 269.000
54.18252 276.000
54.20247 261.000
54.22241 236.000
54.24236 286.000
54.26231 258.000
54.28226 261.000
54.30220 257.000
54.32215 220.000
54.34210 270.000
54.36204 256.000
54.38199 288.000
54.40194 273.000
54.42188 255.000
54.44183 255.000
54.46178 248.000
54.48172 258.000
54.50167 258.000
54.52162 251.000
54.54157 260.000
54.56151 260.000
54.58146 275.000
54.60141 259.000
54.62135 282.000
54.64130 246.000
54.66125 266.000
54.68119 242.000
54.70114 273.000
54.72109 276.000
54.74104 267.000
54.76098 278.000
54.78093 271.000
54.80088 276.000
54.82082 262.000
54.84077 273.000
54.86072 254.000
54.88066 254.000
54.90061 285.000
54.92056 263.000
54.94050 286.000
54.96045 281.000
54.98040 255.000
55.00035 274.000
55.02029 267.000
55.04024 271.000
55.06019 268.000
55.08013 274.000
55.10008 259.000
55.12003 257.000
55.13997 263.000
55.15992 287.000
55.17987 250.000
55.19982 261.000
55.21976 248.000
55.23971 279.000
55.25966 261.000
55.27960 287.000
55.29955 262.000
55.31950 257.000
55.33944 275.000
55.35939 255.000
55.37934 256.000
55.39929 247.000
55.41923 274.000
55.43918 274.000
55.45913 250.000
55.47907 258.000
55.49902 261.000
55.51897 276.000
55.53891 279.000
55.55886 268.000
55.57881 273.000
55.59875 284.000
55.61870 253.000
55.63865 265.000
55.65860 218.000
55.67854 247.000
55.69849 277.000
55.71844 245.000
55.73838 261.000
55.75833 274.000
55.77828 260.000
55.79822 287.000
55.81817 252.000
55.83812 267.000
55.85807 306.000
55.87801 245.000
55.89796 257.000
55.91791 265.000
55.93785 269.000
55.95780 253.000
55.97775 273.000
55.99769 289.000
56.01764 260.000
56.03759 248.000
56.05753 261.000
56.07748 260.000
56.09743 270.000
56.11738 254.000
56.13732 287.000
56.15727 265.000
56.17722 282.000
56.19716 288.000
56.21711 267.000
56.23706 275.000
56.25700 269.000
56.27695 268.000
56.29690 280.000
56.31685 294.000
56.33679 267.000
56.35674 257.000
56.37669 315.000
56.39663 291.000
56.41658 285.000
56.43653 265.000
56.45647 298.000
56.47642 298.000
56.49637 284.000
56.51631 291.000
56.53626 277.000
56.55621 289.000
56.57616 304.000
56.59610 332.000
56.61605 341.000
56.63600 333.000
56.65594 366.000
56.67589 386.000
56.69584 374.000
56.71578 372.000
56.73573 385.000
56.75568 424.000
56.77563 475.000
56.79557 465.000
56.81552 470.000
56.83547 470.000
56.85541 549.000
56.87536 509.000
56.89531 553.000
56.91525 529.000
56.93520 513.000
56.95515 481.000
56.97510 448.000
56.99504 452.000
57.01499 440.000
57.03494 456.000
57.05488 451.000
57.07483 396.000
57.09478 366.000
57.11472 359.000
57.13467 354.000
57.15462 299.000
57.17456 335.000
57.19451 308.000
57.21446 290.000
57.23441 306.000
57.25435 310.000
57.27430 297.000
57.29425 306.000
57.31419 300.000
57.33414 304.000
57.35409 294.000
57.37403 293.000
57.39398 274.000
57.41393 276.000
57.43388 286.000
57.45382 247.000
57.47377 274.000
57.49372 268.000
57.51366 260.000
57.53361 305.000
57.55356 257.000
57.57350 266.000
57.59345 266.000
57.61340 281.000
57.63334 273.000
57.65329 280.000
57.67324 303.000
57.69319 288.000
57.71313 320.000
57.73308 288.000
57.75303 298.000
57.77297 276.000
57.79292 257.000
57.81287 279.000
57.83281 296.000
57.85276 287.000
57.87271 278.000
57.89266 324.000
57.91260 273.000
57.93255 292.000
57.95250 274.000
57.97244 300.000
57.99239 269.000
58.01234 275.000
58.03228 295.000
58.05223 290.000
58.07218 324.000
58.09212 307.000
58.11207 327.000
58.13202 335.000
58.15197 348.000
58.17191 362.000
58.19186 372.000
58.21181 381.000
58.23175 405.000
58.25170 391.000
58.27165 410.000
58.29159 460.000
58.31154 439.000
58.33149 406.000
58.35144 397.000
58.37138 384.000
58.39133 372.000
58.41128 363.000
58.43122 401.000
58.45117 367.000
58.47112 344.000
58.49106 363.000
58.51101 315.000
58.53096 292.000
58.55090 300.000
58.57085 312.000
58.59080 302.000
58.61075 275.000
58.63069 320.000
58.65064 261.000
58.67059 271.000
58.69053 281.000
58.71048 268.000
58.73043 262.000
58.75037 276.000
58.77032 239.000
58.79027 259.000
58.81022 289.000
58.83016 249.000
58.85011 264.000
58.87006 251.000
58.89000 303.000
58.90995 269.000
58.92990 252.000
58.94984 234.000
58.96979 255.000
58.98974 276.000
59.00969 255.000
59.02963 264.000
59.04958 289.000
59.06953 252.000
59.08947 236.000
59.10942 277.000
59.12937 270.000
59.14931 238.000
59.16926 276.000
59.18921 243.000
59.20915 264.000
59.22910 265.000
59.24905 240.000
59.26900 278.000
59.28894 230.000
59.30889 303.000
59.32884 246.000
59.34878 239.000
59.36873 252.000
59.38868 287.000
59.40862 267.000
59.42857 266.000
59.44852 258.000
59.46847 260.000
59.48841 278.000
59.50836 271.000
59.52831 267.000
59.54825 263.000
59.56820 266.000
59.58815 293.000
59.60809 285.000
59.62804 296.000
59.64799 284.000
59.66793 273.000
59.68788 284.000
59.70783 270.000
59.72778 296.000
59.74772 289.000
59.76767 304.000
59.78762 292.000
59.80756 280.000
59.82751 317.000
59.84746 275.000
59.86740 263.000
59.88735 262.000
59.90730 300.000
59.92725 262.000
59.94719 283.000
59.96714 280.000
59.98709 282.000
60.00703 295.000
60.02698 256.000
60.04693 303.000
60.06687 319.000
60.08682 293.000
60.10677 289.000
60.12671 282.000
60.14666 303.000
60.16661 295.000
60.18656 292.000
60.20650 289.000
60.22645 299.000
60.24640 297.000
60.26634 282.000
60.28629 301.000
60.30624 310.000
60.32618 310.000
60.34613 325.000
60.36608 329.000
60.38603 324.000
60.40597 362.000
60.42592 338.000
60.44587 311.000
60.46581 323.000
60.48576 334.000
60.50571 368.000
60.52565 368.000
60.54560 347.000
60.56555 375.000
60.58550 356.000
60.60544 367.000
60.62539 329.000
60.64534 384.000
60.66528 400.000
60.68523 415.000
60.70518 349.000
60.72512 351.000
60.74507 345.000
60.76502 352.000
60.78496 357.000
60.80491 355.000
60.82486 317.000
60.84481 321.000
60.86475 337.000
60.88470 307.000
60.90465 344.000
60.92459 340.000
60.94454 371.000
60.96449 329.000
60.98443 324.000
61.00438 389.000
61.02433 338.000
61.04428 350.000
61.06422 342.000
61.08417 342.000
61.10412 333.000
61.12406 332.000
61.14401 375.000
61.16396 326.000
61.18390 326.000
61.20385 349.000
61.22380 337.000
61.24374 346.000
61.26369 339.000
61.28364 363.000
61.30359 349.000
61.32353 363.000
61.34348 397.000
61.36343 354.000
61.38337 384.000
61.40332 429.000
61.42327 408.000
61.44321 440.000
61.46316 497.000
61.48311 526.000
61.50306 574.000
61.52300 535.000
61.54295 566.000
61.56290 557.000
61.58284 513.000
61.60279 459.000
61.62274 466.000
61.64268 468.000
61.66263 424.000
61.68258 456.000
61.70252 479.000
61.72247 415.000
61.74242 396.000
61.76237 404.000
61.78231 383.000
61.80226 337.000
61.82221 331.000
61.84215 343.000
61.86210 333.000
61.88205 312.000
61.90199 325.000
61.92194 293.000
61.94189 337.000
61.96184 267.000
61.98178 320.000
62.00173 298.000
62.02168 316.000
62.04162 296.000
62.06157 309.000
62.08152 318.000
62.10146 301.000
62.12141 299.000
62.14136 313.000
62.16131 322.000
62.18125 331.000
62.20120 340.000
62.22115 310.000
62.24109 329.000
62.26104 384.000
62.28099 386.000
62.30093 403.000
62.32088 455.000
62.34083 472.000
62.36077 517.000
62.38072 473.000
62.40067 562.000
62.42062 559.000
62.44056 618.000
62.46051 623.000
62.48046 599.000
62.50040 627.000
62.52035 573.000
62.54030 579.000
62.56024 565.000
62.58019 539.000
62.60014 515.000
62.62009 517.000
62.64003 481.000
62.65998 452.000
62.67993 416.000
62.69987 410.000
62.71982 394.000
62.73977 399.000
62.75971 353.000
62.77966 322.000
62.79961 346.000
62.81955 320.000
62.83950 299.000
62.85945 314.000
62.87940 282.000
62.89934 279.000
62.91929 307.000
62.93924 269.000
62.95918 263.000
62.97913 271.000
62.99908 271.000
63.01902 270.000
63.03897 238.000
63.05892 256.000
63.07887 309.000
63.09881 256.000
63.11876 248.000
63.13871 248.000
63.15865 243.000
63.17860 253.000
63.19855 261.000
63.21849 253.000
63.23844 264.000
63.25839 263.000
63.27833 255.000
63.29828 276.000
63.31823 247.000
63.33818 246.000
63.35812 249.000
63.37807 237.000
63.39802 270.000
63.41796 261.000
63.43791 279.000
63.45786 239.000
63.47780 286.000
63.49775 237.000
63.51770 295.000
63.53765 261.000
63.55759 284.000
63.57754 256.000
63.59749 258.000
63.61743 277.000
63.63738 259.000
63.65733 294.000
63.67727 267.000
63.69722 246.000
63.71717 243.000
63.73712 252.000
63.75706 284.000
63.77701 272.000
63.79696 262.000
63.81690 245.000
63.83685 265.000
63.85680 309.000
63.87674 266.000
63.89669 248.000
63.91664 254.000
63.93658 247.000
63.95653 245.000
63.97648 280.000
63.99643 255.000
64.01637 313.000
64.03632 270.000
64.05627 265.000
64.07621 280.000
64.09616 273.000
64.11611 266.000
64.13605 257.000
64.15600 257.000
64.17595 237.000
64.19590 260.000
64.21584 275.000
64.23579 282.000
64.25574 246.000
64.27568 262.000
64.29563 274.000
64.31558 278.000
64.33552 266.000
64.35547 252.000
64.37542 285.000
64.39536 288.000
64.41531 269.000
64.43526 258.000
64.45521 251.000
64.47515 281.000
64.49510 260.000
64.51505 272.000
64.53499 277.000
64.55494 285.000
64.57489 266.000
64.59483 238.000
64.61478 257.000
64.63473 272.000
64.65468 306.000
64.67462 262.000
64.69457 267.000
64.71452 253.000
64.73446 255.000
64.75441 265.000
64.77436 281.000
64.79430 263.000
64.81425 288.000
64.83420 281.000
64.85414 252.000
64.87409 290.000
64.89404 277.000
64.91399 299.000
64.93393 288.000
64.95388 257.000
64.97383 272.000
64.99377 281.000
65.01372 282.000
65.03367 285.000
65.05361 258.000
65.07356 295.000
65.09351 268.000
65.11346 266.000
65.13340 279.000
65.15335 293.000
65.17330 278.000
65.19324 264.000
65.21319 273.000
65.23314 288.000
65.25308 282.000
65.27303 282.000
65.29298 272.000
65.31293 278.000
65.33287 287.000
65.35282 305.000
65.37277 299.000
65.39271 281.000
65.41266 314.000
65.43261 280.000
65.45255 302.000
65.47250 290.000
65.49245 302.000
65.51239 321.000
65.53234 300.000
65.55229 309.000
65.57224 295.000
65.59218 337.000
65.61213 327.000
65.63208 333.000
65.65202 369.000
65.67197 354.000
65.69192 373.000
65.71186 367.000
65.73181 447.000
65.75176 413.000
65.77171 398.000
65.79165 425.000
65.81160 445.000
65.83155 441.000
65.85149 425.000
65.87144 416.000
65.89139 445.000
65.91133 465.000
65.93128 401.000
65.95123 408.000
65.97117 389.000
65.99112 388.000
66.01107 366.000
66.03102 376.000
66.05096 384.000
66.07091 378.000
66.09086 372.000
66.11080 414.000
66.13075 388.000
66.15070 433.000
66.17064 432.000
66.19059 460.000
66.21054 498.000
66.23049 474.000
66.25043 432.000
66.27038 444.000
66.29033 412.000
66.31027 390.000
66.33022 374.000
66.35017 383.000
66.37011 425.000
66.39006 416.000
66.41001 385.000
66.42995 382.000
66.44990 370.000
66.46985 337.000
66.48980 320.000
66.50974 298.000
66.52969 284.000
66.54964 298.000
66.56958 275.000
66.58953 284.000
66.60948 262.000
66.62942 290.000
66.64937 293.000
66.66932 304.000
66.68927 271.000
66.70921 286.000
66.72916 261.000
66.74911 285.000
66.76905 256.000
66.78900 257.000
66.80895 261.000
66.82889 220.000
66.84884 291.000
66.86879 282.000
66.88874 269.000
66.90868 258.000
66.92863 282.000
66.94858 252.000
66.96852 288.000
66.98847 273.000
67.00842 254.000
67.02836 258.000
67.04831 261.000
67.06826 281.000
67.08820 263.000
67.10815 273.000
67.12810 255.000
67.14805 255.000
67.16799 281.000
67.18794 255.000
67.20789 289.000
67.22783 287.000
67.24778 272.000
67.26773 260.000
67.28767 258.000
67.30762 241.000
67.32757 266.000
67.34752 258.000
67.36746 247.000
67.38741 265.000
67.40736 269.000
67.42730 301.000
67.44725 286.000
67.46720 247.000
67.48714 251.000
67.50709 268.000
67.52704 278.000
67.54698 259.000
67.56693 273.000
67.58688 290.000
67.60683 263.000
67.62677 299.000
67.64672 323.000
67.66667 269.000
67.68661 315.000
67.70656 319.000
67.72651 307.000
67.74645 309.000
67.76640 278.000
67.78635 317.000
67.80630 333.000
67.82624 349.000
67.84619 349.000
67.86614 328.000
67.88608 377.000
67.90603 394.000
67.92598 404.000
67.94592 383.000
67.96587 387.000
67.98582 389.000
68.00576 420.000
68.02571 411.000
68.04566 452.000
68.06561 438.000
68.08555 439.000
68.10550 481.000
68.12545 484.000
68.14539 426.000
68.16534 401.000
68.18529 389.000
68.20523 382.000
68.22518 381.000
68.24513 375.000
68.26508 375.000
68.28502 376.000
68.30497 368.000
68.32492 355.000
68.34486 318.000
68.36481 325.000
68.38476 324.000
68.40470 287.000
68.42465 286.000
68.44460 275.000
68.46455 256.000
68.48449 271.000
68.50444 232.000
68.52439 266.000
68.54433 280.000
68.56428 270.000
68.58423 269.000
68.60417 265.000
68.62412 276.000
68.64407 261.000
68.66401 242.000
68.68396 262.000
68.70391 266.000
68.72386 258.000
68.74380 262.000
68.76375 245.000
68.78370 231.000
68.80364 256.000
68.82359 250.000
68.84354 256.000
68.86348 267.000
68.88343 246.000
68.90338 249.000
68.92333 258.000
68.94327 225.000
68.96322 288.000
68.98317 253.000
69.00311 278.000
69.02306 257.000
69.04301 263.000
69.06295 231.000
69.08290 229.000
69.10285 266.000
69.12279 269.000
69.14274 237.000
69.16269 260.000
69.18264 252.000
69.20258 253.000
69.22253 255.000
69.24248 264.000
69.26242 217.000
69.28237 262.000
69.30232 252.000
69.32226 251.000
69.34221 263.000
69.36216 236.000
69.38211 259.000
69.40205 251.000
69.42200 254.000
69.44195 243.000
69.46189 228.000
69.48184 270.000
69.50179 248.000
69.52173 250.000
69.54168 244.000
69.56163 246.000
69.58157 256.000
69.60152 270.000
69.62147 254.000
69.64142 252.000
69.66136 255.000
69.68131 280.000
69.70126 257.000
69.72120 277.000
69.74115 253.000
69.76110 244.000
69.78104 281.000
69.80099 211.000
69.82094 253.000
69.84089 251.000
69.86083 245.000
69.88078 245.000
69.90073 251.000
69.92067 272.000
69.94062 231.000
69.96057 251.000
69.98051 251.000
70.00046 261.000
70.02041 270.000
70.04035 257.000
70.06030 257.000
70.08025 246.000
70.10020 253.000
70.12014 252.000
70.14009 269.000
70.16004 263.000
70.17998 259.000
70.19993 244.000
70.21988 246.000
70.23982 234.000
70.25977 263.000
70.27972 285.000
70.29967 250.000
70.31961 259.000
70.33956 228.000
70.35951 279.000
70.37945 238.000
70.39940 236.000
70.41935 248.000
70.43929 294.000
70.45924 265.000
70.47919 256.000
70.49914 271.000
70.51908 242.000
70.53903 293.000
70.55898 268.000
70.57892 264.000
70.59887 242.000
70.61882 232.000
70.63876 262.000
70.65871 279.000
70.67866 307.000
70.69860 252.000
70.71855 232.000
70.73850 299.000
70.75845 262.000
70.77839 283.000
70.79834 259.000
70.81829 260.000
70.83823 290.000
70.85818 244.000
70.87813 273.000
70.89807 275.000
70.91802 252.000
70.93797 277.000
70.95792 257.000
70.97786 284.000
70.99781 242.000
71.01776 273.000
71.03770 306.000
71.05765 260.000
71.07760 257.000
71.09754 271.000
71.11749 280.000
71.13744 269.000
71.15738 270.000
71.17733 251.000
71.19728 272.000
71.21723 251.000
71.23717 256.000
71.25712 250.000
71.27707 271.000
71.29701 236.000
71.31696 287.000
71.33691 270.000
71.35685 289.000
71.37680 269.000
71.39675 280.000
71.41670 250.000
71.43664 239.000
71.45659 270.000
71.47654 281.000
71.49648 250.000
71.51643 265.000
71.53638 259.000
71.55632 234.000
71.57627 305.000
71.59622 230.000
71.61616 242.000
71.63611 275.000
71.65606 262.000
71.67601 266.000
71.69595 266.000
71.71590 254.000
71.73585 253.000
71.75579 280.000
71.77574 268.000
71.79569 282.000
71.81563 303.000
71.83558 247.000
71.85553 255.000
71.87548 280.000
71.89542 278.000
71.91537 259.000
71.93532 265.000
71.95526 266.000
71.97521 238.000
71.99516 273.000
72.01510 275.000
72.03505 258.000
72.05500 285.000
72.07495 287.000
72.09489 288.000
72.11484 270.000
72.13479 276.000
72.15473 235.000
72.17468 295.000
72.19463 292.000
72.21457 297.000
72.23452 287.000
72.25447 281.000
72.27441 264.000
72.29436 290.000
72.31431 302.000
72.33426 307.000
72.35420 333.000
72.37415 343.000
72.39410 349.000
72.41404 334.000
72.43399 345.000
72.45394 308.000
72.47388 299.000
72.49383 261.000
72.51378 292.000
72.53373 311.000
72.55367 316.000
72.57362 321.000
72.59357 295.000
72.61351 327.000
72.63346 295.000
72.65341 298.000
72.67335 277.000
72.69330 268.000
72.71325 284.000
72.73319 284.000
72.75314 272.000
72.77309 252.000
72.79304 273.000
72.81298 247.000
72.83293 251.000
72.85288 254.000
72.87282 270.000
72.89277 227.000
72.91272 256.000
72.93266 249.000
72.95261 234.000
72.97256 233.000
72.99251 230.000
73.01245 275.000
73.03240 249.000
73.05235 257.000
73.07229 245.000
73.09224 237.000
73.11219 232.000
73.13213 243.000
73.15208 250.000
73.17203 241.000
73.19197 238.000
73.21192 258.000
73.23187 255.000
73.25182 256.000
73.27176 236.000
73.29171 246.000
73.31166 251.000
73.33160 286.000
73.35155 290.000
73.37150 240.000
73.39144 270.000
73.41139 244.000
73.43134 264.000
73.45129 278.000
73.47123 250.000
73.49118 276.000
73.51113 250.000
73.53107 277.000
73.55102 238.000
73.57097 216.000
73.59091 283.000
73.61086 255.000
73.63081 271.000
73.65076 285.000
73.67070 243.000
73.69065 266.000
73.71060 291.000
73.73054 273.000
73.75049 304.000
73.77044 295.000
73.79038 288.000
73.81033 310.000
73.83028 265.000
73.85022 294.000
73.87017 274.000
73.89012 315.000
73.91007 295.000
73.93001 300.000
73.94996 308.000
73.96991 324.000
73.98985 307.000
74.00980 311.000
74.02975 287.000
74.04969 296.000
74.06964 310.000
74.08959 246.000
74.10954 306.000
74.12948 268.000
74.14943 265.000
74.16938 283.000
74.18932 271.000
74.20927 278.000
74.22922 269.000
74.24916 255.000
74.26911 275.000
74.28906 270.000
74.30900 266.000
74.32895 259.000
74.34890 267.000
74.36885 253.000
74.38879 267.000
74.40874 260.000
74.42869 264.000
74.44863 283.000
74.46858 272.000
74.48853 251.000
74.50847 268.000
74.52842 248.000
74.54837 257.000
74.56832 249.000
74.58826 271.000
74.60821 250.000
74.62816 275.000
74.64810 281.000
74.66805 287.000
74.68800 283.000
74.70794 253.000
74.72789 307.000
74.74784 265.000
74.76778 287.000
74.78773 323.000
74.80768 323.000
74.82763 309.000
74.84757 326.000
74.86752 301.000
74.88747 319.000
74.90741 322.000
74.92736 353.000
74.94731 346.000
74.96725 341.000
74.98720 332.000
75.00715 387.000
75.02710 359.000
75.04704 352.000
75.06699 355.000
75.08694 343.000
75.10688 330.000
75.12683 353.000
75.14678 392.000
75.16672 366.000
75.18667 378.000
75.20662 387.000
75.22657 361.000
75.24651 331.000
75.26646 385.000
75.28641 350.000
75.30635 349.000
75.32630 306.000
75.34625 298.000
75.36619 328.000
75.38614 304.000
75.40609 306.000
75.42603 272.000
75.44598 295.000
75.46593 298.000
75.48588 281.000
75.50582 251.000
75.52577 255.000
75.54572 288.000
75.56566 295.000
75.58561 263.000
75.60556 297.000
75.62550 277.000
75.64545 272.000
75.66540 250.000
75.68535 284.000
75.70529 244.000
75.72524 252.000
75.74519 244.000
75.76513 256.000
75.78508 240.000
75.80503 267.000
75.82497 268.000
75.84492 246.000
75.86487 237.000
75.88481 230.000
75.90476 256.000
75.92471 257.000
75.94466 235.000
75.96460 227.000
75.98455 270.000
76.00450 251.000
76.02444 241.000
76.04439 236.000
76.06434 250.000
76.08428 269.000
76.10423 280.000
76.12418 242.000
76.14413 249.000
76.16407 231.000
76.18402 263.000
76.20397 258.000
76.22391 248.000
76.24386 240.000
76.26381 266.000
76.28375 242.000
76.30370 267.000
76.32365 252.000
76.34359 254.000
76.36354 264.000
76.38349 222.000
76.40344 269.000
76.42338 249.000
76.44333 223.000
76.46328 254.000
76.48322 259.000
76.50317 261.000
76.52312 226.000
76.54306 254.000
76.56301 248.000
76.58296 239.000
76.60291 258.000
76.62285 282.000
76.64280 252.000
76.66275 254.000
76.68269 249.000
76.70264 250.000
76.72259 246.000
76.74253 267.000
76.76248 234.000
76.78243 233.000
76.80238 260.000
76.82232 231.000
76.84227 258.000
76.86222 247.000
76.88216 226.000
76.90211 259.000
76.92206 244.000
76.94200 249.000
76.96195 274.000
76.98190 236.000
77.00184 239.000
77.02179 253.000
77.04174 266.000
77.06169 269.000
77.08163 235.000
77.10158 223.000
77.12153 238.000
77.14147 259.000
77.16142 223.000
77.18137 272.000
77.20131 236.000
77.22126 256.000
77.24121 230.000
77.26116 254.000
77.28110 232.000
77.30105 255.000
77.32100 216.000
77.34094 238.000
77.36089 233.000
77.38084 245.000
77.40078 227.000
77.42073 242.000
77.44068 245.000
77.46062 216.000
77.48057 243.000
77.50052 253.000
77.52047 231.000
77.54041 238.000
77.56036 236.000
77.58031 235.000
77.60025 225.000
77.62020 248.000
77.64015 275.000
77.66009 240.000
77.68004 244.000
77.69999 224.000
77.71994 231.000
77.73988 251.000
77.75983 276.000
77.77978 244.000
77.79972 247.000
77.81967 225.000
77.83962 226.000
77.85956 233.000
77.87951 228.000
77.89946 246.000
77.91940 232.000
77.93935 218.000
77.95930 215.000
77.97925 256.000
77.99919 240.000
78.01914 233.000
78.03909 241.000
78.05903 231.000
78.07898 216.000
78.09893 243.000
78.11887 260.000
78.13882 276.000
78.15877 237.000
78.17872 231.000
78.19866 260.000
78.21861 261.000
78.23856 222.000
78.25850 246.000
78.27845 250.000
78.29840 236.000
78.31834 237.000
78.33829 269.000
78.35824 250.000
78.37819 240.000
78.39813 260.000
78.41808 245.000
78.43803 251.000
78.45797 238.000
78.47792 269.000
78.49787 257.000
78.51781 237.000
78.53776 260.000
78.55771 280.000
78.57765 232.000
78.59760 253.000
78.61755 253.000
78.63750 244.000
78.65744 259.000
78.67739 233.000
78.69734 247.000
78.71728 211.000
78.73723 268.000
78.75718 232.000
78.77712 252.000
78.79707 290.000
78.81702 284.000
78.83697 283.000
78.85691 293.000
78.87686 266.000
78.89681 269.000
78.91675 280.000
78.93670 239.000
78.95665 274.000
78.97659 217.000
78.99654 276.000
79.01649 235.000
79.03643 272.000
79.05638 277.000
79.07633 273.000
79.09628 264.000
79.11622 291.000
79.13617 262.000
79.15612 239.000
79.17606 251.000
79.19601 254.000
79.21596 262.000
79.23590 250.000
79.25585 241.000
79.27580 248.000
79.29575 279.000
79.31569 247.000
79.33564 225.000
79.35559 242.000
79.37553 250.000
79.39548 234.000
79.41543 234.000
79.43537 250.000
79.45532 233.000
79.47527 251.000
79.49521 243.000
79.51516 240.000
79.53511 247.000
79.55506 252.000
79.57500 247.000
79.59495 244.000
79.61490 241.000
79.63484 265.000
79.65479 224.000
79.67474 248.000
79.69468 257.000
79.71463 229.000
79.73458 269.000
79.75453 266.000
79.77447 248.000
79.79442 270.000
79.81437 268.000
79.83431 222.000
79.85426 270.000
79.87421 258.000
79.89415 279.000
79.91410 241.000
79.93405 248.000
79.95399 255.000
79.97394 255.000
79.99389 253.000
80.01384 262.000
80.03378 259.000
80.05373 272.000
80.07368 234.000
80.09362 274.000
80.11357 279.000
80.13352 269.000
80.15346 267.000
80.17341 237.000
80.19336 277.000
80.21331 249.000
80.23325 307.000
80.25320 247.000
80.27315 234.000
80.29309 264.000
80.31304 274.000
80.33299 258.000
80.35293 264.000
80.37288 263.000
80.39283 270.000
80.41278 242.000
80.43272 261.000
80.45267 248.000
80.47262 218.000
80.49256 270.000
80.51251 265.000
80.53246 242.000
80.55240 256.000
80.57235 260.000
80.59230 264.000
80.61224 216.000
80.63219 264.000
80.65214 240.000
80.67209 288.000
80.69203 255.000
80.71198 251.000
80.73193 245.000
80.75187 275.000
80.77182 245.000
80.79177 277.000
80.81171 257.000
80.83166 218.000
80.85161 234.000
80.87156 263.000
80.89150 243.000
80.91145 243.000
80.93140 251.000
80.95134 258.000
80.97129 273.000
80.99124 253.000
81.01118 271.000
81.03113 248.000
81.05108 279.000
81.07102 262.000
81.09097 242.000
81.11092 284.000
81.13087 238.000
81.15081 258.000
81.17076 279.000
81.19071 239.000
81.21065 260.000
81.23060 260.000
81.25055 293.000
81.27049 270.000
81.29044 265.000
81.31039 302.000
81.33034 226.000
81.35028 276.000
81.37023 246.000
81.39018 262.000
81.41012 248.000
81.43007 276.000
81.45002 257.000
81.46996 250.000
81.48991 247.000
81.50986 277.000
81.52980 257.000
81.54975 239.000
81.56970 250.000
81.58965 261.000
81.60959 252.000
81.62954 249.000
81.64949 299.000
81.66943 270.000
81.68938 256.000
81.70933 264.000
81.72927 266.000
81.74922 246.000
81.76917 272.000
81.78912 236.000
81.80906 261.000
81.82901 236.000
81.84896 256.000
81.86890 258.000
81.88885 260.000
81.90880 281.000
81.92874 284.000
81.94869 272.000
81.96864 273.000
81.98859 260.000
82.00853 249.000
82.02848 244.000
82.04843 279.000
82.06837 281.000
82.08832 249.000
82.10827 248.000
82.12821 278.000
82.14816 270.000
82.16811 277.000
82.18805 287.000
82.20800 304.000
82.22795 288.000
82.24790 287.000
82.26784 303.000
82.28779 298.000
82.30774 321.000
82.32768 281.000
82.34763 292.000
82.36758 305.000
82.38752 324.000
82.40747 305.000
82.42742 308.000
82.44737 274.000
82.46731 271.000
82.48726 258.000
82.50721 271.000
82.52715 284.000
82.54710 292.000
82.56705 280.000
82.58699 284.000
82.60694 257.000
82.62689 272.000
82.64683 285.000
82.66678 283.000
82.68673 242.000
82.70668 287.000
82.72662 250.000
82.74657 290.000
82.76652 264.000
82.78646 242.000
82.80641 260.000
82.82636 259.000
82.84630 284.000
82.86625 234.000
82.88620 246.000
82.90615 277.000
82.92609 271.000
82.94604 305.000
82.96599 256.000
82.98593 288.000
83.00588 290.000
83.02583 289.000
83.04577 288.000
83.06572 297.000
83.08567 291.000
83.10561 274.000
83.12556 305.000
83.14551 258.000
83.16546 294.000
83.18540 328.000
83.20535 258.000
83.22530 288.000
83.24524 299.000
83.26519 280.000
83.28514 285.000
83.30508 328.000
83.32503 302.000
83.34498 292.000
83.36493 302.000
83.38487 275.000
83.40482 266.000
83.42477 281.000
83.44471 292.000
83.46466 268.000
83.48461 329.000
83.50455 261.000
83.52450 316.000
83.54445 293.000
83.56440 318.000
83.58434 295.000
83.60429 303.000
83.62424 290.000
83.64418 276.000
83.66413 283.000
83.68408 284.000
83.70402 279.000
83.72397 265.000
83.74392 277.000
83.76386 276.000
83.78381 291.000
83.80376 274.000
83.82371 282.000
83.84365 245.000
83.86360 271.000
83.88355 258.000
83.90349 258.000
83.92344 256.000
83.94339 253.000
83.96333 257.000
83.98328 275.000
84.00323 249.000
84.02318 286.000
84.04312 255.000
84.06307 258.000
84.08302 261.000
84.10296 255.000
84.12291 263.000
84.14286 246.000
84.16280 244.000
84.18275 245.000
84.20270 237.000
84.22264 251.000
84.24259 251.000
84.26254 227.000
84.28249 243.000
84.30243 260.000
84.32238 234.000
84.34233 232.000
84.36227 262.000
84.38222 260.000
84.40217 221.000
84.42211 231.000
84.44206 255.000
84.46201 238.000
84.48196 243.000
84.50190 208.000
84.52185 230.000
84.54180 221.000
84.56174 276.000
84.58169 228.000
84.60164 238.000
84.62158 249.000
84.64153 220.000
84.66148 247.000
84.68142 254.000
84.70137 255.000
84.72132 253.000
84.74127 245.000
84.76121 215.000
84.78116 231.000
84.80111 255.000
84.82105 258.000
84.84100 254.000
84.86095 225.000
84.88089 236.000
84.90084 261.000
84.92079 261.000
84.94074 240.000
84.96068 262.000
84.98063 256.000
85.00058 223.000
85.02052 255.000
85.04047 218.000
85.06042 253.000
85.08036 255.000
85.10031 238.000
85.12026 243.000
85.14021 263.000
85.16015 273.000
85.18010 249.000
85.20005 257.000
85.21999 239.000
85.23994 275.000
85.25989 243.000
85.27983 245.000
85.29978 253.000
85.31973 252.000
85.33967 270.000
85.35962 263.000
85.37957 259.000
85.39952 213.000
85.41946 256.000
85.43941 255.000
85.45936 221.000
85.47930 240.000
85.49925 240.000
85.51920 219.000
85.53914 231.000
85.55909 235.000
85.57904 251.000
85.59899 252.000
85.61893 239.000
85.63888 224.000
85.65883 261.000
85.67877 262.000
85.69872 232.000
85.71867 246.000
85.73861 252.000
85.75856 261.000
85.77851 268.000
85.79845 260.000
85.81840 226.000
85.83835 237.000
85.85830 218.000
85.87824 267.000
85.89819 238.000
85.91814 251.000
85.93808 232.000
85.95803 252.000
85.97798 265.000
85.99792 286.000
86.01787 225.000
86.03782 277.000
86.05777 251.000
86.07771 252.000
86.09766 237.000
86.11761 273.000
86.13755 236.000
86.15750 262.000
86.17745 232.000
86.19739 247.000
86.21734 223.000
86.23729 256.000
86.25723 285.000
86.27718 252.000
86.29713 276.000
86.31708 241.000
86.33702 246.000
86.35697 280.000
86.37692 250.000
86.39686 264.000
86.41681 264.000
86.43676 267.000
86.45670 295.000
86.47665 265.000
86.49660 287.000
86.51655 281.000
86.53649 267.000
86.55644 283.000
86.57639 294.000
86.59633 293.000
86.61628 266.000
86.63623 264.000
86.65617 279.000
86.67612 298.000
86.69607 311.000
86.71602 272.000
86.73596 268.000
86.75591 244.000
86.77586 263.000
86.79580 279.000
86.81575 270.000
86.83570 292.000
86.85564 273.000
86.87559 250.000
86.89554 266.000
86.91548 275.000
86.93543 251.000
86.95538 261.000
86.97533 267.000
86.99527 272.000
87.01522 257.000
87.03517 246.000
87.05511 266.000
87.07506 271.000
87.09501 245.000
87.11495 237.000
87.13490 237.000
87.15485 250.000
87.17480 233.000
87.19474 288.000
87.21469 230.000
87.23464 250.000
87.25458 247.000
87.27453 244.000
87.29448 245.000
87.31442 249.000
87.33437 208.000
87.35432 239.000
87.37426 231.000
87.39421 236.000
87.41416 227.000
87.43411 240.000
87.45405 256.000
87.47400 226.000
87.49395 234.000
87.51389 250.000
87.53384 258.000
87.55379 269.000
87.57373 248.000
87.59368 244.000
87.61363 240.000
87.63358 253.000
87.65352 255.000
87.67347 237.000
87.69342 256.000
87.71336 256.000
87.73331 245.000
87.75326 259.000
87.77320 239.000
87.79315 233.000
87.81310 272.000
87.83304 246.000
87.85299 260.000
87.87294 233.000
87.89289 258.000
87.91283 245.000
87.93278 284.000
87.95273 236.000
87.97267 235.000
87.99262 247.000
88.01257 251.000
88.03251 274.000
88.05246 255.000
88.07241 254.000
88.09236 274.000
88.11230 279.000
88.13225 236.000
88.15220 253.000
88.17214 246.000
88.19209 253.000
88.21204 228.000
88.23198 238.000
88.25193 225.000
88.27188 219.000
88.29183 242.000
88.31177 230.000
88.33172 241.000
88.35167 243.000
88.37161 243.000
88.39156 239.000
88.41151 252.000
88.43145 259.000
88.45140 225.000
88.47135 235.000
88.49129 262.000
88.51124 241.000
88.53119 252.000
88.55114 235.000
88.57108 238.000
88.59103 271.000
88.61098 269.000
88.63092 232.000
88.65087 238.000
88.67082 232.000
88.69076 255.000
88.71071 229.000
88.73066 255.000
88.75061 245.000
88.77055 262.000
88.79050 264.000
88.81045 245.000
88.83039 236.000
88.85034 253.000
88.87029 264.000
88.89023 269.000
88.91018 250.000
88.93013 228.000
88.95007 241.000
88.97002 252.000
88.98997 259.000
89.00992 239.000
89.02986 265.000
89.04981 295.000
89.06976 230.000
89.08970 270.000
89.10965 268.000
89.12960 264.000
89.14954 252.000
89.16949 267.000
89.18944 268.000
89.20939 306.000
89.22933 283.000
89.24928 295.000
89.26923 284.000
89.28917 276.000
89.30912 283.000
89.32907 308.000
89.34901 306.000
89.36896 286.000
89.38891 300.000
89.40885 332.000
89.42880 315.000
89.44875 331.000
89.46870 302.000
89.48864 302.000
89.50859 310.000
89.52854 335.000
89.54848 357.000
89.56843 318.000
89.58838 318.000
89.60832 295.000
89.62827 332.000
89.64822 308.000
89.66817 342.000
89.68811 344.000
89.70806 344.000
89.72801 330.000
89.74795 342.000
89.76790 356.000
89.78785 331.000
89.80779 305.000
89.82774 309.000
89.84769 334.000
89.86764 332.000
89.88758 323.000
89.90753 290.000
89.92748 329.000
89.94742 291.000
89.96737 280.000
89.98732 296.000
90.00726 297.000
