10.00000 108.000
10.01995 106.000
10.03989 104.000
10.05984 107.000
10.07979 87.000
10.09973 95.000
10.11968 121.000
10.13963 104.000
10.15958 108.000
10.17952 101.000
10.19947 97.000
10.21942 121.000
10.23936 124.000
10.25931 128.000
10.27926 102.000
10.29920 114.000
10.31915 98.000
10.33910 98.000
10.35905 120.000
10.37899 116.000
10.39894 122.000
10.41889 115.000
10.43883 101.000
10.45878 107.000
10.47873 103.000
10.49867 116.000
10.51862 100.000
10.53857 109.000
10.55851 137.000
10.57846 122.000
10.59841 104.000
10.61836 123.000
10.63830 94.000
10.65825 102.000
10.67820 113.000
10.69814 97.000
10.71809 121.000
10.73804 96.000
10.75798 103.000
10.77793 118.000
10.79788 104.000
10.81783 108.000
10.83777 114.000
10.85772 127.000
10.87767 121.000
10.89761 101.000
10.91756 111.000
10.93751 118.000
10.95745 129.000
10.97740 103.000
10.99735 112.000
11.01730 99.000
11.03724 105.000
11.05719 114.000
11.07714 124.000
11.09708 129.000
11.11703 126.000
11.13698 115.000
11.15692 116.000
11.17687 111.000
11.19682 107.000
11.21676 102.000
11.23671 119.000
11.25666 105.000
11.27661 92.000
11.29655 107.000
11.31650 132.000
11.33645 116.000
11.35639 118.000
11.37634 117.000
11.39629 129.000
11.41623 101.000
11.43618 119.000
11.45613 119.000
11.47608 113.000
11.49602 135.000
11.51597 121.000
11.53592 99.000
11.55586 113.000
11.57581 119.000
11.59576 117.000
11.61570 93.000
11.63565 91.000
11.65560 102.000
11.67554 115.000
11.69549 133.000
11.71544 111.000
11.73539 101.000
11.75533 123.000
11.77528 91.000
11.79523 113.000
11.81517 104.000
11.83512 103.000
11.85507 105.000
11.87501 109.000
11.89496 101.000
11.91491 126.000
11.93486 115.000
11.95480 105.000
11.97475 101.000
11.99470 107.000
12.01464 103.000
12.03459 106.000
12.05454 108.000
12.07448 120.000
12.09443 106.000
12.11438 116.000
12.13432 98.000
12.15427 89.000
12.17422 118.000
12.19417 105.000
12.21411 124.000
12.23406 116.000
12.25401 114.000
12.27395 118.000
12.29390 110.000
12.31385 100.000
12.33379 112.000
12.35374 112.000
12.37369 104.000
12.39364 120.000
12.41358 118.000
12.43353 118.000
12.45348 114.000
12.47342 107.000
12.49337 122.000
12.51332 106.000
12.53326 123.000
12.55321 118.000
12.57316 126.000
12.59311 121.000
12.61305 140.000
12.63300 113.000
12.65295 127.000
12.67289 107.000
12.69284 122.000
12.71279 125.000
12.73273 112.000
12.75268 118.000
12.77263 91.000
12.79257 109.000
12.81252 127.000
12.83247 113.000
12.85242 128.000
12.87236 130.000
12.89231 115.000
12.91226 114.000
12.93220 125.000
12.95215 130.000
12.97210 113.000
12.99204 101.000
13.01199 115.000
13.03194 118.000
13.05189 120.000
13.07183 114.000
13.09178 136.000
13.11173 103.000
13.13167 111.000
13.15162 108.000
13.17157 102.000
13.19151 123.000
13.21146 124.000
13.23141 113.000
13.25135 98.000
13.27130 106.000
13.29125 105.000
13.31120 106.000
13.33114 137.000
13.35109 102.000
13.37104 111.000
13.39098 104.000
13.41093 122.000
13.43088 97.000
13.45082 104.000
13.47077 124.000
13.49072 117.000
13.51067 124.000
13.53061 101.000
13.55056 111.000
13.57051 122.000
13.59045 113.000
13.61040 124.000
13.63035 125.000
13.65029 93.000
13.67024 100.000
13.69019 115.000
13.71013 110.000
13.73008 99.000
13.75003 106.000
13.76998 129.000
13.78992 94.000
13.80987 127.000
13.82982 105.000
13.84976 108.000
13.86971 146.000
13.88966 108.000
13.90960 120.000
13.92955 123.000
13.94950 113.000
13.96945 120.000
13.98939 106.000
14.00934 110.000
14.02929 131.000
14.04923 121.000
14.06918 123.000
14.08913 125.000
14.10907 110.000
14.12902 108.000
14.14897 112.000
14.16892 105.000
14.18886 148.000
14.20881 117.000
14.22876 129.000
14.24870 131.000
14.26865 111.000
14.28860 110.000
14.30854 125.000
14.32849 122.000
14.34844 110.000
14.36838 105.000
14.38833 118.000
14.40828 103.000
14.42823 110.000
14.44817 123.000
14.46812 94.000
14.48807 133.000
14.50801 111.000
14.52796 120.000
14.54791 131.000
14.56785 114.000
14.58780 128.000
14.60775 106.000
14.62770 114.000
14.64764 117.000
14.66759 128.000
14.68754 138.000
14.70748 127.000
14.72743 129.000
14.74738 123.000
14.76732 126.000
14.78727 117.000
14.80722 122.000
14.82716 106.000
14.84711 130.000
14.86706 127.000
14.88701 132.000
14.90695 128.000
14.92690 133.000
14.94685 129.000
14.96679 132.000
14.98674 148.000
15.00669 124.000
15.02663 125.000
15.04658 150.000
15.06653 139.000
15.08648 146.000
15.10642 117.000
15.12637 153.000
15.14632 165.000
15.16626 118.000
15.18621 142.000
15.20616 155.000
15.22610 158.000
15.24605 146.000
15.26600 165.000
15.28594 145.000
15.30589 160.000
15.32584 177.000
15.34579 173.000
15.36573 167.000
15.38568 166.000
15.40563 179.000
15.42557 180.000
15.44552 215.000
15.46547 206.000
15.48541 224.000
15.50536 261.000
15.52531 309.000
15.54526 283.000
15.56520 325.000
15.58515 377.000
15.60510 493.000
15.62504 604.000
15.64499 754.000
15.66494 1082.000
15.68488 1493.000
15.70483 2256.000
15.72478 3273.000
15.74472 4043.000
15.76467 3641.000
15.78462 2732.000
15.80457 1748.000
15.82451 921.000
15.84446 560.000
15.86441 376.000
15.88435 310.000
15.90430 267.000
15.92425 221.000
15.94419 212.000
15.96414 185.000
15.98409 170.000
16.00404 197.000
16.02398 178.000
16.04393 184.000
16.06388 164.000
16.08382 185.000
16.10377 144.000
16.12372 150.000
16.14366 154.000
16.16361 163.000
16.18356 159.000
16.20351 129.000
16.22345 143.000
16.24340 150.000
16.26335 134.000
16.28329 122.000
16.30324 131.000
16.32319 143.000
16.34313 131.000
16.36308 130.000
16.38303 124.000
16.40297 135.000
16.42292 139.000
16.44287 144.000
16.46282 114.000
16.48276 149.000
16.50271 132.000
16.52266 146.000
16.54260 111.000
16.56255 114.000
16.58250 138.000
16.60244 114.000
16.62239 141.000
16.64234 120.000
16.66229 112.000
16.68223 118.000
16.70218 109.000
16.72213 132.000
16.74207 117.000
16.76202 111.000
16.78197 130.000
16.80191 122.000
16.82186 120.000
16.84181 116.000
16.86175 132.000
16.88170 104.000
16.90165 115.000
16.92160 115.000
16.94154 114.000
16.96149 120.000
16.98144 125.000
17.00138 126.000
17.02133 134.000
17.04128 128.000
17.06122 130.000
17.08117 118.000
17.10112 124.000
17.12107 107.000
17.14101 125.000
17.16096 115.000
17.18091 117.000
17.20085 131.000
17.22080 134.000
17.24075 130.000
17.26069 117.000
17.28064 121.000
17.30059 132.000
17.32053 128.000
17.34048 107.000
17.36043 148.000
17.38038 123.000
17.40032 113.000
17.42027 113.000
17.44022 127.000
17.46016 136.000
17.48011 116.000
17.50006 121.000
17.52000 122.000
17.53995 106.000
17.55990 132.000
17.57985 118.000
17.59979 111.000
17.61974 122.000
17.63969 118.000
17.65963 133.000
17.67958 132.000
17.69953 120.000
17.71947 117.000
17.73942 128.000
17.75937 118.000
17.77932 122.000
17.79926 125.000
17.81921 120.000
17.83916 118.000
17.85910 132.000
17.87905 113.000
17.89900 158.000
17.91894 123.000
17.93889 120.000
17.95884 121.000
17.97878 132.000
17.99873 117.000
18.01868 110.000
18.03863 120.000
18.05857 133.000
18.07852 121.000
18.09847 144.000
18.11841 152.000
18.13836 146.000
18.15831 132.000
18.17825 165.000
18.19820 169.000
18.21815 175.000
18.23810 251.000
18.25804 263.000
18.27799 419.000
18.29794 553.000
18.31788 694.000
18.33783 771.000
18.35778 736.000
18.37772 788.000
18.39767 673.000
18.41762 549.000
18.43756 413.000
18.45751 360.000
18.47746 293.000
18.49741 229.000
18.51735 216.000
18.53730 189.000
18.55725 195.000
18.57719 170.000
18.59714 157.000
18.61709 173.000
18.63703 155.000
18.65698 140.000
18.67693 133.000
18.69688 155.000
18.71682 158.000
18.73677 137.000
18.75672 123.000
18.77666 132.000
18.79661 131.000
18.81656 120.000
18.83650 139.000
18.85645 131.000
18.87640 122.000
18.89634 146.000
18.91629 110.000
18.93624 134.000
18.95619 132.000
18.97613 116.000
18.99608 147.000
19.01603 122.000
19.03597 138.000
19.05592 133.000
19.07587 110.000
19.09581 124.000
19.11576 106.000
19.13571 143.000
19.15566 111.000
19.17560 120.000
19.19555 120.000
19.21550 122.000
19.23544 127.000
19.25539 111.000
19.27534 149.000
19.29528 118.000
19.31523 132.000
19.33518 124.000
19.35513 108.000
19.37507 131.000
19.39502 128.000
19.41497 110.000
19.43491 125.000
19.45486 127.000
19.47481 113.000
19.49475 131.000
19.51470 137.000
19.53465 133.000
19.55459 138.000
19.57454 148.000
19.59449 98.000
19.61444 121.000
19.63438 124.000
19.65433 113.000
19.67428 133.000
19.69422 111.000
19.71417 123.000
19.73412 118.000
19.75406 103.000
19.77401 115.000
19.79396 112.000
19.81391 136.000
19.83385 133.000
19.85380 127.000
19.87375 129.000
19.89369 122.000
19.91364 134.000
19.93359 143.000
19.95353 120.000
19.97348 128.000
19.99343 136.000
20.01337 127.000
20.03332 118.000
20.05327 120.000
20.07322 128.000
20.09316 144.000
20.11311 133.000
20.13306 145.000
20.15300 128.000
20.17295 119.000
20.19290 131.000
20.21284 139.000
20.23279 145.000
20.25274 133.000
20.27269 120.000
20.29263 132.000
20.31258 136.000
20.33253 134.000
20.35247 158.000
20.37242 131.000
20.39237 125.000
20.41231 136.000
20.43226 139.000
20.45221 115.000
20.47215 112.000
20.49210 129.000
20.51205 147.000
20.53200 120.000
20.55194 141.000
20.57189 120.000
20.59184 121.000
20.61178 156.000
20.63173 128.000
20.65168 138.000
20.67162 129.000
20.69157 132.000
20.71152 142.000
20.73147 124.000
20.75141 130.000
20.77136 122.000
20.79131 135.000
20.81125 131.000
20.83120 132.000
20.85115 133.000
20.87109 126.000
20.89104 134.000
20.91099 165.000
20.93094 121.000
20.95088 145.000
20.97083 121.000
20.99078 134.000
21.01072 150.000
21.03067 127.000
21.05062 121.000
21.07056 137.000
21.09051 138.000
21.11046 123.000
21.13040 169.000
21.15035 175.000
21.17030 141.000
21.19025 116.000
21.21019 136.000
21.23014 122.000
21.25009 144.000
21.27003 140.000
21.28998 156.000
21.30993 159.000
21.32987 146.000
21.34982 171.000
21.36977 148.000
21.38972 126.000
21.40966 157.000
21.42961 123.000
21.44956 137.000
21.46950 130.000
21.48945 148.000
21.50940 131.000
21.52934 110.000
21.54929 132.000
21.56924 141.000
21.58918 141.000
21.60913 137.000
21.62908 131.000
21.64903 141.000
21.66897 106.000
21.68892 146.000
21.70887 145.000
21.72881 144.000
21.74876 135.000
21.76871 132.000
21.78865 151.000
21.80860 132.000
21.82855 134.000
21.84850 133.000
21.86844 125.000
21.88839 123.000
21.90834 128.000
21.92828 167.000
21.94823 132.000
21.96818 126.000
21.98812 157.000
22.00807 139.000
22.02802 132.000
22.04796 134.000
22.06791 146.000
22.08786 150.000
22.10781 163.000
22.12775 138.000
22.14770 134.000
22.16765 132.000
22.18759 157.000
22.20754 134.000
22.22749 137.000
22.24743 137.000
22.26738 132.000
22.28733 148.000
22.30728 129.000
22.32722 134.000
22.34717 147.000
22.36712 121.000
22.38706 122.000
22.40701 143.000
22.42696 126.000
22.44690 140.000
22.46685 139.000
22.48680 128.000
22.50675 140.000
22.52669 119.000
22.54664 119.000
22.56659 139.000
22.58653 142.000
22.60648 139.000
22.62643 147.000
22.64637 154.000
22.66632 149.000
22.68627 147.000
22.70621 144.000
22.72616 128.000
22.74611 153.000
22.76606 149.000
22.78600 154.000
22.80595 133.000
22.82590 136.000
22.84584 127.000
22.86579 142.000
22.88574 134.000
22.90568 143.000
22.92563 156.000
22.94558 139.000
22.96553 148.000
22.98547 142.000
23.00542 133.000
23.02537 159.000
23.04531 153.000
23.06526 135.000
23.08521 133.000
23.10515 146.000
23.12510 135.000
23.14505 135.000
23.16499 151.000
23.18494 140.000
23.20489 145.000
23.22484 162.000
23.24478 135.000
23.26473 139.000
23.28468 141.000
23.30462 137.000
23.32457 135.000
23.34452 160.000
23.36446 149.000
23.38441 127.000
23.40436 141.000
23.42431 148.000
23.44425 143.000
23.46420 138.000
23.48415 150.000
23.50409 145.000
23.52404 147.000
23.54399 149.000
23.56393 148.000
23.58388 146.000
23.60383 140.000
23.62377 145.000
23.64372 150.000
23.66367 146.000
23.68362 125.000
23.70356 169.000
23.72351 164.000
23.74346 159.000
23.76340 154.000
23.78335 137.000
23.80330 190.000
23.82324 159.000
23.84319 163.000
23.86314 157.000
23.88309 132.000
23.90303 123.000
23.92298 113.000
23.94293 139.000
23.96287 139.000
23.98282 153.000
24.00277 147.000
24.02271 136.000
24.04266 150.000
24.06261 151.000
24.08256 129.000
24.10250 138.000
24.12245 144.000
24.14240 160.000
24.16234 136.000
24.18229 133.000
24.20224 156.000
24.22218 156.000
24.24213 132.000
24.26208 149.000
24.28202 163.000
24.30197 152.000
24.32192 155.000
24.34187 151.000
24.36181 156.000
24.38176 150.000
24.40171 161.000
24.42165 149.000
24.44160 181.000
24.46155 165.000
24.48149 155.000
24.50144 149.000
24.52139 148.000
24.54134 165.000
24.56128 149.000
24.58123 154.000
24.60118 160.000
24.62112 156.000
24.64107 172.000
24.66102 144.000
24.68096 146.000
24.70091 156.000
24.72086 141.000
24.74080 157.000
24.76075 136.000
24.78070 174.000
24.80065 139.000
24.82059 184.000
24.84054 150.000
24.86049 158.000
24.88043 151.000
24.90038 138.000
24.92033 145.000
24.94027 132.000
24.96022 151.000
24.98017 157.000
25.00012 158.000
25.02006 167.000
25.04001 163.000
25.05996 156.000
25.07990 129.000
25.09985 136.000
25.11980 163.000
25.13974 163.000
25.15969 174.000
25.17964 156.000
25.19958 154.000
25.21953 164.000
25.23948 143.000
25.25943 160.000
25.27937 170.000
25.29932 170.000
25.31927 169.000
25.33921 157.000
25.35916 175.000
25.37911 162.000
25.39905 170.000
25.41900 185.000
25.43895 154.000
25.45890 152.000
25.47884 163.000
25.49879 137.000
25.51874 175.000
25.53868 158.000
25.55863 149.000
25.57858 152.000
25.59852 199.000
25.61847 180.000
25.63842 166.000
25.65837 160.000
25.67831 166.000
25.69826 175.000
25.71821 176.000
25.73815 148.000
25.75810 163.000
25.77805 161.000
25.79799 177.000
25.81794 156.000
25.83789 154.000
25.85783 131.000
25.87778 171.000
25.89773 162.000
25.91768 145.000
25.93762 154.000
25.95757 166.000
25.97752 176.000
25.99746 167.000
26.01741 152.000
26.03736 157.000
26.05730 163.000
26.07725 158.000
26.09720 170.000
26.11715 145.000
26.13709 168.000
26.15704 170.000
26.17699 171.000
26.19693 168.000
26.21688 178.000
26.23683 181.000
26.25677 190.000
26.27672 185.000
26.29667 161.000
26.31661 188.000
26.33656 182.000
26.35651 166.000
26.37646 188.000
26.39640 168.000
26.41635 177.000
26.43630 168.000
26.45624 148.000
26.47619 167.000
26.49614 175.000
26.51608 151.000
26.53603 149.000
26.55598 177.000
26.57593 177.000
26.59587 180.000
26.61582 159.000
26.63577 202.000
26.65571 170.000
26.67566 152.000
26.69561 181.000
26.71555 170.000
26.73550 173.000
26.75545 148.000
26.77539 181.000
26.79534 191.000
26.81529 164.000
26.83524 183.000
26.85518 185.000
26.87513 188.000
26.89508 171.000
26.91502 167.000
26.93497 169.000
26.95492 157.000
26.97486 177.000
26.99481 156.000
27.01476 161.000
27.03471 182.000
27.05465 207.000
27.07460 159.000
27.09455 199.000
27.11449 176.000
27.13444 166.000
27.15439 196.000
27.17433 198.000
27.19428 202.000
27.21423 197.000
27.23417 171.000
27.25412 184.000
27.27407 170.000
27.29402 213.000
27.31396 188.000
27.33391 170.000
27.35386 170.000
27.37380 178.000
27.39375 182.000
27.41370 177.000
27.43364 184.000
27.45359 178.000
27.47354 169.000
27.49349 189.000
27.51343 183.000
27.53338 198.000
27.55333 199.000
27.57327 175.000
27.59322 173.000
27.61317 200.000
27.63311 195.000
27.65306 181.000
27.67301 190.000
27.69296 172.000
27.71290 198.000
27.73285 200.000
27.75280 177.000
27.77274 199.000
27.79269 194.000
27.81264 170.000
27.83258 169.000
27.85253 164.000
27.87248 182.000
27.89242 187.000
27.91237 189.000
27.93232 177.000
27.95227 194.000
27.97221 192.000
27.99216 199.000
28.01211 196.000
28.03205 208.000
28.05200 196.000
28.07195 191.000
28.09189 150.000
28.11184 179.000
28.13179 214.000
28.15174 179.000
28.17168 188.000
28.19163 174.000
28.21158 173.000
28.23152 169.000
28.25147 176.000
28.27142 174.000
28.29136 166.000
28.31131 197.000
28.33126 173.000
28.35120 192.000
28.37115 206.000
28.39110 205.000
28.41105 186.000
28.43099 216.000
28.45094 201.000
28.47089 195.000
28.49083 189.000
28.51078 177.000
28.53073 182.000
28.55067 174.000
28.57062 198.000
28.59057 200.000
28.61052 190.000
28.63046 180.000
28.65041 190.000
28.67036 197.000
28.69030 206.000
28.71025 185.000
28.73020 199.000
28.75014 186.000
28.77009 182.000
28.79004 209.000
28.80998 201.000
28.82993 193.000
28.84988 214.000
28.86983 196.000
28.88977 184.000
28.90972 204.000
28.92967 203.000
28.94961 219.000
28.96956 192.000
28.98951 202.000
29.00945 176.000
29.02940 193.000
29.04935 205.000
29.06930 193.000
29.08924 205.000
29.10919 215.000
29.12914 189.000
29.14908 204.000
29.16903 207.000
29.18898 198.000
29.20892 184.000
29.22887 199.000
29.24882 211.000
29.26877 195.000
29.28871 184.000
29.30866 201.000
29.32861 200.000
29.34855 200.000
29.36850 234.000
29.38845 193.000
29.40839 211.000
29.42834 189.000
29.44829 203.000
29.46823 178.000
29.48818 219.000
29.50813 219.000
29.52808 188.000
29.54802 227.000
29.56797 183.000
29.58792 191.000
29.60786 186.000
29.62781 233.000
29.64776 216.000
29.66770 224.000
29.68765 187.000
29.70760 216.000
29.72755 219.000
29.74749 210.000
29.76744 241.000
29.78739 235.000
29.80733 217.000
29.82728 206.000
29.84723 217.000
29.86717 237.000
29.88712 217.000
29.90707 215.000
29.92701 238.000
29.94696 216.000
29.96691 236.000
29.98686 245.000
30.00680 270.000
30.02675 299.000
30.04670 329.000
30.06664 410.000
30.08659 460.000
30.10654 550.000
30.12648 652.000
30.14643 757.000
30.16638 825.000
30.18633 822.000
30.20627 811.000
30.22622 774.000
30.24617 722.000
30.26611 599.000
30.28606 576.000
30.30601 482.000
30.32595 379.000
30.34590 350.000
30.36585 327.000
30.38579 315.000
30.40574 242.000
30.42569 250.000
30.44564 249.000
30.46558 229.000
30.48553 198.000
30.50548 228.000
30.52542 227.000
30.54537 246.000
30.56532 256.000
30.58526 189.000
30.60521 224.000
30.62516 201.000
30.64511 205.000
30.66505 179.000
30.68500 198.000
30.70495 211.000
30.72489 199.000
30.74484 209.000
30.76479 188.000
30.78473 179.000
30.80468 208.000
30.82463 201.000
30.84458 190.000
30.86452 194.000
30.88447 206.000
30.90442 206.000
30.92436 187.000
30.94431 207.000
30.96426 232.000
30.98420 205.000
31.00415 232.000
31.02410 196.000
31.04404 195.000
31.06399 206.000
31.08394 211.000
31.10389 222.000
31.12383 201.000
31.14378 197.000
31.16373 218.000
31.18367 185.000
31.20362 191.000
31.22357 206.000
31.24351 198.000
31.26346 190.000
31.28341 188.000
31.30336 181.000
31.32330 196.000
31.34325 201.000
31.36320 213.000
31.38314 189.000
31.40309 210.000
31.42304 221.000
31.44298 210.000
31.46293 214.000
31.48288 222.000
31.50282 206.000
31.52277 205.000
31.54272 198.000
31.56267 207.000
31.58261 211.000
31.60256 253.000
31.62251 241.000
31.64245 225.000
31.66240 220.000
31.68235 263.000
31.70229 257.000
31.72224 292.000
31.74219 331.000
31.76214 401.000
31.78208 441.000
31.80203 412.000
31.82198 464.000
31.84192 397.000
31.86187 349.000
31.88182 358.000
31.90176 330.000
31.92171 300.000
31.94166 256.000
31.96160 210.000
31.98155 221.000
32.00150 239.000
32.02145 208.000
32.04139 224.000
32.06134 220.000
32.08129 223.000
32.10123 203.000
32.12118 204.000
32.14113 182.000
32.16107 197.000
32.18102 178.000
32.20097 193.000
32.22092 210.000
32.24086 183.000
32.26081 200.000
32.28076 219.000
32.30070 197.000
32.32065 168.000
32.34060 175.000
32.36054 183.000
32.38049 219.000
32.40044 203.000
32.42039 167.000
32.44033 187.000
32.46028 203.000
32.48023 177.000
32.50017 193.000
32.52012 204.000
32.54007 187.000
32.56001 172.000
32.57996 208.000
32.59991 195.000
32.61985 224.000
32.63980 203.000
32.65975 160.000
32.67970 181.000
32.69964 164.000
32.71959 214.000
32.73954 212.000
32.75948 176.000
32.77943 181.000
32.79938 223.000
32.81932 175.000
32.83927 179.000
32.85922 156.000
32.87917 183.000
32.89911 195.000
32.91906 194.000
32.93901 186.000
32.95895 180.000
32.97890 172.000
32.99885 182.000
33.01879 177.000
33.03874 171.000
33.05869 193.000
33.07863 190.000
33.09858 192.000
33.11853 165.000
33.13848 185.000
33.15842 176.000
33.17837 185.000
33.19832 172.000
33.21826 171.000
33.23821 196.000
33.25816 183.000
33.27810 171.000
33.29805 177.000
33.31800 186.000
33.33795 157.000
33.35789 164.000
33.37784 187.000
33.39779 199.000
33.41773 171.000
33.43768 190.000
33.45763 169.000
33.47757 172.000
33.49752 173.000
33.51747 191.000
33.53741 167.000
33.55736 217.000
33.57731 192.000
33.59726 168.000
33.61720 190.000
33.63715 156.000
33.65710 191.000
33.67704 189.000
33.69699 164.000
33.71694 197.000
33.73688 184.000
33.75683 173.000
33.77678 177.000
33.79673 165.000
33.81667 173.000
33.83662 168.000
33.85657 176.000
33.87651 169.000
33.89646 186.000
33.91641 181.000
33.93635 178.000
33.95630 166.000
33.97625 189.000
33.99620 185.000
34.01614 160.000
34.03609 174.000
34.05604 178.000
34.07598 169.000
34.09593 192.000
34.11588 192.000
34.13582 158.000
34.15577 194.000
34.17572 168.000
34.19566 168.000
34.21561 168.000
34.23556 175.000
34.25551 206.000
34.27545 163.000
34.29540 182.000
34.31535 157.000
34.33529 185.000
34.35524 178.000
34.37519 178.000
34.39513 185.000
34.41508 186.000
34.43503 177.000
34.45498 182.000
34.47492 186.000
34.49487 177.000
34.51482 203.000
34.53476 177.000
34.55471 153.000
34.57466 195.000
34.59460 165.000
34.61455 182.000
34.63450 205.000
34.65444 196.000
34.67439 190.000
34.69434 195.000
34.71429 202.000
34.73423 205.000
34.75418 207.000
34.77413 238.000
34.79407 183.000
34.81402 233.000
34.83397 200.000
34.85391 236.000
34.87386 198.000
34.89381 216.000
34.91376 218.000
34.93370 227.000
34.95365 233.000
34.97360 225.000
34.99354 227.000
35.01349 235.000
35.03344 269.000
35.05338 240.000
35.07333 228.000
35.09328 239.000
35.11322 211.000
35.13317 247.000
35.15312 269.000
35.17307 237.000
35.19301 263.000
35.21296 274.000
35.23291 237.000
35.25285 293.000
35.27280 275.000
35.29275 309.000
35.31269 322.000
35.33264 376.000
35.35259 396.000
35.37254 522.000
35.39248 627.000
35.41243 785.000
35.43238 1061.000
35.45232 1192.000
35.47227 1433.000
35.49222 1656.000
35.51216 1817.000
35.53211 1983.000
35.55206 2140.000
35.57201 2095.000
35.59195 2090.000
35.61190 1934.000
35.63185 1803.000
35.65179 1500.000
35.67174 1335.000
35.69169 1113.000
35.71163 940.000
35.73158 826.000
35.75153 698.000
35.77147 559.000
35.79142 459.000
35.81137 413.000
35.83132 386.000
35.85126 364.000
35.87121 337.000
35.89116 308.000
35.91110 319.000
35.93105 329.000
35.95100 343.000
35.97094 413.000
35.99089 501.000
36.01084 650.000
36.03079 679.000
36.05073 523.000
36.07068 460.000
36.09063 436.000
36.11057 439.000
36.13052 401.000
36.15047 330.000
36.17041 251.000
36.19036 235.000
36.21031 222.000
36.23025 240.000
36.25020 218.000
36.27015 223.000
36.29010 208.000
36.31004 194.000
36.32999 198.000
36.34994 219.000
36.36988 205.000
36.38983 222.000
36.40978 217.000
36.42972 202.000
36.44967 198.000
36.46962 208.000
36.48957 217.000
36.50951 209.000
36.52946 212.000
36.54941 227.000
36.56935 210.000
36.58930 217.000
36.60925 198.000
36.62919 215.000
36.64914 196.000
36.66909 228.000
36.68903 200.000
36.70898 198.000
36.72893 205.000
36.74888 178.000
36.76882 229.000
36.78877 200.000
36.80872 232.000
36.82866 212.000
36.84861 203.000
36.86856 189.000
36.88850 273.000
36.90845 276.000
36.92840 266.000
36.94835 245.000
36.96829 258.000
36.98824 257.000
37.00819 290.000
37.02813 332.000
37.04808 305.000
37.06803 377.000
37.08797 393.000
37.10792 412.000
37.12787 486.000
37.14781 549.000
37.16776 682.000
37.18771 947.000
37.20766 1308.000
37.22760 1635.000
37.24755 1614.000
37.26750 1334.000
37.28744 1224.000
37.30739 1160.000
37.32734 1145.000
37.34728 1024.000
37.36723 844.000
37.38718 675.000
37.40713 490.000
37.42707 377.000
37.44702 371.000
37.46697 284.000
37.48691 262.000
37.50686 255.000
37.52681 267.000
37.54675 273.000
37.56670 246.000
37.58665 219.000
37.60660 243.000
37.62654 227.000
37.64649 248.000
37.66644 215.000
37.68638 226.000
37.70633 216.000
37.72628 224.000
37.74622 220.000
37.76617 171.000
37.78612 214.000
37.80606 173.000
37.82601 199.000
37.84596 198.000
37.86591 201.000
37.88585 184.000
37.90580 188.000
37.92575 185.000
37.94569 203.000
37.96564 204.000
37.98559 170.000
38.00553 179.000
38.02548 174.000
38.04543 176.000
38.06538 170.000
38.08532 191.000
38.10527 172.000
38.12522 174.000
38.14516 165.000
38.16511 169.000
38.18506 173.000
38.20500 191.000
38.22495 186.000
38.24490 151.000
38.26484 163.000
38.28479 142.000
38.30474 172.000
38.32469 166.000
38.34463 167.000
38.36458 161.000
38.38453 164.000
38.40447 148.000
38.42442 199.000
38.44437 153.000
38.46431 158.000
38.48426 170.000
38.50421 175.000
38.52416 179.000
38.54410 184.000
38.56405 156.000
38.58400 159.000
38.60394 163.000
38.62389 163.000
38.64384 168.000
38.66378 171.000
38.68373 169.000
38.70368 161.000
38.72362 176.000
38.74357 161.000
38.76352 174.000
38.78347 194.000
38.80341 156.000
38.82336 164.000
38.84331 169.000
38.86325 184.000
38.88320 154.000
38.90315 207.000
38.92309 179.000
38.94304 179.000
38.96299 170.000
38.98294 206.000
39.00288 187.000
39.02283 187.000
39.04278 188.000
39.06272 207.000
39.08267 185.000
39.10262 142.000
39.12256 213.000
39.14251 164.000
39.16246 192.000
39.18241 197.000
39.20235 201.000
39.22230 219.000
39.24225 218.000
39.26219 193.000
39.28214 194.000
39.30209 213.000
39.32203 226.000
39.34198 224.000
39.36193 247.000
39.38187 237.000
39.40182 314.000
39.42177 315.000
39.44172 302.000
39.46166 364.000
39.48161 517.000
39.50156 667.000
39.52150 871.000
39.54145 874.000
39.56140 724.000
39.58134 619.000
39.60129 547.000
39.62124 565.000
39.64119 540.000
39.66113 520.000
39.68108 394.000
39.70103 297.000
39.72097 278.000
39.74092 243.000
39.76087 236.000
39.78081 212.000
39.80076 180.000
39.82071 180.000
39.84065 176.000
39.86060 175.000
39.88055 181.000
39.90050 191.000
39.92044 186.000
39.94039 195.000
39.96034 177.000
39.98028 157.000
40.00023 172.000
40.02018 154.000
40.04012 135.000
40.06007 171.000
40.08002 163.000
40.09997 170.000
40.11991 179.000
40.13986 167.000
40.15981 178.000
40.17975 154.000
40.19970 173.000
40.21965 153.000
40.23959 161.000
40.25954 179.000
40.27949 158.000
40.29943 151.000
40.31938 171.000
40.33933 141.000
40.35928 163.000
40.37922 159.000
40.39917 151.000
40.41912 190.000
40.43906 139.000
40.45901 165.000
40.47896 158.000
40.49890 157.000
40.51885 165.000
40.53880 163.000
40.55875 166.000
40.57869 154.000
40.59864 181.000
40.61859 139.000
40.63853 165.000
40.65848 154.000
40.67843 163.000
40.69837 155.000
40.71832 136.000
40.73827 176.000
40.75822 154.000
40.77816 182.000
40.79811 165.000
40.81806 148.000
40.83800 165.000
40.85795 160.000
40.87790 192.000
40.89784 154.000
40.91779 160.000
40.93774 157.000
40.95768 140.000
40.97763 181.000
40.99758 155.000
41.01753 174.000
41.03747 170.000
41.05742 167.000
41.07737 158.000
41.09731 150.000
41.11726 176.000
41.13721 163.000
41.15715 148.000
41.17710 167.000
41.19705 135.000
41.21700 151.000
41.23694 155.000
41.25689 164.000
41.27684 171.000
41.29678 181.000
41.31673 167.000
41.33668 149.000
41.35662 164.000
41.37657 181.000
41.39652 186.000
41.41646 170.000
41.43641 161.000
41.45636 176.000
41.47631 166.000
41.49625 150.000
41.51620 148.000
41.53615 163.000
41.55609 171.000
41.57604 144.000
41.59599 150.000
41.61593 155.000
41.63588 155.000
41.65583 141.000
41.67578 153.000
41.69572 175.000
41.71567 145.000
41.73562 146.000
41.75556 163.000
41.77551 176.000
41.79546 167.000
41.81540 152.000
41.83535 154.000
41.85530 189.000
41.87524 181.000
41.89519 162.000
41.91514 165.000
41.93509 160.000
41.95503 160.000
41.97498 167.000
41.99493 171.000
42.01487 174.000
42.03482 168.000
42.05477 168.000
42.07471 179.000
42.09466 187.000
42.11461 134.000
42.13456 163.000
42.15450 176.000
42.17445 159.000
42.19440 185.000
42.21434 157.000
42.23429 171.000
42.25424 159.000
42.27418 154.000
42.29413 190.000
42.31408 179.000
42.33403 154.000
42.35397 181.000
42.37392 177.000
42.39387 154.000
42.41381 197.000
42.43376 185.000
42.45371 206.000
42.47365 191.000
42.49360 195.000
42.51355 186.000
42.53349 191.000
42.55344 220.000
42.57339 224.000
42.59334 217.000
42.61328 187.000
42.63323 211.000
42.65318 213.000
42.67312 239.000
42.69307 245.000
42.71302 228.000
42.73296 221.000
42.75291 249.000
42.77286 242.000
42.79281 214.000
42.81275 270.000
42.83270 245.000
42.85265 240.000
42.87259 261.000
42.89254 265.000
42.91249 242.000
42.93243 294.000
42.95238 295.000
42.97233 329.000
42.99227 324.000
43.01222 407.000
43.03217 393.000
43.05212 495.000
43.07206 500.000
43.09201 559.000
43.11196 679.000
43.13190 689.000
43.15185 723.000
43.17180 855.000
43.19174 1045.000
43.21169 1276.000
43.23164 1770.000
43.25159 2508.000
43.27153 3127.000
43.29148 2761.000
43.31143 1911.000
43.33137 1546.000
43.35132 1550.000
43.37127 1717.000
43.39121 1823.000
43.41116 1353.000
43.43111 1011.000
43.45105 751.000
43.47100 598.000
43.49095 533.000
43.51090 505.000
43.53084 508.000
43.55079 509.000
43.57074 557.000
43.59068 541.000
43.61063 457.000
43.63058 411.000
43.65052 408.000
43.67047 336.000
43.69042 358.000
43.71037 368.000
43.73031 315.000
43.75026 249.000
43.77021 253.000
43.79015 241.000
43.81010 203.000
43.83005 173.000
43.84999 218.000
43.86994 179.000
43.88989 189.000
43.90984 203.000
43.92978 195.000
43.94973 160.000
43.96968 164.000
43.98962 192.000
44.00957 178.000
44.02952 166.000
44.04946 174.000
44.06941 178.000
44.08936 144.000
44.10930 184.000
44.12925 164.000
44.14920 168.000
44.16915 149.000
44.18909 174.000
44.20904 163.000
44.22899 183.000
44.24893 177.000
44.26888 178.000
44.28883 145.000
44.30877 159.000
44.32872 179.000
44.34867 156.000
44.36862 147.000
44.38856 182.000
44.40851 169.000
44.42846 182.000
44.44840 161.000
44.46835 159.000
44.48830 191.000
44.50824 167.000
44.52819 157.000
44.54814 137.000
44.56808 162.000
44.58803 169.000
44.60798 165.000
44.62793 173.000
44.64787 143.000
44.66782 160.000
44.68777 162.000
44.70771 158.000
44.72766 163.000
44.74761 171.000
44.76755 161.000
44.78750 191.000
44.80745 185.000
44.82740 171.000
44.84734 164.000
44.86729 161.000
44.88724 148.000
44.90718 157.000
44.92713 175.000
44.94708 171.000
44.96702 161.000
44.98697 167.000
45.00692 203.000
45.02686 164.000
45.04681 177.000
45.06676 187.000
45.08671 193.000
45.10665 188.000
45.12660 185.000
45.14655 167.000
45.16649 195.000
45.18644 191.000
45.20639 179.000
45.22633 193.000
45.24628 171.000
45.26623 191.000
45.28618 193.000
45.30612 177.000
45.32607 174.000
45.34602 194.000
45.36596 192.000
45.38591 177.000
45.40586 158.000
45.42580 162.000
45.44575 180.000
45.46570 165.000
45.48565 143.000
45.50559 144.000
45.52554 160.000
45.54549 158.000
45.56543 149.000
45.58538 149.000
45.60533 154.000
45.62527 169.000
45.64522 155.000
45.66517 142.000
45.68511 143.000
45.70506 159.000
45.72501 141.000
45.74496 126.000
45.76490 174.000
45.78485 131.000
45.80480 165.000
45.82474 159.000
45.84469 154.000
45.86464 149.000
45.88458 146.000
45.90453 151.000
45.92448 180.000
45.94443 144.000
45.96437 159.000
45.98432 158.000
46.00427 132.000
46.02421 159.000
46.04416 126.000
46.06411 133.000
46.08405 145.000
46.10400 159.000
46.12395 138.000
46.14389 140.000
46.16384 129.000
46.18379 139.000
46.20374 144.000
46.22368 152.000
46.24363 132.000
46.26358 157.000
46.28352 140.000
46.30347 120.000
46.32342 134.000
46.34336 138.000
46.36331 148.000
46.38326 132.000
46.40321 111.000
46.42315 127.000
46.44310 154.000
46.46305 129.000
46.48299 137.000
46.50294 124.000
46.52289 154.000
46.54283 154.000
46.56278 127.000
46.58273 126.000
46.60267 111.000
46.62262 138.000
46.64257 148.000
46.66252 136.000
46.68246 132.000
46.70241 138.000
46.72236 150.000
46.74230 138.000
46.76225 143.000
46.78220 148.000
46.80214 161.000
46.82209 123.000
46.84204 138.000
46.86199 139.000
46.88193 125.000
46.90188 138.000
46.92183 128.000
46.94177 147.000
46.96172 143.000
46.98167 137.000
47.00161 137.000
47.02156 151.000
47.04151 136.000
47.06146 135.000
47.08140 153.000
47.10135 141.000
47.12130 147.000
47.14124 117.000
47.16119 136.000
47.18114 129.000
47.20108 141.000
47.22103 134.000
47.24098 127.000
47.26092 152.000
47.28087 141.000
47.30082 157.000
47.32077 162.000
47.34071 133.000
47.36066 137.000
47.38061 134.000
47.40055 134.000
47.42050 149.000
47.44045 133.000
47.46039 143.000
47.48034 137.000
47.50029 162.000
47.52024 137.000
47.54018 157.000
47.56013 137.000
47.58008 130.000
47.60002 143.000
47.61997 139.000
47.63992 166.000
47.65986 149.000
47.67981 143.000
47.69976 153.000
47.71970 152.000
47.73965 139.000
47.75960 129.000
47.77955 147.000
47.79949 161.000
47.81944 126.000
47.83939 142.000
47.85933 137.000
47.87928 144.000
47.89923 141.000
47.91917 144.000
47.93912 113.000
47.95907 144.000
47.97902 140.000
47.99896 160.000
48.01891 140.000
48.03886 158.000
48.05880 153.000
48.07875 169.000
48.09870 153.000
48.11864 160.000
48.13859 177.000
48.15854 160.000
48.17848 150.000
48.19843 157.000
48.21838 157.000
48.23833 179.000
48.25827 168.000
48.27822 167.000
48.29817 154.000
48.31811 182.000
48.33806 168.000
48.35801 165.000
48.37795 186.000
48.39790 163.000
48.41785 166.000
48.43780 176.000
48.45774 156.000
48.47769 159.000
48.49764 186.000
48.51758 210.000
48.53753 216.000
48.55748 221.000
48.57742 249.000
48.59737 219.000
48.61732 208.000
48.63726 259.000
48.65721 252.000
48.67716 273.000
48.69711 323.000
48.71705 348.000
48.73700 412.000
48.75695 524.000
48.77689 630.000
48.79684 726.000
48.81679 668.000
48.83673 626.000
48.85668 531.000
48.87663 468.000
48.89658 455.000
48.91652 468.000
48.93647 457.000
48.95642 405.000
48.97636 375.000
48.99631 320.000
49.01626 249.000
49.03620 235.000
49.05615 222.000
49.07610 183.000
49.09605 189.000
49.11599 171.000
49.13594 166.000
49.15589 162.000
49.17583 151.000
49.19578 167.000
49.21573 169.000
49.23567 158.000
49.25562 155.000
49.27557 151.000
49.29551 153.000
49.31546 149.000
49.33541 160.000
49.35536 156.000
49.37530 157.000
49.39525 129.000
49.41520 153.000
49.43514 152.000
49.45509 153.000
49.47504 142.000
49.49498 130.000
49.51493 127.000
49.53488 160.000
49.55483 154.000
49.57477 131.000
49.59472 130.000
49.61467 159.000
49.63461 151.000
49.65456 135.000
49.67451 158.000
49.69445 161.000
49.71440 147.000
49.73435 158.000
49.75429 124.000
49.77424 130.000
49.79419 139.000
49.81414 125.000
49.83408 159.000
49.85403 139.000
49.87398 119.000
49.89392 120.000
49.91387 131.000
49.93382 150.000
49.95376 131.000
49.97371 169.000
49.99366 122.000
50.01361 155.000
50.03355 157.000
50.05350 140.000
50.07345 116.000
50.09339 119.000
50.11334 142.000
50.13329 144.000
50.15323 137.000
50.17318 161.000
50.19313 144.000
50.21307 138.000
50.23302 120.000
50.25297 130.000
50.27292 130.000
50.29286 149.000
50.31281 123.000
50.33276 139.000
50.35270 119.000
50.37265 110.000
50.39260 122.000
50.41254 123.000
50.43249 118.000
50.45244 137.000
50.47239 142.000
50.49233 127.000
50.51228 135.000
50.53223 126.000
50.55217 139.000
50.57212 123.000
50.59207 124.000
50.61201 115.000
50.63196 135.000
50.65191 137.000
50.67186 120.000
50.69180 137.000
50.71175 136.000
50.73170 119.000
50.75164 133.000
50.77159 153.000
50.79154 153.000
50.81148 125.000
50.83143 127.000
50.85138 126.000
50.87132 148.000
50.89127 117.000
50.91122 127.000
50.93117 136.000
50.95111 135.000
50.97106 141.000
50.99101 128.000
51.01095 135.000
51.03090 144.000
51.05085 117.000
51.07079 139.000
51.09074 155.000
51.11069 152.000
51.13064 126.000
51.15058 129.000
51.17053 125.000
51.19048 136.000
51.21042 124.000
51.23037 127.000
51.25032 135.000
51.27026 117.000
51.29021 129.000
51.31016 145.000
51.33010 132.000
51.35005 125.000
51.37000 150.000
51.38995 126.000
51.40989 126.000
51.42984 140.000
51.44979 136.000
51.46973 162.000
51.48968 154.000
51.50963 126.000
51.52957 146.000
51.54952 140.000
51.56947 129.000
51.58942 141.000
51.60936 110.000
51.62931 144.000
51.64926 131.000
51.66920 152.000
51.68915 131.000
51.70910 126.000
51.72904 148.000
51.74899 111.000
51.76894 145.000
51.78888 129.000
51.80883 144.000
51.82878 116.000
51.84873 144.000
51.86867 131.000
51.88862 138.000
51.90857 146.000
51.92851 119.000
51.94846 127.000
51.96841 137.000
51.98835 122.000
52.00830 128.000
52.02825 127.000
52.04820 127.000
52.06814 147.000
52.08809 136.000
52.10804 148.000
52.12798 125.000
52.14793 149.000
52.16788 122.000
52.18782 147.000
52.20777 143.000
52.22772 128.000
52.24767 133.000
52.26761 135.000
52.28756 166.000
52.30751 121.000
52.32745 128.000
52.34740 129.000
52.36735 148.000
52.38729 137.000
52.40724 127.000
52.42719 144.000
52.44713 129.000
52.46708 129.000
52.48703 133.000
52.50698 157.000
52.52692 126.000
52.54687 154.000
52.56682 137.000
52.58676 148.000
52.60671 130.000
52.62666 140.000
52.64660 132.000
52.66655 144.000
52.68650 121.000
52.70645 130.000
52.72639 132.000
52.74634 131.000
52.76629 132.000
52.78623 147.000
52.80618 140.000
52.82613 140.000
52.84607 144.000
52.86602 146.000
52.88597 146.000
52.90591 145.000
52.92586 156.000
52.94581 130.000
52.96576 150.000
52.98570 130.000
53.00565 132.000
53.02560 144.000
53.04554 141.000
53.06549 128.000
53.08544 130.000
53.10538 140.000
53.12533 143.000
53.14528 151.000
53.16523 141.000
53.18517 168.000
53.20512 127.000
53.22507 132.000
53.24501 139.000
53.26496 142.000
53.28491 139.000
53.30485 144.000
53.32480 147.000
53.34475 149.000
53.36469 158.000
53.38464 183.000
53.40459 193.000
53.42454 192.000
53.44448 227.000
53.46443 202.000
53.48438 185.000
53.50432 210.000
53.52427 222.000
53.54422 240.000
53.56416 237.000
53.58411 249.000
53.60406 227.000
53.62401 272.000
53.64395 243.000
53.66390 250.000
53.68385 255.000
53.70379 220.000
53.72374 220.000
53.74369 225.000
53.76363 221.000
53.78358 194.000
53.80353 171.000
53.82348 193.000
53.84342 173.000
53.86337 166.000
53.88332 175.000
53.90326 171.000
53.92321 151.000
53.94316 161.000
53.96310 160.000
53.98305 142.000
54.00300 155.000
54.02294 152.000
54.04289 163.000
54.06284 149.000
54.08279 144.000
54.10273 136.000
54.12268 128.000
54.14263 139.000
54.16257 129.000
54.18252 156.000
54.20247 123.000
54.22241 142.000
54.24236 135.000
54.26231 130.000
54.28226 144.000
54.30220 117.000
54.32215 118.000
54.34210 137.000
54.36204 148.000
54.38199 128.000
54.40194 134.000
54.42188 137.000
54.44183 112.000
54.46178 126.000
54.48172 154.000
54.50167 131.000
54.52162 127.000
54.54157 128.000
54.56151 121.000
54.58146 126.000
54.60141 132.000
54.62135 135.000
54.64130 117.000
54.66125 142.000
54.68119 140.000
54.70114 137.000
54.72109 122.000
54.74104 155.000
54.76098 138.000
54.78093 149.000
54.80088 134.000
54.82082 115.000
54.84077 133.000
54.86072 138.000
54.88066 121.000
54.90061 128.000
54.92056 140.000
54.94050 133.000
54.96045 144.000
54.98040 118.000
55.00035 141.000
55.02029 130.000
55.04024 127.000
55.06019 129.000
55.08013 131.000
55.10008 116.000
55.12003 123.000
55.13997 132.000
55.15992 147.000
55.17987 126.000
55.19982 134.000
55.21976 135.000
55.23971 138.000
55.25966 112.000
55.27960 148.000
55.29955 127.000
55.31950 126.000
55.33944 151.000
55.35939 146.000
55.37934 115.000
55.39929 125.000
55.41923 135.000
55.43918 129.000
55.45913 159.000
55.47907 133.000
55.49902 151.000
55.51897 121.000
55.53891 129.000
55.55886 131.000
55.57881 123.000
55.59875 148.000
55.61870 116.000
55.63865 130.000
55.65860 132.000
55.67854 143.000
55.69849 135.000
55.71844 144.000
55.73838 129.000
55.75833 119.000
55.77828 145.000
55.79822 131.000
55.81817 121.000
55.83812 147.000
55.85807 138.000
55.87801 115.000
55.89796 134.000
55.91791 124.000
55.93785 145.000
55.95780 130.000
55.97775 153.000
55.99769 123.000
56.01764 138.000
56.03759 138.000
56.05753 141.000
56.07748 132.000
56.09743 137.000
56.11738 135.000
56.13732 128.000
56.15727 110.000
56.17722 142.000
56.19716 127.000
56.21711 139.000
56.23706 126.000
56.25700 133.000
56.27695 156.000
56.29690 125.000
56.31685 146.000
56.33679 134.000
56.35674 133.000
56.37669 135.000
56.39663 146.000
56.41658 130.000
56.43653 136.000
56.45647 159.000
56.47642 134.000
56.49637 134.000
56.51631 139.000
56.53626 161.000
56.55621 150.000
56.57616 143.000
56.59610 141.000
56.61605 157.000
56.63600 143.000
56.65594 156.000
56.67589 166.000
56.69584 159.000
56.71578 162.000
56.73573 166.000
56.75568 183.000
56.77563 159.000
56.79557 158.000
56.81552 184.000
56.83547 193.000
56.85541 200.000
56.87536 213.000
56.89531 264.000
56.91525 258.000
56.93520 332.000
56.95515 334.000
56.97510 345.000
56.99504 379.000
57.01499 401.000
57.03494 415.000
57.05488 483.000
57.07483 463.000
57.09478 511.000
57.11472 551.000
57.13467 568.000
57.15462 545.000
57.17456 560.000
57.19451 533.000
57.21446 536.000
57.23441 579.000
57.25435 550.000
57.27430 474.000
57.29425 477.000
57.31419 458.000
57.33414 422.000
57.35409 362.000
57.37403 323.000
57.39398 336.000
57.41393 291.000
57.43388 309.000
57.45382 266.000
57.47377 237.000
57.49372 234.000
57.51366 211.000
57.53361 216.000
57.55356 199.000
57.57350 171.000
57.59345 163.000
57.61340 163.000
57.63334 157.000
57.65329 190.000
57.67324 161.000
57.69319 151.000
57.71313 143.000
57.73308 145.000
57.75303 158.000
57.77297 142.000
57.79292 144.000
57.81287 151.000
57.83281 149.000
57.85276 129.000
57.87271 132.000
57.89266 155.000
57.91260 119.000
57.93255 139.000
57.95250 143.000
57.97244 142.000
57.99239 156.000
58.01234 139.000
58.03228 125.000
58.05223 157.000
58.07218 152.000
58.09212 133.000
58.11207 156.000
58.13202 129.000
58.15197 136.000
58.17191 138.000
58.19186 136.000
58.21181 116.000
58.23175 133.000
58.25170 137.000
58.27165 151.000
58.29159 144.000
58.31154 130.000
58.33149 122.000
58.35144 143.000
58.37138 132.000
58.39133 118.000
58.41128 130.000
58.43122 130.000
58.45117 123.000
58.47112 109.000
58.49106 122.000
58.51101 143.000
58.53096 133.000
58.55090 130.000
58.57085 120.000
58.59080 128.000
58.61075 139.000
58.63069 120.000
58.65064 135.000
58.67059 119.000
58.69053 151.000
58.71048 130.000
58.73043 122.000
58.75037 116.000
58.77032 122.000
58.79027 155.000
58.81022 118.000
58.83016 107.000
58.85011 148.000
58.87006 148.000
58.89000 148.000
58.90995 122.000
58.92990 131.000
58.94984 118.000
58.96979 144.000
58.98974 140.000
59.00969 118.000
59.02963 131.000
59.04958 135.000
59.06953 132.000
59.08947 123.000
59.10942 121.000
59.12937 141.000
59.14931 134.000
59.16926 119.000
59.18921 136.000
59.20915 109.000
59.22910 131.000
59.24905 125.000
59.26900 127.000
59.28894 117.000
59.30889 129.000
59.32884 143.000
59.34878 126.000
59.36873 131.000
59.38868 139.000
59.40862 127.000
59.42857 133.000
59.44852 124.000
59.46847 124.000
59.48841 138.000
59.50836 155.000
59.52831 128.000
59.54825 119.000
59.56820 114.000
59.58815 118.000
59.60809 114.000
59.62804 139.000
59.64799 126.000
59.66793 137.000
59.68788 137.000
59.70783 122.000
59.72778 109.000
59.74772 128.000
59.76767 121.000
59.78762 119.000
59.80756 116.000
59.82751 135.000
59.84746 134.000
59.86740 134.000
59.88735 124.000
59.90730 129.000
59.92725 137.000
59.94719 141.000
59.96714 140.000
59.98709 113.000
60.00703 112.000
60.02698 131.000
60.04693 123.000
60.06687 133.000
60.08682 146.000
60.10677 129.000
60.12671 97.000
60.14666 124.000
60.16661 114.000
60.18656 126.000
60.20650 140.000
60.22645 137.000
60.24640 110.000
60.26634 131.000
60.28629 121.000
60.30624 134.000
60.32618 117.000
60.34613 121.000
60.36608 129.000
60.38603 132.000
60.40597 125.000
60.42592 133.000
60.44587 132.000
60.46581 124.000
60.48576 129.000
60.50571 128.000
60.52565 142.000
60.54560 134.000
60.56555 142.000
60.58550 127.000
60.60544 126.000
60.62539 139.000
60.64534 144.000
60.66528 126.000
60.68523 130.000
60.70518 138.000
60.72512 134.000
60.74507 126.000
60.76502 114.000
60.78496 117.000
60.80491 125.000
60.82486 151.000
60.84481 142.000
60.86475 148.000
60.88470 119.000
60.90465 139.000
60.92459 119.000
60.94454 131.000
60.96449 127.000
60.98443 133.000
61.00438 119.000
61.02433 128.000
61.04428 144.000
61.06422 144.000
61.08417 135.000
61.10412 144.000
61.12406 140.000
61.14401 110.000
61.16396 136.000
61.18390 136.000
61.20385 150.000
61.22380 151.000
61.24374 132.000
61.26369 130.000
61.28364 138.000
61.30359 156.000
61.32353 147.000
61.34348 153.000
61.36343 126.000
61.38337 146.000
61.40332 133.000
61.42327 159.000
61.44321 144.000
61.46316 140.000
61.48311 165.000
61.50306 139.000
61.52300 162.000
61.54295 152.000
61.56290 149.000
61.58284 156.000
61.60279 144.000
61.62274 156.000
61.64268 153.000
61.66263 174.000
61.68258 174.000
61.70252 180.000
61.72247 197.000
61.74242 195.000
61.76237 187.000
61.78231 227.000
61.80226 234.000
61.82221 243.000
61.84215 272.000
61.86210 287.000
61.88205 290.000
61.90199 352.000
61.92194 322.000
61.94189 284.000
61.96184 283.000
61.98178 271.000
62.00173 267.000
62.02168 262.000
62.04162 246.000
62.06157 313.000
62.08152 275.000
62.10146 244.000
62.12141 251.000
62.14136 230.000
62.16131 245.000
62.18125 192.000
62.20120 240.000
62.22115 193.000
62.24109 224.000
62.26104 188.000
62.28099 203.000
62.30093 194.000
62.32088 242.000
62.34083 226.000
62.36077 245.000
62.38072 264.000
62.40067 226.000
62.42062 245.000
62.44056 280.000
62.46051 285.000
62.48046 333.000
62.50040 363.000
62.52035 403.000
62.54030 445.000
62.56024 463.000
62.58019 486.000
62.60014 491.000
62.62009 487.000
62.64003 615.000
62.65998 602.000
62.67993 637.000
62.69987 664.000
62.71982 725.000
62.73977 771.000
62.75971 817.000
62.77966 931.000
62.79961 1107.000
62.81955 1238.000
62.83950 1287.000
62.85945 1282.000
62.87940 1293.000
62.89934 1158.000
62.91929 1070.000
62.93924 929.000
62.95918 864.000
62.97913 886.000
62.99908 846.000
63.01902 824.000
63.03897 734.000
63.05892 722.000
63.07887 659.000
63.09881 524.000
63.11876 476.000
63.13871 373.000
63.15865 348.000
63.17860 332.000
63.19855 284.000
63.21849 245.000
63.23844 264.000
63.25839 207.000
63.27833 241.000
63.29828 227.000
63.31823 199.000
63.33818 198.000
63.35812 176.000
63.37807 201.000
63.39802 162.000
63.41796 181.000
63.43791 153.000
63.45786 168.000
63.47780 154.000
63.49775 158.000
63.51770 133.000
63.53765 176.000
63.55759 158.000
63.57754 159.000
63.59749 143.000
63.61743 151.000
63.63738 142.000
63.65733 145.000
63.67727 157.000
63.69722 139.000
63.71717 126.000
63.73712 136.000
63.75706 161.000
63.77701 165.000
63.79696 135.000
63.81690 141.000
63.83685 142.000
63.85680 135.000
63.87674 144.000
63.89669 128.000
63.91664 139.000
63.93658 126.000
63.95653 145.000
63.97648 154.000
63.99643 147.000
64.01637 141.000
64.03632 167.000
64.05627 144.000
64.07621 128.000
64.09616 128.000
64.11611 134.000
64.13605 161.000
64.15600 146.000
64.17595 155.000
64.19590 133.000
64.21584 144.000
64.23579 137.000
64.25574 132.000
64.27568 158.000
64.29563 143.000
64.31558 134.000
64.33552 138.000
64.35547 119.000
64.37542 144.000
64.39536 138.000
64.41531 152.000
64.43526 146.000
64.45521 149.000
64.47515 157.000
64.49510 152.000
64.51505 164.000
64.53499 151.000
64.55494 167.000
64.57489 159.000
64.59483 162.000
64.61478 157.000
64.63473 154.000
64.65468 204.000
64.67462 199.000
64.69457 264.000
64.71452 277.000
64.73446 325.000
64.75441 341.000
64.77436 325.000
64.79430 295.000
64.81425 285.000
64.83420 256.000
64.85414 220.000
64.87409 216.000
64.89404 213.000
64.91399 230.000
64.93393 273.000
64.95388 232.000
64.97383 215.000
64.99377 217.000
65.01372 170.000
65.03367 179.000
65.05361 167.000
65.07356 160.000
65.09351 161.000
65.11346 137.000
65.13340 136.000
65.15335 147.000
65.17330 139.000
65.19324 135.000
65.21319 123.000
65.23314 157.000
65.25308 127.000
65.27303 137.000
65.29298 122.000
65.31293 150.000
65.33287 128.000
65.35282 171.000
65.37277 133.000
65.39271 136.000
65.41266 147.000
65.43261 123.000
65.45255 130.000
65.47250 143.000
65.49245 131.000
65.51239 130.000
65.53234 129.000
65.55229 132.000
65.57224 166.000
65.59218 131.000
65.61213 146.000
65.63208 146.000
65.65202 135.000
65.67197 157.000
65.69192 130.000
65.71186 123.000
65.73181 147.000
65.75176 176.000
65.77171 139.000
65.79165 138.000
65.81160 142.000
65.83155 157.000
65.85149 125.000
65.87144 153.000
65.89139 163.000
65.91133 142.000
65.93128 140.000
65.95123 157.000
65.97117 147.000
65.99112 156.000
66.01107 148.000
66.03102 150.000
66.05096 134.000
66.07091 168.000
66.09086 147.000
66.11080 145.000
66.13075 131.000
66.15070 157.000
66.17064 162.000
66.19059 136.000
66.21054 176.000
66.23049 129.000
66.25043 159.000
66.27038 161.000
66.29033 165.000
66.31027 165.000
66.33022 149.000
66.35017 154.000
66.37011 168.000
66.39006 157.000
66.41001 178.000
66.42995 159.000
66.44990 167.000
66.46985 155.000
66.48980 187.000
66.50974 150.000
66.52969 164.000
66.54964 160.000
66.56958 150.000
66.58953 153.000
66.60948 153.000
66.62942 168.000
66.64937 161.000
66.66932 162.000
66.68927 140.000
66.70921 147.000
66.72916 141.000
66.74911 132.000
66.76905 136.000
66.78900 146.000
66.80895 132.000
66.82889 139.000
66.84884 156.000
66.86879 161.000
66.88874 151.000
66.90868 190.000
66.92863 169.000
66.94858 171.000
66.96852 156.000
66.98847 171.000
67.00842 181.000
67.02836 203.000
67.04831 200.000
67.06826 233.000
67.08820 222.000
67.10815 258.000
67.12810 260.000
67.14805 250.000
67.16799 255.000
67.18794 175.000
67.20789 228.000
67.22783 170.000
67.24778 179.000
67.26773 216.000
67.28767 215.000
67.30762 211.000
67.32757 179.000
67.34752 180.000
67.36746 183.000
67.38741 177.000
67.40736 168.000
67.42730 143.000
67.44725 158.000
67.46720 162.000
67.48714 151.000
67.50709 146.000
67.52704 151.000
67.54698 137.000
67.56693 122.000
67.58688 136.000
67.60683 134.000
67.62677 124.000
67.64672 125.000
67.66667 125.000
67.68661 124.000
67.70656 148.000
67.72651 150.000
67.74645 140.000
67.76640 116.000
67.78635 146.000
67.80630 128.000
67.82624 113.000
67.84619 118.000
67.86614 125.000
67.88608 129.000
67.90603 126.000
67.92598 128.000
67.94592 138.000
67.96587 104.000
67.98582 123.000
68.00576 123.000
68.02571 140.000
68.04566 137.000
68.06561 133.000
68.08555 115.000
68.10550 129.000
68.12545 105.000
68.14539 122.000
68.16534 149.000
68.18529 135.000
68.20523 135.000
68.22518 120.000
68.24513 129.000
68.26508 122.000
68.28502 114.000
68.30497 105.000
68.32492 104.000
68.34486 119.000
68.36481 133.000
68.38476 128.000
68.40470 133.000
68.42465 130.000
68.44460 110.000
68.46455 125.000
68.48449 109.000
68.50444 131.000
68.52439 108.000
68.54433 124.000
68.56428 128.000
68.58423 122.000
68.60417 125.000
68.62412 134.000
68.64407 130.000
68.66401 137.000
68.68396 130.000
68.70391 123.000
68.72386 136.000
68.74380 119.000
68.76375 136.000
68.78370 127.000
68.80364 139.000
68.82359 121.000
68.84354 124.000
68.86348 125.000
68.88343 115.000
68.90338 110.000
68.92333 124.000
68.94327 126.000
68.96322 122.000
68.98317 99.000
69.00311 129.000
69.02306 124.000
69.04301 124.000
69.06295 117.000
69.08290 118.000
69.10285 128.000
69.12279 109.000
69.14274 98.000
69.16269 121.000
69.18264 129.000
69.20258 126.000
69.22253 112.000
69.24248 136.000
69.26242 132.000
69.28237 130.000
69.30232 119.000
69.32226 121.000
69.34221 121.000
69.36216 138.000
69.38211 119.000
69.40205 123.000
69.42200 122.000
69.44195 106.000
69.46189 122.000
69.48184 106.000
69.50179 113.000
69.52173 121.000
69.54168 113.000
69.56163 101.000
69.58157 125.000
69.60152 116.000
69.62147 133.000
69.64142 139.000
69.66136 134.000
69.68131 121.000
69.70126 133.000
69.72120 108.000
69.74115 125.000
69.76110 116.000
69.78104 115.000
69.80099 123.000
69.82094 137.000
69.84089 115.000
69.86083 99.000
69.88078 140.000
69.90073 126.000
69.92067 112.000
69.94062 106.000
69.96057 117.000
69.98051 120.000
70.00046 116.000
70.02041 108.000
70.04035 118.000
70.06030 133.000
70.08025 136.000
70.10020 102.000
70.12014 135.000
70.14009 120.000
70.16004 141.000
70.17998 112.000
70.19993 143.000
70.21988 122.000
70.23982 119.000
70.25977 122.000
70.27972 128.000
70.29967 113.000
70.31961 100.000
70.33956 127.000
70.35951 123.000
70.37945 121.000
70.39940 131.000
70.41935 114.000
70.43929 115.000
70.45924 105.000
70.47919 127.000
70.49914 125.000
70.51908 105.000
70.53903 102.000
70.55898 132.000
70.57892 126.000
70.59887 141.000
70.61882 131.000
70.63876 123.000
70.65871 110.000
70.67866 123.000
70.69860 141.000
70.71855 124.000
70.73850 129.000
70.75845 128.000
70.77839 138.000
70.79834 113.000
70.81829 130.000
70.83823 126.000
70.85818 123.000
70.87813 127.000
70.89807 131.000
70.91802 139.000
70.93797 118.000
70.95792 111.000
70.97786 144.000
70.99781 153.000
71.01776 111.000
71.03770 129.000
71.05765 124.000
71.07760 134.000
71.09754 132.000
71.11749 132.000
71.13744 134.000
71.15738 142.000
71.17733 142.000
71.19728 136.000
71.21723 143.000
71.23717 131.000
71.25712 142.000
71.27707 146.000
71.29701 124.000
71.31696 147.000
71.33691 147.000
71.35685 156.000
71.37680 141.000
71.39675 144.000
71.41670 151.000
71.43664 143.000
71.45659 141.000
71.47654 124.000
71.49648 145.000
71.51643 140.000
71.53638 127.000
71.55632 129.000
71.57627 136.000
71.59622 130.000
71.61616 148.000
71.63611 121.000
71.65606 125.000
71.67601 113.000
71.69595 144.000
71.71590 131.000
71.73585 110.000
71.75579 110.000
71.77574 112.000
71.79569 124.000
71.81563 111.000
71.83558 130.000
71.85553 133.000
71.87548 128.000
71.89542 122.000
71.91537 132.000
71.93532 110.000
71.95526 129.000
71.97521 130.000
71.99516 128.000
72.01510 120.000
72.03505 129.000
72.05500 131.000
72.07495 125.000
72.09489 106.000
72.11484 125.000
72.13479 91.000
72.15473 116.000
72.17468 116.000
72.19463 119.000
72.21457 141.000
72.23452 144.000
72.25447 127.000
72.27441 113.000
72.29436 136.000
72.31431 118.000
72.33426 98.000
72.35420 114.000
72.37415 148.000
72.39410 114.000
72.41404 119.000
72.43399 127.000
72.45394 117.000
72.47388 126.000
72.49383 136.000
72.51378 133.000
72.53373 140.000
72.55367 129.000
72.57362 113.000
72.59357 114.000
72.61351 119.000
72.63346 127.000
72.65341 108.000
72.67335 116.000
72.69330 122.000
72.71325 124.000
72.73319 130.000
72.75314 106.000
72.77309 114.000
72.79304 125.000
72.81298 145.000
72.83293 118.000
72.85288 136.000
72.87282 136.000
72.89277 114.000
72.91272 141.000
72.93266 107.000
72.95261 128.000
72.97256 124.000
72.99251 129.000
73.01245 104.000
73.03240 115.000
73.05235 118.000
73.07229 119.000
73.09224 118.000
73.11219 130.000
73.13213 109.000
73.15208 151.000
73.17203 127.000
73.19197 127.000
73.21192 126.000
73.23187 122.000
73.25182 126.000
73.27176 109.000
73.29171 107.000
73.31166 120.000
73.33160 121.000
73.35155 132.000
73.37150 146.000
73.39144 114.000
73.41139 111.000
73.43134 150.000
73.45129 147.000
73.47123 112.000
73.49118 135.000
73.51113 124.000
73.53107 122.000
73.55102 119.000
73.57097 127.000
73.59091 124.000
73.61086 125.000
73.63081 121.000
73.65076 138.000
73.67070 111.000
73.69065 135.000
73.71060 132.000
73.73054 142.000
73.75049 146.000
73.77044 147.000
73.79038 165.000
73.81033 146.000
73.83028 160.000
73.85022 185.000
73.87017 181.000
73.89012 170.000
73.91007 187.000
73.93001 194.000
73.94996 207.000
73.96991 203.000
73.98985 233.000
74.00980 184.000
74.02975 191.000
74.04969 210.000
74.06964 193.000
74.08959 190.000
74.10954 220.000
74.12948 232.000
74.14943 234.000
74.16938 207.000
74.18932 201.000
74.20927 241.000
74.22922 234.000
74.24916 211.000
74.26911 220.000
74.28906 188.000
74.30900 192.000
74.32895 204.000
74.34890 193.000
74.36885 175.000
74.38879 214.000
74.40874 198.000
74.42869 191.000
74.44863 184.000
74.46858 169.000
74.48853 176.000
74.50847 192.000
74.52842 181.000
74.54837 172.000
74.56832 185.000
74.58826 182.000
74.60821 168.000
74.62816 161.000
74.64810 156.000
74.66805 174.000
74.68800 137.000
74.70794 160.000
74.72789 146.000
74.74784 134.000
74.76778 144.000
74.78773 150.000
74.80768 153.000
74.82763 134.000
74.84757 133.000
74.86752 144.000
74.88747 148.000
74.90741 146.000
74.92736 157.000
74.94731 182.000
74.96725 159.000
74.98720 174.000
75.00715 156.000
75.02710 174.000
75.04704 180.000
75.06699 166.000
75.08694 175.000
75.10688 165.000
75.12683 211.000
75.14678 193.000
75.16672 194.000
75.18667 198.000
75.20662 199.000
75.22657 224.000
75.24651 200.000
75.26646 244.000
75.28641 287.000
75.30635 301.000
75.32630 350.000
75.34625 367.000
75.36619 429.000
75.38614 413.000
75.40609 404.000
75.42603 378.000
75.44598 350.000
75.46593 320.000
75.48588 284.000
75.50582 275.000
75.52577 270.000
75.54572 289.000
75.56566 251.000
75.58561 332.000
75.60556 267.000
75.62550 269.000
75.64545 283.000
75.66540 228.000
75.68535 213.000
75.70529 205.000
75.72524 196.000
75.74519 206.000
75.76513 162.000
75.78508 177.000
75.80503 154.000
75.82497 149.000
75.84492 148.000
75.86487 148.000
75.88481 139.000
75.90476 130.000
75.92471 138.000
75.94466 125.000
75.96460 132.000
75.98455 134.000
76.00450 149.000
76.02444 146.000
76.04439 146.000
76.06434 116.000
76.08428 124.000
76.10423 135.000
76.12418 136.000
76.14413 138.000
76.16407 123.000
76.18402 137.000
76.20397 110.000
76.22391 140.000
76.24386 119.000
76.26381 111.000
76.28375 129.000
76.30370 128.000
76.32365 138.000
76.34359 133.000
76.36354 152.000
76.38349 148.000
76.40344 138.000
76.42338 132.000
76.44333 134.000
76.46328 141.000
76.48322 130.000
76.50317 130.000
76.52312 149.000
76.54306 120.000
76.56301 108.000
76.58296 134.000
76.60291 135.000
76.62285 132.000
76.64280 139.000
76.66275 138.000
76.68269 154.000
76.70264 128.000
76.72259 123.000
76.74253 125.000
76.76248 123.000
76.78243 107.000
76.80238 119.000
76.82232 113.000
76.84227 141.000
76.86222 120.000
76.88216 133.000
76.90211 103.000
76.92206 126.000
76.94200 115.000
76.96195 122.000
76.98190 128.000
77.00184 108.000
77.02179 127.000
77.04174 143.000
77.06169 133.000
77.08163 108.000
77.10158 120.000
77.12153 98.000
77.14147 105.000
77.16142 134.000
77.18137 134.000
77.20131 113.000
77.22126 136.000
77.24121 134.000
77.26116 115.000
77.28110 128.000
77.30105 129.000
77.32100 124.000
77.34094 126.000
77.36089 112.000
77.38084 123.000
77.40078 130.000
77.42073 137.000
77.44068 127.000
77.46062 121.000
77.48057 126.000
77.50052 135.000
77.52047 137.000
77.54041 122.000
77.56036 113.000
77.58031 140.000
77.60025 131.000
77.62020 148.000
77.64015 130.000
77.66009 124.000
77.68004 112.000
77.69999 119.000
77.71994 128.000
77.73988 133.000
77.75983 133.000
77.77978 152.000
77.79972 126.000
77.81967 128.000
77.83962 140.000
77.85956 153.000
77.87951 154.000
77.89946 149.000
77.91940 139.000
77.93935 173.000
77.95930 149.000
77.97925 162.000
77.99919 200.000
78.01914 172.000
78.03909 176.000
78.05903 157.000
78.07898 163.000
78.09893 184.000
78.11887 140.000
78.13882 150.000
78.15877 159.000
78.17872 156.000
78.19866 156.000
78.21861 140.000
78.23856 157.000
78.25850 132.000
78.27845 161.000
78.29840 145.000
78.31834 151.000
78.33829 138.000
78.35824 134.000
78.37819 130.000
78.39813 149.000
78.41808 138.000
78.43803 136.000
78.45797 158.000
78.47792 135.000
78.49787 151.000
78.51781 160.000
78.53776 156.000
78.55771 152.000
78.57765 177.000
78.59760 170.000
78.61755 181.000
78.63750 172.000
78.65744 156.000
78.67739 136.000
78.69734 150.000
78.71728 156.000
78.73723 118.000
78.75718 153.000
78.77712 143.000
78.79707 135.000
78.81702 152.000
78.83697 127.000
78.85691 136.000
78.87686 165.000
78.89681 142.000
78.91675 155.000
78.93670 134.000
78.95665 167.000
78.97659 155.000
78.99654 164.000
79.01649 166.000
79.03643 150.000
79.05638 176.000
79.07633 163.000
79.09628 126.000
79.11622 167.000
79.13617 169.000
79.15612 161.000
79.17606 173.000
79.19601 154.000
79.21596 186.000
79.23590 185.000
79.25585 219.000
79.27580 249.000
79.29575 248.000
79.31569 287.000
79.33564 315.000
79.35559 325.000
79.37553 316.000
79.39548 264.000
79.41543 277.000
79.43537 247.000
79.45532 236.000
79.47527 250.000
79.49521 234.000
79.51516 222.000
79.53511 244.000
79.55506 245.000
79.57500 272.000
79.59495 240.000
79.61490 222.000
79.63484 209.000
79.65479 215.000
79.67474 184.000
79.69468 175.000
79.71463 171.000
79.73458 159.000
79.75453 156.000
79.77447 153.000
79.79442 124.000
79.81437 152.000
79.83431 133.000
79.85426 145.000
79.87421 120.000
79.89415 112.000
79.91410 157.000
79.93405 118.000
79.95399 142.000
79.97394 149.000
79.99389 120.000
80.01384 135.000
80.03378 126.000
80.05373 132.000
80.07368 141.000
80.09362 134.000
80.11357 125.000
80.13352 128.000
80.15346 116.000
80.17341 133.000
80.19336 132.000
80.21331 124.000
80.23325 118.000
80.25320 124.000
80.27315 121.000
80.29309 120.000
80.31304 119.000
80.33299 119.000
80.35293 132.000
80.37288 111.000
80.39283 124.000
80.41278 120.000
80.43272 120.000
80.45267 109.000
80.47262 108.000
80.49256 111.000
80.51251 135.000
80.53246 129.000
80.55240 105.000
80.57235 122.000
80.59230 127.000
80.61224 114.000
80.63219 116.000
80.65214 121.000
80.67209 115.000
80.69203 110.000
80.71198 125.000
80.73193 124.000
80.75187 120.000
80.77182 95.000
80.79177 107.000
80.81171 124.000
80.83166 105.000
80.85161 145.000
80.87156 124.000
80.89150 125.000
80.91145 109.000
80.93140 134.000
80.95134 124.000
80.97129 118.000
80.99124 113.000
81.01118 133.000
81.03113 123.000
81.05108 136.000
81.07102 117.000
81.09097 122.000
81.11092 118.000
81.13087 115.000
81.15081 120.000
81.17076 116.000
81.19071 117.000
81.21065 135.000
81.23060 124.000
81.25055 139.000
81.27049 135.000
81.29044 132.000
81.31039 125.000
81.33034 125.000
81.35028 117.000
81.37023 119.000
81.39018 148.000
81.41012 103.000
81.43007 124.000
81.45002 119.000
81.46996 108.000
81.48991 120.000
81.50986 125.000
81.52980 109.000
81.54975 116.000
81.56970 118.000
81.58965 108.000
81.60959 119.000
81.62954 118.000
81.64949 118.000
81.66943 144.000
81.68938 122.000
81.70933 112.000
81.72927 104.000
81.74922 130.000
81.76917 121.000
81.78912 130.000
81.80906 112.000
81.82901 131.000
81.84896 126.000
81.86890 105.000
81.88885 114.000
81.90880 104.000
81.92874 111.000
81.94869 121.000
81.96864 116.000
81.98859 104.000
82.00853 137.000
82.02848 141.000
82.04843 122.000
82.06837 122.000
82.08832 128.000
82.10827 141.000
82.12821 121.000
82.14816 128.000
82.16811 119.000
82.18805 134.000
82.20800 128.000
82.22795 139.000
82.24790 137.000
82.26784 138.000
82.28779 129.000
82.30774 117.000
82.32768 121.000
82.34763 125.000
82.36758 103.000
82.38752 147.000
82.40747 104.000
82.42742 131.000
82.44737 123.000
82.46731 116.000
82.48726 142.000
82.50721 116.000
82.52715 115.000
82.54710 139.000
82.56705 125.000
82.58699 131.000
82.60694 124.000
82.62689 110.000
82.64683 124.000
82.66678 117.000
82.68673 113.000
82.70668 101.000
82.72662 133.000
82.74657 137.000
82.76652 116.000
82.78646 117.000
82.80641 135.000
82.82636 118.000
82.84630 115.000
82.86625 125.000
82.88620 130.000
82.90615 149.000
82.92609 103.000
82.94604 112.000
82.96599 99.000
82.98593 139.000
83.00588 122.000
83.02583 102.000
83.04577 120.000
83.06572 101.000
83.08567 121.000
83.10561 118.000
83.12556 100.000
83.14551 129.000
83.16546 110.000
83.18540 121.000
83.20535 123.000
83.22530 112.000
83.24524 119.000
83.26519 128.000
83.28514 108.000
83.30508 122.000
83.32503 111.000
83.34498 125.000
83.36493 114.000
83.38487 122.000
83.40482 117.000
83.42477 119.000
83.44471 116.000
83.46466 134.000
83.48461 115.000
83.50455 116.000
83.52450 111.000
83.54445 108.000
83.56440 133.000
83.58434 113.000
83.60429 112.000
83.62424 102.000
83.64418 110.000
83.66413 115.000
83.68408 122.000
83.70402 143.000
83.72397 130.000
83.74392 117.000
83.76386 122.000
83.78381 130.000
83.80376 114.000
83.82371 106.000
83.84365 120.000
83.86360 133.000
83.88355 121.000
83.90349 125.000
83.92344 123.000
83.94339 122.000
83.96333 102.000
83.98328 109.000
84.00323 115.000
84.02318 121.000
84.04312 98.000
84.06307 119.000
84.08302 117.000
84.10296 108.000
84.12291 90.000
84.14286 128.000
84.16280 123.000
84.18275 88.000
84.20270 131.000
84.22264 140.000
84.24259 135.000
84.26254 126.000
84.28249 119.000
84.30243 118.000
84.32238 124.000
84.34233 119.000
84.36227 118.000
84.38222 129.000
84.40217 108.000
84.42211 110.000
84.44206 114.000
84.46201 127.000
84.48196 115.000
84.50190 117.000
84.52185 113.000
84.54180 123.000
84.56174 130.000
84.58169 124.000
84.60164 109.000
84.62158 113.000
84.64153 130.000
84.66148 124.000
84.68142 137.000
84.70137 121.000
84.72132 111.000
84.74127 131.000
84.76121 128.000
84.78116 123.000
84.80111 127.000
84.82105 134.000
84.84100 127.000
84.86095 129.000
84.88089 154.000
84.90084 125.000
84.92079 143.000
84.94074 127.000
84.96068 128.000
84.98063 163.000
85.00058 137.000
85.02052 142.000
85.04047 142.000
85.06042 135.000
85.08036 160.000
85.10031 184.000
85.12026 177.000
85.14021 169.000
85.16015 169.000
85.18010 166.000
85.20005 148.000
85.21999 146.000
85.23994 150.000
85.25989 161.000
85.27983 135.000
85.29978 148.000
85.31973 162.000
85.33967 142.000
85.35962 148.000
85.37957 139.000
85.39952 133.000
85.41946 165.000
85.43941 134.000
85.45936 143.000
85.47930 116.000
85.49925 129.000
85.51920 135.000
85.53914 130.000
85.55909 117.000
85.57904 114.000
85.59899 133.000
85.61893 137.000
85.63888 112.000
85.65883 123.000
85.67877 121.000
85.69872 130.000
85.71867 132.000
85.73861 110.000
85.75856 128.000
85.77851 101.000
85.79845 127.000
85.81840 126.000
85.83835 126.000
85.85830 119.000
85.87824 125.000
85.89819 109.000
85.91814 109.000
85.93808 103.000
85.95803 103.000
85.97798 99.000
85.99792 113.000
86.01787 121.000
86.03782 118.000
86.05777 123.000
86.07771 113.000
86.09766 112.000
86.11761 99.000
86.13755 121.000
86.15750 142.000
86.17745 139.000
86.19739 103.000
86.21734 130.000
86.23729 110.000
86.25723 126.000
86.27718 113.000
86.29713 114.000
86.31708 131.000
86.33702 139.000
86.35697 114.000
86.37692 128.000
86.39686 151.000
86.41681 121.000
86.43676 126.000
86.45670 120.000
86.47665 143.000
86.49660 122.000
86.51655 131.000
86.53649 128.000
86.55644 131.000
86.57639 111.000
86.59633 139.000
86.61628 126.000
86.63623 126.000
86.65617 116.000
86.67612 142.000
86.69607 130.000
86.71602 146.000
86.73596 120.000
86.75591 148.000
86.77586 137.000
86.79580 132.000
86.81575 129.000
86.83570 127.000
86.85564 147.000
86.87559 130.000
86.89554 147.000
86.91548 144.000
86.93543 138.000
86.95538 142.000
86.97533 136.000
86.99527 156.000
87.01522 146.000
87.03517 141.000
87.05511 124.000
87.07506 176.000
87.09501 140.000
87.11495 151.000
87.13490 157.000
87.15485 147.000
87.17480 141.000
87.19474 157.000
87.21469 136.000
87.23464 144.000
87.25458 131.000
87.27453 151.000
87.29448 131.000
87.31442 147.000
87.33437 144.000
87.35432 126.000
87.37426 147.000
87.39421 133.000
87.41416 127.000
87.43411 122.000
87.45405 130.000
87.47400 141.000
87.49395 127.000
87.51389 129.000
87.53384 122.000
87.55379 118.000
87.57373 132.000
87.59368 98.000
87.61363 138.000
87.63358 130.000
87.65352 121.000
87.67347 125.000
87.69342 120.000
87.71336 113.000
87.73331 128.000
87.75326 108.000
87.77320 115.000
87.79315 116.000
87.81310 115.000
87.83304 134.000
87.85299 102.000
87.87294 124.000
87.89289 111.000
87.91283 131.000
87.93278 116.000
87.95273 101.000
87.97267 109.000
87.99262 121.000
88.01257 104.000
88.03251 116.000
88.05246 123.000
88.07241 108.000
88.09236 113.000
88.11230 117.000
88.13225 123.000
88.15220 115.000
88.17214 124.000
88.19209 112.000
88.21204 123.000
88.23198 124.000
88.25193 138.000
88.27188 119.000
88.29183 113.000
88.31177 131.000
88.33172 132.000
88.35167 105.000
88.37161 116.000
88.39156 103.000
88.41151 105.000
88.43145 130.000
88.45140 109.000
88.47135 107.000
88.49129 118.000
88.51124 91.000
88.53119 122.000
88.55114 116.000
88.57108 120.000
88.59103 112.000
88.61098 117.000
88.63092 109.000
88.65087 108.000
88.67082 106.000
88.69076 132.000
88.71071 122.000
88.73066 116.000
88.75061 115.000
88.77055 128.000
88.79050 122.000
88.81045 123.000
88.83039 130.000
88.85034 121.000
88.87029 93.000
88.89023 106.000
88.91018 108.000
88.93013 130.000
88.95007 113.000
88.97002 118.000
88.98997 108.000
89.00992 111.000
89.02986 102.000
89.04981 115.000
89.06976 117.000
89.08970 127.000
89.10965 121.000
89.12960 123.000
89.14954 124.000
89.16949 127.000
89.18944 113.000
89.20939 122.000
89.22933 118.000
89.24928 129.000
89.26923 117.000
89.28917 127.000
89.30912 117.000
89.32907 122.000
89.34901 121.000
89.36896 116.000
89.38891 136.000
89.40885 117.000
89.42880 122.000
89.44875 127.000
89.46870 128.000
89.48864 137.000
89.50859 148.000
89.52854 122.000
89.54848 129.000
89.56843 167.000
89.58838 170.000
89.60832 161.000
89.62827 159.000
89.64822 157.000
89.66817 163.000
89.68811 157.000
89.70806 181.000
89.72801 179.000
89.74795 181.000
89.76790 178.000
89.78785 182.000
89.80779 196.000
89.82774 193.000
89.84769 199.000
89.86764 191.000
89.88758 210.000
89.90753 192.000
89.92748 201.000
89.94742 230.000
89.96737 213.000
89.98732 235.000
90.00726 194.000
