10.00000 124.000
10.01995 139.000
10.03989 119.000
10.05984 114.000
10.07979 128.000
10.09973 119.000
10.11968 130.000
10.13963 121.000
10.15958 110.000
10.17952 112.000
10.19947 127.000
10.21942 154.000
10.23936 120.000
10.25931 121.000
10.27926 126.000
10.29920 137.000
10.31915 123.000
10.33910 121.000
10.35905 115.000
10.37899 108.000
10.39894 106.000
10.41889 126.000
10.43883 122.000
10.45878 129.000
10.47873 104.000
10.49867 93.000
10.51862 132.000
10.53857 128.000
10.55851 136.000
10.57846 127.000
10.59841 116.000
10.61836 120.000
10.63830 125.000
10.65825 130.000
10.67820 147.000
10.69814 112.000
10.71809 156.000
10.73804 127.000
10.75798 110.000
10.77793 144.000
10.79788 131.000
10.81783 139.000
10.83777 109.000
10.85772 118.000
10.87767 135.000
10.89761 126.000
10.91756 123.000
10.93751 114.000
10.95745 120.000
10.97740 123.000
10.99735 99.000
11.01730 109.000
11.03724 116.000
11.05719 131.000
11.07714 139.000
11.09708 127.000
11.11703 136.000
11.13698 129.000
11.15692 113.000
11.17687 137.000
11.19682 138.000
11.21676 120.000
11.23671 137.000
11.25666 136.000
11.27661 131.000
11.29655 130.000
11.31650 115.000
11.33645 116.000
11.35639 110.000
11.37634 142.000
11.39629 126.000
11.41623 142.000
11.43618 126.000
11.45613 114.000
11.47608 111.000
11.49602 132.000
11.51597 139.000
11.53592 135.000
11.55586 134.000
11.57581 133.000
11.59576 144.000
11.61570 140.000
11.63565 114.000
11.65560 149.000
11.67554 120.000
11.69549 138.000
11.71544 137.000
11.73539 139.000
11.75533 143.000
11.77528 148.000
11.79523 139.000
11.81517 156.000
11.83512 117.000
11.85507 127.000
11.87501 139.000
11.89496 135.000
11.91491 137.000
11.93486 143.000
11.95480 128.000
11.97475 131.000
11.99470 145.000
12.01464 133.000
12.03459 153.000
12.05454 136.000
12.07448 133.000
12.09443 117.000
12.11438 127.000
12.13432 142.000
12.15427 111.000
12.17422 138.000
12.19417 121.000
12.21411 131.000
12.23406 127.000
12.25401 151.000
12.27395 130.000
12.29390 141.000
12.31385 135.000
12.33379 130.000
12.35374 135.000
12.37369 123.000
12.39364 136.000
12.41358 137.000
12.43353 141.000
12.45348 137.000
12.47342 166.000
12.49337 154.000
12.51332 115.000
12.53326 141.000
12.55321 110.000
12.57316 138.000
12.59311 133.000
12.61305 179.000
12.63300 123.000
12.65295 135.000
12.67289 138.000
12.69284 137.000
12.71279 134.000
12.73273 135.000
12.75268 163.000
12.77263 152.000
12.79257 136.000
12.81252 129.000
12.83247 172.000
12.85242 120.000
12.87236 146.000
12.89231 140.000
12.91226 146.000
12.93220 125.000
12.95215 133.000
12.97210 129.000
12.99204 150.000
13.01199 158.000
13.03194 150.000
13.05189 142.000
13.07183 148.000
13.09178 151.000
13.11173 134.000
13.13167 137.000
13.15162 129.000
13.17157 152.000
13.19151 144.000
13.21146 134.000
13.23141 137.000
13.25135 148.000
13.27130 154.000
13.29125 139.000
13.31120 149.000
13.33114 140.000
13.35109 127.000
13.37104 126.000
13.39098 134.000
13.41093 134.000
13.43088 152.000
13.45082 160.000
13.47077 158.000
13.49072 150.000
13.51067 135.000
13.53061 133.000
13.55056 139.000
13.57051 139.000
13.59045 159.000
13.61040 146.000
13.63035 148.000
13.65029 142.000
13.67024 130.000
13.69019 164.000
13.71013 130.000
13.73008 126.000
13.75003 139.000
13.76998 129.000
13.78992 146.000
13.80987 157.000
13.82982 118.000
13.84976 132.000
13.86971 139.000
13.88966 159.000
13.90960 156.000
13.92955 179.000
13.94950 120.000
13.96945 146.000
13.98939 148.000
14.00934 151.000
14.02929 154.000
14.04923 136.000
14.06918 138.000
14.08913 146.000
14.10907 128.000
14.12902 137.000
14.14897 131.000
14.16892 142.000
14.18886 165.000
14.20881 149.000
14.22876 147.000
14.24870 142.000
14.26865 148.000
14.28860 160.000
14.30854 152.000
14.32849 147.000
14.34844 169.000
14.36838 157.000
14.38833 157.000
14.40828 167.000
14.42823 147.000
14.44817 143.000
14.46812 126.000
14.48807 153.000
14.50801 132.000
14.52796 162.000
14.54791 172.000
14.56785 148.000
14.58780 137.000
14.60775 163.000
14.62770 136.000
14.64764 165.000
14.66759 132.000
14.68754 150.000
14.70748 132.000
14.72743 174.000
14.74738 143.000
14.76732 171.000
14.78727 156.000
14.80722 167.000
14.82716 176.000
14.84711 156.000
14.86706 142.000
14.88701 158.000
14.90695 158.000
14.92690 134.000
14.94685 158.000
14.96679 138.000
14.98674 164.000
15.00669 157.000
15.02663 167.000
15.04658 164.000
15.06653 170.000
15.08648 144.000
15.10642 147.000
15.12637 161.000
15.14632 150.000
15.16626 154.000
15.18621 149.000
15.20616 146.000
15.22610 168.000
15.24605 168.000
15.26600 168.000
15.28594 187.000
15.30589 149.000
15.32584 170.000
15.34579 166.000
15.36573 182.000
15.38568 158.000
15.40563 149.000
15.42557 177.000
15.44552 167.000
15.46547 164.000
15.48541 140.000
15.50536 177.000
15.52531 183.000
15.54526 163.000
15.56520 170.000
15.58515 173.000
15.60510 153.000
15.62504 165.000
15.64499 151.000
15.66494 162.000
15.68488 185.000
15.70483 170.000
15.72478 177.000
15.74472 158.000
15.76467 174.000
15.78462 171.000
15.80457 176.000
15.82451 175.000
15.84446 197.000
15.86441 161.000
15.88435 158.000
15.90430 180.000
15.92425 177.000
15.94419 171.000
15.96414 161.000
15.98409 154.000
16.00404 177.000
16.02398 138.000
16.04393 170.000
16.06388 168.000
16.08382 165.000
16.10377 164.000
16.12372 186.000
16.14366 181.000
16.16361 168.000
16.18356 192.000
16.20351 192.000
16.22345 151.000
16.24340 179.000
16.26335 162.000
16.28329 179.000
16.30324 192.000
16.32319 191.000
16.34313 185.000
16.36308 191.000
16.38303 181.000
16.40297 198.000
16.42292 183.000
16.44287 225.000
16.46282 208.000
16.48276 155.000
16.50271 181.000
16.52266 201.000
16.54260 201.000
16.56255 185.000
16.58250 168.000
16.60244 204.000
16.62239 201.000
16.64234 197.000
16.66229 200.000
16.68223 204.000
16.70218 213.000
16.72213 202.000
16.74207 185.000
16.76202 203.000
16.78197 203.000
16.80191 208.000
16.82186 217.000
16.84181 220.000
16.86175 205.000
16.88170 201.000
16.90165 207.000
16.92160 210.000
16.94154 210.000
16.96149 224.000
16.98144 201.000
17.00138 218.000
17.02133 214.000
17.04128 218.000
17.06122 205.000
17.08117 224.000
17.10112 201.000
17.12107 213.000
17.14101 203.000
17.16096 194.000
17.18091 206.000
17.20085 197.000
17.22080 219.000
17.24075 243.000
17.26069 203.000
17.28064 251.000
17.30059 201.000
17.32053 232.000
17.34048 208.000
17.36043 245.000
17.38038 251.000
17.40032 233.000
17.42027 259.000
17.44022 219.000
17.46016 238.000
17.48011 251.000
17.50006 223.000
17.52000 229.000
17.53995 230.000
17.55990 232.000
17.57985 225.000
17.59979 237.000
17.61974 248.000
17.63969 234.000
17.65963 258.000
17.67958 236.000
17.69953 228.000
17.71947 234.000
17.73942 274.000
17.75937 264.000
17.77932 225.000
17.79926 261.000
17.81921 272.000
17.83916 243.000
17.85910 240.000
17.87905 251.000
17.89900 271.000
17.91894 243.000
17.93889 267.000
17.95884 282.000
17.97878 249.000
17.99873 250.000
18.01868 257.000
18.03863 260.000
18.05857 275.000
18.07852 249.000
18.09847 249.000
18.11841 260.000
18.13836 243.000
18.15831 284.000
18.17825 287.000
18.19820 278.000
18.21815 271.000
18.23810 287.000
18.25804 260.000
18.27799 284.000
18.29794 301.000
18.31788 264.000
18.33783 280.000
18.35778 261.000
18.37772 270.000
18.39767 292.000
18.41762 289.000
18.43756 271.000
18.45751 298.000
18.47746 239.000
18.49741 284.000
18.51735 269.000
18.53730 290.000
18.55725 310.000
18.57719 276.000
18.59714 291.000
18.61709 295.000
18.63703 306.000
18.65698 296.000
18.67693 303.000
18.69688 284.000
18.71682 316.000
18.73677 304.000
18.75672 305.000
18.77666 289.000
18.79661 262.000
18.81656 329.000
18.83650 305.000
18.85645 305.000
18.87640 311.000
18.89634 309.000
18.91629 310.000
18.93624 331.000
18.95619 269.000
18.97613 307.000
18.99608 331.000
19.01603 316.000
19.03597 318.000
19.05592 341.000
19.07587 307.000
19.09581 323.000
19.11576 279.000
19.13571 316.000
19.15566 309.000
19.17560 341.000
19.19555 348.000
19.21550 313.000
19.23544 328.000
19.25539 308.000
19.27534 337.000
19.29528 324.000
19.31523 353.000
19.33518 335.000
19.35513 318.000
19.37507 340.000
19.39502 310.000
19.41497 358.000
19.43491 342.000
19.45486 312.000
19.47481 305.000
19.49475 343.000
19.51470 348.000
19.53465 341.000
19.55459 334.000
19.57454 315.000
19.59449 355.000
19.61444 344.000
19.63438 360.000
19.65433 357.000
19.67428 368.000
19.69422 355.000
19.71417 302.000
19.73412 335.000
19.75406 318.000
19.77401 310.000
19.79396 348.000
19.81391 385.000
19.83385 367.000
19.85380 348.000
19.87375 336.000
19.89369 323.000
19.91364 348.000
19.93359 321.000
19.95353 354.000
19.97348 346.000
19.99343 372.000
20.01337 346.000
20.03332 378.000
20.05327 328.000
20.07322 354.000
20.09316 339.000
20.11311 349.000
20.13306 364.000
20.15300 361.000
20.17295 380.000
20.19290 369.000
20.21284 342.000
20.23279 353.000
20.25274 369.000
20.27269 344.000
20.29263 371.000
20.31258 350.000
20.33253 398.000
20.35247 398.000
20.37242 389.000
20.39237 394.000
20.41231 373.000
20.43226 363.000
20.45221 369.000
20.47215 374.000
20.49210 384.000
20.51205 406.000
20.53200 344.000
20.55194 372.000
20.57189 396.000
20.59184 390.000
20.61178 363.000
20.63173 368.000
20.65168 384.000
20.67162 376.000
20.69157 380.000
20.71152 399.000
20.73147 368.000
20.75141 400.000
20.77136 436.000
20.79131 373.000
20.81125 435.000
20.83120 378.000
20.85115 388.000
20.87109 384.000
20.89104 384.000
20.91099 397.000
20.93094 356.000
20.95088 359.000
20.97083 434.000
20.99078 390.000
21.01072 359.000
21.03067 390.000
21.05062 377.000
21.07056 361.000
21.09051 416.000
21.11046 403.000
21.13040 386.000
21.15035 416.000
21.17030 390.000
21.19025 381.000
21.21019 406.000
21.23014 380.000
21.25009 393.000
21.27003 387.000
21.28998 373.000
21.30993 382.000
21.32987 414.000
21.34982 402.000
21.36977 396.000
21.38972 399.000
21.40966 397.000
21.42961 440.000
21.44956 360.000
21.46950 428.000
21.48945 377.000
21.50940 399.000
21.52934 400.000
21.54929 378.000
21.56924 414.000
21.58918 393.000
21.60913 411.000
21.62908 391.000
21.64903 430.000
21.66897 439.000
21.68892 423.000
21.70887 410.000
21.72881 438.000
21.74876 407.000
21.76871 430.000
21.78865 411.000
21.80860 426.000
21.82855 401.000
21.84850 417.000
21.86844 425.000
21.88839 444.000
21.90834 429.000
21.92828 420.000
21.94823 450.000
21.96818 412.000
21.98812 403.000
22.00807 438.000
22.02802 450.000
22.04796 443.000
22.06791 393.000
22.08786 447.000
22.10781 439.000
22.12775 406.000
22.14770 433.000
22.16765 455.000
22.18759 423.000
22.20754 433.000
22.22749 410.000
22.24743 449.000
22.26738 421.000
22.28733 422.000
22.30728 442.000
22.32722 443.000
22.34717 438.000
22.36712 448.000
22.38706 440.000
22.40701 456.000
22.42696 450.000
22.44690 468.000
22.46685 438.000
22.48680 450.000
22.50675 472.000
22.52669 474.000
22.54664 488.000
22.56659 471.000
22.58653 426.000
22.60648 448.000
22.62643 458.000
22.64637 435.000
22.66632 495.000
22.68627 480.000
22.70621 431.000
22.72616 458.000
22.74611 474.000
22.76606 459.000
22.78600 476.000
22.80595 488.000
22.82590 481.000
22.84584 464.000
22.86579 506.000
22.88574 473.000
22.90568 477.000
22.92563 438.000
22.94558 473.000
22.96553 524.000
22.98547 511.000
23.00542 460.000
23.02537 468.000
23.04531 469.000
23.06526 534.000
23.08521 504.000
23.10515 514.000
23.12510 495.000
23.14505 485.000
23.16499 431.000
23.18494 501.000
23.20489 442.000
23.22484 530.000
23.24478 466.000
23.26473 437.000
23.28468 456.000
23.30462 472.000
23.32457 453.000
23.34452 470.000
23.36446 528.000
23.38441 487.000
23.40436 502.000
23.42431 490.000
23.44425 488.000
23.46420 505.000
23.48415 490.000
23.50409 507.000
23.52404 510.000
23.54399 546.000
23.56393 479.000
23.58388 507.000
23.60383 575.000
23.62377 516.000
23.64372 471.000
23.66367 478.000
23.68362 488.000
23.70356 468.000
23.72351 485.000
23.74346 499.000
23.76340 513.000
23.78335 514.000
23.80330 472.000
23.82324 528.000
23.84319 482.000
23.86314 498.000
23.88309 524.000
23.90303 531.000
23.92298 546.000
23.94293 520.000
23.96287 535.000
23.98282 499.000
24.00277 492.000
24.02271 465.000
24.04266 540.000
24.06261 539.000
24.08256 571.000
24.10250 502.000
24.12245 505.000
24.14240 545.000
24.16234 517.000
24.18229 578.000
24.20224 532.000
24.22218 525.000
24.24213 501.000
24.26208 515.000
24.28202 543.000
24.30197 531.000
24.32192 506.000
24.34187 522.000
24.36181 567.000
24.38176 559.000
24.40171 540.000
24.42165 569.000
24.44160 528.000
24.46155 607.000
24.48149 568.000
24.50144 532.000
24.52139 577.000
24.54134 569.000
24.56128 526.000
24.58123 512.000
24.60118 572.000
24.62112 583.000
24.64107 513.000
24.66102 527.000
24.68096 564.000
24.70091 569.000
24.72086 563.000
24.74080 566.000
24.76075 577.000
24.78070 569.000
24.80065 584.000
24.82059 579.000
24.84054 538.000
24.86049 575.000
24.88043 558.000
24.90038 555.000
24.92033 580.000
24.94027 614.000
24.96022 625.000
24.98017 560.000
25.00012 620.000
25.02006 609.000
25.04001 572.000
25.05996 575.000
25.07990 577.000
25.09985 634.000
25.11980 565.000
25.13974 593.000
25.15969 579.000
25.17964 615.000
25.19958 616.000
25.21953 624.000
25.23948 596.000
25.25943 534.000
25.27937 597.000
25.29932 580.000
25.31927 606.000
25.33921 559.000
25.35916 629.000
25.37911 659.000
25.39905 593.000
25.41900 592.000
25.43895 651.000
25.45890 600.000
25.47884 631.000
25.49879 616.000
25.51874 680.000
25.53868 678.000
25.55863 676.000
25.57858 553.000
25.59852 624.000
25.61847 644.000
25.63842 628.000
25.65837 678.000
25.67831 664.000
25.69826 646.000
25.71821 641.000
25.73815 612.000
25.75810 631.000
25.77805 640.000
25.79799 677.000
25.81794 657.000
25.83789 658.000
25.85783 620.000
25.87778 655.000
25.89773 661.000
25.91768 658.000
25.93762 713.000
25.95757 669.000
25.97752 660.000
25.99746 693.000
26.01741 662.000
26.03736 709.000
26.05730 707.000
26.07725 670.000
26.09720 705.000
26.11715 657.000
26.13709 682.000
26.15704 706.000
26.17699 660.000
26.19693 713.000
26.21688 704.000
26.23683 711.000
26.25677 706.000
26.27672 703.000
26.29667 686.000
26.31661 690.000
26.33656 725.000
26.35651 744.000
26.37646 664.000
26.39640 677.000
26.41635 702.000
26.43630 702.000
26.45624 766.000
26.47619 691.000
26.49614 696.000
26.51608 736.000
26.53603 745.000
26.55598 728.000
26.57593 751.000
26.59587 723.000
26.61582 726.000
26.63577 731.000
26.65571 733.000
26.67566 759.000
26.69561 786.000
26.71555 777.000
26.73550 734.000
26.75545 782.000
26.77539 785.000
26.79534 744.000
26.81529 752.000
26.83524 796.000
26.85518 751.000
26.87513 744.000
26.89508 767.000
26.91502 745.000
26.93497 728.000
26.95492 791.000
26.97486 796.000
26.99481 823.000
27.01476 818.000
27.03471 781.000
27.05465 777.000
27.07460 778.000
27.09455 771.000
27.11449 805.000
27.13444 815.000
27.15439 816.000
27.17433 778.000
27.19428 822.000
27.21423 815.000
27.23417 816.000
27.25412 754.000
27.27407 751.000
27.29402 823.000
27.31396 801.000
27.33391 812.000
27.35386 806.000
27.37380 840.000
27.39375 808.000
27.41370 805.000
27.43364 776.000
27.45359 771.000
27.47354 793.000
27.49349 823.000
27.51343 775.000
27.53338 878.000
27.55333 873.000
27.57327 831.000
27.59322 858.000
27.61317 771.000
27.63311 880.000
27.65306 838.000
27.67301 836.000
27.69296 861.000
27.71290 876.000
27.73285 832.000
27.75280 864.000
27.77274 854.000
27.79269 862.000
27.81264 859.000
27.83258 854.000
27.85253 820.000
27.87248 817.000
27.89242 829.000
27.91237 813.000
27.93232 860.000
27.95227 859.000
27.97221 869.000
27.99216 900.000
28.01211 908.000
28.03205 832.000
28.05200 881.000
28.07195 874.000
28.09189 892.000
28.11184 795.000
28.13179 875.000
28.15174 891.000
28.17168 830.000
28.19163 859.000
28.21158 863.000
28.23152 905.000
28.25147 872.000
28.27142 898.000
28.29136 861.000
28.31131 867.000
28.33126 835.000
28.35120 881.000
28.37115 898.000
28.39110 881.000
28.41105 846.000
28.43099 861.000
28.45094 848.000
28.47089 848.000
28.49083 872.000
28.51078 912.000
28.53073 940.000
28.55067 846.000
28.57062 862.000
28.59057 880.000
28.61052 953.000
28.63046 928.000
28.65041 881.000
28.67036 870.000
28.69030 884.000
28.71025 870.000
28.73020 906.000
28.75014 887.000
28.77009 948.000
28.79004 880.000
28.80998 897.000
28.82993 903.000
28.84988 946.000
28.86983 893.000
28.88977 844.000
28.90972 938.000
28.92967 954.000
28.94961 942.000
28.96956 920.000
28.98951 948.000
29.00945 893.000
29.02940 897.000
29.04935 897.000
29.06930 945.000
29.08924 908.000
29.10919 958.000
29.12914 924.000
29.14908 910.000
29.16903 865.000
29.18898 921.000
29.20892 938.000
29.22887 884.000
29.24882 907.000
29.26877 898.000
29.28871 948.000
29.30866 935.000
29.32861 921.000
29.34855 934.000
29.36850 930.000
29.38845 942.000
29.40839 928.000
29.42834 896.000
29.44829 948.000
29.46823 938.000
29.48818 912.000
29.50813 894.000
29.52808 964.000
29.54802 892.000
29.56797 913.000
29.58792 904.000
29.60786 945.000
29.62781 905.000
29.64776 946.000
29.66770 910.000
29.68765 896.000
29.70760 880.000
29.72755 917.000
29.74749 914.000
29.76744 922.000
29.78739 913.000
29.80733 868.000
29.82728 916.000
29.84723 893.000
29.86717 935.000
29.88712 931.000
29.90707 895.000
29.92701 971.000
29.94696 913.000
29.96691 923.000
29.98686 896.000
30.00680 916.000
30.02675 894.000
30.04670 924.000
30.06664 922.000
30.08659 935.000
30.10654 915.000
30.12648 960.000
30.14643 966.000
30.16638 911.000
30.18633 903.000
30.20627 962.000
30.22622 907.000
30.24617 914.000
30.26611 915.000
30.28606 891.000
30.30601 968.000
30.32595 901.000
30.34590 878.000
30.36585 904.000
30.38579 960.000
30.40574 904.000
30.42569 886.000
30.44564 942.000
30.46558 940.000
30.48553 942.000
30.50548 929.000
30.52542 924.000
30.54537 852.000
30.56532 887.000
30.58526 863.000
30.60521 917.000
30.62516 934.000
30.64511 929.000
30.66505 904.000
30.68500 875.000
30.70495 926.000
30.72489 894.000
30.74484 907.000
30.76479 920.000
30.78473 910.000
30.80468 925.000
30.82463 878.000
30.84458 941.000
30.86452 930.000
30.88447 923.000
30.90442 888.000
30.92436 825.000
30.94431 910.000
30.96426 894.000
30.98420 888.000
31.00415 901.000
31.02410 878.000
31.04404 924.000
31.06399 860.000
31.08394 936.000
31.10389 864.000
31.12383 874.000
31.14378 927.000
31.16373 872.000
31.18367 899.000
31.20362 859.000
31.22357 902.000
31.24351 777.000
31.26346 848.000
31.28341 906.000
31.30336 812.000
31.32330 870.000
31.34325 904.000
31.36320 841.000
31.38314 866.000
31.40309 852.000
31.42304 813.000
31.44298 825.000
31.46293 856.000
31.48288 842.000
31.50282 851.000
31.52277 879.000
31.54272 866.000
31.56267 924.000
31.58261 860.000
31.60256 869.000
31.62251 828.000
31.64245 860.000
31.66240 856.000
31.68235 853.000
31.70229 858.000
31.72224 779.000
31.74219 894.000
31.76214 884.000
31.78208 891.000
31.80203 809.000
31.82198 853.000
31.84192 874.000
31.86187 836.000
31.88182 852.000
31.90176 845.000
31.92171 861.000
31.94166 836.000
31.96160 822.000
31.98155 862.000
32.00150 869.000
32.02145 868.000
32.04139 839.000
32.06134 865.000
32.08129 870.000
32.10123 847.000
32.12118 762.000
32.14113 838.000
32.16107 770.000
32.18102 808.000
32.20097 758.000
32.22092 855.000
32.24086 795.000
32.26081 858.000
32.28076 759.000
32.30070 830.000
32.32065 841.000
32.34060 827.000
32.36054 801.000
32.38049 863.000
32.40044 841.000
32.42039 793.000
32.44033 847.000
32.46028 804.000
32.48023 805.000
32.50017 826.000
32.52012 809.000
32.54007 810.000
32.56001 830.000
32.57996 734.000
32.59991 838.000
32.61985 755.000
32.63980 816.000
32.65975 817.000
32.67970 809.000
32.69964 766.000
32.71959 768.000
32.73954 825.000
32.75948 789.000
32.77943 776.000
32.79938 802.000
32.81932 796.000
32.83927 784.000
32.85922 771.000
32.87917 818.000
32.89911 831.000
32.91906 805.000
32.93901 791.000
32.95895 765.000
32.97890 758.000
32.99885 771.000
33.01879 776.000
33.03874 734.000
33.05869 770.000
33.07863 756.000
33.09858 796.000
33.11853 750.000
33.13848 781.000
33.15842 708.000
33.17837 750.000
33.19832 724.000
33.21826 726.000
33.23821 719.000
33.25816 742.000
33.27810 796.000
33.29805 790.000
33.31800 799.000
33.33795 771.000
33.35789 725.000
33.37784 727.000
33.39779 716.000
33.41773 710.000
33.43768 820.000
33.45763 706.000
33.47757 739.000
33.49752 701.000
33.51747 706.000
33.53741 716.000
33.55736 705.000
33.57731 745.000
33.59726 752.000
33.61720 728.000
33.63715 724.000
33.65710 716.000
33.67704 728.000
33.69699 710.000
33.71694 722.000
33.73688 745.000
33.75683 709.000
33.77678 715.000
33.79673 707.000
33.81667 749.000
33.83662 726.000
33.85657 696.000
33.87651 699.000
33.89646 737.000
33.91641 702.000
33.93635 667.000
33.95630 675.000
33.97625 712.000
33.99620 688.000
34.01614 676.000
34.03609 720.000
34.05604 710.000
34.07598 667.000
34.09593 698.000
34.11588 716.000
34.13582 707.000
34.15577 664.000
34.17572 711.000
34.19566 691.000
34.21561 732.000
34.23556 681.000
34.25551 711.000
34.27545 705.000
34.29540 685.000
34.31535 658.000
34.33529 693.000
34.35524 692.000
34.37519 747.000
34.39513 694.000
34.41508 722.000
34.43503 630.000
34.45498 735.000
34.47492 684.000
34.49487 630.000
34.51482 635.000
34.53476 666.000
34.55471 678.000
34.57466 681.000
34.59460 690.000
34.61455 678.000
34.63450 696.000
34.65444 691.000
34.67439 645.000
34.69434 644.000
34.71429 677.000
34.73423 698.000
34.75418 706.000
34.77413 635.000
34.79407 643.000
34.81402 634.000
34.83397 648.000
34.85391 670.000
34.87386 650.000
34.89381 633.000
34.91376 644.000
34.93370 657.000
34.95365 633.000
34.97360 635.000
34.99354 622.000
35.01349 673.000
35.03344 661.000
35.05338 641.000
35.07333 667.000
35.09328 639.000
35.11322 681.000
35.13317 643.000
35.15312 613.000
35.17307 620.000
35.19301 613.000
35.21296 607.000
35.23291 600.000
35.25285 625.000
35.27280 641.000
35.29275 606.000
35.31269 641.000
35.33264 622.000
35.35259 634.000
35.37254 661.000
35.39248 635.000
35.41243 617.000
35.43238 587.000
35.45232 635.000
35.47227 582.000
35.49222 593.000
35.51216 560.000
35.53211 581.000
35.55206 627.000
35.57201 609.000
35.59195 623.000
35.61190 588.000
35.63185 565.000
35.65179 640.000
35.67174 631.000
35.69169 603.000
35.71163 650.000
35.73158 555.000
35.75153 608.000
35.77147 586.000
35.79142 583.000
35.81137 638.000
35.83132 599.000
35.85126 604.000
35.87121 614.000
35.89116 612.000
35.91110 584.000
35.93105 614.000
35.95100 600.000
35.97094 566.000
35.99089 579.000
36.01084 593.000
36.03079 603.000
36.05073 593.000
36.07068 617.000
36.09063 622.000
36.11057 619.000
36.13052 577.000
36.15047 617.000
36.17041 624.000
36.19036 609.000
36.21031 666.000
36.23025 604.000
36.25020 628.000
36.27015 653.000
36.29010 594.000
36.31004 655.000
36.32999 657.000
36.34994 648.000
36.36988 650.000
36.38983 697.000
36.40978 657.000
36.42972 677.000
36.44967 692.000
36.46962 666.000
36.48957 746.000
36.50951 694.000
36.52946 780.000
36.54941 699.000
36.56935 765.000
36.58930 822.000
36.60925 874.000
36.62919 905.000
36.64914 937.000
36.66909 997.000
36.68903 1041.000
36.70898 1077.000
36.72893 1047.000
36.74888 1103.000
36.76882 1041.000
36.78877 1084.000
36.80872 1049.000
36.82866 1027.000
36.84861 977.000
36.86856 952.000
36.88850 996.000
36.90845 983.000
36.92840 1050.000
36.94835 1057.000
36.96829 1081.000
36.98824 1041.000
37.00819 1133.000
37.02813 1098.000
37.04808 1232.000
37.06803 1381.000
37.08797 1557.000
37.10792 1850.000
37.12787 2237.000
37.14781 2845.000
37.16776 3450.000
37.18771 3897.000
37.20766 3848.000
37.22760 3321.000
37.24755 3054.000
37.26750 2822.000
37.28744 2572.000
37.30739 2284.000
37.32734 1751.000
37.34728 1384.000
37.36723 1198.000
37.38718 1007.000
37.40713 922.000
37.42707 861.000
37.44702 724.000
37.46697 716.000
37.48691 690.000
37.50686 673.000
37.52681 647.000
37.54675 669.000
37.56670 680.000
37.58665 669.000
37.60660 666.000
37.62654 628.000
37.64649 618.000
37.66644 585.000
37.68638 666.000
37.70633 574.000
37.72628 602.000
37.74622 654.000
37.76617 615.000
37.78612 576.000
37.80606 567.000
37.82601 559.000
37.84596 560.000
37.86591 597.000
37.88585 619.000
37.90580 605.000
37.92575 624.000
37.94569 634.000
37.96564 533.000
37.98559 577.000
38.00553 606.000
38.02548 599.000
38.04543 603.000
38.06538 561.000
38.08532 584.000
38.10527 566.000
38.12522 555.000
38.14516 585.000
38.16511 611.000
38.18506 579.000
38.20500 599.000
38.22495 598.000
38.24490 634.000
38.26484 593.000
38.28479 588.000
38.30474 557.000
38.32469 624.000
38.34463 570.000
38.36458 556.000
38.38453 585.000
38.40447 590.000
38.42442 549.000
38.44437 573.000
38.46431 583.000
38.48426 620.000
38.50421 570.000
38.52416 567.000
38.54410 579.000
38.56405 554.000
38.58400 588.000
38.60394 570.000
38.62389 568.000
38.64384 566.000
38.66378 563.000
38.68373 565.000
38.70368 577.000
38.72362 599.000
38.74357 572.000
38.76352 560.000
38.78347 585.000
38.80341 580.000
38.82336 563.000
38.84331 578.000
38.86325 546.000
38.88320 587.000
38.90315 567.000
38.92309 570.000
38.94304 568.000
38.96299 577.000
38.98294 550.000
39.00288 616.000
39.02283 573.000
39.04278 607.000
39.06272 525.000
39.08267 564.000
39.10262 567.000
39.12256 594.000
39.14251 583.000
39.16246 575.000
39.18241 552.000
39.20235 577.000
39.22230 557.000
39.24225 596.000
39.26219 589.000
39.28214 577.000
39.30209 577.000
39.32203 567.000
39.34198 560.000
39.36193 530.000
39.38187 577.000
39.40182 523.000
39.42177 561.000
39.44172 574.000
39.46166 584.000
39.48161 581.000
39.50156 535.000
39.52150 576.000
39.54145 580.000
39.56140 573.000
39.58134 559.000
39.60129 559.000
39.62124 546.000
39.64119 593.000
39.66113 588.000
39.68108 573.000
39.70103 561.000
39.72097 560.000
39.74092 616.000
39.76087 573.000
39.78081 550.000
39.80076 566.000
39.82071 575.000
39.84065 530.000
39.86060 539.000
39.88055 565.000
39.90050 544.000
39.92044 600.000
39.94039 576.000
39.96034 599.000
39.98028 581.000
40.00023 538.000
40.02018 548.000
40.04012 602.000
40.06007 599.000
40.08002 566.000
40.09997 596.000
40.11991 529.000
40.13986 540.000
40.15981 594.000
40.17975 575.000
40.19970 590.000
40.21965 518.000
40.23959 557.000
40.25954 580.000
40.27949 557.000
40.29943 591.000
40.31938 546.000
40.33933 557.000
40.35928 568.000
40.37922 554.000
40.39917 618.000
40.41912 604.000
40.43906 510.000
40.45901 545.000
40.47896 574.000
40.49890 597.000
40.51885 646.000
40.53880 561.000
40.55875 551.000
40.57869 565.000
40.59864 596.000
40.61859 568.000
40.63853 571.000
40.65848 573.000
40.67843 510.000
40.69837 536.000
40.71832 587.000
40.73827 605.000
40.75822 579.000
40.77816 581.000
40.79811 617.000
40.81806 643.000
40.83800 545.000
40.85795 575.000
40.87790 562.000
40.89784 551.000
40.91779 574.000
40.93774 583.000
40.95768 576.000
40.97763 574.000
40.99758 551.000
41.01753 585.000
41.03747 572.000
41.05742 572.000
41.07737 618.000
41.09731 618.000
41.11726 561.000
41.13721 552.000
41.15715 547.000
41.17710 561.000
41.19705 556.000
41.21700 581.000
41.23694 620.000
41.25689 541.000
41.27684 556.000
41.29678 539.000
41.31673 601.000
41.33668 562.000
41.35662 531.000
41.37657 577.000
41.39652 545.000
41.41646 541.000
41.43641 535.000
41.45636 580.000
41.47631 547.000
41.49625 599.000
41.51620 571.000
41.53615 547.000
41.55609 593.000
41.57604 568.000
41.59599 582.000
41.61593 568.000
41.63588 579.000
41.65583 557.000
41.67578 602.000
41.69572 563.000
41.71567 538.000
41.73562 544.000
41.75556 536.000
41.77551 577.000
41.79546 522.000
41.81540 583.000
41.83535 594.000
41.85530 592.000
41.87524 555.000
41.89519 578.000
41.91514 522.000
41.93509 592.000
41.95503 539.000
41.97498 595.000
41.99493 557.000
42.01487 566.000
42.03482 538.000
42.05477 590.000
42.07471 594.000
42.09466 585.000
42.11461 590.000
42.13456 576.000
42.15450 567.000
42.17445 629.000
42.19440 599.000
42.21434 602.000
42.23429 609.000
42.25424 632.000
42.27418 609.000
42.29413 593.000
42.31408 696.000
42.33403 651.000
42.35397 721.000
42.37392 710.000
42.39387 711.000
42.41381 788.000
42.43376 750.000
42.45371 772.000
42.47365 823.000
42.49360 864.000
42.51355 870.000
42.53349 886.000
42.55344 881.000
42.57339 1008.000
42.59334 1058.000
42.61328 1025.000
42.63323 1105.000
42.65318 1194.000
42.67312 1328.000
42.69307 1364.000
42.71302 1502.000
42.73296 1499.000
42.75291 1527.000
42.77286 1541.000
42.79281 1526.000
42.81275 1456.000
42.83270 1482.000
42.85265 1396.000
42.87259 1355.000
42.89254 1370.000
42.91249 1307.000
42.93243 1273.000
42.95238 1383.000
42.97233 1390.000
42.99227 1375.000
43.01222 1413.000
43.03217 1503.000
43.05212 1504.000
43.07206 1585.000
43.09201 1702.000
43.11196 1951.000
43.13190 2308.000
43.15185 2798.000
43.17180 3599.000
43.19174 4513.000
43.21169 5524.000
43.23164 6195.000
43.25159 5484.000
43.27153 4452.000
43.29148 3715.000
43.31143 3626.000
43.33137 3732.000
43.35132 3549.000
43.37127 2921.000
43.39121 2096.000
43.41116 1544.000
43.43111 1170.000
43.45105 1001.000
43.47100 853.000
43.49095 800.000
43.51090 749.000
43.53084 735.000
43.55079 699.000
43.57074 601.000
43.59068 614.000
43.61063 619.000
43.63058 602.000
43.65052 618.000
43.67047 641.000
43.69042 592.000
43.71037 590.000
43.73031 592.000
43.75026 562.000
43.77021 564.000
43.79015 579.000
43.81010 601.000
43.83005 552.000
43.84999 511.000
43.86994 540.000
43.88989 573.000
43.90984 519.000
43.92978 493.000
43.94973 502.000
43.96968 524.000
43.98962 532.000
44.00957 561.000
44.02952 498.000
44.04946 535.000
44.06941 578.000
44.08936 525.000
44.10930 486.000
44.12925 493.000
44.14920 520.000
44.16915 508.000
44.18909 517.000
44.20904 482.000
44.22899 480.000
44.24893 501.000
44.26888 489.000
44.28883 493.000
44.30877 551.000
44.32872 491.000
44.34867 517.000
44.36862 489.000
44.38856 542.000
44.40851 505.000
44.42846 524.000
44.44840 486.000
44.46835 486.000
44.48830 506.000
44.50824 502.000
44.52819 511.000
44.54814 506.000
44.56808 493.000
44.58803 465.000
44.60798 500.000
44.62793 515.000
44.64787 485.000
44.66782 471.000
44.68777 488.000
44.70771 453.000
44.72766 498.000
44.74761 464.000
44.76755 481.000
44.78750 471.000
44.80745 502.000
44.82740 470.000
44.84734 462.000
44.86729 492.000
44.88724 444.000
44.90718 528.000
44.92713 506.000
44.94708 469.000
44.96702 524.000
44.98697 457.000
45.00692 450.000
45.02686 499.000
45.04681 474.000
45.06676 442.000
45.08671 439.000
45.10665 463.000
45.12660 502.000
45.14655 472.000
45.16649 444.000
45.18644 460.000
45.20639 473.000
45.22633 454.000
45.24628 457.000
45.26623 430.000
45.28618 485.000
45.30612 458.000
45.32607 464.000
45.34602 458.000
45.36596 442.000
45.38591 483.000
45.40586 459.000
45.42580 442.000
45.44575 452.000
45.46570 492.000
45.48565 443.000
45.50559 443.000
45.52554 454.000
45.54549 452.000
45.56543 432.000
45.58538 423.000
45.60533 432.000
45.62527 448.000
45.64522 446.000
45.66517 415.000
45.68511 429.000
45.70506 410.000
45.72501 407.000
45.74496 449.000
45.76490 478.000
45.78485 428.000
45.80480 417.000
45.82474 434.000
45.84469 410.000
45.86464 437.000
45.88458 412.000
45.90453 451.000
45.92448 417.000
45.94443 414.000
45.96437 430.000
45.98432 421.000
46.00427 405.000
46.02421 414.000
46.04416 479.000
46.06411 424.000
46.08405 428.000
46.10400 407.000
46.12395 431.000
46.14389 422.000
46.16384 401.000
46.18379 425.000
46.20374 428.000
46.22368 363.000
46.24363 445.000
46.26358 418.000
46.28352 428.000
46.30347 437.000
46.32342 405.000
46.34336 455.000
46.36331 397.000
46.38326 401.000
46.40321 432.000
46.42315 420.000
46.44310 416.000
46.46305 406.000
46.48299 437.000
46.50294 436.000
46.52289 435.000
46.54283 456.000
46.56278 409.000
46.58273 393.000
46.60267 396.000
46.62262 376.000
46.64257 421.000
46.66252 453.000
46.68246 429.000
46.70241 420.000
46.72236 404.000
46.74230 402.000
46.76225 426.000
46.78220 401.000
46.80214 395.000
46.82209 406.000
46.84204 418.000
46.86199 413.000
46.88193 393.000
46.90188 427.000
46.92183 395.000
46.94177 415.000
46.96172 396.000
46.98167 409.000
47.00161 407.000
47.02156 404.000
47.04151 450.000
47.06146 426.000
47.08140 438.000
47.10135 445.000
47.12130 422.000
47.14124 414.000
47.16119 407.000
47.18114 387.000
47.20108 409.000
47.22103 412.000
47.24098 385.000
47.26092 396.000
47.28087 398.000
47.30082 386.000
47.32077 424.000
47.34071 415.000
47.36066 419.000
47.38061 440.000
47.40055 423.000
47.42050 427.000
47.44045 396.000
47.46039 386.000
47.48034 402.000
47.50029 404.000
47.52024 434.000
47.54018 371.000
47.56013 353.000
47.58008 361.000
47.60002 415.000
47.61997 392.000
47.63992 372.000
47.65986 403.000
47.67981 354.000
47.69976 430.000
47.71970 423.000
47.73965 409.000
47.75960 380.000
47.77955 381.000
47.79949 369.000
47.81944 398.000
47.83939 368.000
47.85933 390.000
47.87928 364.000
47.89923 401.000
47.91917 394.000
47.93912 362.000
47.95907 354.000
47.97902 403.000
47.99896 413.000
48.01891 420.000
48.03886 418.000
48.05880 390.000
48.07875 365.000
48.09870 401.000
48.11864 356.000
48.13859 376.000
48.15854 406.000
48.17848 360.000
48.19843 389.000
48.21838 429.000
48.23833 377.000
48.25827 341.000
48.27822 355.000
48.29817 347.000
48.31811 362.000
48.33806 404.000
48.35801 361.000
48.37795 403.000
48.39790 364.000
48.41785 404.000
48.43780 380.000
48.45774 371.000
48.47769 371.000
48.49764 380.000
48.51758 366.000
48.53753 362.000
48.55748 386.000
48.57742 340.000
48.59737 389.000
48.61732 339.000
48.63726 338.000
48.65721 381.000
48.67716 390.000
48.69711 386.000
48.71705 358.000
48.73700 392.000
48.75695 388.000
48.77689 343.000
48.79684 378.000
48.81679 390.000
48.83673 368.000
48.85668 382.000
48.87663 366.000
48.89658 376.000
48.91652 399.000
48.93647 364.000
48.95642 399.000
48.97636 406.000
48.99631 355.000
49.01626 366.000
49.03620 399.000
49.05615 373.000
49.07610 407.000
49.09605 360.000
49.11599 369.000
49.13594 370.000
49.15589 365.000
49.17583 383.000
49.19578 373.000
49.21573 375.000
49.23567 368.000
49.25562 410.000
49.27557 349.000
49.29551 372.000
49.31546 335.000
49.33541 372.000
49.35536 397.000
49.37530 371.000
49.39525 380.000
49.41520 387.000
49.43514 360.000
49.45509 362.000
49.47504 408.000
49.49498 367.000
49.51493 367.000
49.53488 363.000
49.55483 374.000
49.57477 394.000
49.59472 357.000
49.61467 381.000
49.63461 366.000
49.65456 355.000
49.67451 366.000
49.69445 372.000
49.71440 379.000
49.73435 388.000
49.75429 359.000
49.77424 355.000
49.79419 378.000
49.81414 378.000
49.83408 378.000
49.85403 360.000
49.87398 352.000
49.89392 382.000
49.91387 374.000
49.93382 382.000
49.95376 365.000
49.97371 353.000
49.99366 355.000
50.01361 355.000
50.03355 348.000
50.05350 386.000
50.07345 385.000
50.09339 379.000
50.11334 364.000
50.13329 364.000
50.15323 363.000
50.17318 339.000
50.19313 360.000
50.21307 355.000
50.23302 334.000
50.25297 348.000
50.27292 347.000
50.29286 345.000
50.31281 429.000
50.33276 399.000
50.35270 390.000
50.37265 354.000
50.39260 365.000
50.41254 351.000
50.43249 380.000
50.45244 351.000
50.47239 354.000
50.49233 358.000
50.51228 333.000
50.53223 388.000
50.55217 367.000
50.57212 355.000
50.59207 365.000
50.61201 374.000
50.63196 376.000
50.65191 351.000
50.67186 335.000
50.69180 355.000
50.71175 398.000
50.73170 368.000
50.75164 342.000
50.77159 366.000
50.79154 369.000
50.81148 379.000
50.83143 334.000
50.85138 376.000
50.87132 378.000
50.89127 344.000
50.91122 374.000
50.93117 368.000
50.95111 369.000
50.97106 323.000
50.99101 349.000
51.01095 360.000
51.03090 325.000
51.05085 349.000
51.07079 359.000
51.09074 368.000
51.11069 377.000
51.13064 337.000
51.15058 369.000
51.17053 323.000
51.19048 366.000
51.21042 319.000
51.23037 357.000
51.25032 370.000
51.27026 337.000
51.29021 352.000
51.31016 360.000
51.33010 390.000
51.35005 363.000
51.37000 349.000
51.38995 371.000
51.40989 334.000
51.42984 322.000
51.44979 341.000
51.46973 331.000
51.48968 334.000
51.50963 337.000
51.52957 354.000
51.54952 354.000
51.56947 357.000
51.58942 332.000
51.60936 359.000
51.62931 326.000
51.64926 333.000
51.66920 330.000
51.68915 335.000
51.70910 382.000
51.72904 364.000
51.74899 321.000
51.76894 314.000
51.78888 361.000
51.80883 348.000
51.82878 363.000
51.84873 345.000
51.86867 395.000
51.88862 368.000
51.90857 342.000
51.92851 318.000
51.94846 349.000
51.96841 364.000
51.98835 334.000
52.00830 314.000
52.02825 350.000
52.04820 363.000
52.06814 366.000
52.08809 384.000
52.10804 337.000
52.12798 317.000
52.14793 369.000
52.16788 327.000
52.18782 324.000
52.20777 365.000
52.22772 366.000
52.24767 355.000
52.26761 313.000
52.28756 380.000
52.30751 353.000
52.32745 342.000
52.34740 333.000
52.36735 357.000
52.38729 344.000
52.40724 345.000
52.42719 339.000
52.44713 359.000
52.46708 378.000
52.48703 363.000
52.50698 349.000
52.52692 357.000
52.54687 314.000
52.56682 356.000
52.58676 368.000
52.60671 335.000
52.62666 326.000
52.64660 326.000
52.66655 332.000
52.68650 329.000
52.70645 374.000
52.72639 352.000
52.74634 322.000
52.76629 330.000
52.78623 367.000
52.80618 335.000
52.82613 368.000
52.84607 356.000
52.86602 330.000
52.88597 334.000
52.90591 356.000
52.92586 373.000
52.94581 370.000
52.96576 362.000
52.98570 322.000
53.00565 322.000
53.02560 349.000
53.04554 321.000
53.06549 295.000
53.08544 346.000
53.10538 342.000
53.12533 339.000
53.14528 346.000
53.16523 318.000
53.18517 337.000
53.20512 368.000
53.22507 340.000
53.24501 338.000
53.26496 345.000
53.28491 344.000
53.30485 374.000
53.32480 343.000
53.34475 359.000
53.36469 326.000
53.38464 348.000
53.40459 331.000
53.42454 328.000
53.44448 308.000
53.46443 350.000
53.48438 348.000
53.50432 343.000
53.52427 344.000
53.54422 356.000
53.56416 379.000
53.58411 324.000
53.60406 324.000
53.62401 348.000
53.64395 324.000
53.66390 332.000
53.68385 393.000
53.70379 321.000
53.72374 347.000
53.74369 311.000
53.76363 342.000
53.78358 313.000
53.80353 336.000
53.82348 363.000
53.84342 316.000
53.86337 302.000
53.88332 298.000
53.90326 343.000
53.92321 330.000
53.94316 350.000
53.96310 314.000
53.98305 315.000
54.00300 359.000
54.02294 336.000
54.04289 321.000
54.06284 342.000
54.08279 310.000
54.10273 311.000
54.12268 341.000
54.14263 352.000
54.16257 343.000
54.18252 309.000
54.20247 362.000
54.22241 329.000
54.24236 325.000
54.26231 333.000
54.28226 312.000
54.30220 345.000
54.32215 302.000
54.34210 305.000
54.36204 360.000
54.38199 346.000
54.40194 322.000
54.42188 319.000
54.44183 323.000
54.46178 367.000
54.48172 336.000
54.50167 339.000
54.52162 345.000
54.54157 351.000
54.56151 369.000
54.58146 321.000
54.60141 337.000
54.62135 345.000
54.64130 322.000
54.66125 333.000
54.68119 324.000
54.70114 337.000
54.72109 316.000
54.74104 318.000
54.76098 343.000
54.78093 307.000
54.80088 321.000
54.82082 333.000
54.84077 350.000
54.86072 335.000
54.88066 347.000
54.90061 347.000
54.92056 310.000
54.94050 340.000
54.96045 346.000
54.98040 316.000
55.00035 335.000
55.02029 330.000
55.04024 314.000
55.06019 320.000
55.08013 307.000
55.10008 332.000
55.12003 355.000
55.13997 372.000
55.15992 344.000
55.17987 338.000
55.19982 360.000
55.21976 328.000
55.23971 321.000
55.25966 345.000
55.27960 368.000
55.29955 324.000
55.31950 310.000
55.33944 310.000
55.35939 314.000
55.37934 350.000
55.39929 300.000
55.41923 297.000
55.43918 322.000
55.45913 313.000
55.47907 332.000
55.49902 292.000
55.51897 296.000
55.53891 324.000
55.55886 358.000
55.57881 317.000
55.59875 332.000
55.61870 325.000
55.63865 327.000
55.65860 310.000
55.67854 336.000
55.69849 344.000
55.71844 325.000
55.73838 328.000
55.75833 341.000
55.77828 335.000
55.79822 344.000
55.81817 357.000
55.83812 319.000
55.85807 317.000
55.87801 342.000
55.89796 311.000
55.91791 310.000
55.93785 336.000
55.95780 318.000
55.97775 342.000
55.99769 315.000
56.01764 316.000
56.03759 346.000
56.05753 337.000
56.07748 307.000
56.09743 303.000
56.11738 344.000
56.13732 334.000
56.15727 314.000
56.17722 329.000
56.19716 345.000
56.21711 328.000
56.23706 319.000
56.25700 315.000
56.27695 324.000
56.29690 336.000
56.31685 329.000
56.33679 311.000
56.35674 339.000
56.37669 336.000
56.39663 340.000
56.41658 287.000
56.43653 345.000
56.45647 333.000
56.47642 316.000
56.49637 324.000
56.51631 300.000
56.53626 308.000
56.55621 340.000
56.57616 339.000
56.59610 344.000
56.61605 309.000
56.63600 310.000
56.65594 330.000
56.67589 301.000
56.69584 333.000
56.71578 346.000
56.73573 330.000
56.75568 341.000
56.77563 333.000
56.79557 317.000
56.81552 284.000
56.83547 303.000
56.85541 300.000
56.87536 313.000
56.89531 313.000
56.91525 324.000
56.93520 298.000
56.95515 336.000
56.97510 297.000
56.99504 308.000
57.01499 314.000
57.03494 311.000
57.05488 288.000
57.07483 339.000
57.09478 325.000
57.11472 310.000
57.13467 320.000
57.15462 349.000
57.17456 290.000
57.19451 323.000
57.21446 306.000
57.23441 314.000
57.25435 330.000
57.27430 308.000
57.29425 299.000
57.31419 336.000
57.33414 355.000
57.35409 353.000
57.37403 343.000
57.39398 322.000
57.41393 346.000
57.43388 284.000
57.45382 313.000
57.47377 309.000
57.49372 297.000
57.51366 311.000
57.53361 307.000
57.55356 310.000
57.57350 328.000
57.59345 291.000
57.61340 315.000
57.63334 343.000
57.65329 299.000
57.67324 302.000
57.69319 336.000
57.71313 312.000
57.73308 330.000
57.75303 351.000
57.77297 295.000
57.79292 321.000
57.81287 294.000
57.83281 297.000
57.85276 324.000
57.87271 315.000
57.89266 270.000
57.91260 314.000
57.93255 307.000
57.95250 293.000
57.97244 293.000
57.99239 296.000
58.01234 320.000
58.03228 333.000
58.05223 325.000
58.07218 326.000
58.09212 307.000
58.11207 283.000
58.13202 340.000
58.15197 322.000
58.17191 293.000
58.19186 353.000
58.21181 329.000
58.23175 327.000
58.25170 298.000
58.27165 352.000
58.29159 299.000
58.31154 291.000
58.33149 309.000
58.35144 313.000
58.37138 296.000
58.39133 320.000
58.41128 299.000
58.43122 335.000
58.45117 307.000
58.47112 322.000
58.49106 299.000
58.51101 324.000
58.53096 326.000
58.55090 291.000
58.57085 290.000
58.59080 315.000
58.61075 312.000
58.63069 304.000
58.65064 295.000
58.67059 286.000
58.69053 295.000
58.71048 316.000
58.73043 327.000
58.75037 292.000
58.77032 298.000
58.79027 296.000
58.81022 295.000
58.83016 289.000
58.85011 329.000
58.87006 304.000
58.89000 320.000
58.90995 290.000
58.92990 332.000
58.94984 313.000
58.96979 312.000
58.98974 282.000
59.00969 291.000
59.02963 301.000
59.04958 310.000
59.06953 328.000
59.08947 315.000
59.10942 306.000
59.12937 321.000
59.14931 308.000
59.16926 315.000
59.18921 319.000
59.20915 326.000
59.22910 300.000
59.24905 280.000
59.26900 315.000
59.28894 290.000
59.30889 303.000
59.32884 259.000
59.34878 309.000
59.36873 300.000
59.38868 327.000
59.40862 287.000
59.42857 307.000
59.44852 313.000
59.46847 273.000
59.48841 337.000
59.50836 297.000
59.52831 335.000
59.54825 320.000
59.56820 300.000
59.58815 313.000
59.60809 307.000
59.62804 278.000
59.64799 297.000
59.66793 290.000
59.68788 310.000
59.70783 291.000
59.72778 311.000
59.74772 284.000
59.76767 298.000
59.78762 309.000
59.80756 313.000
59.82751 295.000
59.84746 285.000
59.86740 314.000
59.88735 296.000
59.90730 322.000
59.92725 304.000
59.94719 323.000
59.96714 321.000
59.98709 297.000
60.00703 307.000
60.02698 309.000
60.04693 299.000
60.06687 313.000
60.08682 312.000
60.10677 312.000
60.12671 307.000
60.14666 312.000
60.16661 303.000
60.18656 310.000
60.20650 311.000
60.22645 278.000
60.24640 301.000
60.26634 308.000
60.28629 269.000
60.30624 290.000
60.32618 354.000
60.34613 284.000
60.36608 300.000
60.38603 308.000
60.40597 322.000
60.42592 288.000
60.44587 300.000
60.46581 313.000
60.48576 273.000
60.50571 278.000
60.52565 276.000
60.54560 317.000
60.56555 341.000
60.58550 305.000
60.60544 323.000
60.62539 297.000
60.64534 327.000
60.66528 308.000
60.68523 300.000
60.70518 322.000
60.72512 309.000
60.74507 298.000
60.76502 296.000
60.78496 286.000
60.80491 288.000
60.82486 294.000
60.84481 312.000
60.86475 294.000
60.88470 270.000
60.90465 333.000
60.92459 338.000
60.94454 290.000
60.96449 306.000
60.98443 308.000
61.00438 293.000
61.02433 324.000
61.04428 300.000
61.06422 313.000
61.08417 340.000
61.10412 295.000
61.12406 343.000
61.14401 278.000
61.16396 330.000
61.18390 320.000
61.20385 280.000
61.22380 324.000
61.24374 300.000
61.26369 279.000
61.28364 350.000
61.30359 298.000
61.32353 286.000
61.34348 308.000
61.36343 281.000
61.38337 299.000
61.40332 292.000
61.42327 298.000
61.44321 301.000
61.46316 284.000
61.48311 312.000
61.50306 298.000
61.52300 316.000
61.54295 288.000
61.56290 298.000
61.58284 322.000
61.60279 359.000
61.62274 334.000
61.64268 317.000
61.66263 321.000
61.68258 301.000
61.70252 321.000
61.72247 337.000
61.74242 340.000
61.76237 337.000
61.78231 314.000
61.80226 322.000
61.82221 334.000
61.84215 351.000
61.86210 353.000
61.88205 341.000
61.90199 365.000
61.92194 366.000
61.94189 376.000
61.96184 384.000
61.98178 414.000
62.00173 478.000
62.02168 487.000
62.04162 489.000
62.06157 515.000
62.08152 521.000
62.10146 578.000
62.12141 604.000
62.14136 607.000
62.16131 662.000
62.18125 667.000
62.20120 606.000
62.22115 679.000
62.24109 728.000
62.26104 756.000
62.28099 762.000
62.30093 803.000
62.32088 800.000
62.34083 830.000
62.36077 897.000
62.38072 935.000
62.40067 906.000
62.42062 927.000
62.44056 929.000
62.46051 886.000
62.48046 893.000
62.50040 963.000
62.52035 943.000
62.54030 932.000
62.56024 980.000
62.58019 954.000
62.60014 955.000
62.62009 1040.000
62.64003 1038.000
62.65998 1084.000
62.67993 1211.000
62.69987 1356.000
62.71982 1479.000
62.73977 1655.000
62.75971 1858.000
62.77966 2082.000
62.79961 2169.000
62.81955 2269.000
62.83950 2135.000
62.85945 2023.000
62.87940 1812.000
62.89934 1678.000
62.91929 1579.000
62.93924 1488.000
62.95918 1443.000
62.97913 1438.000
62.99908 1336.000
63.01902 1263.000
63.03897 1084.000
63.05892 971.000
63.07887 841.000
63.09881 701.000
63.11876 595.000
63.13871 505.000
63.15865 532.000
63.17860 464.000
63.19855 415.000
63.21849 423.000
63.23844 396.000
63.25839 399.000
63.27833 369.000
63.29828 393.000
63.31823 351.000
63.33818 342.000
63.35812 360.000
63.37807 357.000
63.39802 304.000
63.41796 357.000
63.43791 321.000
63.45786 302.000
63.47780 345.000
63.49775 357.000
63.51770 325.000
63.53765 334.000
63.55759 297.000
63.57754 281.000
63.59749 328.000
63.61743 322.000
63.63738 333.000
63.65733 309.000
63.67727 296.000
63.69722 322.000
63.71717 319.000
63.73712 302.000
63.75706 300.000
63.77701 308.000
63.79696 273.000
63.81690 299.000
63.83685 299.000
63.85680 296.000
63.87674 301.000
63.89669 333.000
63.91664 321.000
63.93658 304.000
63.95653 342.000
63.97648 315.000
63.99643 300.000
64.01637 318.000
64.03632 307.000
64.05627 267.000
64.07621 338.000
64.09616 277.000
64.11611 279.000
64.13605 304.000
64.15600 273.000
64.17595 272.000
64.19590 261.000
64.21584 297.000
64.23579 312.000
64.25574 300.000
64.27568 314.000
64.29563 288.000
64.31558 290.000
64.33552 295.000
64.35547 285.000
64.37542 293.000
64.39536 276.000
64.41531 301.000
64.43526 333.000
64.45521 315.000
64.47515 295.000
64.49510 314.000
64.51505 273.000
64.53499 303.000
64.55494 273.000
64.57489 287.000
64.59483 278.000
64.61478 276.000
64.63473 286.000
64.65468 298.000
64.67462 314.000
64.69457 292.000
64.71452 276.000
64.73446 302.000
64.75441 280.000
64.77436 311.000
64.79430 295.000
64.81425 270.000
64.83420 304.000
64.85414 311.000
64.87409 294.000
64.89404 328.000
64.91399 318.000
64.93393 299.000
64.95388 312.000
64.97383 287.000
64.99377 283.000
65.01372 282.000
65.03367 269.000
65.05361 279.000
65.07356 299.000
65.09351 274.000
65.11346 303.000
65.13340 308.000
65.15335 281.000
65.17330 300.000
65.19324 300.000
65.21319 276.000
65.23314 286.000
65.25308 292.000
65.27303 290.000
65.29298 269.000
65.31293 282.000
65.33287 288.000
65.35282 306.000
65.37277 297.000
65.39271 268.000
65.41266 301.000
65.43261 256.000
65.45255 312.000
65.47250 302.000
65.49245 285.000
65.51239 291.000
65.53234 258.000
65.55229 301.000
65.57224 287.000
65.59218 269.000
65.61213 274.000
65.63208 261.000
65.65202 266.000
65.67197 253.000
65.69192 277.000
65.71186 284.000
65.73181 294.000
65.75176 322.000
65.77171 278.000
65.79165 284.000
65.81160 297.000
65.83155 269.000
65.85149 272.000
65.87144 278.000
65.89139 310.000
65.91133 259.000
65.93128 274.000
65.95123 288.000
65.97117 287.000
65.99112 298.000
66.01107 299.000
66.03102 289.000
66.05096 278.000
66.07091 275.000
66.09086 294.000
66.11080 321.000
66.13075 253.000
66.15070 277.000
66.17064 284.000
66.19059 262.000
66.21054 291.000
66.23049 272.000
66.25043 275.000
66.27038 321.000
66.29033 272.000
66.31027 263.000
66.33022 326.000
66.35017 292.000
66.37011 288.000
66.39006 256.000
66.41001 283.000
66.42995 289.000
66.44990 275.000
66.46985 281.000
66.48980 270.000
66.50974 284.000
66.52969 296.000
66.54964 329.000
66.56958 309.000
66.58953 310.000
66.60948 289.000
66.62942 292.000
66.64937 299.000
66.66932 285.000
66.68927 286.000
66.70921 286.000
66.72916 298.000
66.74911 272.000
66.76905 277.000
66.78900 321.000
66.80895 301.000
66.82889 276.000
66.84884 305.000
66.86879 269.000
66.88874 292.000
66.90868 261.000
66.92863 280.000
66.94858 272.000
66.96852 307.000
66.98847 266.000
67.00842 270.000
67.02836 302.000
67.04831 293.000
67.06826 286.000
67.08820 290.000
67.10815 276.000
67.12810 303.000
67.14805 284.000
67.16799 244.000
67.18794 290.000
67.20789 275.000
67.22783 307.000
67.24778 267.000
67.26773 289.000
67.28767 311.000
67.30762 302.000
67.32757 290.000
67.34752 295.000
67.36746 266.000
67.38741 255.000
67.40736 297.000
67.42730 342.000
67.44725 284.000
67.46720 266.000
67.48714 284.000
67.50709 275.000
67.52704 300.000
67.54698 258.000
67.56693 274.000
67.58688 293.000
67.60683 270.000
67.62677 272.000
67.64672 279.000
67.66667 274.000
67.68661 307.000
67.70656 291.000
67.72651 264.000
67.74645 292.000
67.76640 278.000
67.78635 296.000
67.80630 274.000
67.82624 283.000
67.84619 253.000
67.86614 299.000
67.88608 317.000
67.90603 299.000
67.92598 319.000
67.94592 261.000
67.96587 295.000
67.98582 280.000
68.00576 289.000
68.02571 255.000
68.04566 261.000
68.06561 274.000
68.08555 276.000
68.10550 270.000
68.12545 276.000
68.14539 260.000
68.16534 252.000
68.18529 266.000
68.20523 279.000
68.22518 264.000
68.24513 281.000
68.26508 290.000
68.28502 307.000
68.30497 293.000
68.32492 298.000
68.34486 270.000
68.36481 286.000
68.38476 283.000
68.40470 240.000
68.42465 267.000
68.44460 274.000
68.46455 266.000
68.48449 281.000
68.50444 286.000
68.52439 308.000
68.54433 282.000
68.56428 256.000
68.58423 262.000
68.60417 267.000
68.62412 294.000
68.64407 250.000
68.66401 301.000
68.68396 275.000
68.70391 265.000
68.72386 246.000
68.74380 265.000
68.76375 269.000
68.78370 253.000
68.80364 267.000
68.82359 278.000
68.84354 246.000
68.86348 296.000
68.88343 253.000
68.90338 252.000
68.92333 284.000
68.94327 248.000
68.96322 305.000
68.98317 282.000
69.00311 278.000
69.02306 284.000
69.04301 284.000
69.06295 267.000
69.08290 266.000
69.10285 246.000
69.12279 291.000
69.14274 304.000
69.16269 252.000
69.18264 278.000
69.20258 320.000
69.22253 299.000
69.24248 292.000
69.26242 262.000
69.28237 268.000
69.30232 284.000
69.32226 278.000
69.34221 296.000
69.36216 299.000
69.38211 268.000
69.40205 276.000
69.42200 288.000
69.44195 279.000
69.46189 268.000
69.48184 258.000
69.50179 268.000
69.52173 294.000
69.54168 282.000
69.56163 301.000
69.58157 256.000
69.60152 293.000
69.62147 284.000
69.64142 281.000
69.66136 262.000
69.68131 283.000
69.70126 297.000
69.72120 294.000
69.74115 273.000
69.76110 289.000
69.78104 291.000
69.80099 284.000
69.82094 276.000
69.84089 272.000
69.86083 315.000
69.88078 280.000
69.90073 243.000
69.92067 298.000
69.94062 270.000
69.96057 300.000
69.98051 272.000
70.00046 293.000
70.02041 286.000
70.04035 309.000
70.06030 249.000
70.08025 269.000
70.10020 285.000
70.12014 286.000
70.14009 248.000
70.16004 280.000
70.17998 267.000
70.19993 283.000
70.21988 289.000
70.23982 266.000
70.25977 281.000
70.27972 280.000
70.29967 264.000
70.31961 270.000
70.33956 255.000
70.35951 311.000
70.37945 269.000
70.39940 281.000
70.41935 271.000
70.43929 276.000
70.45924 286.000
70.47919 262.000
70.49914 269.000
70.51908 279.000
70.53903 289.000
70.55898 256.000
70.57892 273.000
70.59887 295.000
70.61882 286.000
70.63876 253.000
70.65871 293.000
70.67866 265.000
70.69860 285.000
70.71855 253.000
70.73850 249.000
70.75845 274.000
70.77839 252.000
70.79834 271.000
70.81829 274.000
70.83823 300.000
70.85818 296.000
70.87813 238.000
70.89807 316.000
70.91802 272.000
70.93797 261.000
70.95792 262.000
70.97786 277.000
70.99781 250.000
71.01776 278.000
71.03770 255.000
71.05765 273.000
71.07760 291.000
71.09754 269.000
71.11749 270.000
71.13744 248.000
71.15738 276.000
71.17733 276.000
71.19728 265.000
71.21723 295.000
71.23717 263.000
71.25712 296.000
71.27707 284.000
71.29701 261.000
71.31696 249.000
71.33691 274.000
71.35685 276.000
71.37680 285.000
71.39675 292.000
71.41670 269.000
71.43664 251.000
71.45659 284.000
71.47654 266.000
71.49648 316.000
71.51643 287.000
71.53638 274.000
71.55632 288.000
71.57627 290.000
71.59622 307.000
71.61616 260.000
71.63611 269.000
71.65606 305.000
71.67601 294.000
71.69595 283.000
71.71590 266.000
71.73585 272.000
71.75579 269.000
71.77574 287.000
71.79569 265.000
71.81563 262.000
71.83558 270.000
71.85553 275.000
71.87548 280.000
71.89542 283.000
71.91537 271.000
71.93532 286.000
71.95526 281.000
71.97521 278.000
71.99516 292.000
72.01510 257.000
72.03505 274.000
72.05500 277.000
72.07495 285.000
72.09489 249.000
72.11484 254.000
72.13479 285.000
72.15473 283.000
72.17468 288.000
72.19463 265.000
72.21457 256.000
72.23452 303.000
72.25447 293.000
72.27441 290.000
72.29436 293.000
72.31431 283.000
72.33426 266.000
72.35420 276.000
72.37415 258.000
72.39410 255.000
72.41404 297.000
72.43399 270.000
72.45394 265.000
72.47388 249.000
72.49383 291.000
72.51378 295.000
72.53373 280.000
72.55367 250.000
72.57362 298.000
72.59357 299.000
72.61351 289.000
72.63346 307.000
72.65341 267.000
72.67335 293.000
72.69330 302.000
72.71325 259.000
72.73319 286.000
72.75314 278.000
72.77309 284.000
72.79304 270.000
72.81298 289.000
72.83293 248.000
72.85288 288.000
72.87282 262.000
72.89277 293.000
72.91272 282.000
72.93266 282.000
72.95261 261.000
72.97256 258.000
72.99251 236.000
73.01245 260.000
73.03240 270.000
73.05235 277.000
73.07229 292.000
73.09224 298.000
73.11219 257.000
73.13213 249.000
73.15208 261.000
73.17203 281.000
73.19197 302.000
73.21192 275.000
73.23187 273.000
73.25182 276.000
73.27176 299.000
73.29171 292.000
73.31166 278.000
73.33160 271.000
73.35155 282.000
73.37150 283.000
73.39144 290.000
73.41139 251.000
73.43134 275.000
73.45129 318.000
73.47123 304.000
73.49118 272.000
73.51113 296.000
73.53107 287.000
73.55102 271.000
73.57097 238.000
73.59091 298.000
73.61086 259.000
73.63081 272.000
73.65076 234.000
73.67070 270.000
73.69065 281.000
73.71060 271.000
73.73054 252.000
73.75049 244.000
73.77044 270.000
73.79038 251.000
73.81033 259.000
73.83028 283.000
73.85022 275.000
73.87017 259.000
73.89012 313.000
73.91007 270.000
73.93001 289.000
73.94996 266.000
73.96991 270.000
73.98985 302.000
74.00980 255.000
74.02975 302.000
74.04969 297.000
74.06964 248.000
74.08959 308.000
74.10954 281.000
74.12948 297.000
74.14943 275.000
74.16938 284.000
74.18932 281.000
74.20927 301.000
74.22922 269.000
74.24916 285.000
74.26911 297.000
74.28906 248.000
74.30900 289.000
74.32895 265.000
74.34890 285.000
74.36885 288.000
74.38879 311.000
74.40874 294.000
74.42869 294.000
74.44863 296.000
74.46858 270.000
74.48853 296.000
74.50847 294.000
74.52842 329.000
74.54837 311.000
74.56832 365.000
74.58826 342.000
74.60821 389.000
74.62816 396.000
74.64810 402.000
74.66805 382.000
74.68800 437.000
74.70794 433.000
74.72789 445.000
74.74784 434.000
74.76778 424.000
74.78773 429.000
74.80768 468.000
74.82763 453.000
74.84757 484.000
74.86752 485.000
74.88747 568.000
74.90741 487.000
74.92736 585.000
74.94731 581.000
74.96725 589.000
74.98720 578.000
75.00715 518.000
75.02710 570.000
75.04704 560.000
75.06699 600.000
75.08694 611.000
75.10688 529.000
75.12683 620.000
75.14678 603.000
75.16672 674.000
75.18667 660.000
75.20662 679.000
75.22657 661.000
75.24651 744.000
75.26646 806.000
75.28641 812.000
75.30635 936.000
75.32630 990.000
75.34625 1015.000
75.36619 992.000
75.38614 891.000
75.40609 858.000
75.42603 775.000
75.44598 680.000
75.46593 671.000
75.48588 638.000
75.50582 662.000
75.52577 664.000
75.54572 712.000
75.56566 646.000
75.58561 670.000
75.60556 579.000
75.62550 526.000
75.64545 490.000
75.66540 432.000
75.68535 456.000
75.70529 384.000
75.72524 359.000
75.74519 357.000
75.76513 317.000
75.78508 331.000
75.80503 335.000
75.82497 319.000
75.84492 293.000
75.86487 345.000
75.88481 300.000
75.90476 303.000
75.92471 292.000
75.94466 273.000
75.96460 265.000
75.98455 302.000
76.00450 284.000
76.02444 298.000
76.04439 278.000
76.06434 274.000
76.08428 286.000
76.10423 288.000
76.12418 279.000
76.14413 311.000
76.16407 304.000
76.18402 286.000
76.20397 280.000
76.22391 287.000
76.24386 304.000
76.26381 263.000
76.28375 285.000
76.30370 272.000
76.32365 294.000
76.34359 282.000
76.36354 275.000
76.38349 300.000
76.40344 254.000
76.42338 258.000
76.44333 289.000
76.46328 270.000
76.48322 272.000
76.50317 302.000
76.52312 317.000
76.54306 299.000
76.56301 281.000
76.58296 290.000
76.60291 277.000
76.62285 270.000
76.64280 309.000
76.66275 254.000
76.68269 294.000
76.70264 269.000
76.72259 284.000
76.74253 256.000
76.76248 264.000
76.78243 317.000
76.80238 295.000
76.82232 270.000
76.84227 284.000
76.86222 291.000
76.88216 261.000
76.90211 270.000
76.92206 276.000
76.94200 256.000
76.96195 262.000
76.98190 286.000
77.00184 299.000
77.02179 284.000
77.04174 278.000
77.06169 261.000
77.08163 266.000
77.10158 303.000
77.12153 257.000
77.14147 255.000
77.16142 283.000
77.18137 295.000
77.20131 296.000
77.22126 270.000
77.24121 277.000
77.26116 283.000
77.28110 257.000
77.30105 291.000
77.32100 285.000
77.34094 290.000
77.36089 285.000
77.38084 261.000
77.40078 278.000
77.42073 274.000
77.44068 258.000
77.46062 259.000
77.48057 274.000
77.50052 267.000
77.52047 276.000
77.54041 297.000
77.56036 288.000
77.58031 254.000
77.60025 258.000
77.62020 278.000
77.64015 315.000
77.66009 258.000
77.68004 261.000
77.69999 262.000
77.71994 241.000
77.73988 271.000
77.75983 299.000
77.77978 278.000
77.79972 284.000
77.81967 289.000
77.83962 268.000
77.85956 285.000
77.87951 279.000
77.89946 290.000
77.91940 288.000
77.93935 282.000
77.95930 288.000
77.97925 256.000
77.99919 265.000
78.01914 316.000
78.03909 262.000
78.05903 268.000
78.07898 276.000
78.09893 271.000
78.11887 279.000
78.13882 283.000
78.15877 295.000
78.17872 278.000
78.19866 274.000
78.21861 285.000
78.23856 274.000
78.25850 287.000
78.27845 260.000
78.29840 274.000
78.31834 297.000
78.33829 328.000
78.35824 303.000
78.37819 293.000
78.39813 294.000
78.41808 313.000
78.43803 282.000
78.45797 312.000
78.47792 275.000
78.49787 287.000
78.51781 294.000
78.53776 292.000
78.55771 315.000
78.57765 286.000
78.59760 364.000
78.61755 352.000
78.63750 357.000
78.65744 375.000
78.67739 376.000
78.69734 360.000
78.71728 400.000
78.73723 366.000
78.75718 412.000
78.77712 422.000
78.79707 442.000
78.81702 427.000
78.83697 474.000
78.85691 470.000
78.87686 486.000
78.89681 473.000
78.91675 509.000
78.93670 517.000
78.95665 545.000
78.97659 508.000
78.99654 513.000
79.01649 505.000
79.03643 534.000
79.05638 543.000
79.07633 477.000
79.09628 519.000
79.11622 544.000
79.13617 523.000
79.15612 545.000
79.17606 570.000
79.19601 589.000
79.21596 624.000
79.23590 638.000
79.25585 702.000
79.27580 723.000
79.29575 778.000
79.31569 856.000
79.33564 789.000
79.35559 759.000
79.37553 639.000
79.39548 639.000
79.41543 591.000
79.43537 568.000
79.45532 579.000
79.47527 585.000
79.49521 540.000
79.51516 534.000
79.53511 568.000
79.55506 590.000
79.57500 524.000
79.59495 503.000
79.61490 478.000
79.63484 430.000
79.65479 439.000
79.67474 389.000
79.69468 401.000
79.71463 410.000
79.73458 348.000
79.75453 339.000
79.77447 358.000
79.79442 307.000
79.81437 302.000
79.83431 275.000
79.85426 314.000
79.87421 308.000
79.89415 302.000
79.91410 295.000
79.93405 310.000
79.95399 319.000
79.97394 322.000
79.99389 317.000
80.01384 325.000
80.03378 308.000
80.05373 288.000
80.07368 304.000
80.09362 317.000
80.11357 293.000
80.13352 288.000
80.15346 296.000
80.17341 271.000
80.19336 275.000
80.21331 281.000
80.23325 273.000
80.25320 289.000
80.27315 265.000
80.29309 290.000
80.31304 283.000
80.33299 299.000
80.35293 243.000
80.37288 279.000
80.39283 288.000
80.41278 294.000
80.43272 286.000
80.45267 269.000
80.47262 295.000
80.49256 300.000
80.51251 304.000
80.53246 269.000
80.55240 283.000
80.57235 309.000
80.59230 268.000
80.61224 251.000
80.63219 286.000
80.65214 286.000
80.67209 306.000
80.69203 289.000
80.71198 280.000
80.73193 271.000
80.75187 317.000
80.77182 293.000
80.79177 276.000
80.81171 293.000
80.83166 293.000
80.85161 303.000
80.87156 265.000
80.89150 268.000
80.91145 271.000
80.93140 266.000
80.95134 287.000
80.97129 276.000
80.99124 290.000
81.01118 281.000
81.03113 227.000
81.05108 265.000
81.07102 293.000
81.09097 276.000
81.11092 278.000
81.13087 284.000
81.15081 308.000
81.17076 309.000
81.19071 279.000
81.21065 267.000
81.23060 285.000
81.25055 291.000
81.27049 275.000
81.29044 255.000
81.31039 279.000
81.33034 289.000
81.35028 266.000
81.37023 274.000
81.39018 276.000
81.41012 237.000
81.43007 279.000
81.45002 299.000
81.46996 287.000
81.48991 273.000
81.50986 296.000
81.52980 305.000
81.54975 266.000
81.56970 287.000
81.58965 296.000
81.60959 267.000
81.62954 252.000
81.64949 285.000
81.66943 273.000
81.68938 308.000
81.70933 278.000
81.72927 273.000
81.74922 297.000
81.76917 267.000
81.78912 261.000
81.80906 273.000
81.82901 256.000
81.84896 293.000
81.86890 263.000
81.88885 243.000
81.90880 276.000
81.92874 267.000
81.94869 273.000
81.96864 259.000
81.98859 308.000
82.00853 245.000
82.02848 252.000
82.04843 284.000
82.06837 298.000
82.08832 273.000
82.10827 273.000
82.12821 276.000
82.14816 255.000
82.16811 297.000
82.18805 280.000
82.20800 297.000
82.22795 295.000
82.24790 253.000
82.26784 247.000
82.28779 286.000
82.30774 299.000
82.32768 308.000
82.34763 267.000
82.36758 256.000
82.38752 280.000
82.40747 248.000
82.42742 273.000
82.44737 254.000
82.46731 245.000
82.48726 247.000
82.50721 288.000
82.52715 270.000
82.54710 278.000
82.56705 295.000
82.58699 244.000
82.60694 270.000
82.62689 269.000
82.64683 289.000
82.66678 280.000
82.68673 300.000
82.70668 296.000
82.72662 264.000
82.74657 265.000
82.76652 256.000
82.78646 304.000
82.80641 279.000
82.82636 305.000
82.84630 289.000
82.86625 266.000
82.88620 271.000
82.90615 278.000
82.92609 264.000
82.94604 275.000
82.96599 294.000
82.98593 270.000
83.00588 262.000
83.02583 262.000
83.04577 298.000
83.06572 309.000
83.08567 249.000
83.10561 276.000
83.12556 294.000
83.14551 282.000
83.16546 287.000
83.18540 281.000
83.20535 287.000
83.22530 278.000
83.24524 261.000
83.26519 268.000
83.28514 284.000
83.30508 293.000
83.32503 270.000
83.34498 268.000
83.36493 253.000
83.38487 261.000
83.40482 251.000
83.42477 277.000
83.44471 279.000
83.46466 264.000
83.48461 267.000
83.50455 238.000
83.52450 271.000
83.54445 283.000
83.56440 273.000
83.58434 250.000
83.60429 290.000
83.62424 262.000
83.64418 237.000
83.66413 260.000
83.68408 276.000
83.70402 238.000
83.72397 283.000
83.74392 271.000
83.76386 234.000
83.78381 265.000
83.80376 264.000
83.82371 315.000
83.84365 236.000
83.86360 280.000
83.88355 295.000
83.90349 289.000
83.92344 266.000
83.94339 283.000
83.96333 286.000
83.98328 268.000
84.00323 319.000
84.02318 298.000
84.04312 263.000
84.06307 266.000
84.08302 284.000
84.10296 262.000
84.12291 275.000
84.14286 291.000
84.16280 275.000
84.18275 268.000
84.20270 274.000
84.22264 290.000
84.24259 285.000
84.26254 302.000
84.28249 270.000
84.30243 280.000
84.32238 253.000
84.34233 298.000
84.36227 283.000
84.38222 301.000
84.40217 295.000
84.42211 264.000
84.44206 296.000
84.46201 252.000
84.48196 298.000
84.50190 278.000
84.52185 289.000
84.54180 261.000
84.56174 264.000
84.58169 291.000
84.60164 284.000
84.62158 268.000
84.64153 275.000
84.66148 291.000
84.68142 249.000
84.70137 268.000
84.72132 286.000
84.74127 301.000
84.76121 285.000
84.78116 269.000
84.80111 302.000
84.82105 295.000
84.84100 276.000
84.86095 271.000
84.88089 278.000
84.90084 258.000
84.92079 276.000
84.94074 268.000
84.96068 288.000
84.98063 254.000
85.00058 300.000
85.02052 274.000
85.04047 242.000
85.06042 246.000
85.08036 266.000
85.10031 239.000
85.12026 277.000
85.14021 281.000
85.16015 286.000
85.18010 272.000
85.20005 294.000
85.21999 262.000
85.23994 266.000
85.25989 283.000
85.27983 278.000
85.29978 263.000
85.31973 255.000
85.33967 271.000
85.35962 264.000
85.37957 235.000
85.39952 249.000
85.41946 276.000
85.43941 257.000
85.45936 269.000
85.47930 290.000
85.49925 277.000
85.51920 273.000
85.53914 274.000
85.55909 293.000
85.57904 278.000
85.59899 243.000
85.61893 255.000
85.63888 290.000
85.65883 255.000
85.67877 281.000
85.69872 281.000
85.71867 293.000
85.73861 270.000
85.75856 259.000
85.77851 280.000
85.79845 282.000
85.81840 267.000
85.83835 264.000
85.85830 249.000
85.87824 263.000
85.89819 298.000
85.91814 271.000
85.93808 262.000
85.95803 276.000
85.97798 257.000
85.99792 289.000
86.01787 267.000
86.03782 297.000
86.05777 238.000
86.07771 246.000
86.09766 290.000
86.11761 273.000
86.13755 265.000
86.15750 268.000
86.17745 282.000
86.19739 269.000
86.21734 300.000
86.23729 304.000
86.25723 291.000
86.27718 268.000
86.29713 290.000
86.31708 275.000
86.33702 309.000
86.35697 270.000
86.37692 282.000
86.39686 274.000
86.41681 301.000
86.43676 295.000
86.45670 294.000
86.47665 311.000
86.49660 259.000
86.51655 257.000
86.53649 258.000
86.55644 240.000
86.57639 268.000
86.59633 280.000
86.61628 262.000
86.63623 280.000
86.65617 281.000
86.67612 278.000
86.69607 276.000
86.71602 310.000
86.73596 247.000
86.75591 276.000
86.77586 285.000
86.79580 260.000
86.81575 254.000
86.83570 283.000
86.85564 262.000
86.87559 255.000
86.89554 290.000
86.91548 272.000
86.93543 228.000
86.95538 279.000
86.97533 263.000
86.99527 284.000
87.01522 268.000
87.03517 266.000
87.05511 284.000
87.07506 290.000
87.09501 282.000
87.11495 251.000
87.13490 253.000
87.15485 283.000
87.17480 264.000
87.19474 276.000
87.21469 277.000
87.23464 295.000
87.25458 309.000
87.27453 239.000
87.29448 277.000
87.31442 267.000
87.33437 261.000
87.35432 244.000
87.37426 288.000
87.39421 293.000
87.41416 289.000
87.43411 258.000
87.45405 254.000
87.47400 295.000
87.49395 282.000
87.51389 298.000
87.53384 268.000
87.55379 267.000
87.57373 230.000
87.59368 264.000
87.61363 261.000
87.63358 277.000
87.65352 223.000
87.67347 297.000
87.69342 284.000
87.71336 244.000
87.73331 258.000
87.75326 261.000
87.77320 245.000
87.79315 296.000
87.81310 284.000
87.83304 268.000
87.85299 267.000
87.87294 288.000
87.89289 296.000
87.91283 286.000
87.93278 235.000
87.95273 252.000
87.97267 277.000
87.99262 282.000
88.01257 282.000
88.03251 257.000
88.05246 271.000
88.07241 292.000
88.09236 255.000
88.11230 255.000
88.13225 266.000
88.15220 265.000
88.17214 270.000
88.19209 273.000
88.21204 270.000
88.23198 267.000
88.25193 297.000
88.27188 274.000
88.29183 253.000
88.31177 272.000
88.33172 297.000
88.35167 228.000
88.37161 276.000
88.39156 266.000
88.41151 291.000
88.43145 278.000
88.45140 282.000
88.47135 287.000
88.49129 259.000
88.51124 265.000
88.53119 276.000
88.55114 246.000
88.57108 297.000
88.59103 282.000
88.61098 294.000
88.63092 300.000
88.65087 259.000
88.67082 266.000
88.69076 247.000
88.71071 275.000
88.73066 257.000
88.75061 276.000
88.77055 253.000
88.79050 243.000
88.81045 261.000
88.83039 300.000
88.85034 276.000
88.87029 271.000
88.89023 277.000
88.91018 256.000
88.93013 252.000
88.95007 250.000
88.97002 265.000
88.98997 284.000
89.00992 250.000
89.02986 261.000
89.04981 275.000
89.06976 271.000
89.08970 259.000
89.10965 284.000
89.12960 289.000
89.14954 285.000
89.16949 284.000
89.18944 270.000
89.20939 243.000
89.22933 256.000
89.24928 281.000
89.26923 271.000
89.28917 291.000
89.30912 295.000
89.32907 264.000
89.34901 267.000
89.36896 251.000
89.38891 241.000
89.40885 275.000
89.42880 284.000
89.44875 267.000
89.46870 273.000
89.48864 247.000
89.50859 299.000
89.52854 272.000
89.54848 272.000
89.56843 285.000
89.58838 279.000
89.60832 248.000
89.62827 280.000
89.64822 272.000
89.66817 258.000
89.68811 276.000
89.70806 276.000
89.72801 238.000
89.74795 276.000
89.76790 234.000
89.78785 292.000
89.80779 243.000
89.82774 254.000
89.84769 253.000
89.86764 283.000
89.88758 240.000
89.90753 255.000
89.92748 280.000
89.94742 281.000
89.96737 282.000
89.98732 290.000
90.00726 274.000
