10.00000 202.000
10.01995 211.000
10.03989 231.000
10.05984 177.000
10.07979 222.000
10.09973 195.000
10.11968 171.000
10.13963 208.000
10.15958 194.000
10.17952 187.000
10.19947 185.000
10.21942 190.000
10.23936 180.000
10.25931 187.000
10.27926 202.000
10.29920 214.000
10.31915 192.000
10.33910 192.000
10.35905 190.000
10.37899 191.000
10.39894 177.000
10.41889 213.000
10.43883 211.000
10.45878 200.000
10.47873 175.000
10.49867 218.000
10.51862 197.000
10.53857 186.000
10.55851 196.000
10.57846 183.000
10.59841 201.000
10.61836 189.000
10.63830 181.000
10.65825 175.000
10.67820 215.000
10.69814 207.000
10.71809 167.000
10.73804 198.000
10.75798 201.000
10.77793 196.000
10.79788 201.000
10.81783 203.000
10.83777 174.000
10.85772 191.000
10.87767 186.000
10.89761 190.000
10.91756 177.000
10.93751 200.000
10.95745 204.000
10.97740 195.000
10.99735 210.000
11.01730 191.000
11.03724 188.000
11.05719 177.000
11.07714 204.000
11.09708 191.000
11.11703 161.000
11.13698 169.000
11.15692 204.000
11.17687 205.000
11.19682 180.000
11.21676 199.000
11.23671 167.000
11.25666 211.000
11.27661 205.000
11.29655 196.000
11.31650 203.000
11.33645 210.000
11.35639 170.000
11.37634 207.000
11.39629 220.000
11.41623 200.000
11.43618 214.000
11.45613 189.000
11.47608 205.000
11.49602 186.000
11.51597 212.000
11.53592 182.000
11.55586 191.000
11.57581 183.000
11.59576 187.000
11.61570 186.000
11.63565 212.000
11.65560 168.000
11.67554 187.000
11.69549 204.000
11.71544 187.000
11.73539 188.000
11.75533 209.000
11.77528 193.000
11.79523 221.000
11.81517 172.000
11.83512 182.000
11.85507 164.000
11.87501 210.000
11.89496 195.000
11.91491 190.000
11.93486 187.000
11.95480 194.000
11.97475 169.000
11.99470 197.000
12.01464 168.000
12.03459 178.000
12.05454 182.000
12.07448 187.000
12.09443 188.000
12.11438 195.000
12.13432 185.000
12.15427 193.000
12.17422 206.000
12.19417 165.000
12.21411 192.000
12.23406 179.000
12.25401 191.000
12.27395 206.000
12.29390 199.000
12.31385 174.000
12.33379 189.000
12.35374 186.000
12.37369 205.000
12.39364 222.000
12.41358 196.000
12.43353 179.000
12.45348 194.000
12.47342 226.000
12.49337 193.000
12.51332 178.000
12.53326 174.000
12.55321 194.000
12.57316 192.000
12.59311 201.000
12.61305 178.000
12.63300 206.000
12.65295 171.000
12.67289 197.000
12.69284 220.000
12.71279 191.000
12.73273 193.000
12.75268 206.000
12.77263 190.000
12.79257 203.000
12.81252 185.000
12.83247 198.000
12.85242 184.000
12.87236 218.000
12.89231 178.000
12.91226 192.000
12.93220 205.000
12.95215 185.000
12.97210 196.000
12.99204 189.000
13.01199 204.000
13.03194 202.000
13.05189 180.000
13.07183 177.000
13.09178 200.000
13.11173 164.000
13.13167 198.000
13.15162 188.000
13.17157 181.000
13.19151 181.000
13.21146 210.000
13.23141 208.000
13.25135 166.000
13.27130 194.000
13.29125 191.000
13.31120 199.000
13.33114 168.000
13.35109 195.000
13.37104 204.000
13.39098 188.000
13.41093 196.000
13.43088 186.000
13.45082 180.000
13.47077 190.000
13.49072 214.000
13.51067 202.000
13.53061 183.000
13.55056 203.000
13.57051 213.000
13.59045 183.000
13.61040 188.000
13.63035 185.000
13.65029 199.000
13.67024 184.000
13.69019 198.000
13.71013 196.000
13.73008 204.000
13.75003 201.000
13.76998 190.000
13.78992 190.000
13.80987 171.000
13.82982 193.000
13.84976 178.000
13.86971 184.000
13.88966 204.000
13.90960 188.000
13.92955 184.000
13.94950 193.000
13.96945 197.000
13.98939 193.000
14.00934 182.000
14.02929 182.000
14.04923 207.000
14.06918 207.000
14.08913 199.000
14.10907 191.000
14.12902 189.000
14.14897 188.000
14.16892 208.000
14.18886 207.000
14.20881 178.000
14.22876 206.000
14.24870 193.000
14.26865 204.000
14.28860 211.000
14.30854 176.000
14.32849 215.000
14.34844 215.000
14.36838 207.000
14.38833 218.000
14.40828 223.000
14.42823 207.000
14.44817 186.000
14.46812 186.000
14.48807 184.000
14.50801 191.000
14.52796 189.000
14.54791 199.000
14.56785 206.000
14.58780 196.000
14.60775 184.000
14.62770 181.000
14.64764 201.000
14.66759 196.000
14.68754 195.000
14.70748 205.000
14.72743 226.000
14.74738 223.000
14.76732 192.000
14.78727 220.000
14.80722 215.000
14.82716 176.000
14.84711 199.000
14.86706 206.000
14.88701 205.000
14.90695 179.000
14.92690 206.000
14.94685 194.000
14.96679 202.000
14.98674 189.000
15.00669 241.000
15.02663 222.000
15.04658 221.000
15.06653 221.000
15.08648 222.000
15.10642 242.000
15.12637 202.000
15.14632 247.000
15.16626 234.000
15.18621 242.000
15.20616 267.000
15.22610 253.000
15.24605 292.000
15.26600 233.000
15.28594 259.000
15.30589 235.000
15.32584 268.000
15.34579 259.000
15.36573 258.000
15.38568 259.000
15.40563 278.000
15.42557 282.000
15.44552 291.000
15.46547 282.000
15.48541 290.000
15.50536 328.000
15.52531 301.000
15.54526 329.000
15.56520 355.000
15.58515 355.000
15.60510 323.000
15.62504 378.000
15.64499 425.000
15.66494 457.000
15.68488 459.000
15.70483 486.000
15.72478 659.000
15.74472 831.000
15.76467 1052.000
15.78462 1534.000
15.80457 2228.000
15.82451 3529.000
15.84446 5778.000
15.86441 9368.000
15.88435 13771.000
15.90430 16737.000
15.92425 15795.000
15.94419 11673.000
15.96414 7327.000
15.98409 3890.000
16.00404 1821.000
16.02398 1007.000
16.04393 821.000
16.06388 615.000
16.08382 561.000
16.10377 513.000
16.12372 469.000
16.14366 449.000
16.16361 494.000
16.18356 524.000
16.20351 584.000
16.22345 551.000
16.24340 606.000
16.26335 574.000
16.28329 534.000
16.30324 475.000
16.32319 451.000
16.34313 385.000
16.36308 368.000
16.38303 347.000
16.40297 307.000
16.42292 270.000
16.44287 293.000
16.46282 277.000
16.48276 268.000
16.50271 232.000
16.52266 264.000
16.54260 250.000
16.56255 228.000
16.58250 247.000
16.60244 257.000
16.62239 246.000
16.64234 232.000
16.66229 277.000
16.68223 236.000
16.70218 249.000
16.72213 229.000
16.74207 224.000
16.76202 236.000
16.78197 242.000
16.80191 205.000
16.82186 242.000
16.84181 263.000
16.86175 267.000
16.88170 238.000
16.90165 238.000
16.92160 219.000
16.94154 189.000
16.96149 209.000
16.98144 202.000
17.00138 191.000
17.02133 195.000
17.04128 203.000
17.06122 197.000
17.08117 195.000
17.10112 182.000
17.12107 205.000
17.14101 235.000
17.16096 213.000
17.18091 212.000
17.20085 213.000
17.22080 194.000
17.24075 210.000
17.26069 166.000
17.28064 182.000
17.30059 220.000
17.32053 192.000
17.34048 192.000
17.36043 198.000
17.38038 185.000
17.40032 198.000
17.42027 204.000
17.44022 211.000
17.46016 216.000
17.48011 188.000
17.50006 194.000
17.52000 180.000
17.53995 208.000
17.55990 171.000
17.57985 222.000
17.59979 204.000
17.61974 177.000
17.63969 214.000
17.65963 196.000
17.67958 198.000
17.69953 215.000
17.71947 191.000
17.73942 205.000
17.75937 192.000
17.77932 197.000
17.79926 185.000
17.81921 230.000
17.83916 201.000
17.85910 185.000
17.87905 170.000
17.89900 210.000
17.91894 197.000
17.93889 187.000
17.95884 199.000
17.97878 189.000
17.99873 177.000
18.01868 193.000
18.03863 205.000
18.05857 172.000
18.07852 196.000
18.09847 198.000
18.11841 198.000
18.13836 205.000
18.15831 201.000
18.17825 191.000
18.19820 188.000
18.21815 188.000
18.23810 201.000
18.25804 202.000
18.27799 219.000
18.29794 168.000
18.31788 230.000
18.33783 188.000
18.35778 267.000
18.37772 294.000
18.39767 379.000
18.41762 334.000
18.43756 319.000
18.45751 318.000
18.47746 250.000
18.49741 220.000
18.51735 213.000
18.53730 202.000
18.55725 195.000
18.57719 190.000
18.59714 207.000
18.61709 211.000
18.63703 202.000
18.65698 177.000
18.67693 191.000
18.69688 196.000
18.71682 207.000
18.73677 207.000
18.75672 209.000
18.77666 184.000
18.79661 198.000
18.81656 189.000
18.83650 225.000
18.85645 194.000
18.87640 216.000
18.89634 192.000
18.91629 202.000
18.93624 194.000
18.95619 196.000
18.97613 176.000
18.99608 214.000
19.01603 206.000
19.03597 220.000
19.05592 200.000
19.07587 194.000
19.09581 199.000
19.11576 186.000
19.13571 191.000
19.15566 214.000
19.17560 164.000
19.19555 168.000
19.21550 181.000
19.23544 173.000
19.25539 183.000
19.27534 202.000
19.29528 195.000
19.31523 194.000
19.33518 196.000
19.35513 191.000
19.37507 222.000
19.39502 202.000
19.41497 215.000
19.43491 204.000
19.45486 199.000
19.47481 180.000
19.49475 187.000
19.51470 190.000
19.53465 171.000
19.55459 190.000
19.57454 189.000
19.59449 205.000
19.61444 170.000
19.63438 200.000
19.65433 185.000
19.67428 163.000
19.69422 223.000
19.71417 175.000
19.73412 171.000
19.75406 200.000
19.77401 195.000
19.79396 178.000
19.81391 205.000
19.83385 167.000
19.85380 188.000
19.87375 201.000
19.89369 175.000
19.91364 207.000
19.93359 196.000
19.95353 205.000
19.97348 165.000
19.99343 161.000
20.01337 212.000
20.03332 186.000
20.05327 174.000
20.07322 218.000
20.09316 201.000
20.11311 190.000
20.13306 205.000
20.15300 175.000
20.17295 194.000
20.19290 183.000
20.21284 222.000
20.23279 188.000
20.25274 202.000
20.27269 180.000
20.29263 197.000
20.31258 181.000
20.33253 183.000
20.35247 178.000
20.37242 203.000
20.39237 170.000
20.41231 206.000
20.43226 222.000
20.45221 215.000
20.47215 199.000
20.49210 182.000
20.51205 204.000
20.53200 231.000
20.55194 210.000
20.57189 220.000
20.59184 199.000
20.61178 215.000
20.63173 213.000
20.65168 224.000
20.67162 208.000
20.69157 221.000
20.71152 224.000
20.73147 235.000
20.75141 287.000
20.77136 300.000
20.79131 321.000
20.81125 348.000
20.83120 398.000
20.85115 443.000
20.87109 486.000
20.89104 499.000
20.91099 467.000
20.93094 465.000
20.95088 394.000
20.97083 343.000
20.99078 326.000
21.01072 340.000
21.03067 309.000
21.05062 314.000
21.07056 260.000
21.09051 287.000
21.11046 256.000
21.13040 245.000
21.15035 208.000
21.17030 241.000
21.19025 207.000
21.21019 204.000
21.23014 200.000
21.25009 217.000
21.27003 192.000
21.28998 172.000
21.30993 193.000
21.32987 189.000
21.34982 201.000
21.36977 200.000
21.38972 225.000
21.40966 185.000
21.42961 185.000
21.44956 195.000
21.46950 187.000
21.48945 197.000
21.50940 184.000
21.52934 169.000
21.54929 176.000
21.56924 171.000
21.58918 202.000
21.60913 227.000
21.62908 203.000
21.64903 184.000
21.66897 188.000
21.68892 184.000
21.70887 180.000
21.72881 203.000
21.74876 208.000
21.76871 207.000
21.78865 185.000
21.80860 187.000
21.82855 212.000
21.84850 198.000
21.86844 173.000
21.88839 207.000
21.90834 181.000
21.92828 184.000
21.94823 195.000
21.96818 190.000
21.98812 187.000
22.00807 184.000
22.02802 176.000
22.04796 189.000
22.06791 193.000
22.08786 202.000
22.10781 203.000
22.12775 184.000
22.14770 199.000
22.16765 174.000
22.18759 207.000
22.20754 189.000
22.22749 196.000
22.24743 183.000
22.26738 189.000
22.28733 203.000
22.30728 203.000
22.32722 174.000
22.34717 166.000
22.36712 211.000
22.38706 202.000
22.40701 182.000
22.42696 192.000
22.44690 187.000
22.46685 205.000
22.48680 187.000
22.50675 213.000
22.52669 185.000
22.54664 192.000
22.56659 204.000
22.58653 178.000
22.60648 199.000
22.62643 178.000
22.64637 198.000
22.66632 192.000
22.68627 215.000
22.70621 188.000
22.72616 201.000
22.74611 180.000
22.76606 197.000
22.78600 202.000
22.80595 199.000
22.82590 213.000
22.84584 207.000
22.86579 179.000
22.88574 218.000
22.90568 194.000
22.92563 219.000
22.94558 188.000
22.96553 181.000
22.98547 187.000
23.00542 176.000
23.02537 189.000
23.04531 207.000
23.06526 209.000
23.08521 190.000
23.10515 193.000
23.12510 187.000
23.14505 179.000
23.16499 196.000
23.18494 193.000
23.20489 201.000
23.22484 204.000
23.24478 191.000
23.26473 183.000
23.28468 218.000
23.30462 205.000
23.32457 188.000
23.34452 192.000
23.36446 209.000
23.38441 191.000
23.40436 209.000
23.42431 188.000
23.44425 212.000
23.46420 181.000
23.48415 188.000
23.50409 161.000
23.52404 202.000
23.54399 207.000
23.56393 186.000
23.58388 191.000
23.60383 196.000
23.62377 193.000
23.64372 196.000
23.66367 178.000
23.68362 216.000
23.70356 198.000
23.72351 194.000
23.74346 196.000
23.76340 200.000
23.78335 184.000
23.80330 199.000
23.82324 198.000
23.84319 200.000
23.86314 184.000
23.88309 200.000
23.90303 181.000
23.92298 211.000
23.94293 225.000
23.96287 195.000
23.98282 238.000
24.00277 208.000
24.02271 212.000
24.04266 200.000
24.06261 184.000
24.08256 219.000
24.10250 165.000
24.12245 197.000
24.14240 222.000
24.16234 212.000
24.18229 192.000
24.20224 200.000
24.22218 200.000
24.24213 192.000
24.26208 204.000
24.28202 207.000
24.30197 195.000
24.32192 180.000
24.34187 200.000
24.36181 192.000
24.38176 190.000
24.40171 188.000
24.42165 203.000
24.44160 188.000
24.46155 193.000
24.48149 200.000
24.50144 202.000
24.52139 216.000
24.54134 187.000
24.56128 208.000
24.58123 196.000
24.60118 194.000
24.62112 212.000
24.64107 187.000
24.66102 177.000
24.68096 198.000
24.70091 207.000
24.72086 215.000
24.74080 219.000
24.76075 198.000
24.78070 191.000
24.80065 192.000
24.82059 226.000
24.84054 198.000
24.86049 202.000
24.88043 180.000
24.90038 202.000
24.92033 185.000
24.94027 221.000
24.96022 218.000
24.98017 210.000
25.00012 236.000
25.02006 197.000
25.04001 204.000
25.05996 219.000
25.07990 207.000
25.09985 212.000
25.11980 196.000
25.13974 195.000
25.15969 215.000
25.17964 196.000
25.19958 190.000
25.21953 200.000
25.23948 195.000
25.25943 187.000
25.27937 188.000
25.29932 199.000
25.31927 218.000
25.33921 211.000
25.35916 217.000
25.37911 189.000
25.39905 195.000
25.41900 180.000
25.43895 204.000
25.45890 207.000
25.47884 213.000
25.49879 206.000
25.51874 193.000
25.53868 206.000
25.55863 167.000
25.57858 210.000
25.59852 191.000
25.61847 217.000
25.63842 182.000
25.65837 191.000
25.67831 194.000
25.69826 200.000
25.71821 196.000
25.73815 194.000
25.75810 182.000
25.77805 184.000
25.79799 208.000
25.81794 204.000
25.83789 181.000
25.85783 191.000
25.87778 178.000
25.89773 187.000
25.91768 187.000
25.93762 214.000
25.95757 200.000
25.97752 224.000
25.99746 187.000
26.01741 217.000
26.03736 191.000
26.05730 187.000
26.07725 189.000
26.09720 203.000
26.11715 234.000
26.13709 195.000
26.15704 199.000
26.17699 203.000
26.19693 195.000
26.21688 203.000
26.23683 185.000
26.25677 190.000
26.27672 197.000
26.29667 199.000
26.31661 224.000
26.33656 203.000
26.35651 229.000
26.37646 186.000
26.39640 176.000
26.41635 199.000
26.43630 224.000
26.45624 210.000
26.47619 177.000
26.49614 209.000
26.51608 205.000
26.53603 220.000
26.55598 183.000
26.57593 207.000
26.59587 201.000
26.61582 202.000
26.63577 155.000
26.65571 195.000
26.67566 209.000
26.69561 197.000
26.71555 187.000
26.73550 187.000
26.75545 189.000
26.77539 215.000
26.79534 217.000
26.81529 176.000
26.83524 192.000
26.85518 193.000
26.87513 192.000
26.89508 195.000
26.91502 210.000
26.93497 200.000
26.95492 210.000
26.97486 197.000
26.99481 188.000
27.01476 209.000
27.03471 218.000
27.05465 190.000
27.07460 195.000
27.09455 201.000
27.11449 224.000
27.13444 181.000
27.15439 195.000
27.17433 215.000
27.19428 221.000
27.21423 199.000
27.23417 238.000
27.25412 204.000
27.27407 192.000
27.29402 206.000
27.31396 199.000
27.33391 211.000
27.35386 190.000
27.37380 192.000
27.39375 203.000
27.41370 200.000
27.43364 199.000
27.45359 214.000
27.47354 168.000
27.49349 186.000
27.51343 199.000
27.53338 204.000
27.55333 207.000
27.57327 196.000
27.59322 179.000
27.61317 208.000
27.63311 218.000
27.65306 218.000
27.67301 219.000
27.69296 228.000
27.71290 210.000
27.73285 237.000
27.75280 198.000
27.77274 202.000
27.79269 198.000
27.81264 222.000
27.83258 205.000
27.85253 217.000
27.87248 206.000
27.89242 212.000
27.91237 224.000
27.93232 199.000
27.95227 212.000
27.97221 198.000
27.99216 201.000
28.01211 228.000
28.03205 202.000
28.05200 199.000
28.07195 186.000
28.09189 199.000
28.11184 195.000
28.13179 229.000
28.15174 230.000
28.17168 216.000
28.19163 212.000
28.21158 213.000
28.23152 199.000
28.25147 199.000
28.27142 245.000
28.29136 220.000
28.31131 189.000
28.33126 190.000
28.35120 206.000
28.37115 205.000
28.39110 172.000
28.41105 204.000
28.43099 212.000
28.45094 194.000
28.47089 222.000
28.49083 219.000
28.51078 208.000
28.53073 210.000
28.55067 224.000
28.57062 222.000
28.59057 222.000
28.61052 217.000
28.63046 195.000
28.65041 193.000
28.67036 210.000
28.69030 184.000
28.71025 202.000
28.73020 197.000
28.75014 222.000
28.77009 213.000
28.79004 214.000
28.80998 198.000
28.82993 178.000
28.84988 184.000
28.86983 189.000
28.88977 211.000
28.90972 206.000
28.92967 192.000
28.94961 223.000
28.96956 226.000
28.98951 201.000
29.00945 207.000
29.02940 227.000
29.04935 197.000
29.06930 211.000
29.08924 213.000
29.10919 174.000
29.12914 217.000
29.14908 195.000
29.16903 221.000
29.18898 215.000
29.20892 210.000
29.22887 218.000
29.24882 207.000
29.26877 227.000
29.28871 249.000
29.30866 254.000
29.32861 238.000
29.34855 262.000
29.36850 236.000
29.38845 245.000
29.40839 226.000
29.42834 299.000
29.44829 257.000
29.46823 259.000
29.48818 258.000
29.50813 260.000
29.52808 216.000
29.54802 212.000
29.56797 229.000
29.58792 240.000
29.60786 216.000
29.62781 191.000
29.64776 216.000
29.66770 219.000
29.68765 205.000
29.70760 220.000
29.72755 222.000
29.74749 217.000
29.76744 212.000
29.78739 213.000
29.80733 198.000
29.82728 210.000
29.84723 200.000
29.86717 185.000
29.88712 197.000
29.90707 227.000
29.92701 197.000
29.94696 238.000
29.96691 236.000
29.98686 211.000
30.00680 207.000
30.02675 231.000
30.04670 212.000
30.06664 242.000
30.08659 263.000
30.10654 248.000
30.12648 248.000
30.14643 255.000
30.16638 257.000
30.18633 276.000
30.20627 325.000
30.22622 326.000
30.24617 445.000
30.26611 560.000
30.28606 574.000
30.30601 466.000
30.32595 429.000
30.34590 428.000
30.36585 406.000
30.38579 322.000
30.40574 302.000
30.42569 297.000
30.44564 233.000
30.46558 227.000
30.48553 209.000
30.50548 235.000
30.52542 231.000
30.54537 238.000
30.56532 212.000
30.58526 214.000
30.60521 221.000
30.62516 212.000
30.64511 220.000
30.66505 220.000
30.68500 227.000
30.70495 213.000
30.72489 238.000
30.74484 222.000
30.76479 200.000
30.78473 216.000
30.80468 227.000
30.82463 195.000
30.84458 232.000
30.86452 195.000
30.88447 214.000
30.90442 194.000
30.92436 190.000
30.94431 212.000
30.96426 265.000
30.98420 207.000
31.00415 230.000
31.02410 202.000
31.04404 214.000
31.06399 199.000
31.08394 223.000
31.10389 201.000
31.12383 205.000
31.14378 209.000
31.16373 235.000
31.18367 179.000
31.20362 207.000
31.22357 232.000
31.24351 214.000
31.26346 202.000
31.28341 213.000
31.30336 219.000
31.32330 225.000
31.34325 250.000
31.36320 237.000
31.38314 236.000
31.40309 207.000
31.42304 185.000
31.44298 230.000
31.46293 220.000
31.48288 209.000
31.50282 215.000
31.52277 232.000
31.54272 184.000
31.56267 224.000
31.58261 226.000
31.60256 224.000
31.62251 220.000
31.64245 207.000
31.66240 221.000
31.68235 231.000
31.70229 245.000
31.72224 205.000
31.74219 211.000
31.76214 222.000
31.78208 229.000
31.80203 218.000
31.82198 224.000
31.84192 241.000
31.86187 255.000
31.88182 234.000
31.90176 262.000
31.92171 288.000
31.94166 296.000
31.96160 356.000
31.98155 348.000
32.00150 497.000
32.02145 555.000
32.04139 737.000
32.06134 859.000
32.08129 1111.000
32.10123 1287.000
32.12118 1364.000
32.14113 1408.000
32.16107 1321.000
32.18102 1157.000
32.20097 984.000
32.22092 831.000
32.24086 636.000
32.26081 529.000
32.28076 375.000
32.30070 336.000
32.32065 290.000
32.34060 254.000
32.36054 259.000
32.38049 249.000
32.40044 268.000
32.42039 258.000
32.44033 273.000
32.46028 283.000
32.48023 279.000
32.50017 267.000
32.52012 300.000
32.54007 264.000
32.56001 268.000
32.57996 285.000
32.59991 262.000
32.61985 274.000
32.63980 262.000
32.65975 273.000
32.67970 254.000
32.69964 270.000
32.71959 260.000
32.73954 232.000
32.75948 291.000
32.77943 233.000
32.79938 231.000
32.81932 245.000
32.83927 238.000
32.85922 231.000
32.87917 252.000
32.89911 232.000
32.91906 240.000
32.93901 255.000
32.95895 253.000
32.97890 244.000
32.99885 229.000
33.01879 240.000
33.03874 252.000
33.05869 205.000
33.07863 230.000
33.09858 219.000
33.11853 227.000
33.13848 216.000
33.15842 228.000
33.17837 202.000
33.19832 208.000
33.21826 228.000
33.23821 226.000
33.25816 212.000
33.27810 226.000
33.29805 228.000
33.31800 217.000
33.33795 208.000
33.35789 226.000
33.37784 202.000
33.39779 198.000
33.41773 226.000
33.43768 217.000
33.45763 219.000
33.47757 233.000
33.49752 200.000
33.51747 221.000
33.53741 235.000
33.55736 213.000
33.57731 193.000
33.59726 223.000
33.61720 206.000
33.63715 211.000
33.65710 197.000
33.67704 214.000
33.69699 228.000
33.71694 235.000
33.73688 208.000
33.75683 250.000
33.77678 225.000
33.79673 200.000
33.81667 224.000
33.83662 229.000
33.85657 221.000
33.87651 228.000
33.89646 208.000
33.91641 215.000
33.93635 237.000
33.95630 208.000
33.97625 236.000
33.99620 285.000
34.01614 236.000
34.03609 229.000
34.05604 243.000
34.07598 245.000
34.09593 251.000
34.11588 242.000
34.13582 265.000
34.15577 278.000
34.17572 259.000
34.19566 303.000
34.21561 287.000
34.23556 322.000
34.25551 328.000
34.27545 372.000
34.29540 405.000
34.31535 415.000
34.33529 467.000
34.35524 476.000
34.37519 504.000
34.39513 506.000
34.41508 519.000
34.43503 530.000
34.45498 533.000
34.47492 510.000
34.49487 517.000
34.51482 441.000
34.53476 423.000
34.55471 453.000
34.57466 387.000
34.59460 359.000
34.61455 388.000
34.63450 365.000
34.65444 338.000
34.67439 339.000
34.69434 362.000
34.71429 326.000
34.73423 286.000
34.75418 302.000
34.77413 291.000
34.79407 300.000
34.81402 283.000
34.83397 312.000
34.85391 297.000
34.87386 267.000
34.89381 269.000
34.91376 270.000
34.93370 281.000
34.95365 264.000
34.97360 294.000
34.99354 255.000
35.01349 276.000
35.03344 276.000
35.05338 236.000
35.07333 281.000
35.09328 312.000
35.11322 300.000
35.13317 288.000
35.15312 292.000
35.17307 268.000
35.19301 304.000
35.21296 298.000
35.23291 322.000
35.25285 325.000
35.27280 401.000
35.29275 357.000
35.31269 377.000
35.33264 452.000
35.35259 458.000
35.37254 558.000
35.39248 603.000
35.41243 680.000
35.43238 863.000
35.45232 898.000
35.47227 968.000
35.49222 1162.000
35.51216 1309.000
35.53211 1404.000
35.55206 1407.000
35.57201 1421.000
35.59195 1567.000
35.61190 1749.000
35.63185 1849.000
35.65179 2124.000
35.67174 1863.000
35.69169 1557.000
35.71163 1324.000
35.73158 1316.000
35.75153 1264.000
35.77147 1045.000
35.79142 879.000
35.81137 696.000
35.83132 557.000
35.85126 551.000
35.87121 458.000
35.89116 452.000
35.91110 408.000
35.93105 376.000
35.95100 413.000
35.97094 346.000
35.99089 323.000
36.01084 315.000
36.03079 304.000
36.05073 306.000
36.07068 272.000
36.09063 282.000
36.11057 284.000
36.13052 252.000
36.15047 302.000
36.17041 253.000
36.19036 234.000
36.21031 255.000
36.23025 285.000
36.25020 255.000
36.27015 267.000
36.29010 258.000
36.31004 230.000
36.32999 286.000
36.34994 222.000
36.36988 254.000
36.38983 283.000
36.40978 266.000
36.42972 283.000
36.44967 276.000
36.46962 300.000
36.48957 272.000
36.50951 250.000
36.52946 281.000
36.54941 291.000
36.56935 278.000
36.58930 262.000
36.60925 256.000
36.62919 278.000
36.64914 277.000
36.66909 262.000
36.68903 274.000
36.70898 259.000
36.72893 295.000
36.74888 297.000
36.76882 285.000
36.78877 284.000
36.80872 318.000
36.82866 311.000
36.84861 338.000
36.86856 306.000
36.88850 302.000
36.90845 344.000
36.92840 356.000
36.94835 391.000
36.96829 404.000
36.98824 418.000
37.00819 502.000
37.02813 507.000
37.04808 633.000
37.06803 651.000
37.08797 758.000
37.10792 800.000
37.12787 871.000
37.14781 835.000
37.16776 787.000
37.18771 785.000
37.20766 744.000
37.22760 654.000
37.24755 650.000
37.26750 563.000
37.28744 540.000
37.30739 544.000
37.32734 443.000
37.34728 360.000
37.36723 368.000
37.38718 345.000
37.40713 329.000
37.42707 282.000
37.44702 240.000
37.46697 249.000
37.48691 256.000
37.50686 249.000
37.52681 259.000
37.54675 229.000
37.56670 263.000
37.58665 280.000
37.60660 229.000
37.62654 232.000
37.64649 232.000
37.66644 232.000
37.68638 231.000
37.70633 206.000
37.72628 223.000
37.74622 212.000
37.76617 253.000
37.78612 221.000
37.80606 219.000
37.82601 245.000
37.84596 268.000
37.86591 240.000
37.88585 252.000
37.90580 241.000
37.92575 263.000
37.94569 255.000
37.96564 231.000
37.98559 260.000
38.00553 253.000
38.02548 270.000
38.04543 266.000
38.06538 223.000
38.08532 250.000
38.10527 255.000
38.12522 233.000
38.14516 251.000
38.16511 258.000
38.18506 254.000
38.20500 262.000
38.22495 274.000
38.24490 275.000
38.26484 237.000
38.28479 277.000
38.30474 298.000
38.32469 280.000
38.34463 253.000
38.36458 298.000
38.38453 301.000
38.40447 298.000
38.42442 344.000
38.44437 315.000
38.46431 337.000
38.48426 376.000
38.50421 361.000
38.52416 385.000
38.54410 417.000
38.56405 476.000
38.58400 489.000
38.60394 547.000
38.62389 575.000
38.64384 613.000
38.66378 723.000
38.68373 744.000
38.70368 759.000
38.72362 743.000
38.74357 740.000
38.76352 761.000
38.78347 762.000
38.80341 695.000
38.82336 671.000
38.84331 696.000
38.86325 650.000
38.88320 607.000
38.90315 621.000
38.92309 617.000
38.94304 638.000
38.96299 629.000
38.98294 650.000
39.00288 688.000
39.02283 657.000
39.04278 682.000
39.06272 749.000
39.08267 938.000
39.10262 1031.000
39.12256 1060.000
39.14251 1070.000
39.16246 1069.000
39.18241 1057.000
39.20235 1015.000
39.22230 995.000
39.24225 935.000
39.26219 879.000
39.28214 805.000
39.30209 705.000
39.32203 614.000
39.34198 538.000
39.36193 501.000
39.38187 494.000
39.40182 463.000
39.42177 402.000
39.44172 390.000
39.46166 353.000
39.48161 344.000
39.50156 279.000
39.52150 310.000
39.54145 298.000
39.56140 301.000
39.58134 309.000
39.60129 258.000
39.62124 253.000
39.64119 264.000
39.66113 234.000
39.68108 284.000
39.70103 253.000
39.72097 231.000
39.74092 250.000
39.76087 257.000
39.78081 238.000
39.80076 269.000
39.82071 238.000
39.84065 256.000
39.86060 252.000
39.88055 260.000
39.90050 247.000
39.92044 231.000
39.94039 213.000
39.96034 223.000
39.98028 251.000
40.00023 221.000
40.02018 215.000
40.04012 213.000
40.06007 215.000
40.08002 228.000
40.09997 218.000
40.11991 218.000
40.13986 245.000
40.15981 210.000
40.17975 206.000
40.19970 238.000
40.21965 230.000
40.23959 209.000
40.25954 224.000
40.27949 235.000
40.29943 226.000
40.31938 219.000
40.33933 208.000
40.35928 238.000
40.37922 218.000
40.39917 209.000
40.41912 225.000
40.43906 193.000
40.45901 222.000
40.47896 214.000
40.49890 207.000
40.51885 212.000
40.53880 209.000
40.55875 213.000
40.57869 224.000
40.59864 221.000
40.61859 206.000
40.63853 228.000
40.65848 237.000
40.67843 245.000
40.69837 214.000
40.71832 217.000
40.73827 201.000
40.75822 218.000
40.77816 219.000
40.79811 205.000
40.81806 235.000
40.83800 189.000
40.85795 212.000
40.87790 182.000
40.89784 213.000
40.91779 205.000
40.93774 223.000
40.95768 186.000
40.97763 211.000
40.99758 235.000
41.01753 213.000
41.03747 211.000
41.05742 216.000
41.07737 229.000
41.09731 239.000
41.11726 243.000
41.13721 223.000
41.15715 230.000
41.17710 233.000
41.19705 264.000
41.21700 218.000
41.23694 226.000
41.25689 236.000
41.27684 205.000
41.29678 211.000
41.31673 228.000
41.33668 235.000
41.35662 267.000
41.37657 272.000
41.39652 227.000
41.41646 214.000
41.43641 236.000
41.45636 280.000
41.47631 277.000
41.49625 222.000
41.51620 288.000
41.53615 261.000
41.55609 258.000
41.57604 331.000
41.59599 354.000
41.61593 380.000
41.63588 380.000
41.65583 393.000
41.67578 367.000
41.69572 370.000
41.71567 355.000
41.73562 349.000
41.75556 311.000
41.77551 355.000
41.79546 276.000
41.81540 276.000
41.83535 250.000
41.85530 245.000
41.87524 245.000
41.89519 239.000
41.91514 263.000
41.93509 237.000
41.95503 266.000
41.97498 244.000
41.99493 224.000
42.01487 215.000
42.03482 243.000
42.05477 235.000
42.07471 233.000
42.09466 244.000
42.11461 244.000
42.13456 256.000
42.15450 231.000
42.17445 230.000
42.19440 236.000
42.21434 247.000
42.23429 239.000
42.25424 217.000
42.27418 211.000
42.29413 215.000
42.31408 237.000
42.33403 214.000
42.35397 252.000
42.37392 253.000
42.39387 241.000
42.41381 228.000
42.43376 225.000
42.45371 248.000
42.47365 246.000
42.49360 219.000
42.51355 239.000
42.53349 251.000
42.55344 238.000
42.57339 240.000
42.59334 259.000
42.61328 244.000
42.63323 260.000
42.65318 245.000
42.67312 259.000
42.69307 250.000
42.71302 261.000
42.73296 293.000
42.75291 282.000
42.77286 311.000
42.79281 329.000
42.81275 312.000
42.83270 356.000
42.85265 364.000
42.87259 410.000
42.89254 420.000
42.91249 428.000
42.93243 493.000
42.95238 521.000
42.97233 547.000
42.99227 581.000
43.01222 568.000
43.03217 630.000
43.05212 714.000
43.07206 751.000
43.09201 790.000
43.11196 862.000
43.13190 900.000
43.15185 896.000
43.17180 906.000
43.19174 924.000
43.21169 908.000
43.23164 1006.000
43.25159 1119.000
43.27153 1092.000
43.29148 1150.000
43.31143 1223.000
43.33137 1187.000
43.35132 1093.000
43.37127 966.000
43.39121 848.000
43.41116 788.000
43.43111 845.000
43.45105 735.000
43.47100 636.000
43.49095 538.000
43.51090 523.000
43.53084 433.000
43.55079 388.000
43.57074 346.000
43.59068 344.000
43.61063 340.000
43.63058 313.000
43.65052 270.000
43.67047 276.000
43.69042 315.000
43.71037 263.000
43.73031 250.000
43.75026 227.000
43.77021 262.000
43.79015 251.000
43.81010 270.000
43.83005 213.000
43.84999 242.000
43.86994 238.000
43.88989 207.000
43.90984 238.000
43.92978 224.000
43.94973 220.000
43.96968 222.000
43.98962 207.000
44.00957 211.000
44.02952 250.000
44.04946 216.000
44.06941 221.000
44.08936 212.000
44.10930 194.000
44.12925 223.000
44.14920 228.000
44.16915 216.000
44.18909 217.000
44.20904 232.000
44.22899 222.000
44.24893 185.000
44.26888 190.000
44.28883 194.000
44.30877 219.000
44.32872 226.000
44.34867 234.000
44.36862 204.000
44.38856 222.000
44.40851 202.000
44.42846 208.000
44.44840 223.000
44.46835 192.000
44.48830 204.000
44.50824 233.000
44.52819 199.000
44.54814 236.000
44.56808 241.000
44.58803 174.000
44.60798 233.000
44.62793 218.000
44.64787 209.000
44.66782 195.000
44.68777 224.000
44.70771 216.000
44.72766 198.000
44.74761 213.000
44.76755 224.000
44.78750 212.000
44.80745 236.000
44.82740 199.000
44.84734 214.000
44.86729 236.000
44.88724 221.000
44.90718 216.000
44.92713 201.000
44.94708 196.000
44.96702 227.000
44.98697 199.000
45.00692 209.000
45.02686 241.000
45.04681 200.000
45.06676 201.000
45.08671 194.000
45.10665 206.000
45.12660 211.000
45.14655 205.000
45.16649 198.000
45.18644 220.000
45.20639 196.000
45.22633 204.000
45.24628 237.000
45.26623 214.000
45.28618 227.000
45.30612 218.000
45.32607 209.000
45.34602 223.000
45.36596 225.000
45.38591 195.000
45.40586 213.000
45.42580 212.000
45.44575 180.000
45.46570 232.000
45.48565 215.000
45.50559 206.000
45.52554 216.000
45.54549 195.000
45.56543 188.000
45.58538 219.000
45.60533 219.000
45.62527 194.000
45.64522 227.000
45.66517 236.000
45.68511 219.000
45.70506 216.000
45.72501 191.000
45.74496 198.000
45.76490 206.000
45.78485 200.000
45.80480 216.000
45.82474 221.000
45.84469 226.000
45.86464 193.000
45.88458 208.000
45.90453 189.000
45.92448 199.000
45.94443 233.000
45.96437 208.000
45.98432 197.000
46.00427 206.000
46.02421 212.000
46.04416 192.000
46.06411 196.000
46.08405 212.000
46.10400 193.000
46.12395 192.000
46.14389 211.000
46.16384 216.000
46.18379 220.000
46.20374 210.000
46.22368 208.000
46.24363 207.000
46.26358 209.000
46.28352 204.000
46.30347 212.000
46.32342 220.000
46.34336 219.000
46.36331 230.000
46.38326 240.000
46.40321 227.000
46.42315 229.000
46.44310 222.000
46.46305 247.000
46.48299 232.000
46.50294 192.000
46.52289 253.000
46.54283 189.000
46.56278 228.000
46.58273 212.000
46.60267 213.000
46.62262 187.000
46.64257 208.000
46.66252 230.000
46.68246 218.000
46.70241 209.000
46.72236 208.000
46.74230 212.000
46.76225 216.000
46.78220 230.000
46.80214 212.000
46.82209 189.000
46.84204 198.000
46.86199 204.000
46.88193 211.000
46.90188 212.000
46.92183 190.000
46.94177 217.000
46.96172 224.000
46.98167 211.000
47.00161 206.000
47.02156 213.000
47.04151 240.000
47.06146 200.000
47.08140 220.000
47.10135 219.000
47.12130 213.000
47.14124 200.000
47.16119 184.000
47.18114 217.000
47.20108 202.000
47.22103 196.000
47.24098 188.000
47.26092 198.000
47.28087 215.000
47.30082 219.000
47.32077 195.000
47.34071 206.000
47.36066 215.000
47.38061 212.000
47.40055 221.000
47.42050 195.000
47.44045 194.000
47.46039 217.000
47.48034 222.000
47.50029 201.000
47.52024 198.000
47.54018 211.000
47.56013 230.000
47.58008 206.000
47.60002 195.000
47.61997 205.000
47.63992 221.000
47.65986 221.000
47.67981 210.000
47.69976 225.000
47.71970 217.000
47.73965 213.000
47.75960 220.000
47.77955 228.000
47.79949 213.000
47.81944 222.000
47.83939 231.000
47.85933 249.000
47.87928 243.000
47.89923 228.000
47.91917 247.000
47.93912 249.000
47.95907 239.000
47.97902 215.000
47.99896 233.000
48.01891 227.000
48.03886 232.000
48.05880 216.000
48.07875 241.000
48.09870 242.000
48.11864 229.000
48.13859 249.000
48.15854 243.000
48.17848 283.000
48.19843 261.000
48.21838 229.000
48.23833 230.000
48.25827 231.000
48.27822 269.000
48.29817 274.000
48.31811 274.000
48.33806 291.000
48.35801 307.000
48.37795 271.000
48.39790 337.000
48.41785 311.000
48.43780 357.000
48.45774 389.000
48.47769 368.000
48.49764 405.000
48.51758 437.000
48.53753 471.000
48.55748 613.000
48.57742 734.000
48.59737 840.000
48.61732 939.000
48.63726 1025.000
48.65721 1023.000
48.67716 1016.000
48.69711 982.000
48.71705 941.000
48.73700 947.000
48.75695 946.000
48.77689 872.000
48.79684 897.000
48.81679 762.000
48.83673 672.000
48.85668 645.000
48.87663 599.000
48.89658 585.000
48.91652 521.000
48.93647 496.000
48.95642 475.000
48.97636 430.000
48.99631 386.000
49.01626 365.000
49.03620 364.000
49.05615 320.000
49.07610 325.000
49.09605 302.000
49.11599 319.000
49.13594 305.000
49.15589 291.000
49.17583 261.000
49.19578 250.000
49.21573 272.000
49.23567 253.000
49.25562 285.000
49.27557 276.000
49.29551 288.000
49.31546 246.000
49.33541 260.000
49.35536 254.000
49.37530 249.000
49.39525 241.000
49.41520 234.000
49.43514 238.000
49.45509 267.000
49.47504 248.000
49.49498 259.000
49.51493 237.000
49.53488 232.000
49.55483 265.000
49.57477 215.000
49.59472 208.000
49.61467 196.000
49.63461 246.000
49.65456 271.000
49.67451 225.000
49.69445 244.000
49.71440 236.000
49.73435 218.000
49.75429 232.000
49.77424 225.000
49.79419 203.000
49.81414 222.000
49.83408 197.000
49.85403 230.000
49.87398 215.000
49.89392 205.000
49.91387 212.000
49.93382 214.000
49.95376 221.000
49.97371 231.000
49.99366 181.000
50.01361 210.000
50.03355 220.000
50.05350 219.000
50.07345 219.000
50.09339 183.000
50.11334 219.000
50.13329 220.000
50.15323 234.000
50.17318 197.000
50.19313 231.000
50.21307 213.000
50.23302 194.000
50.25297 208.000
50.27292 223.000
50.29286 219.000
50.31281 217.000
50.33276 201.000
50.35270 201.000
50.37265 204.000
50.39260 188.000
50.41254 196.000
50.43249 199.000
50.45244 206.000
50.47239 213.000
50.49233 207.000
50.51228 205.000
50.53223 207.000
50.55217 204.000
50.57212 202.000
50.59207 196.000
50.61201 203.000
50.63196 198.000
50.65191 182.000
50.67186 198.000
50.69180 208.000
50.71175 193.000
50.73170 209.000
50.75164 206.000
50.77159 222.000
50.79154 203.000
50.81148 192.000
50.83143 222.000
50.85138 206.000
50.87132 214.000
50.89127 206.000
50.91122 201.000
50.93117 203.000
50.95111 221.000
50.97106 187.000
50.99101 221.000
51.01095 212.000
51.03090 207.000
51.05085 186.000
51.07079 221.000
51.09074 232.000
51.11069 201.000
51.13064 236.000
51.15058 219.000
51.17053 180.000
51.19048 189.000
51.21042 208.000
51.23037 228.000
51.25032 216.000
51.27026 234.000
51.29021 216.000
51.31016 223.000
51.33010 198.000
51.35005 202.000
51.37000 227.000
51.38995 220.000
51.40989 208.000
51.42984 203.000
51.44979 205.000
51.46973 207.000
51.48968 202.000
51.50963 197.000
51.52957 191.000
51.54952 221.000
51.56947 191.000
51.58942 225.000
51.60936 226.000
51.62931 192.000
51.64926 202.000
51.66920 212.000
51.68915 219.000
51.70910 187.000
51.72904 227.000
51.74899 193.000
51.76894 196.000
51.78888 191.000
51.80883 219.000
51.82878 188.000
51.84873 210.000
51.86867 199.000
51.88862 218.000
51.90857 213.000
51.92851 206.000
51.94846 210.000
51.96841 216.000
51.98835 182.000
52.00830 222.000
52.02825 211.000
52.04820 237.000
52.06814 239.000
52.08809 236.000
52.10804 193.000
52.12798 222.000
52.14793 188.000
52.16788 215.000
52.18782 240.000
52.20777 247.000
52.22772 229.000
52.24767 196.000
52.26761 227.000
52.28756 217.000
52.30751 203.000
52.32745 188.000
52.34740 210.000
52.36735 212.000
52.38729 216.000
52.40724 218.000
52.42719 194.000
52.44713 200.000
52.46708 212.000
52.48703 210.000
52.50698 200.000
52.52692 184.000
52.54687 211.000
52.56682 212.000
52.58676 233.000
52.60671 195.000
52.62666 206.000
52.64660 229.000
52.66655 202.000
52.68650 216.000
52.70645 209.000
52.72639 206.000
52.74634 220.000
52.76629 207.000
52.78623 201.000
52.80618 210.000
52.82613 256.000
52.84607 199.000
52.86602 208.000
52.88597 216.000
52.90591 220.000
52.92586 238.000
52.94581 228.000
52.96576 190.000
52.98570 248.000
53.00565 233.000
53.02560 236.000
53.04554 224.000
53.06549 210.000
53.08544 231.000
53.10538 255.000
53.12533 257.000
53.14528 259.000
53.16523 215.000
53.18517 250.000
53.20512 225.000
53.22507 243.000
53.24501 230.000
53.26496 242.000
53.28491 232.000
53.30485 234.000
53.32480 223.000
53.34475 203.000
53.36469 255.000
53.38464 228.000
53.40459 269.000
53.42454 227.000
53.44448 238.000
53.46443 251.000
53.48438 252.000
53.50432 222.000
53.52427 235.000
53.54422 241.000
53.56416 237.000
53.58411 220.000
53.60406 247.000
53.62401 257.000
53.64395 246.000
53.66390 213.000
53.68385 245.000
53.70379 272.000
53.72374 283.000
53.74369 273.000
53.76363 281.000
53.78358 296.000
53.80353 304.000
53.82348 258.000
53.84342 269.000
53.86337 259.000
53.88332 243.000
53.90326 284.000
53.92321 237.000
53.94316 227.000
53.96310 250.000
53.98305 254.000
54.00300 203.000
54.02294 197.000
54.04289 218.000
54.06284 214.000
54.08279 179.000
54.10273 251.000
54.12268 239.000
54.14263 216.000
54.16257 226.000
54.18252 234.000
54.20247 217.000
54.22241 201.000
54.24236 209.000
54.26231 210.000
54.28226 199.000
54.30220 205.000
54.32215 220.000
54.34210 215.000
54.36204 212.000
54.38199 242.000
54.40194 215.000
54.42188 191.000
54.44183 206.000
54.46178 208.000
54.48172 189.000
54.50167 208.000
54.52162 216.000
54.54157 215.000
54.56151 227.000
54.58146 213.000
54.60141 207.000
54.62135 184.000
54.64130 205.000
54.66125 226.000
54.68119 198.000
54.70114 204.000
54.72109 202.000
54.74104 186.000
54.76098 206.000
54.78093 196.000
54.80088 202.000
54.82082 213.000
54.84077 200.000
54.86072 208.000
54.88066 191.000
54.90061 218.000
54.92056 197.000
54.94050 213.000
54.96045 213.000
54.98040 230.000
55.00035 216.000
55.02029 216.000
55.04024 181.000
55.06019 224.000
55.08013 200.000
55.10008 203.000
55.12003 210.000
55.13997 218.000
55.15992 216.000
55.17987 237.000
55.19982 202.000
55.21976 197.000
55.23971 224.000
55.25966 219.000
55.27960 206.000
55.29955 207.000
55.31950 226.000
55.33944 216.000
55.35939 236.000
55.37934 218.000
55.39929 189.000
55.41923 192.000
55.43918 184.000
55.45913 220.000
55.47907 222.000
55.49902 196.000
55.51897 209.000
55.53891 192.000
55.55886 210.000
55.57881 196.000
55.59875 220.000
55.61870 189.000
55.63865 229.000
55.65860 207.000
55.67854 218.000
55.69849 196.000
55.71844 224.000
55.73838 198.000
55.75833 215.000
55.77828 204.000
55.79822 225.000
55.81817 209.000
55.83812 224.000
55.85807 168.000
55.87801 210.000
55.89796 197.000
55.91791 205.000
55.93785 227.000
55.95780 210.000
55.97775 208.000
55.99769 204.000
56.01764 222.000
56.03759 208.000
56.05753 194.000
56.07748 189.000
56.09743 236.000
56.11738 208.000
56.13732 205.000
56.15727 205.000
56.17722 212.000
56.19716 211.000
56.21711 208.000
56.23706 212.000
56.25700 208.000
56.27695 195.000
56.29690 208.000
56.31685 202.000
56.33679 190.000
56.35674 222.000
56.37669 199.000
56.39663 204.000
56.41658 198.000
56.43653 228.000
56.45647 227.000
56.47642 180.000
56.49637 201.000
56.51631 205.000
56.53626 198.000
56.55621 191.000
56.57616 207.000
56.59610 186.000
56.61605 209.000
56.63600 216.000
56.65594 221.000
56.67589 193.000
56.69584 246.000
56.71578 196.000
56.73573 197.000
56.75568 217.000
56.77563 241.000
56.79557 213.000
56.81552 190.000
56.83547 207.000
56.85541 199.000
56.87536 204.000
56.89531 185.000
56.91525 203.000
56.93520 195.000
56.95515 232.000
56.97510 209.000
56.99504 221.000
57.01499 233.000
57.03494 226.000
57.05488 255.000
57.07483 251.000
57.09478 222.000
57.11472 220.000
57.13467 216.000
57.15462 249.000
57.17456 211.000
57.19451 251.000
57.21446 284.000
57.23441 286.000
57.25435 359.000
57.27430 373.000
57.29425 419.000
57.31419 483.000
57.33414 468.000
57.35409 452.000
57.37403 383.000
57.39398 342.000
57.41393 365.000
57.43388 366.000
57.45382 385.000
57.47377 414.000
57.49372 355.000
57.51366 332.000
57.53361 313.000
57.55356 294.000
57.57350 267.000
57.59345 243.000
57.61340 293.000
57.63334 240.000
57.65329 298.000
57.67324 255.000
57.69319 266.000
57.71313 264.000
57.73308 273.000
57.75303 265.000
57.77297 251.000
57.79292 223.000
57.81287 251.000
57.83281 235.000
57.85276 259.000
57.87271 246.000
57.89266 259.000
57.91260 248.000
57.93255 215.000
57.95250 233.000
57.97244 221.000
57.99239 254.000
58.01234 221.000
58.03228 246.000
58.05223 226.000
58.07218 253.000
58.09212 234.000
58.11207 226.000
58.13202 238.000
58.15197 241.000
58.17191 284.000
58.19186 231.000
58.21181 247.000
58.23175 292.000
58.25170 286.000
58.27165 285.000
58.29159 273.000
58.31154 314.000
58.33149 248.000
58.35144 266.000
58.37138 258.000
58.39133 271.000
58.41128 209.000
58.43122 282.000
58.45117 245.000
58.47112 247.000
58.49106 237.000
58.51101 255.000
58.53096 218.000
58.55090 258.000
58.57085 236.000
58.59080 227.000
58.61075 237.000
58.63069 233.000
58.65064 215.000
58.67059 199.000
58.69053 218.000
58.71048 222.000
58.73043 200.000
58.75037 215.000
58.77032 199.000
58.79027 210.000
58.81022 209.000
58.83016 211.000
58.85011 211.000
58.87006 214.000
58.89000 214.000
58.90995 205.000
58.92990 230.000
58.94984 215.000
58.96979 218.000
58.98974 213.000
59.00969 207.000
59.02963 242.000
59.04958 225.000
59.06953 223.000
59.08947 228.000
59.10942 194.000
59.12937 212.000
59.14931 201.000
59.16926 194.000
59.18921 230.000
59.20915 224.000
59.22910 199.000
59.24905 217.000
59.26900 213.000
59.28894 199.000
59.30889 236.000
59.32884 198.000
59.34878 194.000
59.36873 203.000
59.38868 179.000
59.40862 218.000
59.42857 189.000
59.44852 209.000
59.46847 206.000
59.48841 198.000
59.50836 197.000
59.52831 221.000
59.54825 197.000
59.56820 219.000
59.58815 214.000
59.60809 201.000
59.62804 208.000
59.64799 236.000
59.66793 198.000
59.68788 235.000
59.70783 242.000
59.72778 199.000
59.74772 195.000
59.76767 219.000
59.78762 200.000
59.80756 194.000
59.82751 202.000
59.84746 204.000
59.86740 199.000
59.88735 214.000
59.90730 217.000
59.92725 183.000
59.94719 202.000
59.96714 207.000
59.98709 185.000
60.00703 205.000
60.02698 223.000
60.04693 233.000
60.06687 222.000
60.08682 205.000
60.10677 232.000
60.12671 216.000
60.14666 205.000
60.16661 223.000
60.18656 209.000
60.20650 225.000
60.22645 235.000
60.24640 207.000
60.26634 216.000
60.28629 198.000
60.30624 222.000
60.32618 190.000
60.34613 239.000
60.36608 184.000
60.38603 205.000
60.40597 201.000
60.42592 203.000
60.44587 225.000
60.46581 203.000
60.48576 211.000
60.50571 189.000
60.52565 190.000
60.54560 237.000
60.56555 196.000
60.58550 203.000
60.60544 222.000
60.62539 222.000
60.64534 212.000
60.66528 221.000
60.68523 221.000
60.70518 225.000
60.72512 204.000
60.74507 234.000
60.76502 218.000
60.78496 244.000
60.80491 225.000
60.82486 220.000
60.84481 222.000
60.86475 220.000
60.88470 235.000
60.90465 227.000
60.92459 254.000
60.94454 236.000
60.96449 229.000
60.98443 244.000
61.00438 236.000
61.02433 208.000
61.04428 252.000
61.06422 227.000
61.08417 229.000
61.10412 223.000
61.12406 265.000
61.14401 252.000
61.16396 239.000
61.18390 219.000
61.20385 236.000
61.22380 236.000
61.24374 234.000
61.26369 254.000
61.28364 286.000
61.30359 271.000
61.32353 265.000
61.34348 258.000
61.36343 263.000
61.38337 267.000
61.40332 317.000
61.42327 306.000
61.44321 304.000
61.46316 278.000
61.48311 347.000
61.50306 323.000
61.52300 363.000
61.54295 346.000
61.56290 355.000
61.58284 363.000
61.60279 370.000
61.62274 378.000
61.64268 375.000
61.66263 365.000
61.68258 406.000
61.70252 388.000
61.72247 355.000
61.74242 373.000
61.76237 397.000
61.78231 366.000
61.80226 417.000
61.82221 395.000
61.84215 409.000
61.86210 392.000
61.88205 445.000
61.90199 507.000
61.92194 530.000
61.94189 590.000
61.96184 625.000
61.98178 726.000
62.00173 754.000
62.02168 703.000
62.04162 669.000
62.06157 575.000
62.08152 523.000
62.10146 535.000
62.12141 593.000
62.14136 578.000
62.16131 507.000
62.18125 574.000
62.20120 453.000
62.22115 430.000
62.24109 421.000
62.26104 394.000
62.28099 386.000
62.30093 361.000
62.32088 357.000
62.34083 357.000
62.36077 382.000
62.38072 336.000
62.40067 338.000
62.42062 395.000
62.44056 416.000
62.46051 400.000
62.48046 410.000
62.50040 436.000
62.52035 423.000
62.54030 452.000
62.56024 444.000
62.58019 491.000
62.60014 486.000
62.62009 497.000
62.64003 534.000
62.65998 574.000
62.67993 531.000
62.69987 546.000
62.71982 539.000
62.73977 510.000
62.75971 503.000
62.77966 530.000
62.79961 532.000
62.81955 517.000
62.83950 534.000
62.85945 520.000
62.87940 542.000
62.89934 572.000
62.91929 663.000
62.93924 639.000
62.95918 647.000
62.97913 661.000
62.99908 552.000
63.01902 479.000
63.03897 421.000
63.05892 439.000
63.07887 447.000
63.09881 425.000
63.11876 447.000
63.13871 428.000
63.15865 410.000
63.17860 341.000
63.19855 333.000
63.21849 329.000
63.23844 299.000
63.25839 263.000
63.27833 296.000
63.29828 273.000
63.31823 293.000
63.33818 292.000
63.35812 274.000
63.37807 256.000
63.39802 258.000
63.41796 256.000
63.43791 244.000
63.45786 246.000
63.47780 264.000
63.49775 237.000
63.51770 237.000
63.53765 269.000
63.55759 252.000
63.57754 275.000
63.59749 252.000
63.61743 284.000
63.63738 235.000
63.65733 268.000
63.67727 301.000
63.69722 280.000
63.71717 325.000
63.73712 301.000
63.75706 315.000
63.77701 355.000
63.79696 341.000
63.81690 402.000
63.83685 377.000
63.85680 389.000
63.87674 347.000
63.89669 395.000
63.91664 382.000
63.93658 385.000
63.95653 334.000
63.97648 369.000
63.99643 353.000
64.01637 346.000
64.03632 336.000
64.05627 333.000
64.07621 303.000
64.09616 292.000
64.11611 269.000
64.13605 286.000
64.15600 307.000
64.17595 246.000
64.19590 265.000
64.21584 249.000
64.23579 275.000
64.25574 278.000
64.27568 239.000
64.29563 242.000
64.31558 244.000
64.33552 231.000
64.35547 235.000
64.37542 230.000
64.39536 274.000
64.41531 269.000
64.43526 253.000
64.45521 233.000
64.47515 271.000
64.49510 239.000
64.51505 243.000
64.53499 262.000
64.55494 236.000
64.57489 248.000
64.59483 251.000
64.61478 218.000
64.63473 245.000
64.65468 242.000
64.67462 228.000
64.69457 215.000
64.71452 226.000
64.73446 230.000
64.75441 230.000
64.77436 224.000
64.79430 197.000
64.81425 224.000
64.83420 206.000
64.85414 204.000
64.87409 244.000
64.89404 227.000
64.91399 250.000
64.93393 214.000
64.95388 226.000
64.97383 218.000
64.99377 201.000
65.01372 227.000
65.03367 197.000
65.05361 225.000
65.07356 240.000
65.09351 207.000
65.11346 216.000
65.13340 224.000
65.15335 218.000
65.17330 211.000
65.19324 249.000
65.21319 202.000
65.23314 227.000
65.25308 257.000
65.27303 265.000
65.29298 225.000
65.31293 255.000
65.33287 248.000
65.35282 225.000
65.37277 242.000
65.39271 238.000
65.41266 252.000
65.43261 236.000
65.45255 233.000
65.47250 249.000
65.49245 251.000
65.51239 270.000
65.53234 267.000
65.55229 239.000
65.57224 258.000
65.59218 255.000
65.61213 263.000
65.63208 269.000
65.65202 265.000
65.67197 274.000
65.69192 265.000
65.71186 263.000
65.73181 276.000
65.75176 282.000
65.77171 256.000
65.79165 287.000
65.81160 334.000
65.83155 291.000
65.85149 275.000
65.87144 299.000
65.89139 286.000
65.91133 257.000
65.93128 289.000
65.95123 280.000
65.97117 311.000
65.99112 312.000
66.01107 292.000
66.03102 274.000
66.05096 289.000
66.07091 301.000
66.09086 297.000
66.11080 324.000
66.13075 328.000
66.15070 345.000
66.17064 378.000
66.19059 336.000
66.21054 350.000
66.23049 339.000
66.25043 347.000
66.27038 371.000
66.29033 364.000
66.31027 357.000
66.33022 353.000
66.35017 391.000
66.37011 336.000
66.39006 374.000
66.41001 375.000
66.42995 311.000
66.44990 325.000
66.46985 323.000
66.48980 346.000
66.50974 343.000
66.52969 314.000
66.54964 322.000
66.56958 296.000
66.58953 280.000
66.60948 280.000
66.62942 262.000
66.64937 313.000
66.66932 277.000
66.68927 273.000
66.70921 248.000
66.72916 246.000
66.74911 267.000
66.76905 262.000
66.78900 245.000
66.80895 254.000
66.82889 241.000
66.84884 232.000
66.86879 232.000
66.88874 243.000
66.90868 240.000
66.92863 247.000
66.94858 278.000
66.96852 256.000
66.98847 262.000
67.00842 274.000
67.02836 275.000
67.04831 293.000
67.06826 258.000
67.08820 309.000
67.10815 291.000
67.12810 310.000
67.14805 326.000
67.16799 315.000
67.18794 329.000
67.20789 339.000
67.22783 299.000
67.24778 296.000
67.26773 305.000
67.28767 311.000
67.30762 292.000
67.32757 279.000
67.34752 269.000
67.36746 287.000
67.38741 290.000
67.40736 267.000
67.42730 243.000
67.44725 233.000
67.46720 265.000
67.48714 258.000
67.50709 247.000
67.52704 229.000
67.54698 246.000
67.56693 242.000
67.58688 254.000
67.60683 215.000
67.62677 235.000
67.64672 245.000
67.66667 231.000
67.68661 237.000
67.70656 217.000
67.72651 263.000
67.74645 249.000
67.76640 230.000
67.78635 240.000
67.80630 253.000
67.82624 217.000
67.84619 261.000
67.86614 269.000
67.88608 233.000
67.90603 277.000
67.92598 270.000
67.94592 259.000
67.96587 258.000
67.98582 267.000
68.00576 264.000
68.02571 302.000
68.04566 281.000
68.06561 278.000
68.08555 308.000
68.10550 290.000
68.12545 266.000
68.14539 261.000
68.16534 265.000
68.18529 234.000
68.20523 276.000
68.22518 276.000
68.24513 209.000
68.26508 295.000
68.28502 256.000
68.30497 260.000
68.32492 246.000
68.34486 241.000
68.36481 224.000
68.38476 241.000
68.40470 266.000
68.42465 223.000
68.44460 244.000
68.46455 225.000
68.48449 233.000
68.50444 231.000
68.52439 236.000
68.54433 217.000
68.56428 220.000
68.58423 229.000
68.60417 205.000
68.62412 219.000
68.64407 239.000
68.66401 187.000
68.68396 212.000
68.70391 220.000
68.72386 213.000
68.74380 221.000
68.76375 246.000
68.78370 248.000
68.80364 221.000
68.82359 233.000
68.84354 227.000
68.86348 225.000
68.88343 228.000
68.90338 228.000
68.92333 215.000
68.94327 205.000
68.96322 184.000
68.98317 223.000
69.00311 229.000
69.02306 202.000
69.04301 214.000
69.06295 230.000
69.08290 196.000
69.10285 215.000
69.12279 188.000
69.14274 205.000
69.16269 203.000
69.18264 213.000
69.20258 237.000
69.22253 208.000
69.24248 204.000
69.26242 197.000
69.28237 215.000
69.30232 216.000
69.32226 212.000
69.34221 207.000
69.36216 204.000
69.38211 208.000
69.40205 187.000
69.42200 218.000
69.44195 223.000
69.46189 211.000
69.48184 176.000
69.50179 233.000
69.52173 210.000
69.54168 187.000
69.56163 192.000
69.58157 194.000
69.60152 207.000
69.62147 179.000
69.64142 199.000
69.66136 219.000
69.68131 204.000
69.70126 236.000
69.72120 185.000
69.74115 181.000
69.76110 228.000
69.78104 223.000
69.80099 201.000
69.82094 213.000
69.84089 213.000
69.86083 192.000
69.88078 207.000
69.90073 205.000
69.92067 197.000
69.94062 189.000
69.96057 216.000
69.98051 211.000
70.00046 184.000
70.02041 201.000
70.04035 210.000
70.06030 199.000
70.08025 219.000
70.10020 196.000
70.12014 197.000
70.14009 218.000
70.16004 203.000
70.17998 211.000
70.19993 204.000
70.21988 210.000
70.23982 193.000
70.25977 216.000
70.27972 210.000
70.29967 197.000
70.31961 231.000
70.33956 197.000
70.35951 196.000
70.37945 210.000
70.39940 201.000
70.41935 187.000
70.43929 201.000
70.45924 204.000
70.47919 177.000
70.49914 204.000
70.51908 194.000
70.53903 193.000
70.55898 203.000
70.57892 201.000
70.59887 193.000
70.61882 226.000
70.63876 184.000
70.65871 209.000
70.67866 201.000
70.69860 200.000
70.71855 207.000
70.73850 201.000
70.75845 202.000
70.77839 187.000
70.79834 210.000
70.81829 200.000
70.83823 196.000
70.85818 216.000
70.87813 208.000
70.89807 205.000
70.91802 212.000
70.93797 220.000
70.95792 185.000
70.97786 204.000
70.99781 204.000
71.01776 204.000
71.03770 202.000
71.05765 202.000
71.07760 187.000
71.09754 219.000
71.11749 207.000
71.13744 198.000
71.15738 181.000
71.17733 178.000
71.19728 213.000
71.21723 227.000
71.23717 203.000
71.25712 218.000
71.27707 208.000
71.29701 214.000
71.31696 206.000
71.33691 212.000
71.35685 219.000
71.37680 224.000
71.39675 237.000
71.41670 224.000
71.43664 209.000
71.45659 228.000
71.47654 218.000
71.49648 184.000
71.51643 238.000
71.53638 205.000
71.55632 216.000
71.57627 187.000
71.59622 238.000
71.61616 210.000
71.63611 217.000
71.65606 219.000
71.67601 201.000
71.69595 203.000
71.71590 206.000
71.73585 198.000
71.75579 210.000
71.77574 205.000
71.79569 198.000
71.81563 198.000
71.83558 221.000
71.85553 222.000
71.87548 201.000
71.89542 189.000
71.91537 218.000
71.93532 211.000
71.95526 231.000
71.97521 197.000
71.99516 212.000
72.01510 221.000
72.03505 223.000
72.05500 210.000
72.07495 217.000
72.09489 228.000
72.11484 212.000
72.13479 222.000
72.15473 202.000
72.17468 216.000
72.19463 220.000
72.21457 199.000
72.23452 232.000
72.25447 232.000
72.27441 221.000
72.29436 243.000
72.31431 218.000
72.33426 235.000
72.35420 235.000
72.37415 244.000
72.39410 250.000
72.41404 254.000
72.43399 244.000
72.45394 232.000
72.47388 246.000
72.49383 267.000
72.51378 230.000
72.53373 244.000
72.55367 248.000
72.57362 236.000
72.59357 240.000
72.61351 235.000
72.63346 212.000
72.65341 224.000
72.67335 248.000
72.69330 238.000
72.71325 234.000
72.73319 226.000
72.75314 208.000
72.77309 237.000
72.79304 240.000
72.81298 213.000
72.83293 267.000
72.85288 231.000
72.87282 210.000
72.89277 241.000
72.91272 253.000
72.93266 232.000
72.95261 215.000
72.97256 237.000
72.99251 228.000
73.01245 213.000
73.03240 263.000
73.05235 243.000
73.07229 212.000
73.09224 216.000
73.11219 249.000
73.13213 238.000
73.15208 236.000
73.17203 241.000
73.19197 268.000
73.21192 235.000
73.23187 278.000
73.25182 255.000
73.27176 255.000
73.29171 271.000
73.31166 247.000
73.33160 259.000
73.35155 264.000
73.37150 206.000
73.39144 267.000
73.41139 252.000
73.43134 259.000
73.45129 221.000
73.47123 251.000
73.49118 236.000
73.51113 218.000
73.53107 247.000
73.55102 222.000
73.57097 248.000
73.59091 261.000
73.61086 232.000
73.63081 239.000
73.65076 209.000
73.67070 233.000
73.69065 245.000
73.71060 263.000
73.73054 243.000
73.75049 220.000
73.77044 220.000
73.79038 225.000
73.81033 221.000
73.83028 227.000
73.85022 197.000
73.87017 230.000
73.89012 201.000
73.91007 211.000
73.93001 216.000
73.94996 225.000
73.96991 191.000
73.98985 241.000
74.00980 212.000
74.02975 198.000
74.04969 218.000
74.06964 204.000
74.08959 215.000
74.10954 232.000
74.12948 221.000
74.14943 222.000
74.16938 195.000
74.18932 209.000
74.20927 214.000
74.22922 226.000
74.24916 182.000
74.26911 216.000
74.28906 196.000
74.30900 242.000
74.32895 218.000
74.34890 218.000
74.36885 224.000
74.38879 228.000
74.40874 228.000
74.42869 233.000
74.44863 247.000
74.46858 277.000
74.48853 287.000
74.50847 254.000
74.52842 267.000
74.54837 271.000
74.56832 242.000
74.58826 256.000
74.60821 246.000
74.62816 258.000
74.64810 290.000
74.66805 277.000
74.68800 256.000
74.70794 291.000
74.72789 263.000
74.74784 259.000
74.76778 252.000
74.78773 260.000
74.80768 256.000
74.82763 259.000
74.84757 270.000
74.86752 290.000
74.88747 282.000
74.90741 311.000
74.92736 294.000
74.94731 306.000
74.96725 282.000
74.98720 304.000
75.00715 330.000
75.02710 301.000
75.04704 289.000
75.06699 293.000
75.08694 330.000
75.10688 346.000
75.12683 339.000
75.14678 292.000
75.16672 334.000
75.18667 350.000
75.20662 340.000
75.22657 337.000
75.24651 330.000
75.26646 372.000
75.28641 355.000
75.30635 336.000
75.32630 348.000
75.34625 312.000
75.36619 313.000
75.38614 293.000
75.40609 283.000
75.42603 293.000
75.44598 284.000
75.46593 264.000
75.48588 313.000
75.50582 303.000
75.52577 312.000
75.54572 293.000
75.56566 299.000
75.58561 285.000
75.60556 265.000
75.62550 255.000
75.64545 241.000
75.66540 256.000
75.68535 265.000
75.70529 275.000
75.72524 250.000
75.74519 219.000
75.76513 241.000
75.78508 243.000
75.80503 233.000
75.82497 212.000
75.84492 224.000
75.86487 223.000
75.88481 218.000
75.90476 231.000
75.92471 219.000
75.94466 212.000
75.96460 209.000
75.98455 198.000
76.00450 232.000
76.02444 220.000
76.04439 207.000
76.06434 196.000
76.08428 202.000
76.10423 225.000
76.12418 218.000
76.14413 210.000
76.16407 206.000
76.18402 221.000
76.20397 230.000
76.22391 198.000
76.24386 191.000
76.26381 211.000
76.28375 216.000
76.30370 224.000
76.32365 198.000
76.34359 210.000
76.36354 201.000
76.38349 218.000
76.40344 211.000
76.42338 209.000
76.44333 184.000
76.46328 198.000
76.48322 195.000
76.50317 220.000
76.52312 218.000
76.54306 218.000
76.56301 175.000
76.58296 195.000
76.60291 208.000
76.62285 193.000
76.64280 244.000
76.66275 189.000
76.68269 185.000
76.70264 184.000
76.72259 195.000
76.74253 215.000
76.76248 192.000
76.78243 195.000
76.80238 213.000
76.82232 206.000
76.84227 202.000
76.86222 200.000
76.88216 202.000
76.90211 195.000
76.92206 200.000
76.94200 208.000
76.96195 224.000
76.98190 209.000
77.00184 218.000
77.02179 222.000
77.04174 208.000
77.06169 193.000
77.08163 212.000
77.10158 196.000
77.12153 215.000
77.14147 196.000
77.16142 210.000
77.18137 199.000
77.20131 236.000
77.22126 230.000
77.24121 209.000
77.26116 222.000
77.28110 215.000
77.30105 213.000
77.32100 229.000
77.34094 249.000
77.36089 225.000
77.38084 233.000
77.40078 243.000
77.42073 252.000
77.44068 222.000
77.46062 220.000
77.48057 200.000
77.50052 250.000
77.52047 211.000
77.54041 235.000
77.56036 232.000
77.58031 238.000
77.60025 233.000
77.62020 234.000
77.64015 221.000
77.66009 238.000
77.68004 271.000
77.69999 228.000
77.71994 247.000
77.73988 236.000
77.75983 239.000
77.77978 252.000
77.79972 235.000
77.81967 233.000
77.83962 225.000
77.85956 239.000
77.87951 235.000
77.89946 200.000
77.91940 264.000
77.93935 212.000
77.95930 233.000
77.97925 253.000
77.99919 202.000
78.01914 225.000
78.03909 218.000
78.05903 227.000
78.07898 243.000
78.09893 239.000
78.11887 216.000
78.13882 216.000
78.15877 249.000
78.17872 237.000
78.19866 246.000
78.21861 258.000
78.23856 280.000
78.25850 271.000
78.27845 295.000
78.29840 282.000
78.31834 307.000
78.33829 329.000
78.35824 274.000
78.37819 284.000
78.39813 328.000
78.41808 316.000
78.43803 318.000
78.45797 282.000
78.47792 299.000
78.49787 271.000
78.51781 287.000
78.53776 306.000
78.55771 302.000
78.57765 271.000
78.59760 272.000
78.61755 265.000
78.63750 249.000
78.65744 281.000
78.67739 260.000
78.69734 258.000
78.71728 236.000
78.73723 255.000
78.75718 219.000
78.77712 259.000
78.79707 261.000
78.81702 215.000
78.83697 255.000
78.85691 231.000
78.87686 235.000
78.89681 239.000
78.91675 253.000
78.93670 258.000
78.95665 265.000
78.97659 270.000
78.99654 239.000
79.01649 274.000
79.03643 252.000
79.05638 276.000
79.07633 282.000
79.09628 287.000
79.11622 261.000
79.13617 258.000
79.15612 249.000
79.17606 269.000
79.19601 252.000
79.21596 291.000
79.23590 283.000
79.25585 265.000
79.27580 255.000
79.29575 283.000
79.31569 250.000
79.33564 235.000
79.35559 230.000
79.37553 246.000
79.39548 227.000
79.41543 252.000
79.43537 221.000
79.45532 239.000
79.47527 247.000
79.49521 251.000
79.51516 277.000
79.53511 223.000
79.55506 199.000
79.57500 221.000
79.59495 207.000
79.61490 200.000
79.63484 233.000
79.65479 197.000
79.67474 236.000
79.69468 211.000
79.71463 225.000
79.73458 218.000
79.75453 231.000
79.77447 228.000
79.79442 226.000
79.81437 230.000
79.83431 200.000
79.85426 192.000
79.87421 223.000
79.89415 221.000
79.91410 216.000
79.93405 223.000
79.95399 200.000
79.97394 211.000
79.99389 205.000
80.01384 207.000
80.03378 201.000
80.05373 219.000
80.07368 213.000
80.09362 223.000
80.11357 207.000
80.13352 237.000
80.15346 210.000
80.17341 224.000
80.19336 210.000
80.21331 208.000
80.23325 235.000
80.25320 195.000
80.27315 235.000
80.29309 211.000
80.31304 216.000
80.33299 195.000
80.35293 237.000
80.37288 227.000
80.39283 202.000
80.41278 227.000
80.43272 225.000
80.45267 191.000
80.47262 201.000
80.49256 199.000
80.51251 205.000
80.53246 218.000
80.55240 208.000
80.57235 205.000
80.59230 214.000
80.61224 198.000
80.63219 236.000
80.65214 213.000
80.67209 210.000
80.69203 216.000
80.71198 198.000
80.73193 245.000
80.75187 227.000
80.77182 178.000
80.79177 204.000
80.81171 222.000
80.83166 204.000
80.85161 201.000
80.87156 218.000
80.89150 167.000
80.91145 219.000
80.93140 205.000
80.95134 191.000
80.97129 197.000
80.99124 212.000
81.01118 191.000
81.03113 214.000
81.05108 220.000
81.07102 183.000
81.09097 214.000
81.11092 221.000
81.13087 210.000
81.15081 212.000
81.17076 173.000
81.19071 197.000
81.21065 177.000
81.23060 197.000
81.25055 206.000
81.27049 190.000
81.29044 222.000
81.31039 212.000
81.33034 211.000
81.35028 196.000
81.37023 227.000
81.39018 218.000
81.41012 204.000
81.43007 209.000
81.45002 229.000
81.46996 192.000
81.48991 208.000
81.50986 198.000
81.52980 201.000
81.54975 207.000
81.56970 227.000
81.58965 194.000
81.60959 199.000
81.62954 174.000
81.64949 195.000
81.66943 204.000
81.68938 188.000
81.70933 191.000
81.72927 186.000
81.74922 196.000
81.76917 217.000
81.78912 218.000
81.80906 208.000
81.82901 219.000
81.84896 196.000
81.86890 187.000
81.88885 205.000
81.90880 190.000
81.92874 199.000
81.94869 210.000
81.96864 189.000
81.98859 196.000
82.00853 214.000
82.02848 186.000
82.04843 213.000
82.06837 232.000
82.08832 228.000
82.10827 208.000
82.12821 193.000
82.14816 200.000
82.16811 230.000
82.18805 202.000
82.20800 200.000
82.22795 191.000
82.24790 190.000
82.26784 198.000
82.28779 180.000
82.30774 196.000
82.32768 201.000
82.34763 212.000
82.36758 191.000
82.38752 217.000
82.40747 233.000
82.42742 236.000
82.44737 193.000
82.46731 211.000
82.48726 217.000
82.50721 246.000
82.52715 201.000
82.54710 229.000
82.56705 219.000
82.58699 221.000
82.60694 211.000
82.62689 217.000
82.64683 238.000
82.66678 247.000
82.68673 206.000
82.70668 203.000
82.72662 181.000
82.74657 221.000
82.76652 229.000
82.78646 246.000
82.80641 217.000
82.82636 209.000
82.84630 219.000
82.86625 224.000
82.88620 216.000
82.90615 229.000
82.92609 258.000
82.94604 233.000
82.96599 208.000
82.98593 217.000
83.00588 219.000
83.02583 202.000
83.04577 202.000
83.06572 216.000
83.08567 255.000
83.10561 196.000
83.12556 229.000
83.14551 202.000
83.16546 236.000
83.18540 203.000
83.20535 221.000
83.22530 237.000
83.24524 223.000
83.26519 221.000
83.28514 212.000
83.30508 228.000
83.32503 225.000
83.34498 235.000
83.36493 215.000
83.38487 223.000
83.40482 249.000
83.42477 227.000
83.44471 220.000
83.46466 230.000
83.48461 214.000
83.50455 196.000
83.52450 222.000
83.54445 241.000
83.56440 209.000
83.58434 219.000
83.60429 235.000
83.62424 202.000
83.64418 234.000
83.66413 214.000
83.68408 224.000
83.70402 216.000
83.72397 219.000
83.74392 226.000
83.76386 198.000
83.78381 214.000
83.80376 225.000
83.82371 223.000
83.84365 224.000
83.86360 234.000
83.88355 233.000
83.90349 227.000
83.92344 233.000
83.94339 224.000
83.96333 224.000
83.98328 228.000
84.00323 226.000
84.02318 260.000
84.04312 258.000
84.06307 253.000
84.08302 248.000
84.10296 232.000
84.12291 256.000
84.14286 249.000
84.16280 277.000
84.18275 243.000
84.20270 240.000
84.22264 256.000
84.24259 225.000
84.26254 240.000
84.28249 256.000
84.30243 253.000
84.32238 241.000
84.34233 245.000
84.36227 229.000
84.38222 256.000
84.40217 258.000
84.42211 236.000
84.44206 258.000
84.46201 234.000
84.48196 250.000
84.50190 223.000
84.52185 262.000
84.54180 245.000
84.56174 237.000
84.58169 251.000
84.60164 214.000
84.62158 220.000
84.64153 222.000
84.66148 232.000
84.68142 231.000
84.70137 221.000
84.72132 232.000
84.74127 237.000
84.76121 208.000
84.78116 195.000
84.80111 211.000
84.82105 224.000
84.84100 216.000
84.86095 220.000
84.88089 197.000
84.90084 199.000
84.92079 202.000
84.94074 214.000
84.96068 202.000
84.98063 193.000
85.00058 202.000
85.02052 214.000
85.04047 209.000
85.06042 221.000
85.08036 205.000
85.10031 223.000
85.12026 192.000
85.14021 213.000
85.16015 185.000
85.18010 204.000
85.20005 197.000
85.21999 223.000
85.23994 210.000
85.25989 193.000
85.27983 226.000
85.29978 201.000
85.31973 216.000
85.33967 198.000
85.35962 215.000
85.37957 197.000
85.39952 187.000
85.41946 197.000
85.43941 199.000
85.45936 212.000
85.47930 219.000
85.49925 195.000
85.51920 210.000
85.53914 188.000
85.55909 215.000
85.57904 193.000
85.59899 197.000
85.61893 196.000
85.63888 180.000
85.65883 215.000
85.67877 217.000
85.69872 186.000
85.71867 211.000
85.73861 181.000
85.75856 199.000
85.77851 197.000
85.79845 209.000
85.81840 176.000
85.83835 207.000
85.85830 182.000
85.87824 216.000
85.89819 167.000
85.91814 208.000
85.93808 208.000
85.95803 194.000
85.97798 195.000
85.99792 199.000
86.01787 202.000
86.03782 222.000
86.05777 197.000
86.07771 209.000
86.09766 194.000
86.11761 210.000
86.13755 231.000
86.15750 199.000
86.17745 212.000
86.19739 169.000
86.21734 189.000
86.23729 182.000
86.25723 207.000
86.27718 189.000
86.29713 217.000
86.31708 214.000
86.33702 182.000
86.35697 156.000
86.37692 179.000
86.39686 192.000
86.41681 213.000
86.43676 194.000
86.45670 224.000
86.47665 201.000
86.49660 210.000
86.51655 195.000
86.53649 228.000
86.55644 186.000
86.57639 186.000
86.59633 177.000
86.61628 189.000
86.63623 204.000
86.65617 228.000
86.67612 203.000
86.69607 194.000
86.71602 208.000
86.73596 213.000
86.75591 222.000
86.77586 218.000
86.79580 238.000
86.81575 214.000
86.83570 208.000
86.85564 195.000
86.87559 202.000
86.89554 204.000
86.91548 219.000
86.93543 204.000
86.95538 197.000
86.97533 184.000
86.99527 226.000
87.01522 193.000
87.03517 216.000
87.05511 191.000
87.07506 225.000
87.09501 204.000
87.11495 212.000
87.13490 200.000
87.15485 231.000
87.17480 219.000
87.19474 228.000
87.21469 215.000
87.23464 235.000
87.25458 247.000
87.27453 214.000
87.29448 258.000
87.31442 229.000
87.33437 256.000
87.35432 247.000
87.37426 234.000
87.39421 255.000
87.41416 235.000
87.43411 233.000
87.45405 226.000
87.47400 231.000
87.49395 243.000
87.51389 201.000
87.53384 243.000
87.55379 228.000
87.57373 242.000
87.59368 243.000
87.61363 280.000
87.63358 229.000
87.65352 235.000
87.67347 224.000
87.69342 248.000
87.71336 229.000
87.73331 226.000
87.75326 218.000
87.77320 258.000
87.79315 245.000
87.81310 260.000
87.83304 222.000
87.85299 227.000
87.87294 227.000
87.89289 205.000
87.91283 248.000
87.93278 231.000
87.95273 237.000
87.97267 212.000
87.99262 202.000
88.01257 191.000
88.03251 225.000
88.05246 207.000
88.07241 199.000
88.09236 219.000
88.11230 222.000
88.13225 216.000
88.15220 214.000
88.17214 199.000
88.19209 213.000
88.21204 202.000
88.23198 197.000
88.25193 206.000
88.27188 193.000
88.29183 188.000
88.31177 217.000
88.33172 204.000
88.35167 206.000
88.37161 199.000
88.39156 231.000
88.41151 220.000
88.43145 197.000
88.45140 208.000
88.47135 209.000
88.49129 218.000
88.51124 191.000
88.53119 235.000
88.55114 212.000
88.57108 216.000
88.59103 214.000
88.61098 208.000
88.63092 189.000
88.65087 191.000
88.67082 193.000
88.69076 191.000
88.71071 194.000
88.73066 217.000
88.75061 193.000
88.77055 208.000
88.79050 218.000
88.81045 188.000
88.83039 207.000
88.85034 218.000
88.87029 195.000
88.89023 204.000
88.91018 187.000
88.93013 206.000
88.95007 215.000
88.97002 205.000
88.98997 191.000
89.00992 191.000
89.02986 221.000
89.04981 166.000
89.06976 187.000
89.08970 183.000
89.10965 195.000
89.12960 219.000
89.14954 228.000
89.16949 202.000
89.18944 199.000
89.20939 186.000
89.22933 197.000
89.24928 207.000
89.26923 201.000
89.28917 193.000
89.30912 190.000
89.32907 200.000
89.34901 185.000
89.36896 219.000
89.38891 198.000
89.40885 194.000
89.42880 202.000
89.44875 215.000
89.46870 219.000
89.48864 209.000
89.50859 199.000
89.52854 224.000
89.54848 209.000
89.56843 204.000
89.58838 212.000
89.60832 221.000
89.62827 239.000
89.64822 218.000
89.66817 225.000
89.68811 229.000
89.70806 206.000
89.72801 221.000
89.74795 220.000
89.76790 213.000
89.78785 189.000
89.80779 210.000
89.82774 225.000
89.84769 244.000
89.86764 194.000
89.88758 204.000
89.90753 223.000
89.92748 194.000
89.94742 207.000
89.96737 236.000
89.98732 203.000
90.00726 211.000
