10.00000 36.000
10.01995 33.000
10.03989 31.000
10.05984 22.000
10.07979 37.000
10.09973 30.000
10.11968 34.000
10.13963 25.000
10.15958 37.000
10.17952 25.000
10.19947 32.000
10.21942 34.000
10.23936 37.000
10.25931 42.000
10.27926 41.000
10.29920 37.000
10.31915 28.000
10.33910 31.000
10.35905 39.000
10.37899 35.000
10.39894 37.000
10.41889 46.000
10.43883 26.000
10.45878 30.000
10.47873 33.000
10.49867 28.000
10.51862 37.000
10.53857 33.000
10.55851 47.000
10.57846 29.000
10.59841 38.000
10.61836 42.000
10.63830 40.000
10.65825 33.000
10.67820 25.000
10.69814 22.000
10.71809 41.000
10.73804 41.000
10.75798 24.000
10.77793 33.000
10.79788 28.000
10.81783 34.000
10.83777 33.000
10.85772 31.000
10.87767 30.000
10.89761 31.000
10.91756 30.000
10.93751 25.000
10.95745 25.000
10.97740 26.000
10.99735 37.000
11.01730 31.000
11.03724 31.000
11.05719 30.000
11.07714 28.000
11.09708 34.000
11.11703 39.000
11.13698 37.000
11.15692 28.000
11.17687 32.000
11.19682 38.000
11.21676 34.000
11.23671 28.000
11.25666 29.000
11.27661 33.000
11.29655 32.000
11.31650 39.000
11.33645 38.000
11.35639 32.000
11.37634 43.000
11.39629 39.000
11.41623 31.000
11.43618 29.000
11.45613 34.000
11.47608 27.000
11.49602 31.000
11.51597 40.000
11.53592 33.000
11.55586 47.000
11.57581 49.000
11.59576 38.000
11.61570 34.000
11.63565 41.000
11.65560 34.000
11.67554 43.000
11.69549 35.000
11.71544 29.000
11.73539 39.000
11.75533 47.000
11.77528 44.000
11.79523 41.000
11.81517 35.000
11.83512 39.000
11.85507 33.000
11.87501 34.000
11.89496 38.000
11.91491 54.000
11.93486 37.000
11.95480 39.000
11.97475 34.000
11.99470 43.000
12.01464 44.000
12.03459 48.000
12.05454 50.000
12.07448 34.000
12.09443 51.000
12.11438 62.000
12.13432 57.000
12.15427 60.000
12.17422 50.000
12.19417 45.000
12.21411 70.000
12.23406 32.000
12.25401 65.000
12.27395 74.000
12.29390 44.000
12.31385 63.000
12.33379 70.000
12.35374 77.000
12.37369 90.000
12.39364 97.000
12.41358 124.000
12.43353 121.000
12.45348 147.000
12.47342 136.000
12.49337 190.000
12.51332 254.000
12.53326 294.000
12.55321 311.000
12.57316 350.000
12.59311 290.000
12.61305 235.000
12.63300 234.000
12.65295 187.000
12.67289 196.000
12.69284 152.000
12.71279 149.000
12.73273 127.000
12.75268 115.000
12.77263 112.000
12.79257 106.000
12.81252 89.000
12.83247 109.000
12.85242 94.000
12.87236 93.000
12.89231 77.000
12.91226 67.000
12.93220 79.000
12.95215 76.000
12.97210 52.000
12.99204 71.000
13.01199 66.000
13.03194 82.000
13.05189 81.000
13.07183 60.000
13.09178 66.000
13.11173 57.000
13.13167 58.000
13.15162 66.000
13.17157 71.000
13.19151 69.000
13.21146 55.000
13.23141 62.000
13.25135 56.000
13.27130 45.000
13.29125 38.000
13.31120 65.000
13.33114 62.000
13.35109 57.000
13.37104 78.000
13.39098 71.000
13.41093 84.000
13.43088 59.000
13.45082 60.000
13.47077 63.000
13.49072 53.000
13.51067 64.000
13.53061 56.000
13.55056 77.000
13.57051 63.000
13.59045 66.000
13.61040 56.000
13.63035 60.000
13.65029 62.000
13.67024 51.000
13.69019 59.000
13.71013 71.000
13.73008 57.000
13.75003 52.000
13.76998 68.000
13.78992 51.000
13.80987 59.000
13.82982 45.000
13.84976 47.000
13.86971 52.000
13.88966 66.000
13.90960 66.000
13.92955 69.000
13.94950 65.000
13.96945 85.000
13.98939 99.000
14.00934 74.000
14.02929 69.000
14.04923 46.000
14.06918 68.000
14.08913 58.000
14.10907 55.000
14.12902 59.000
14.14897 73.000
14.16892 73.000
14.18886 90.000
14.20881 79.000
14.22876 90.000
14.24870 94.000
14.26865 90.000
14.28860 94.000
14.30854 89.000
14.32849 95.000
14.34844 72.000
14.36838 83.000
14.38833 75.000
14.40828 46.000
14.42823 70.000
14.44817 63.000
14.46812 58.000
14.48807 45.000
14.50801 57.000
14.52796 65.000
14.54791 68.000
14.56785 55.000
14.58780 52.000
14.60775 52.000
14.62770 65.000
14.64764 54.000
14.66759 51.000
14.68754 54.000
14.70748 69.000
14.72743 52.000
14.74738 61.000
14.76732 62.000
14.78727 66.000
14.80722 65.000
14.82716 79.000
14.84711 68.000
14.86706 62.000
14.88701 72.000
14.90695 64.000
14.92690 71.000
14.94685 94.000
14.96679 89.000
14.98674 101.000
15.00669 100.000
15.02663 88.000
15.04658 108.000
15.06653 99.000
15.08648 90.000
15.10642 112.000
15.12637 101.000
15.14632 113.000
15.16626 103.000
15.18621 109.000
15.20616 112.000
15.22610 146.000
15.24605 122.000
15.26600 138.000
15.28594 126.000
15.30589 126.000
15.32584 165.000
15.34579 187.000
15.36573 222.000
15.38568 214.000
15.40563 235.000
15.42557 250.000
15.44552 319.000
15.46547 419.000
15.48541 452.000
15.50536 544.000
15.52531 753.000
15.54526 928.000
15.56520 1442.000
15.58515 2096.000
15.60510 3200.000
15.62504 4964.000
15.64499 7143.000
15.66494 8191.000
15.68488 7268.000
15.70483 5308.000
15.72478 3297.000
15.74472 2087.000
15.76467 1419.000
15.78462 1245.000
15.80457 1200.000
15.82451 1205.000
15.84446 1319.000
15.86441 1385.000
15.88435 1415.000
15.90430 1547.000
15.92425 1504.000
15.94419 1395.000
15.96414 1319.000
15.98409 1205.000
16.00404 1069.000
16.02398 796.000
16.04393 603.000
16.06388 399.000
16.08382 259.000
16.10377 195.000
16.12372 171.000
16.14366 132.000
16.16361 127.000
16.18356 101.000
16.20351 125.000
16.22345 88.000
16.24340 96.000
16.26335 81.000
16.28329 83.000
16.30324 79.000
16.32319 69.000
16.34313 51.000
16.36308 61.000
16.38303 60.000
16.40297 54.000
16.42292 69.000
16.44287 61.000
16.46282 59.000
16.48276 46.000
16.50271 59.000
16.52266 61.000
16.54260 60.000
16.56255 90.000
16.58250 80.000
16.60244 76.000
16.62239 78.000
16.64234 49.000
16.66229 48.000
16.68223 35.000
16.70218 48.000
16.72213 49.000
16.74207 39.000
16.76202 42.000
16.78197 42.000
16.80191 42.000
16.82186 44.000
16.84181 35.000
16.86175 43.000
16.88170 28.000
16.90165 41.000
16.92160 32.000
16.94154 33.000
16.96149 29.000
16.98144 34.000
17.00138 39.000
17.02133 28.000
17.04128 34.000
17.06122 34.000
17.08117 33.000
17.10112 35.000
17.12107 28.000
17.14101 33.000
17.16096 38.000
17.18091 30.000
17.20085 28.000
17.22080 33.000
17.24075 22.000
17.26069 27.000
17.28064 38.000
17.30059 41.000
17.32053 31.000
17.34048 27.000
17.36043 31.000
17.38038 31.000
17.40032 28.000
17.42027 32.000
17.44022 25.000
17.46016 31.000
17.48011 24.000
17.50006 33.000
17.52000 29.000
17.53995 30.000
17.55990 35.000
17.57985 25.000
17.59979 37.000
17.61974 29.000
17.63969 29.000
17.65963 27.000
17.67958 27.000
17.69953 25.000
17.71947 24.000
17.73942 20.000
17.75937 26.000
17.77932 25.000
17.79926 18.000
17.81921 26.000
17.83916 33.000
17.85910 28.000
17.87905 20.000
17.89900 28.000
17.91894 34.000
17.93889 38.000
17.95884 35.000
17.97878 33.000
17.99873 45.000
18.01868 35.000
18.03863 34.000
18.05857 25.000
18.07852 40.000
18.09847 34.000
18.11841 25.000
18.13836 34.000
18.15831 29.000
18.17825 24.000
18.19820 29.000
18.21815 26.000
18.23810 28.000
18.25804 23.000
18.27799 29.000
18.29794 20.000
18.31788 27.000
18.33783 30.000
18.35778 21.000
18.37772 31.000
18.39767 21.000
18.41762 34.000
18.43756 36.000
18.45751 31.000
18.47746 24.000
18.49741 23.000
18.51735 29.000
18.53730 27.000
18.55725 26.000
18.57719 27.000
18.59714 27.000
18.61709 30.000
18.63703 24.000
18.65698 35.000
18.67693 32.000
18.69688 23.000
18.71682 22.000
18.73677 28.000
18.75672 34.000
18.77666 24.000
18.79661 22.000
18.81656 25.000
18.83650 25.000
18.85645 20.000
18.87640 24.000
18.89634 24.000
18.91629 35.000
18.93624 23.000
18.95619 28.000
18.97613 24.000
18.99608 33.000
19.01603 27.000
19.03597 23.000
19.05592 27.000
19.07587 23.000
19.09581 23.000
19.11576 34.000
19.13571 29.000
19.15566 29.000
19.17560 27.000
19.19555 19.000
19.21550 21.000
19.23544 25.000
19.25539 31.000
19.27534 28.000
19.29528 27.000
19.31523 26.000
19.33518 41.000
19.35513 27.000
19.37507 46.000
19.39502 66.000
19.41497 82.000
19.43491 94.000
19.45486 86.000
19.47481 101.000
19.49475 73.000
19.51470 69.000
19.53465 57.000
19.55459 52.000
19.57454 40.000
19.59449 29.000
19.61444 42.000
19.63438 22.000
19.65433 43.000
19.67428 32.000
19.69422 37.000
19.71417 27.000
19.73412 37.000
19.75406 65.000
19.77401 44.000
19.79396 42.000
19.81391 34.000
19.83385 34.000
19.85380 29.000
19.87375 28.000
19.89369 32.000
19.91364 22.000
19.93359 22.000
19.95353 29.000
19.97348 20.000
19.99343 17.000
20.01337 33.000
20.03332 30.000
20.05327 23.000
20.07322 28.000
20.09316 28.000
20.11311 24.000
20.13306 35.000
20.15300 30.000
20.17295 35.000
20.19290 26.000
20.21284 31.000
20.23279 31.000
20.25274 30.000
20.27269 30.000
20.29263 27.000
20.31258 31.000
20.33253 34.000
20.35247 29.000
20.37242 36.000
20.39237 28.000
20.41231 33.000
20.43226 26.000
20.45221 20.000
20.47215 33.000
20.49210 14.000
20.51205 34.000
20.53200 23.000
20.55194 22.000
20.57189 24.000
20.59184 17.000
20.61178 29.000
20.63173 21.000
20.65168 24.000
20.67162 19.000
20.69157 24.000
20.71152 39.000
20.73147 32.000
20.75141 35.000
20.77136 27.000
20.79131 27.000
20.81125 31.000
20.83120 22.000
20.85115 23.000
20.87109 32.000
20.89104 27.000
20.91099 40.000
20.93094 27.000
20.95088 32.000
20.97083 34.000
20.99078 25.000
21.01072 22.000
21.03067 20.000
21.05062 25.000
21.07056 28.000
21.09051 30.000
21.11046 24.000
21.13040 25.000
21.15035 27.000
21.17030 31.000
21.19025 31.000
21.21019 34.000
21.23014 19.000
21.25009 20.000
21.27003 23.000
21.28998 44.000
21.30993 30.000
21.32987 20.000
21.34982 26.000
21.36977 31.000
21.38972 25.000
21.40966 25.000
21.42961 38.000
21.44956 35.000
21.46950 36.000
21.48945 26.000
21.50940 34.000
21.52934 30.000
21.54929 35.000
21.56924 28.000
21.58918 29.000
21.60913 39.000
21.62908 33.000
21.64903 27.000
21.66897 30.000
21.68892 33.000
21.70887 21.000
21.72881 22.000
21.74876 35.000
21.76871 25.000
21.78865 44.000
21.80860 15.000
21.82855 31.000
21.84850 27.000
21.86844 18.000
21.88839 24.000
21.90834 23.000
21.92828 31.000
21.94823 30.000
21.96818 25.000
21.98812 35.000
22.00807 32.000
22.02802 40.000
22.04796 25.000
22.06791 35.000
22.08786 32.000
22.10781 25.000
22.12775 30.000
22.14770 24.000
22.16765 27.000
22.18759 27.000
22.20754 28.000
22.22749 33.000
22.24743 35.000
22.26738 34.000
22.28733 34.000
22.30728 42.000
22.32722 43.000
22.34717 47.000
22.36712 56.000
22.38706 48.000
22.40701 64.000
22.42696 39.000
22.44690 51.000
22.46685 42.000
22.48680 37.000
22.50675 31.000
22.52669 45.000
22.54664 34.000
22.56659 22.000
22.58653 25.000
22.60648 42.000
22.62643 35.000
22.64637 36.000
22.66632 36.000
22.68627 32.000
22.70621 28.000
22.72616 28.000
22.74611 33.000
22.76606 33.000
22.78600 41.000
22.80595 27.000
22.82590 29.000
22.84584 29.000
22.86579 38.000
22.88574 24.000
22.90568 25.000
22.92563 41.000
22.94558 32.000
22.96553 29.000
22.98547 19.000
23.00542 31.000
23.02537 33.000
23.04531 30.000
23.06526 37.000
23.08521 24.000
23.10515 28.000
23.12510 28.000
23.14505 20.000
23.16499 31.000
23.18494 31.000
23.20489 28.000
23.22484 38.000
23.24478 32.000
23.26473 22.000
23.28468 37.000
23.30462 34.000
23.32457 35.000
23.34452 40.000
23.36446 38.000
23.38441 35.000
23.40436 29.000
23.42431 28.000
23.44425 45.000
23.46420 34.000
23.48415 32.000
23.50409 29.000
23.52404 40.000
23.54399 31.000
23.56393 32.000
23.58388 27.000
23.60383 36.000
23.62377 44.000
23.64372 25.000
23.66367 42.000
23.68362 43.000
23.70356 36.000
23.72351 45.000
23.74346 46.000
23.76340 39.000
23.78335 51.000
23.80330 55.000
23.82324 40.000
23.84319 39.000
23.86314 60.000
23.88309 47.000
23.90303 48.000
23.92298 48.000
23.94293 48.000
23.96287 40.000
23.98282 38.000
24.00277 40.000
24.02271 34.000
24.04266 35.000
24.06261 48.000
24.08256 51.000
24.10250 57.000
24.12245 53.000
24.14240 48.000
24.16234 49.000
24.18229 35.000
24.20224 31.000
24.22218 48.000
24.24213 41.000
24.26208 34.000
24.28202 35.000
24.30197 38.000
24.32192 41.000
24.34187 39.000
24.36181 42.000
24.38176 40.000
24.40171 31.000
24.42165 37.000
24.44160 54.000
24.46155 47.000
24.48149 43.000
24.50144 37.000
24.52139 42.000
24.54134 41.000
24.56128 33.000
24.58123 43.000
24.60118 38.000
24.62112 32.000
24.64107 39.000
24.66102 37.000
24.68096 41.000
24.70091 39.000
24.72086 48.000
24.74080 50.000
24.76075 35.000
24.78070 41.000
24.80065 41.000
24.82059 46.000
24.84054 52.000
24.86049 47.000
24.88043 42.000
24.90038 45.000
24.92033 39.000
24.94027 44.000
24.96022 50.000
24.98017 45.000
25.00012 49.000
25.02006 41.000
25.04001 53.000
25.05996 52.000
25.07990 57.000
25.09985 57.000
25.11980 75.000
25.13974 68.000
25.15969 67.000
25.17964 82.000
25.19958 90.000
25.21953 89.000
25.23948 84.000
25.25943 100.000
25.27937 101.000
25.29932 74.000
25.31927 92.000
25.33921 93.000
25.35916 97.000
25.37911 90.000
25.39905 79.000
25.41900 86.000
25.43895 61.000
25.45890 60.000
25.47884 66.000
25.49879 65.000
25.51874 59.000
25.53868 59.000
25.55863 62.000
25.57858 49.000
25.59852 50.000
25.61847 55.000
25.63842 57.000
25.65837 44.000
25.67831 41.000
25.69826 49.000
25.71821 54.000
25.73815 51.000
25.75810 47.000
25.77805 60.000
25.79799 54.000
25.81794 44.000
25.83789 50.000
25.85783 50.000
25.87778 47.000
25.89773 51.000
25.91768 49.000
25.93762 63.000
25.95757 59.000
25.97752 49.000
25.99746 43.000
26.01741 55.000
26.03736 33.000
26.05730 38.000
26.07725 49.000
26.09720 42.000
26.11715 40.000
26.13709 46.000
26.15704 49.000
26.17699 45.000
26.19693 62.000
26.21688 60.000
26.23683 57.000
26.25677 70.000
26.27672 45.000
26.29667 54.000
26.31661 64.000
26.33656 50.000
26.35651 88.000
26.37646 66.000
26.39640 75.000
26.41635 67.000
26.43630 80.000
26.45624 87.000
26.47619 75.000
26.49614 67.000
26.51608 62.000
26.53603 85.000
26.55598 67.000
26.57593 77.000
26.59587 48.000
26.61582 50.000
26.63577 66.000
26.65571 49.000
26.67566 76.000
26.69561 58.000
26.71555 58.000
26.73550 62.000
26.75545 64.000
26.77539 59.000
26.79534 58.000
26.81529 73.000
26.83524 59.000
26.85518 78.000
26.87513 54.000
26.89508 74.000
26.91502 61.000
26.93497 52.000
26.95492 65.000
26.97486 72.000
26.99481 44.000
27.01476 45.000
27.03471 47.000
27.05465 48.000
27.07460 54.000
27.09455 58.000
27.11449 60.000
27.13444 55.000
27.15439 57.000
27.17433 52.000
27.19428 56.000
27.21423 58.000
27.23417 52.000
27.25412 40.000
27.27407 40.000
27.29402 37.000
27.31396 57.000
27.33391 50.000
27.35386 49.000
27.37380 55.000
27.39375 55.000
27.41370 53.000
27.43364 63.000
27.45359 58.000
27.47354 61.000
27.49349 44.000
27.51343 48.000
27.53338 47.000
27.55333 52.000
27.57327 53.000
27.59322 61.000
27.61317 55.000
27.63311 39.000
27.65306 52.000
27.67301 57.000
27.69296 54.000
27.71290 42.000
27.73285 51.000
27.75280 45.000
27.77274 54.000
27.79269 39.000
27.81264 48.000
27.83258 50.000
27.85253 45.000
27.87248 55.000
27.89242 63.000
27.91237 62.000
27.93232 44.000
27.95227 44.000
27.97221 66.000
27.99216 54.000
28.01211 50.000
28.03205 47.000
28.05200 53.000
28.07195 56.000
28.09189 54.000
28.11184 49.000
28.13179 48.000
28.15174 70.000
28.17168 58.000
28.19163 51.000
28.21158 46.000
28.23152 57.000
28.25147 63.000
28.27142 57.000
28.29136 56.000
28.31131 65.000
28.33126 57.000
28.35120 56.000
28.37115 64.000
28.39110 51.000
28.41105 67.000
28.43099 62.000
28.45094 52.000
28.47089 66.000
28.49083 70.000
28.51078 67.000
28.53073 50.000
28.55067 53.000
28.57062 56.000
28.59057 64.000
28.61052 66.000
28.63046 64.000
28.65041 68.000
28.67036 64.000
28.69030 90.000
28.71025 96.000
28.73020 98.000
28.75014 98.000
28.77009 97.000
28.79004 100.000
28.80998 94.000
28.82993 109.000
28.84988 97.000
28.86983 103.000
28.88977 93.000
28.90972 99.000
28.92967 72.000
28.94961 86.000
28.96956 74.000
28.98951 69.000
29.00945 78.000
29.02940 70.000
29.04935 63.000
29.06930 58.000
29.08924 73.000
29.10919 50.000
29.12914 62.000
29.14908 69.000
29.16903 57.000
29.18898 63.000
29.20892 56.000
29.22887 75.000
29.24882 58.000
29.26877 45.000
29.28871 60.000
29.30866 76.000
29.32861 68.000
29.34855 59.000
29.36850 66.000
29.38845 59.000
29.40839 69.000
29.42834 66.000
29.44829 70.000
29.46823 65.000
29.48818 72.000
29.50813 62.000
29.52808 51.000
29.54802 75.000
29.56797 57.000
29.58792 47.000
29.60786 54.000
29.62781 61.000
29.64776 64.000
29.66770 53.000
29.68765 63.000
29.70760 65.000
29.72755 66.000
29.74749 51.000
29.76744 59.000
29.78739 69.000
29.80733 53.000
29.82728 68.000
29.84723 63.000
29.86717 77.000
29.88712 72.000
29.90707 69.000
29.92701 59.000
29.94696 51.000
29.96691 62.000
29.98686 79.000
30.00680 60.000
30.02675 79.000
30.04670 66.000
30.06664 59.000
30.08659 60.000
30.10654 46.000
30.12648 60.000
30.14643 66.000
30.16638 77.000
30.18633 62.000
30.20627 65.000
30.22622 51.000
30.24617 55.000
30.26611 65.000
30.28606 71.000
30.30601 68.000
30.32595 47.000
30.34590 61.000
30.36585 51.000
30.38579 56.000
30.40574 74.000
30.42569 57.000
30.44564 51.000
30.46558 52.000
30.48553 54.000
30.50548 56.000
30.52542 58.000
30.54537 48.000
30.56532 71.000
30.58526 67.000
30.60521 67.000
30.62516 61.000
30.64511 63.000
30.66505 56.000
30.68500 61.000
30.70495 60.000
30.72489 50.000
30.74484 54.000
30.76479 48.000
30.78473 54.000
30.80468 61.000
30.82463 62.000
30.84458 56.000
30.86452 66.000
30.88447 57.000
30.90442 59.000
30.92436 70.000
30.94431 76.000
30.96426 54.000
30.98420 65.000
31.00415 73.000
31.02410 80.000
31.04404 94.000
31.06399 75.000
31.08394 68.000
31.10389 90.000
31.12383 74.000
31.14378 64.000
31.16373 62.000
31.18367 68.000
31.20362 91.000
31.22357 63.000
31.24351 72.000
31.26346 72.000
31.28341 74.000
31.30336 76.000
31.32330 78.000
31.34325 88.000
31.36320 81.000
31.38314 78.000
31.40309 81.000
31.42304 104.000
31.44298 105.000
31.46293 113.000
31.48288 112.000
31.50282 137.000
31.52277 155.000
31.54272 191.000
31.56267 241.000
31.58261 359.000
31.60256 461.000
31.62251 491.000
31.64245 477.000
31.66240 423.000
31.68235 407.000
31.70229 387.000
31.72224 345.000
31.74219 238.000
31.76214 188.000
31.78208 172.000
31.80203 137.000
31.82198 123.000
31.84192 128.000
31.86187 103.000
31.88182 94.000
31.90176 88.000
31.92171 109.000
31.94166 111.000
31.96160 107.000
31.98155 110.000
32.00150 102.000
32.02145 104.000
32.04139 109.000
32.06134 123.000
32.08129 116.000
32.10123 114.000
32.12118 120.000
32.14113 123.000
32.16107 121.000
32.18102 111.000
32.20097 113.000
32.22092 120.000
32.24086 104.000
32.26081 98.000
32.28076 116.000
32.30070 126.000
32.32065 117.000
32.34060 105.000
32.36054 108.000
32.38049 114.000
32.40044 86.000
32.42039 94.000
32.44033 76.000
32.46028 75.000
32.48023 68.000
32.50017 75.000
32.52012 70.000
32.54007 64.000
32.56001 59.000
32.57996 61.000
32.59991 57.000
32.61985 44.000
32.63980 75.000
32.65975 70.000
32.67970 64.000
32.69964 59.000
32.71959 58.000
32.73954 64.000
32.75948 58.000
32.77943 58.000
32.79938 40.000
32.81932 78.000
32.83927 58.000
32.85922 53.000
32.87917 53.000
32.89911 46.000
32.91906 63.000
32.93901 64.000
32.95895 45.000
32.97890 57.000
32.99885 54.000
33.01879 57.000
33.03874 58.000
33.05869 56.000
33.07863 61.000
33.09858 45.000
33.11853 62.000
33.13848 55.000
33.15842 43.000
33.17837 56.000
33.19832 46.000
33.21826 45.000
33.23821 52.000
33.25816 53.000
33.27810 51.000
33.29805 56.000
33.31800 58.000
33.33795 56.000
33.35789 59.000
33.37784 48.000
33.39779 54.000
33.41773 42.000
33.43768 60.000
33.45763 55.000
33.47757 52.000
33.49752 54.000
33.51747 46.000
33.53741 45.000
33.55736 49.000
33.57731 47.000
33.59726 48.000
33.61720 52.000
33.63715 55.000
33.65710 54.000
33.67704 54.000
33.69699 41.000
33.71694 52.000
33.73688 54.000
33.75683 54.000
33.77678 74.000
33.79673 56.000
33.81667 62.000
33.83662 52.000
33.85657 55.000
33.87651 70.000
33.89646 65.000
33.91641 79.000
33.93635 68.000
33.95630 63.000
33.97625 62.000
33.99620 73.000
34.01614 85.000
34.03609 66.000
34.05604 76.000
34.07598 70.000
34.09593 62.000
34.11588 65.000
34.13582 73.000
34.15577 62.000
34.17572 62.000
34.19566 78.000
34.21561 63.000
34.23556 75.000
34.25551 71.000
34.27545 77.000
34.29540 80.000
34.31535 81.000
34.33529 88.000
34.35524 92.000
34.37519 93.000
34.39513 113.000
34.41508 125.000
34.43503 122.000
34.45498 110.000
34.47492 97.000
34.49487 104.000
34.51482 99.000
34.53476 106.000
34.55471 98.000
34.57466 108.000
34.59460 90.000
34.61455 86.000
34.63450 71.000
34.65444 76.000
34.67439 89.000
34.69434 69.000
34.71429 70.000
34.73423 75.000
34.75418 72.000
34.77413 61.000
34.79407 71.000
34.81402 75.000
34.83397 81.000
34.85391 77.000
34.87386 75.000
34.89381 61.000
34.91376 69.000
34.93370 72.000
34.95365 69.000
34.97360 66.000
34.99354 67.000
35.01349 73.000
35.03344 69.000
35.05338 83.000
35.07333 80.000
35.09328 72.000
35.11322 70.000
35.13317 74.000
35.15312 66.000
35.17307 85.000
35.19301 76.000
35.21296 106.000
35.23291 88.000
35.25285 83.000
35.27280 101.000
35.29275 92.000
35.31269 98.000
35.33264 87.000
35.35259 78.000
35.37254 92.000
35.39248 99.000
35.41243 99.000
35.43238 99.000
35.45232 95.000
35.47227 77.000
35.49222 101.000
35.51216 97.000
35.53211 87.000
35.55206 98.000
35.57201 106.000
35.59195 76.000
35.61190 103.000
35.63185 99.000
35.65179 94.000
35.67174 105.000
35.69169 123.000
35.71163 114.000
35.73158 111.000
35.75153 151.000
35.77147 146.000
35.79142 147.000
35.81137 163.000
35.83132 197.000
35.85126 224.000
35.87121 191.000
35.89116 239.000
35.91110 231.000
35.93105 222.000
35.95100 238.000
35.97094 252.000
35.99089 241.000
36.01084 292.000
36.03079 249.000
36.05073 246.000
36.07068 262.000
36.09063 252.000
36.11057 249.000
36.13052 240.000
36.15047 224.000
36.17041 183.000
36.19036 185.000
36.21031 163.000
36.23025 126.000
36.25020 154.000
36.27015 139.000
36.29010 133.000
36.31004 162.000
36.32999 109.000
36.34994 156.000
36.36988 169.000
36.38983 175.000
36.40978 189.000
36.42972 186.000
36.44967 222.000
36.46962 201.000
36.48957 223.000
36.50951 172.000
36.52946 187.000
36.54941 146.000
36.56935 136.000
36.58930 125.000
36.60925 110.000
36.62919 107.000
36.64914 104.000
36.66909 92.000
36.68903 103.000
36.70898 86.000
36.72893 81.000
36.74888 72.000
36.76882 87.000
36.78877 78.000
36.80872 72.000
36.82866 81.000
36.84861 101.000
36.86856 88.000
36.88850 85.000
36.90845 85.000
36.92840 87.000
36.94835 94.000
36.96829 103.000
36.98824 111.000
37.00819 94.000
37.02813 90.000
37.04808 91.000
37.06803 78.000
37.08797 87.000
37.10792 76.000
37.12787 75.000
37.14781 70.000
37.16776 87.000
37.18771 87.000
37.20766 84.000
37.22760 73.000
37.24755 84.000
37.26750 65.000
37.28744 81.000
37.30739 110.000
37.32734 104.000
37.34728 104.000
37.36723 110.000
37.38718 96.000
37.40713 98.000
37.42707 100.000
37.44702 107.000
37.46697 93.000
37.48691 79.000
37.50686 74.000
37.52681 104.000
37.54675 78.000
37.56670 81.000
37.58665 65.000
37.60660 87.000
37.62654 85.000
37.64649 96.000
37.66644 68.000
37.68638 91.000
37.70633 90.000
37.72628 104.000
37.74622 81.000
37.76617 89.000
37.78612 105.000
37.80606 117.000
37.82601 99.000
37.84596 111.000
37.86591 100.000
37.88585 130.000
37.90580 123.000
37.92575 151.000
37.94569 154.000
37.96564 156.000
37.98559 170.000
38.00553 166.000
38.02548 143.000
38.04543 156.000
38.06538 150.000
38.08532 157.000
38.10527 153.000
38.12522 172.000
38.14516 165.000
38.16511 143.000
38.18506 163.000
38.20500 139.000
38.22495 130.000
38.24490 133.000
38.26484 116.000
38.28479 112.000
38.30474 125.000
38.32469 116.000
38.34463 88.000
38.36458 108.000
38.38453 114.000
38.40447 130.000
38.42442 120.000
38.44437 109.000
38.46431 105.000
38.48426 105.000
38.50421 91.000
38.52416 99.000
38.54410 106.000
38.56405 103.000
38.58400 114.000
38.60394 104.000
38.62389 105.000
38.64384 106.000
38.66378 109.000
38.68373 118.000
38.70368 128.000
38.72362 103.000
38.74357 129.000
38.76352 111.000
38.78347 110.000
38.80341 129.000
38.82336 137.000
38.84331 125.000
38.86325 125.000
38.88320 134.000
38.90315 131.000
38.92309 143.000
38.94304 121.000
38.96299 144.000
38.98294 111.000
39.00288 142.000
39.02283 135.000
39.04278 177.000
39.06272 179.000
39.08267 166.000
39.10262 149.000
39.12256 200.000
39.14251 186.000
39.16246 191.000
39.18241 209.000
39.20235 234.000
39.22230 226.000
39.24225 248.000
39.26219 297.000
39.28214 356.000
39.30209 349.000
39.32203 390.000
39.34198 424.000
39.36193 431.000
39.38187 414.000
39.40182 459.000
39.42177 475.000
39.44172 470.000
39.46166 484.000
39.48161 458.000
39.50156 473.000
39.52150 457.000
39.54145 425.000
39.56140 390.000
39.58134 404.000
39.60129 390.000
39.62124 344.000
39.64119 341.000
39.66113 327.000
39.68108 276.000
39.70103 254.000
39.72097 242.000
39.74092 245.000
39.76087 207.000
39.78081 222.000
39.80076 193.000
39.82071 161.000
39.84065 213.000
39.86060 191.000
39.88055 212.000
39.90050 206.000
39.92044 191.000
39.94039 217.000
39.96034 202.000
39.98028 186.000
40.00023 211.000
40.02018 190.000
40.04012 206.000
40.06007 187.000
40.08002 188.000
40.09997 177.000
40.11991 179.000
40.13986 156.000
40.15981 124.000
40.17975 106.000
40.19970 100.000
40.21965 110.000
40.23959 121.000
40.25954 92.000
40.27949 94.000
40.29943 77.000
40.31938 83.000
40.33933 80.000
40.35928 79.000
40.37922 69.000
40.39917 85.000
40.41912 71.000
40.43906 69.000
40.45901 71.000
40.47896 72.000
40.49890 82.000
40.51885 55.000
40.53880 72.000
40.55875 77.000
40.57869 74.000
40.59864 56.000
40.61859 55.000
40.63853 63.000
40.65848 68.000
40.67843 58.000
40.69837 57.000
40.71832 53.000
40.73827 73.000
40.75822 61.000
40.77816 64.000
40.79811 58.000
40.81806 68.000
40.83800 69.000
40.85795 63.000
40.87790 49.000
40.89784 67.000
40.91779 67.000
40.93774 61.000
40.95768 66.000
40.97763 64.000
40.99758 57.000
41.01753 75.000
41.03747 47.000
41.05742 62.000
41.07737 64.000
41.09731 60.000
41.11726 55.000
41.13721 56.000
41.15715 71.000
41.17710 51.000
41.19705 74.000
41.21700 53.000
41.23694 74.000
41.25689 50.000
41.27684 52.000
41.29678 51.000
41.31673 50.000
41.33668 53.000
41.35662 44.000
41.37657 44.000
41.39652 42.000
41.41646 61.000
41.43641 44.000
41.45636 44.000
41.47631 62.000
41.49625 66.000
41.51620 47.000
41.53615 56.000
41.55609 65.000
41.57604 55.000
41.59599 59.000
41.61593 61.000
41.63588 49.000
41.65583 61.000
41.67578 55.000
41.69572 57.000
41.71567 64.000
41.73562 48.000
41.75556 53.000
41.77551 60.000
41.79546 50.000
41.81540 53.000
41.83535 56.000
41.85530 60.000
41.87524 70.000
41.89519 51.000
41.91514 60.000
41.93509 51.000
41.95503 72.000
41.97498 63.000
41.99493 72.000
42.01487 65.000
42.03482 78.000
42.05477 99.000
42.07471 68.000
42.09466 68.000
42.11461 69.000
42.13456 87.000
42.15450 100.000
42.17445 82.000
42.19440 94.000
42.21434 91.000
42.23429 77.000
42.25424 71.000
42.27418 75.000
42.29413 69.000
42.31408 86.000
42.33403 75.000
42.35397 78.000
42.37392 74.000
42.39387 64.000
42.41381 80.000
42.43376 69.000
42.45371 67.000
42.47365 60.000
42.49360 75.000
42.51355 65.000
42.53349 77.000
42.55344 60.000
42.57339 72.000
42.59334 69.000
42.61328 64.000
42.63323 64.000
42.65318 61.000
42.67312 67.000
42.69307 71.000
42.71302 73.000
42.73296 76.000
42.75291 62.000
42.77286 79.000
42.79281 61.000
42.81275 78.000
42.83270 66.000
42.85265 62.000
42.87259 74.000
42.89254 55.000
42.91249 96.000
42.93243 74.000
42.95238 88.000
42.97233 66.000
42.99227 100.000
43.01222 91.000
43.03217 81.000
43.05212 81.000
43.07206 81.000
43.09201 92.000
43.11196 104.000
43.13190 95.000
43.15185 105.000
43.17180 127.000
43.19174 114.000
43.21169 125.000
43.23164 132.000
43.25159 132.000
43.27153 139.000
43.29148 144.000
43.31143 148.000
43.33137 171.000
43.35132 173.000
43.37127 211.000
43.39121 207.000
43.41116 203.000
43.43111 205.000
43.45105 199.000
43.47100 195.000
43.49095 206.000
43.51090 200.000
43.53084 188.000
43.55079 201.000
43.57074 202.000
43.59068 148.000
43.61063 174.000
43.63058 181.000
43.65052 150.000
43.67047 139.000
43.69042 120.000
43.71037 119.000
43.73031 128.000
43.75026 131.000
43.77021 126.000
43.79015 113.000
43.81010 114.000
43.83005 105.000
43.84999 106.000
43.86994 105.000
43.88989 105.000
43.90984 103.000
43.92978 126.000
43.94973 117.000
43.96968 126.000
43.98962 109.000
44.00957 101.000
44.02952 130.000
44.04946 115.000
44.06941 103.000
44.08936 108.000
44.10930 122.000
44.12925 91.000
44.14920 97.000
44.16915 99.000
44.18909 104.000
44.20904 89.000
44.22899 111.000
44.24893 111.000
44.26888 78.000
44.28883 82.000
44.30877 97.000
44.32872 74.000
44.34867 78.000
44.36862 77.000
44.38856 98.000
44.40851 89.000
44.42846 89.000
44.44840 78.000
44.46835 76.000
44.48830 76.000
44.50824 69.000
44.52819 56.000
44.54814 51.000
44.56808 59.000
44.58803 66.000
44.60798 58.000
44.62793 48.000
44.64787 50.000
44.66782 50.000
44.68777 69.000
44.70771 54.000
44.72766 48.000
44.74761 46.000
44.76755 60.000
44.78750 59.000
44.80745 52.000
44.82740 42.000
44.84734 58.000
44.86729 54.000
44.88724 49.000
44.90718 42.000
44.92713 66.000
44.94708 50.000
44.96702 51.000
44.98697 52.000
45.00692 56.000
45.02686 60.000
45.04681 41.000
45.06676 51.000
45.08671 44.000
45.10665 50.000
45.12660 50.000
45.14655 42.000
45.16649 48.000
45.18644 47.000
45.20639 51.000
45.22633 44.000
45.24628 54.000
45.26623 49.000
45.28618 45.000
45.30612 40.000
45.32607 44.000
45.34602 51.000
45.36596 43.000
45.38591 42.000
45.40586 42.000
45.42580 40.000
45.44575 55.000
45.46570 49.000
45.48565 44.000
45.50559 48.000
45.52554 40.000
45.54549 54.000
45.56543 49.000
45.58538 46.000
45.60533 47.000
45.62527 43.000
45.64522 43.000
45.66517 40.000
45.68511 53.000
45.70506 34.000
45.72501 48.000
45.74496 43.000
45.76490 31.000
45.78485 32.000
45.80480 45.000
45.82474 42.000
45.84469 46.000
45.86464 37.000
45.88458 43.000
45.90453 38.000
45.92448 37.000
45.94443 48.000
45.96437 48.000
45.98432 23.000
46.00427 39.000
46.02421 32.000
46.04416 28.000
46.06411 46.000
46.08405 45.000
46.10400 50.000
46.12395 42.000
46.14389 42.000
46.16384 46.000
46.18379 35.000
46.20374 52.000
46.22368 46.000
46.24363 39.000
46.26358 31.000
46.28352 41.000
46.30347 44.000
46.32342 48.000
46.34336 47.000
46.36331 48.000
46.38326 37.000
46.40321 37.000
46.42315 37.000
46.44310 38.000
46.46305 52.000
46.48299 47.000
46.50294 30.000
46.52289 44.000
46.54283 46.000
46.56278 51.000
46.58273 30.000
46.60267 45.000
46.62262 47.000
46.64257 50.000
46.66252 53.000
46.68246 35.000
46.70241 47.000
46.72236 36.000
46.74230 39.000
46.76225 59.000
46.78220 41.000
46.80214 39.000
46.82209 57.000
46.84204 43.000
46.86199 61.000
46.88193 41.000
46.90188 52.000
46.92183 59.000
46.94177 59.000
46.96172 56.000
46.98167 50.000
47.00161 47.000
47.02156 70.000
47.04151 49.000
47.06146 67.000
47.08140 60.000
47.10135 50.000
47.12130 48.000
47.14124 68.000
47.16119 53.000
47.18114 69.000
47.20108 60.000
47.22103 85.000
47.24098 81.000
47.26092 81.000
47.28087 73.000
47.30082 78.000
47.32077 86.000
47.34071 98.000
47.36066 86.000
47.38061 105.000
47.40055 98.000
47.42050 99.000
47.44045 102.000
47.46039 105.000
47.48034 104.000
47.50029 115.000
47.52024 106.000
47.54018 107.000
47.56013 83.000
47.58008 109.000
47.60002 82.000
47.61997 99.000
47.63992 98.000
47.65986 87.000
47.67981 78.000
47.69976 79.000
47.71970 94.000
47.73965 100.000
47.75960 86.000
47.77955 103.000
47.79949 84.000
47.81944 94.000
47.83939 80.000
47.85933 112.000
47.87928 89.000
47.89923 95.000
47.91917 105.000
47.93912 106.000
47.95907 103.000
47.97902 85.000
47.99896 91.000
48.01891 109.000
48.03886 96.000
48.05880 107.000
48.07875 110.000
48.09870 94.000
48.11864 116.000
48.13859 139.000
48.15854 107.000
48.17848 118.000
48.19843 137.000
48.21838 132.000
48.23833 159.000
48.25827 157.000
48.27822 180.000
48.29817 192.000
48.31811 189.000
48.33806 188.000
48.35801 193.000
48.37795 215.000
48.39790 251.000
48.41785 234.000
48.43780 260.000
48.45774 263.000
48.47769 295.000
48.49764 314.000
48.51758 344.000
48.53753 365.000
48.55748 394.000
48.57742 368.000
48.59737 399.000
48.61732 426.000
48.63726 439.000
48.65721 432.000
48.67716 423.000
48.69711 418.000
48.71705 434.000
48.73700 378.000
48.75695 395.000
48.77689 362.000
48.79684 353.000
48.81679 316.000
48.83673 301.000
48.85668 281.000
48.87663 262.000
48.89658 241.000
48.91652 229.000
48.93647 234.000
48.95642 168.000
48.97636 176.000
48.99631 175.000
49.01626 171.000
49.03620 156.000
49.05615 175.000
49.07610 145.000
49.09605 148.000
49.11599 158.000
49.13594 182.000
49.15589 140.000
49.17583 153.000
49.19578 142.000
49.21573 130.000
49.23567 174.000
49.25562 172.000
49.27557 178.000
49.29551 156.000
49.31546 150.000
49.33541 159.000
49.35536 153.000
49.37530 144.000
49.39525 151.000
49.41520 142.000
49.43514 151.000
49.45509 187.000
49.47504 132.000
49.49498 135.000
49.51493 128.000
49.53488 123.000
49.55483 102.000
49.57477 120.000
49.59472 106.000
49.61467 99.000
49.63461 103.000
49.65456 109.000
49.67451 74.000
49.69445 93.000
49.71440 84.000
49.73435 70.000
49.75429 85.000
49.77424 79.000
49.79419 66.000
49.81414 76.000
49.83408 74.000
49.85403 76.000
49.87398 54.000
49.89392 47.000
49.91387 53.000
49.93382 54.000
49.95376 56.000
49.97371 54.000
49.99366 51.000
50.01361 45.000
50.03355 60.000
50.05350 62.000
50.07345 42.000
50.09339 60.000
50.11334 48.000
50.13329 48.000
50.15323 47.000
50.17318 45.000
50.19313 43.000
50.21307 39.000
50.23302 44.000
50.25297 46.000
50.27292 52.000
50.29286 43.000
50.31281 34.000
50.33276 42.000
50.35270 50.000
50.37265 35.000
50.39260 42.000
50.41254 41.000
50.43249 39.000
50.45244 37.000
50.47239 42.000
50.49233 45.000
50.51228 52.000
50.53223 47.000
50.55217 38.000
50.57212 49.000
50.59207 41.000
50.61201 41.000
50.63196 46.000
50.65191 46.000
50.67186 56.000
50.69180 47.000
50.71175 44.000
50.73170 54.000
50.75164 59.000
50.77159 50.000
50.79154 47.000
50.81148 47.000
50.83143 63.000
50.85138 36.000
50.87132 60.000
50.89127 48.000
50.91122 45.000
50.93117 48.000
50.95111 39.000
50.97106 44.000
50.99101 34.000
51.01095 50.000
51.03090 38.000
51.05085 43.000
51.07079 47.000
51.09074 46.000
51.11069 44.000
51.13064 41.000
51.15058 38.000
51.17053 36.000
51.19048 39.000
51.21042 41.000
51.23037 40.000
51.25032 19.000
51.27026 34.000
51.29021 36.000
51.31016 35.000
51.33010 35.000
51.35005 31.000
51.37000 40.000
51.38995 42.000
51.40989 42.000
51.42984 37.000
51.44979 42.000
51.46973 40.000
51.48968 43.000
51.50963 46.000
51.52957 50.000
51.54952 57.000
51.56947 41.000
51.58942 33.000
51.60936 46.000
51.62931 35.000
51.64926 42.000
51.66920 34.000
51.68915 39.000
51.70910 40.000
51.72904 40.000
51.74899 42.000
51.76894 41.000
51.78888 36.000
51.80883 30.000
51.82878 31.000
51.84873 38.000
51.86867 49.000
51.88862 34.000
51.90857 30.000
51.92851 39.000
51.94846 37.000
51.96841 31.000
51.98835 37.000
52.00830 47.000
52.02825 38.000
52.04820 35.000
52.06814 32.000
52.08809 37.000
52.10804 38.000
52.12798 36.000
52.14793 33.000
52.16788 26.000
52.18782 43.000
52.20777 37.000
52.22772 29.000
52.24767 34.000
52.26761 33.000
52.28756 29.000
52.30751 30.000
52.32745 30.000
52.34740 36.000
52.36735 34.000
52.38729 35.000
52.40724 27.000
52.42719 26.000
52.44713 31.000
52.46708 25.000
52.48703 33.000
52.50698 33.000
52.52692 30.000
52.54687 42.000
52.56682 41.000
52.58676 39.000
52.60671 33.000
52.62666 31.000
52.64660 40.000
52.66655 39.000
52.68650 41.000
52.70645 29.000
52.72639 36.000
52.74634 31.000
52.76629 43.000
52.78623 42.000
52.80618 23.000
52.82613 41.000
52.84607 53.000
52.86602 47.000
52.88597 32.000
52.90591 37.000
52.92586 27.000
52.94581 31.000
52.96576 43.000
52.98570 44.000
53.00565 37.000
53.02560 38.000
53.04554 38.000
53.06549 44.000
53.08544 47.000
53.10538 32.000
53.12533 45.000
53.14528 30.000
53.16523 42.000
53.18517 49.000
53.20512 38.000
53.22507 34.000
53.24501 42.000
53.26496 38.000
53.28491 35.000
53.30485 46.000
53.32480 43.000
53.34475 40.000
53.36469 43.000
53.38464 42.000
53.40459 34.000
53.42454 33.000
53.44448 40.000
53.46443 43.000
53.48438 42.000
53.50432 35.000
53.52427 43.000
53.54422 37.000
53.56416 41.000
53.58411 36.000
53.60406 33.000
53.62401 46.000
53.64395 31.000
53.66390 36.000
53.68385 32.000
53.70379 39.000
53.72374 42.000
53.74369 35.000
53.76363 30.000
53.78358 41.000
53.80353 46.000
53.82348 53.000
53.84342 29.000
53.86337 32.000
53.88332 39.000
53.90326 41.000
53.92321 39.000
53.94316 41.000
53.96310 40.000
53.98305 38.000
54.00300 41.000
54.02294 33.000
54.04289 34.000
54.06284 34.000
54.08279 36.000
54.10273 25.000
54.12268 39.000
54.14263 39.000
54.16257 30.000
54.18252 31.000
54.20247 28.000
54.22241 39.000
54.24236 30.000
54.26231 36.000
54.28226 39.000
54.30220 36.000
54.32215 37.000
54.34210 40.000
54.36204 32.000
54.38199 42.000
54.40194 33.000
54.42188 40.000
54.44183 46.000
54.46178 37.000
54.48172 28.000
54.50167 40.000
54.52162 33.000
54.54157 42.000
54.56151 38.000
54.58146 39.000
54.60141 27.000
54.62135 36.000
54.64130 21.000
54.66125 45.000
54.68119 15.000
54.70114 24.000
54.72109 34.000
54.74104 23.000
54.76098 28.000
54.78093 42.000
54.80088 32.000
54.82082 30.000
54.84077 28.000
54.86072 36.000
54.88066 34.000
54.90061 28.000
54.92056 36.000
54.94050 44.000
54.96045 31.000
54.98040 36.000
55.00035 38.000
55.02029 34.000
55.04024 28.000
55.06019 26.000
55.08013 34.000
55.10008 31.000
55.12003 35.000
55.13997 26.000
55.15992 36.000
55.17987 33.000
55.19982 44.000
55.21976 35.000
55.23971 26.000
55.25966 47.000
55.27960 39.000
55.29955 34.000
55.31950 32.000
55.33944 35.000
55.35939 29.000
55.37934 31.000
55.39929 28.000
55.41923 31.000
55.43918 31.000
55.45913 31.000
55.47907 30.000
55.49902 38.000
55.51897 31.000
55.53891 38.000
55.55886 24.000
55.57881 32.000
55.59875 32.000
55.61870 28.000
55.63865 29.000
55.65860 33.000
55.67854 24.000
55.69849 26.000
55.71844 26.000
55.73838 17.000
55.75833 35.000
55.77828 25.000
55.79822 32.000
55.81817 30.000
55.83812 33.000
55.85807 36.000
55.87801 22.000
55.89796 28.000
55.91791 37.000
55.93785 38.000
55.95780 39.000
55.97775 29.000
55.99769 31.000
56.01764 22.000
56.03759 31.000
56.05753 28.000
56.07748 34.000
56.09743 33.000
56.11738 40.000
56.13732 27.000
56.15727 32.000
56.17722 23.000
56.19716 33.000
56.21711 30.000
56.23706 23.000
56.25700 33.000
56.27695 33.000
56.29690 22.000
56.31685 30.000
56.33679 21.000
56.35674 30.000
56.37669 31.000
56.39663 41.000
56.41658 31.000
56.43653 28.000
56.45647 25.000
56.47642 24.000
56.49637 31.000
56.51631 22.000
56.53626 24.000
56.55621 25.000
56.57616 28.000
56.59610 41.000
56.61605 38.000
56.63600 24.000
56.65594 30.000
56.67589 23.000
56.69584 35.000
56.71578 32.000
56.73573 33.000
56.75568 25.000
56.77563 28.000
56.79557 26.000
56.81552 38.000
56.83547 25.000
56.85541 25.000
56.87536 34.000
56.89531 29.000
56.91525 31.000
56.93520 16.000
56.95515 34.000
56.97510 23.000
56.99504 22.000
57.01499 37.000
57.03494 21.000
57.05488 27.000
57.07483 32.000
57.09478 33.000
57.11472 32.000
57.13467 28.000
57.15462 33.000
57.17456 22.000
57.19451 31.000
57.21446 34.000
57.23441 28.000
57.25435 29.000
57.27430 35.000
57.29425 38.000
57.31419 32.000
57.33414 32.000
57.35409 25.000
57.37403 32.000
57.39398 28.000
57.41393 21.000
57.43388 41.000
57.45382 37.000
57.47377 18.000
57.49372 33.000
57.51366 32.000
57.53361 26.000
57.55356 31.000
57.57350 31.000
57.59345 23.000
57.61340 28.000
57.63334 25.000
57.65329 24.000
57.67324 19.000
57.69319 22.000
57.71313 32.000
57.73308 32.000
57.75303 35.000
57.77297 33.000
57.79292 24.000
57.81287 37.000
57.83281 30.000
57.85276 25.000
57.87271 33.000
57.89266 31.000
57.91260 30.000
57.93255 27.000
57.95250 33.000
57.97244 22.000
57.99239 45.000
58.01234 30.000
58.03228 33.000
58.05223 28.000
58.07218 43.000
58.09212 30.000
58.11207 31.000
58.13202 30.000
58.15197 34.000
58.17191 28.000
58.19186 32.000
58.21181 33.000
58.23175 30.000
58.25170 30.000
58.27165 35.000
58.29159 35.000
58.31154 38.000
58.33149 30.000
58.35144 44.000
58.37138 21.000
58.39133 29.000
58.41128 34.000
58.43122 36.000
58.45117 29.000
58.47112 38.000
58.49106 32.000
58.51101 34.000
58.53096 32.000
58.55090 34.000
58.57085 38.000
58.59080 31.000
58.61075 27.000
58.63069 39.000
58.65064 49.000
58.67059 32.000
58.69053 35.000
58.71048 31.000
58.73043 24.000
58.75037 28.000
58.77032 36.000
58.79027 27.000
58.81022 26.000
58.83016 35.000
58.85011 26.000
58.87006 42.000
58.89000 18.000
58.90995 29.000
58.92990 39.000
58.94984 26.000
58.96979 36.000
58.98974 30.000
59.00969 31.000
59.02963 36.000
59.04958 22.000
59.06953 26.000
59.08947 29.000
59.10942 28.000
59.12937 23.000
59.14931 24.000
59.16926 29.000
59.18921 29.000
59.20915 39.000
59.22910 28.000
59.24905 28.000
59.26900 40.000
59.28894 28.000
59.30889 24.000
59.32884 33.000
59.34878 31.000
59.36873 39.000
59.38868 35.000
59.40862 39.000
59.42857 28.000
59.44852 31.000
59.46847 36.000
59.48841 33.000
59.50836 24.000
59.52831 27.000
59.54825 33.000
59.56820 27.000
59.58815 20.000
59.60809 47.000
59.62804 31.000
59.64799 23.000
59.66793 40.000
59.68788 36.000
59.70783 38.000
59.72778 35.000
59.74772 43.000
59.76767 33.000
59.78762 32.000
59.80756 27.000
59.82751 29.000
59.84746 46.000
59.86740 39.000
59.88735 47.000
59.90730 36.000
59.92725 41.000
59.94719 42.000
59.96714 38.000
59.98709 42.000
60.00703 40.000
60.02698 34.000
60.04693 32.000
60.06687 35.000
60.08682 52.000
60.10677 34.000
60.12671 44.000
60.14666 32.000
60.16661 49.000
60.18656 40.000
60.20650 41.000
60.22645 46.000
60.24640 25.000
60.26634 36.000
60.28629 31.000
60.30624 41.000
60.32618 60.000
60.34613 40.000
60.36608 43.000
60.38603 58.000
60.40597 48.000
60.42592 51.000
60.44587 45.000
60.46581 46.000
60.48576 71.000
60.50571 52.000
60.52565 51.000
60.54560 52.000
60.56555 75.000
60.58550 72.000
60.60544 66.000
60.62539 55.000
60.64534 58.000
60.66528 59.000
60.68523 58.000
60.70518 65.000
60.72512 72.000
60.74507 69.000
60.76502 74.000
60.78496 71.000
60.80491 67.000
60.82486 57.000
60.84481 63.000
60.86475 61.000
60.88470 71.000
60.90465 73.000
60.92459 72.000
60.94454 64.000
60.96449 69.000
60.98443 61.000
61.00438 67.000
61.02433 61.000
61.04428 77.000
61.06422 82.000
61.08417 69.000
61.10412 55.000
61.12406 89.000
61.14401 77.000
61.16396 71.000
61.18390 75.000
61.20385 93.000
61.22380 100.000
61.24374 92.000
61.26369 104.000
61.28364 94.000
61.30359 94.000
61.32353 90.000
61.34348 107.000
61.36343 114.000
61.38337 118.000
61.40332 128.000
61.42327 136.000
61.44321 131.000
61.46316 142.000
61.48311 141.000
61.50306 171.000
61.52300 193.000
61.54295 192.000
61.56290 182.000
61.58284 210.000
61.60279 202.000
61.62274 211.000
61.64268 221.000
61.66263 212.000
61.68258 224.000
61.70252 186.000
61.72247 203.000
61.74242 176.000
61.76237 184.000
61.78231 169.000
61.80226 168.000
61.82221 152.000
61.84215 141.000
61.86210 132.000
61.88205 147.000
61.90199 135.000
61.92194 118.000
61.94189 125.000
61.96184 105.000
61.98178 90.000
62.00173 103.000
62.02168 88.000
62.04162 96.000
62.06157 83.000
62.08152 100.000
62.10146 81.000
62.12141 81.000
62.14136 73.000
62.16131 87.000
62.18125 89.000
62.20120 70.000
62.22115 87.000
62.24109 73.000
62.26104 78.000
62.28099 80.000
62.30093 85.000
62.32088 70.000
62.34083 64.000
62.36077 68.000
62.38072 76.000
62.40067 97.000
62.42062 85.000
62.44056 80.000
62.46051 90.000
62.48046 79.000
62.50040 95.000
62.52035 97.000
62.54030 98.000
62.56024 95.000
62.58019 94.000
62.60014 111.000
62.62009 118.000
62.64003 126.000
62.65998 132.000
62.67993 144.000
62.69987 146.000
62.71982 136.000
62.73977 136.000
62.75971 120.000
62.77966 102.000
62.79961 124.000
62.81955 111.000
62.83950 119.000
62.85945 99.000
62.87940 122.000
62.89934 98.000
62.91929 111.000
62.93924 107.000
62.95918 96.000
62.97913 89.000
62.99908 94.000
63.01902 102.000
63.03897 87.000
63.05892 96.000
63.07887 100.000
63.09881 83.000
63.11876 76.000
63.13871 58.000
63.15865 77.000
63.17860 64.000
63.19855 67.000
63.21849 67.000
63.23844 72.000
63.25839 74.000
63.27833 74.000
63.29828 48.000
63.31823 55.000
63.33818 63.000
63.35812 60.000
63.37807 56.000
63.39802 62.000
63.41796 49.000
63.43791 58.000
63.45786 51.000
63.47780 46.000
63.49775 50.000
63.51770 48.000
63.53765 51.000
63.55759 53.000
63.57754 64.000
63.59749 57.000
63.61743 58.000
63.63738 60.000
63.65733 54.000
63.67727 40.000
63.69722 52.000
63.71717 57.000
63.73712 70.000
63.75706 48.000
63.77701 41.000
63.79696 61.000
63.81690 73.000
63.83685 47.000
63.85680 57.000
63.87674 70.000
63.89669 61.000
63.91664 57.000
63.93658 65.000
63.95653 62.000
63.97648 75.000
63.99643 69.000
64.01637 84.000
64.03632 71.000
64.05627 61.000
64.07621 83.000
64.09616 64.000
64.11611 76.000
64.13605 97.000
64.15600 82.000
64.17595 68.000
64.19590 87.000
64.21584 77.000
64.23579 63.000
64.25574 76.000
64.27568 84.000
64.29563 105.000
64.31558 88.000
64.33552 97.000
64.35547 104.000
64.37542 89.000
64.39536 100.000
64.41531 110.000
64.43526 98.000
64.45521 98.000
64.47515 79.000
64.49510 82.000
64.51505 73.000
64.53499 66.000
64.55494 77.000
64.57489 89.000
64.59483 91.000
64.61478 82.000
64.63473 84.000
64.65468 94.000
64.67462 85.000
64.69457 75.000
64.71452 80.000
64.73446 89.000
64.75441 90.000
64.77436 81.000
64.79430 77.000
64.81425 80.000
64.83420 70.000
64.85414 78.000
64.87409 78.000
64.89404 86.000
64.91399 100.000
64.93393 72.000
64.95388 86.000
64.97383 93.000
64.99377 95.000
65.01372 90.000
65.03367 97.000
65.05361 89.000
65.07356 104.000
65.09351 91.000
65.11346 87.000
65.13340 102.000
65.15335 109.000
65.17330 110.000
65.19324 121.000
65.21319 100.000
65.23314 103.000
65.25308 90.000
65.27303 95.000
65.29298 107.000
65.31293 109.000
65.33287 111.000
65.35282 109.000
65.37277 100.000
65.39271 101.000
65.41266 90.000
65.43261 116.000
65.45255 95.000
65.47250 114.000
65.49245 114.000
65.51239 118.000
65.53234 143.000
65.55229 114.000
65.57224 133.000
65.59218 123.000
65.61213 129.000
65.63208 144.000
65.65202 150.000
65.67197 144.000
65.69192 138.000
65.71186 140.000
65.73181 144.000
65.75176 123.000
65.77171 133.000
65.79165 132.000
65.81160 128.000
65.83155 126.000
65.85149 131.000
65.87144 119.000
65.89139 114.000
65.91133 120.000
65.93128 110.000
65.95123 114.000
65.97117 99.000
65.99112 123.000
66.01107 106.000
66.03102 126.000
66.05096 109.000
66.07091 89.000
66.09086 133.000
66.11080 101.000
66.13075 90.000
66.15070 104.000
66.17064 99.000
66.19059 107.000
66.21054 92.000
66.23049 85.000
66.25043 77.000
66.27038 84.000
66.29033 94.000
66.31027 81.000
66.33022 84.000
66.35017 82.000
66.37011 73.000
66.39006 68.000
66.41001 64.000
66.42995 73.000
66.44990 66.000
66.46985 71.000
66.48980 61.000
66.50974 75.000
66.52969 64.000
66.54964 62.000
66.56958 68.000
66.58953 73.000
66.60948 65.000
66.62942 70.000
66.64937 66.000
66.66932 88.000
66.68927 74.000
66.70921 74.000
66.72916 68.000
66.74911 51.000
66.76905 81.000
66.78900 61.000
66.80895 66.000
66.82889 68.000
66.84884 61.000
66.86879 68.000
66.88874 77.000
66.90868 64.000
66.92863 64.000
66.94858 60.000
66.96852 57.000
66.98847 63.000
67.00842 58.000
67.02836 61.000
67.04831 69.000
67.06826 43.000
67.08820 60.000
67.10815 47.000
67.12810 58.000
67.14805 46.000
67.16799 68.000
67.18794 59.000
67.20789 42.000
67.22783 52.000
67.24778 52.000
67.26773 51.000
67.28767 55.000
67.30762 58.000
67.32757 45.000
67.34752 49.000
67.36746 52.000
67.38741 60.000
67.40736 45.000
67.42730 52.000
67.44725 55.000
67.46720 54.000
67.48714 52.000
67.50709 46.000
67.52704 62.000
67.54698 51.000
67.56693 53.000
67.58688 48.000
67.60683 52.000
67.62677 49.000
67.64672 58.000
67.66667 61.000
67.68661 39.000
67.70656 48.000
67.72651 65.000
67.74645 61.000
67.76640 61.000
67.78635 68.000
67.80630 59.000
67.82624 56.000
67.84619 69.000
67.86614 66.000
67.88608 64.000
67.90603 72.000
67.92598 60.000
67.94592 64.000
67.96587 65.000
67.98582 71.000
68.00576 64.000
68.02571 69.000
68.04566 67.000
68.06561 72.000
68.08555 61.000
68.10550 58.000
68.12545 67.000
68.14539 58.000
68.16534 82.000
68.18529 82.000
68.20523 61.000
68.22518 74.000
68.24513 64.000
68.26508 57.000
68.28502 44.000
68.30497 75.000
68.32492 53.000
68.34486 48.000
68.36481 52.000
68.38476 51.000
68.40470 47.000
68.42465 35.000
68.44460 39.000
68.46455 38.000
68.48449 40.000
68.50444 41.000
68.52439 46.000
68.54433 36.000
68.56428 32.000
68.58423 34.000
68.60417 44.000
68.62412 39.000
68.64407 37.000
68.66401 36.000
68.68396 28.000
68.70391 35.000
68.72386 29.000
68.74380 39.000
68.76375 37.000
68.78370 33.000
68.80364 30.000
68.82359 34.000
68.84354 30.000
68.86348 19.000
68.88343 37.000
68.90338 33.000
68.92333 33.000
68.94327 31.000
68.96322 28.000
68.98317 32.000
69.00311 26.000
69.02306 24.000
69.04301 32.000
69.06295 27.000
69.08290 28.000
69.10285 32.000
69.12279 31.000
69.14274 25.000
69.16269 34.000
69.18264 37.000
69.20258 35.000
69.22253 21.000
69.24248 25.000
69.26242 27.000
69.28237 24.000
69.30232 35.000
69.32226 38.000
69.34221 25.000
69.36216 24.000
69.38211 30.000
69.40205 25.000
69.42200 32.000
69.44195 27.000
69.46189 36.000
69.48184 24.000
69.50179 23.000
69.52173 25.000
69.54168 29.000
69.56163 30.000
69.58157 27.000
69.60152 27.000
69.62147 29.000
69.64142 30.000
69.66136 30.000
69.68131 26.000
69.70126 29.000
69.72120 23.000
69.74115 25.000
69.76110 16.000
69.78104 26.000
69.80099 27.000
69.82094 18.000
69.84089 33.000
69.86083 21.000
69.88078 29.000
69.90073 23.000
69.92067 34.000
69.94062 28.000
69.96057 26.000
69.98051 26.000
70.00046 25.000
70.02041 25.000
70.04035 32.000
70.06030 18.000
70.08025 24.000
70.10020 18.000
70.12014 24.000
70.14009 21.000
70.16004 22.000
70.17998 35.000
70.19993 25.000
70.21988 21.000
70.23982 16.000
70.25977 22.000
70.27972 29.000
70.29967 24.000
70.31961 23.000
70.33956 19.000
70.35951 27.000
70.37945 23.000
70.39940 29.000
70.41935 28.000
70.43929 25.000
70.45924 37.000
70.47919 27.000
70.49914 22.000
70.51908 26.000
70.53903 26.000
70.55898 22.000
70.57892 27.000
70.59887 13.000
70.61882 27.000
70.63876 20.000
70.65871 17.000
70.67866 15.000
70.69860 25.000
70.71855 21.000
70.73850 23.000
70.75845 26.000
70.77839 26.000
70.79834 13.000
70.81829 21.000
70.83823 26.000
70.85818 27.000
70.87813 26.000
70.89807 19.000
70.91802 21.000
70.93797 21.000
70.95792 26.000
70.97786 20.000
70.99781 22.000
71.01776 29.000
71.03770 26.000
71.05765 33.000
71.07760 29.000
71.09754 24.000
71.11749 25.000
71.13744 23.000
71.15738 26.000
71.17733 24.000
71.19728 20.000
71.21723 15.000
71.23717 17.000
71.25712 26.000
71.27707 30.000
71.29701 25.000
71.31696 25.000
71.33691 28.000
71.35685 29.000
71.37680 25.000
71.39675 22.000
71.41670 24.000
71.43664 27.000
71.45659 18.000
71.47654 32.000
71.49648 32.000
71.51643 25.000
71.53638 19.000
71.55632 27.000
71.57627 41.000
71.59622 23.000
71.61616 30.000
71.63611 32.000
71.65606 32.000
71.67601 32.000
71.69595 35.000
71.71590 26.000
71.73585 28.000
71.75579 30.000
71.77574 28.000
71.79569 36.000
71.81563 31.000
71.83558 33.000
71.85553 36.000
71.87548 42.000
71.89542 28.000
71.91537 38.000
71.93532 42.000
71.95526 32.000
71.97521 41.000
71.99516 44.000
72.01510 45.000
72.03505 38.000
72.05500 35.000
72.07495 34.000
72.09489 42.000
72.11484 38.000
72.13479 36.000
72.15473 39.000
72.17468 27.000
72.19463 36.000
72.21457 32.000
72.23452 25.000
72.25447 44.000
72.27441 44.000
72.29436 43.000
72.31431 34.000
72.33426 25.000
72.35420 33.000
72.37415 31.000
72.39410 33.000
72.41404 36.000
72.43399 31.000
72.45394 32.000
72.47388 28.000
72.49383 32.000
72.51378 29.000
72.53373 26.000
72.55367 30.000
72.57362 46.000
72.59357 33.000
72.61351 34.000
72.63346 18.000
72.65341 26.000
72.67335 31.000
72.69330 35.000
72.71325 29.000
72.73319 37.000
72.75314 29.000
72.77309 23.000
72.79304 32.000
72.81298 31.000
72.83293 28.000
72.85288 27.000
72.87282 32.000
72.89277 32.000
72.91272 38.000
72.93266 32.000
72.95261 30.000
72.97256 21.000
72.99251 36.000
73.01245 33.000
73.03240 36.000
73.05235 34.000
73.07229 40.000
73.09224 30.000
73.11219 39.000
73.13213 31.000
73.15208 25.000
73.17203 28.000
73.19197 41.000
73.21192 30.000
73.23187 34.000
73.25182 23.000
73.27176 27.000
73.29171 38.000
73.31166 37.000
73.33160 42.000
73.35155 35.000
73.37150 39.000
73.39144 32.000
73.41139 33.000
73.43134 39.000
73.45129 35.000
73.47123 51.000
73.49118 35.000
73.51113 37.000
73.53107 45.000
73.55102 42.000
73.57097 42.000
73.59091 43.000
73.61086 26.000
73.63081 39.000
73.65076 44.000
73.67070 42.000
73.69065 25.000
73.71060 44.000
73.73054 45.000
73.75049 31.000
73.77044 44.000
73.79038 27.000
73.81033 34.000
73.83028 26.000
73.85022 38.000
73.87017 32.000
73.89012 27.000
73.91007 37.000
73.93001 29.000
73.94996 28.000
73.96991 30.000
73.98985 26.000
74.00980 37.000
74.02975 32.000
74.04969 33.000
74.06964 29.000
74.08959 35.000
74.10954 34.000
74.12948 30.000
74.14943 31.000
74.16938 30.000
74.18932 28.000
74.20927 29.000
74.22922 37.000
74.24916 28.000
74.26911 28.000
74.28906 26.000
74.30900 32.000
74.32895 35.000
74.34890 33.000
74.36885 37.000
74.38879 40.000
74.40874 33.000
74.42869 25.000
74.44863 26.000
74.46858 31.000
74.48853 27.000
74.50847 39.000
74.52842 32.000
74.54837 45.000
74.56832 27.000
74.58826 29.000
74.60821 43.000
74.62816 37.000
74.64810 38.000
74.66805 35.000
74.68800 41.000
74.70794 47.000
74.72789 33.000
74.74784 45.000
74.76778 47.000
74.78773 51.000
74.80768 36.000
74.82763 57.000
74.84757 42.000
74.86752 58.000
74.88747 49.000
74.90741 45.000
74.92736 26.000
74.94731 44.000
74.96725 40.000
74.98720 49.000
75.00715 51.000
75.02710 58.000
75.04704 32.000
75.06699 40.000
75.08694 37.000
75.10688 34.000
75.12683 39.000
75.14678 38.000
75.16672 42.000
75.18667 39.000
75.20662 42.000
75.22657 35.000
75.24651 40.000
75.26646 32.000
75.28641 46.000
75.30635 27.000
75.32630 28.000
75.34625 23.000
75.36619 28.000
75.38614 30.000
75.40609 33.000
75.42603 37.000
75.44598 36.000
75.46593 38.000
75.48588 28.000
75.50582 26.000
75.52577 22.000
75.54572 35.000
75.56566 32.000
75.58561 23.000
75.60556 27.000
75.62550 27.000
75.64545 26.000
75.66540 34.000
75.68535 30.000
75.70529 25.000
75.72524 17.000
75.74519 26.000
75.76513 22.000
75.78508 33.000
75.80503 35.000
75.82497 27.000
75.84492 36.000
75.86487 30.000
75.88481 26.000
75.90476 34.000
75.92471 37.000
75.94466 21.000
75.96460 21.000
75.98455 27.000
76.00450 35.000
76.02444 23.000
76.04439 26.000
76.06434 30.000
76.08428 34.000
76.10423 39.000
76.12418 36.000
76.14413 38.000
76.16407 35.000
76.18402 29.000
76.20397 39.000
76.22391 39.000
76.24386 42.000
76.26381 47.000
76.28375 39.000
76.30370 51.000
76.32365 46.000
76.34359 29.000
76.36354 38.000
76.38349 42.000
76.40344 30.000
76.42338 35.000
76.44333 42.000
76.46328 44.000
76.48322 51.000
76.50317 50.000
76.52312 40.000
76.54306 54.000
76.56301 54.000
76.58296 50.000
76.60291 36.000
76.62285 51.000
76.64280 50.000
76.66275 38.000
76.68269 54.000
76.70264 42.000
76.72259 46.000
76.74253 52.000
76.76248 59.000
76.78243 51.000
76.80238 34.000
76.82232 43.000
76.84227 42.000
76.86222 49.000
76.88216 51.000
76.90211 35.000
76.92206 39.000
76.94200 50.000
76.96195 56.000
76.98190 44.000
77.00184 40.000
77.02179 49.000
77.04174 46.000
77.06169 38.000
77.08163 54.000
77.10158 47.000
77.12153 31.000
77.14147 55.000
77.16142 39.000
77.18137 61.000
77.20131 51.000
77.22126 47.000
77.24121 58.000
77.26116 52.000
77.28110 54.000
77.30105 55.000
77.32100 49.000
77.34094 69.000
77.36089 54.000
77.38084 72.000
77.40078 61.000
77.42073 64.000
77.44068 68.000
77.46062 52.000
77.48057 90.000
77.50052 71.000
77.52047 91.000
77.54041 86.000
77.56036 81.000
77.58031 68.000
77.60025 84.000
77.62020 84.000
77.64015 67.000
77.66009 88.000
77.68004 69.000
77.69999 72.000
77.71994 80.000
77.73988 52.000
77.75983 56.000
77.77978 75.000
77.79972 59.000
77.81967 65.000
77.83962 67.000
77.85956 62.000
77.87951 56.000
77.89946 73.000
77.91940 52.000
77.93935 63.000
77.95930 45.000
77.97925 42.000
77.99919 42.000
78.01914 53.000
78.03909 52.000
78.05903 47.000
78.07898 50.000
78.09893 57.000
78.11887 53.000
78.13882 58.000
78.15877 53.000
78.17872 48.000
78.19866 59.000
78.21861 65.000
78.23856 45.000
78.25850 56.000
78.27845 50.000
78.29840 58.000
78.31834 46.000
78.33829 46.000
78.35824 57.000
78.37819 54.000
78.39813 46.000
78.41808 42.000
78.43803 55.000
78.45797 57.000
78.47792 54.000
78.49787 47.000
78.51781 55.000
78.53776 47.000
78.55771 62.000
78.57765 50.000
78.59760 55.000
78.61755 66.000
78.63750 52.000
78.65744 59.000
78.67739 48.000
78.69734 64.000
78.71728 43.000
78.73723 65.000
78.75718 53.000
78.77712 57.000
78.79707 69.000
78.81702 55.000
78.83697 52.000
78.85691 49.000
78.87686 52.000
78.89681 48.000
78.91675 52.000
78.93670 44.000
78.95665 50.000
78.97659 43.000
78.99654 41.000
79.01649 57.000
79.03643 44.000
79.05638 51.000
79.07633 39.000
79.09628 47.000
79.11622 32.000
79.13617 36.000
79.15612 37.000
79.17606 36.000
79.19601 35.000
79.21596 32.000
79.23590 43.000
79.25585 41.000
79.27580 31.000
79.29575 26.000
79.31569 42.000
79.33564 33.000
79.35559 26.000
79.37553 33.000
79.39548 35.000
79.41543 30.000
79.43537 31.000
79.45532 32.000
79.47527 34.000
79.49521 27.000
79.51516 37.000
79.53511 32.000
79.55506 41.000
79.57500 26.000
79.59495 42.000
79.61490 42.000
79.63484 34.000
79.65479 32.000
79.67474 40.000
79.69468 31.000
79.71463 27.000
79.73458 32.000
79.75453 32.000
79.77447 32.000
79.79442 37.000
79.81437 34.000
79.83431 33.000
79.85426 35.000
79.87421 28.000
79.89415 24.000
79.91410 28.000
79.93405 33.000
79.95399 27.000
79.97394 44.000
79.99389 32.000
80.01384 28.000
80.03378 23.000
80.05373 25.000
80.07368 37.000
80.09362 25.000
80.11357 31.000
80.13352 32.000
80.15346 27.000
80.17341 39.000
80.19336 25.000
80.21331 23.000
80.23325 25.000
80.25320 25.000
80.27315 22.000
80.29309 31.000
80.31304 19.000
80.33299 22.000
80.35293 30.000
80.37288 26.000
80.39283 31.000
80.41278 20.000
80.43272 25.000
80.45267 20.000
80.47262 25.000
80.49256 33.000
80.51251 23.000
80.53246 25.000
80.55240 23.000
80.57235 20.000
80.59230 24.000
80.61224 27.000
80.63219 17.000
80.65214 29.000
80.67209 27.000
80.69203 26.000
80.71198 22.000
80.73193 28.000
80.75187 32.000
80.77182 19.000
80.79177 25.000
80.81171 28.000
80.83166 23.000
80.85161 22.000
80.87156 31.000
80.89150 20.000
80.91145 29.000
80.93140 29.000
80.95134 27.000
80.97129 36.000
80.99124 31.000
81.01118 31.000
81.03113 27.000
81.05108 29.000
81.07102 25.000
81.09097 29.000
81.11092 46.000
81.13087 27.000
81.15081 36.000
81.17076 38.000
81.19071 35.000
81.21065 40.000
81.23060 35.000
81.25055 30.000
81.27049 37.000
81.29044 36.000
81.31039 38.000
81.33034 50.000
81.35028 34.000
81.37023 37.000
81.39018 44.000
81.41012 37.000
81.43007 25.000
81.45002 34.000
81.46996 35.000
81.48991 42.000
81.50986 33.000
81.52980 36.000
81.54975 45.000
81.56970 24.000
81.58965 37.000
81.60959 30.000
81.62954 29.000
81.64949 34.000
81.66943 26.000
81.68938 33.000
81.70933 36.000
81.72927 31.000
81.74922 37.000
81.76917 26.000
81.78912 31.000
81.80906 38.000
81.82901 23.000
81.84896 33.000
81.86890 27.000
81.88885 24.000
81.90880 28.000
81.92874 32.000
81.94869 21.000
81.96864 29.000
81.98859 32.000
82.00853 29.000
82.02848 17.000
82.04843 29.000
82.06837 23.000
82.08832 27.000
82.10827 21.000
82.12821 24.000
82.14816 31.000
82.16811 35.000
82.18805 27.000
82.20800 32.000
82.22795 31.000
82.24790 25.000
82.26784 25.000
82.28779 29.000
82.30774 29.000
82.32768 31.000
82.34763 27.000
82.36758 23.000
82.38752 35.000
82.40747 26.000
82.42742 25.000
82.44737 27.000
82.46731 22.000
82.48726 25.000
82.50721 23.000
82.52715 26.000
82.54710 23.000
82.56705 30.000
82.58699 18.000
82.60694 31.000
82.62689 22.000
82.64683 21.000
82.66678 26.000
82.68673 26.000
82.70668 17.000
82.72662 31.000
82.74657 21.000
82.76652 28.000
82.78646 26.000
82.80641 21.000
82.82636 24.000
82.84630 33.000
82.86625 29.000
82.88620 33.000
82.90615 24.000
82.92609 21.000
82.94604 25.000
82.96599 28.000
82.98593 15.000
83.00588 32.000
83.02583 24.000
83.04577 33.000
83.06572 23.000
83.08567 16.000
83.10561 29.000
83.12556 25.000
83.14551 29.000
83.16546 28.000
83.18540 28.000
83.20535 36.000
83.22530 20.000
83.24524 29.000
83.26519 23.000
83.28514 33.000
83.30508 27.000
83.32503 34.000
83.34498 19.000
83.36493 26.000
83.38487 19.000
83.40482 18.000
83.42477 31.000
83.44471 23.000
83.46466 31.000
83.48461 30.000
83.50455 31.000
83.52450 14.000
83.54445 19.000
83.56440 22.000
83.58434 28.000
83.60429 23.000
83.62424 22.000
83.64418 22.000
83.66413 27.000
83.68408 29.000
83.70402 34.000
83.72397 25.000
83.74392 29.000
83.76386 30.000
83.78381 35.000
83.80376 28.000
83.82371 24.000
83.84365 17.000
83.86360 25.000
83.88355 26.000
83.90349 19.000
83.92344 35.000
83.94339 29.000
83.96333 39.000
83.98328 27.000
84.00323 15.000
84.02318 31.000
84.04312 31.000
84.06307 24.000
84.08302 21.000
84.10296 24.000
84.12291 35.000
84.14286 41.000
84.16280 34.000
84.18275 30.000
84.20270 16.000
84.22264 39.000
84.24259 40.000
84.26254 32.000
84.28249 34.000
84.30243 38.000
84.32238 27.000
84.34233 21.000
84.36227 33.000
84.38222 31.000
84.40217 41.000
84.42211 19.000
84.44206 32.000
84.46201 27.000
84.48196 29.000
84.50190 36.000
84.52185 37.000
84.54180 36.000
84.56174 36.000
84.58169 30.000
84.60164 36.000
84.62158 42.000
84.64153 37.000
84.66148 30.000
84.68142 32.000
84.70137 43.000
84.72132 31.000
84.74127 33.000
84.76121 42.000
84.78116 47.000
84.80111 32.000
84.82105 49.000
84.84100 36.000
84.86095 33.000
84.88089 38.000
84.90084 35.000
84.92079 47.000
84.94074 55.000
84.96068 40.000
84.98063 39.000
85.00058 43.000
85.02052 40.000
85.04047 43.000
85.06042 52.000
85.08036 41.000
85.10031 51.000
85.12026 48.000
85.14021 46.000
85.16015 40.000
85.18010 49.000
85.20005 51.000
85.21999 33.000
85.23994 39.000
85.25989 47.000
85.27983 35.000
85.29978 29.000
85.31973 43.000
85.33967 38.000
85.35962 48.000
85.37957 47.000
85.39952 43.000
85.41946 31.000
85.43941 38.000
85.45936 44.000
85.47930 49.000
85.49925 34.000
85.51920 43.000
85.53914 44.000
85.55909 32.000
85.57904 37.000
85.59899 29.000
85.61893 39.000
85.63888 48.000
85.65883 58.000
85.67877 35.000
85.69872 41.000
85.71867 52.000
85.73861 38.000
85.75856 37.000
85.77851 49.000
85.79845 37.000
85.81840 44.000
85.83835 33.000
85.85830 44.000
85.87824 35.000
85.89819 34.000
85.91814 36.000
85.93808 42.000
85.95803 47.000
85.97798 32.000
85.99792 38.000
86.01787 39.000
86.03782 40.000
86.05777 42.000
86.07771 48.000
86.09766 34.000
86.11761 35.000
86.13755 40.000
86.15750 27.000
86.17745 43.000
86.19739 36.000
86.21734 36.000
86.23729 38.000
86.25723 39.000
86.27718 40.000
86.29713 39.000
86.31708 38.000
86.33702 40.000
86.35697 41.000
86.37692 43.000
86.39686 33.000
86.41681 31.000
86.43676 33.000
86.45670 35.000
86.47665 35.000
86.49660 25.000
86.51655 42.000
86.53649 35.000
86.55644 41.000
86.57639 44.000
86.59633 31.000
86.61628 29.000
86.63623 32.000
86.65617 29.000
86.67612 33.000
86.69607 29.000
86.71602 25.000
86.73596 29.000
86.75591 23.000
86.77586 35.000
86.79580 32.000
86.81575 35.000
86.83570 30.000
86.85564 24.000
86.87559 25.000
86.89554 27.000
86.91548 25.000
86.93543 23.000
86.95538 32.000
86.97533 25.000
86.99527 29.000
87.01522 21.000
87.03517 25.000
87.05511 31.000
87.07506 29.000
87.09501 30.000
87.11495 25.000
87.13490 22.000
87.15485 24.000
87.17480 23.000
87.19474 18.000
87.21469 16.000
87.23464 24.000
87.25458 23.000
87.27453 21.000
87.29448 36.000
87.31442 26.000
87.33437 17.000
87.35432 20.000
87.37426 28.000
87.39421 25.000
87.41416 21.000
87.43411 24.000
87.45405 17.000
87.47400 35.000
87.49395 22.000
87.51389 14.000
87.53384 22.000
87.55379 20.000
87.57373 33.000
87.59368 28.000
87.61363 21.000
87.63358 23.000
87.65352 19.000
87.67347 26.000
87.69342 20.000
87.71336 20.000
87.73331 17.000
87.75326 29.000
87.77320 22.000
87.79315 19.000
87.81310 32.000
87.83304 17.000
87.85299 25.000
87.87294 27.000
87.89289 24.000
87.91283 23.000
87.93278 30.000
87.95273 24.000
87.97267 20.000
87.99262 28.000
88.01257 24.000
88.03251 18.000
88.05246 17.000
88.07241 23.000
88.09236 23.000
88.11230 18.000
88.13225 27.000
88.15220 28.000
88.17214 26.000
88.19209 19.000
88.21204 23.000
88.23198 14.000
88.25193 19.000
88.27188 35.000
88.29183 23.000
88.31177 25.000
88.33172 24.000
88.35167 10.000
88.37161 20.000
88.39156 17.000
88.41151 20.000
88.43145 19.000
88.45140 18.000
88.47135 16.000
88.49129 23.000
88.51124 22.000
88.53119 19.000
88.55114 23.000
88.57108 29.000
88.59103 17.000
88.61098 21.000
88.63092 21.000
88.65087 20.000
88.67082 26.000
88.69076 25.000
88.71071 18.000
88.73066 21.000
88.75061 19.000
88.77055 20.000
88.79050 24.000
88.81045 21.000
88.83039 20.000
88.85034 22.000
88.87029 19.000
88.89023 16.000
88.91018 22.000
88.93013 15.000
88.95007 15.000
88.97002 20.000
88.98997 15.000
89.00992 20.000
89.02986 16.000
89.04981 21.000
89.06976 27.000
89.08970 20.000
89.10965 32.000
89.12960 14.000
89.14954 18.000
89.16949 17.000
89.18944 18.000
89.20939 21.000
89.22933 18.000
89.24928 19.000
89.26923 20.000
89.28917 15.000
89.30912 11.000
89.32907 20.000
89.34901 18.000
89.36896 17.000
89.38891 20.000
89.40885 25.000
89.42880 21.000
89.44875 15.000
89.46870 15.000
89.48864 10.000
89.50859 13.000
89.52854 18.000
89.54848 21.000
89.56843 15.000
89.58838 17.000
89.60832 21.000
89.62827 13.000
89.64822 13.000
89.66817 20.000
89.68811 19.000
89.70806 22.000
89.72801 23.000
89.74795 25.000
89.76790 16.000
89.78785 17.000
89.80779 14.000
89.82774 34.000
89.84769 21.000
89.86764 12.000
89.88758 19.000
89.90753 23.000
89.92748 17.000
89.94742 30.000
89.96737 21.000
89.98732 21.000
90.00726 21.000
