10.00000 25.000
10.01995 20.000
10.03989 32.000
10.05984 25.000
10.07979 26.000
10.09973 28.000
10.11968 20.000
10.13963 27.000
10.15958 25.000
10.17952 30.000
10.19947 37.000
10.21942 23.000
10.23936 21.000
10.25931 28.000
10.27926 24.000
10.29920 32.000
10.31915 22.000
10.33910 26.000
10.35905 24.000
10.37899 29.000
10.39894 21.000
10.41889 30.000
10.43883 24.000
10.45878 26.000
10.47873 27.000
10.49867 33.000
10.51862 22.000
10.53857 20.000
10.55851 27.000
10.57846 27.000
10.59841 25.000
10.61836 35.000
10.63830 35.000
10.65825 17.000
10.67820 16.000
10.69814 31.000
10.71809 30.000
10.73804 27.000
10.75798 30.000
10.77793 30.000
10.79788 25.000
10.81783 26.000
10.83777 40.000
10.85772 29.000
10.87767 24.000
10.89761 27.000
10.91756 28.000
10.93751 35.000
10.95745 20.000
10.97740 22.000
10.99735 23.000
11.01730 24.000
11.03724 29.000
11.05719 19.000
11.07714 18.000
11.09708 28.000
11.11703 25.000
11.13698 19.000
11.15692 26.000
11.17687 34.000
11.19682 21.000
11.21676 24.000
11.23671 28.000
11.25666 25.000
11.27661 24.000
11.29655 34.000
11.31650 28.000
11.33645 27.000
11.35639 25.000
11.37634 24.000
11.39629 31.000
11.41623 40.000
11.43618 35.000
11.45613 23.000
11.47608 17.000
11.49602 31.000
11.51597 43.000
11.53592 31.000
11.55586 33.000
11.57581 24.000
11.59576 34.000
11.61570 30.000
11.63565 26.000
11.65560 29.000
11.67554 26.000
11.69549 44.000
11.71544 34.000
11.73539 30.000
11.75533 34.000
11.77528 47.000
11.79523 36.000
11.81517 33.000
11.83512 33.000
11.85507 26.000
11.87501 42.000
11.89496 40.000
11.91491 39.000
11.93486 36.000
11.95480 50.000
11.97475 36.000
11.99470 44.000
12.01464 37.000
12.03459 43.000
12.05454 37.000
12.07448 45.000
12.09443 39.000
12.11438 57.000
12.13432 56.000
12.15427 43.000
12.17422 61.000
12.19417 57.000
12.21411 47.000
12.23406 57.000
12.25401 52.000
12.27395 58.000
12.29390 69.000
12.31385 69.000
12.33379 87.000
12.35374 76.000
12.37369 96.000
12.39364 105.000
12.41358 136.000
12.43353 129.000
12.45348 173.000
12.47342 209.000
12.49337 246.000
12.51332 280.000
12.53326 346.000
12.55321 380.000
12.57316 422.000
12.59311 457.000
12.61305 434.000
12.63300 354.000
12.65295 287.000
12.67289 302.000
12.69284 262.000
12.71279 201.000
12.73273 193.000
12.75268 149.000
12.77263 175.000
12.79257 147.000
12.81252 133.000
12.83247 112.000
12.85242 97.000
12.87236 92.000
12.89231 99.000
12.91226 97.000
12.93220 72.000
12.95215 86.000
12.97210 88.000
12.99204 88.000
13.01199 97.000
13.03194 71.000
13.05189 83.000
13.07183 64.000
13.09178 74.000
13.11173 74.000
13.13167 78.000
13.15162 74.000
13.17157 58.000
13.19151 72.000
13.21146 67.000
13.23141 59.000
13.25135 53.000
13.27130 62.000
13.29125 67.000
13.31120 65.000
13.33114 68.000
13.35109 69.000
13.37104 51.000
13.39098 63.000
13.41093 56.000
13.43088 53.000
13.45082 70.000
13.47077 72.000
13.49072 54.000
13.51067 55.000
13.53061 50.000
13.55056 45.000
13.57051 65.000
13.59045 63.000
13.61040 44.000
13.63035 56.000
13.65029 69.000
13.67024 75.000
13.69019 60.000
13.71013 68.000
13.73008 59.000
13.75003 77.000
13.76998 44.000
13.78992 51.000
13.80987 40.000
13.82982 45.000
13.84976 49.000
13.86971 50.000
13.88966 46.000
13.90960 57.000
13.92955 69.000
13.94950 66.000
13.96945 44.000
13.98939 57.000
14.00934 50.000
14.02929 57.000
14.04923 54.000
14.06918 58.000
14.08913 46.000
14.10907 61.000
14.12902 60.000
14.14897 72.000
14.16892 67.000
14.18886 69.000
14.20881 76.000
14.22876 74.000
14.24870 73.000
14.26865 71.000
14.28860 64.000
14.30854 95.000
14.32849 80.000
14.34844 83.000
14.36838 78.000
14.38833 72.000
14.40828 61.000
14.42823 73.000
14.44817 70.000
14.46812 43.000
14.48807 54.000
14.50801 70.000
14.52796 46.000
14.54791 61.000
14.56785 55.000
14.58780 49.000
14.60775 62.000
14.62770 58.000
14.64764 54.000
14.66759 46.000
14.68754 51.000
14.70748 63.000
14.72743 61.000
14.74738 70.000
14.76732 63.000
14.78727 67.000
14.80722 64.000
14.82716 63.000
14.84711 84.000
14.86706 68.000
14.88701 71.000
14.90695 72.000
14.92690 68.000
14.94685 92.000
14.96679 93.000
14.98674 97.000
15.00669 97.000
15.02663 119.000
15.04658 122.000
15.06653 127.000
15.08648 101.000
15.10642 117.000
15.12637 101.000
15.14632 120.000
15.16626 91.000
15.18621 115.000
15.20616 119.000
15.22610 149.000
15.24605 104.000
15.26600 134.000
15.28594 152.000
15.30589 150.000
15.32584 131.000
15.34579 149.000
15.36573 191.000
15.38568 191.000
15.40563 205.000
15.42557 214.000
15.44552 260.000
15.46547 261.000
15.48541 302.000
15.50536 396.000
15.52531 494.000
15.54526 651.000
15.56520 887.000
15.58515 1284.000
15.60510 2065.000
15.62504 3361.000
15.64499 5199.000
15.66494 7649.000
15.68488 9278.000
15.70483 8298.000
15.72478 6174.000
15.74472 3945.000
15.76467 2154.000
15.78462 1309.000
15.80457 1148.000
15.82451 1079.000
15.84446 1099.000
15.86441 1134.000
15.88435 1138.000
15.90430 1129.000
15.92425 1197.000
15.94419 1137.000
15.96414 1023.000
15.98409 985.000
16.00404 964.000
16.02398 782.000
16.04393 629.000
16.06388 482.000
16.08382 365.000
16.10377 250.000
16.12372 154.000
16.14366 145.000
16.16361 137.000
16.18356 109.000
16.20351 118.000
16.22345 88.000
16.24340 98.000
16.26335 70.000
16.28329 60.000
16.30324 66.000
16.32319 58.000
16.34313 81.000
16.36308 70.000
16.38303 62.000
16.40297 67.000
16.42292 36.000
16.44287 46.000
16.46282 56.000
16.48276 40.000
16.50271 59.000
16.52266 62.000
16.54260 55.000
16.56255 49.000
16.58250 44.000
16.60244 44.000
16.62239 36.000
16.64234 31.000
16.66229 40.000
16.68223 44.000
16.70218 26.000
16.72213 33.000
16.74207 30.000
16.76202 38.000
16.78197 35.000
16.80191 37.000
16.82186 26.000
16.84181 27.000
16.86175 29.000
16.88170 30.000
16.90165 37.000
16.92160 29.000
16.94154 40.000
16.96149 22.000
16.98144 25.000
17.00138 32.000
17.02133 21.000
17.04128 35.000
17.06122 27.000
17.08117 22.000
17.10112 20.000
17.12107 26.000
17.14101 31.000
17.16096 28.000
17.18091 20.000
17.20085 23.000
17.22080 24.000
17.24075 42.000
17.26069 29.000
17.28064 32.000
17.30059 23.000
17.32053 40.000
17.34048 33.000
17.36043 27.000
17.38038 25.000
17.40032 37.000
17.42027 29.000
17.44022 29.000
17.46016 32.000
17.48011 37.000
17.50006 27.000
17.52000 26.000
17.53995 25.000
17.55990 15.000
17.57985 25.000
17.59979 25.000
17.61974 16.000
17.63969 22.000
17.65963 22.000
17.67958 20.000
17.69953 33.000
17.71947 25.000
17.73942 22.000
17.75937 23.000
17.77932 20.000
17.79926 22.000
17.81921 18.000
17.83916 26.000
17.85910 24.000
17.87905 31.000
17.89900 27.000
17.91894 23.000
17.93889 31.000
17.95884 27.000
17.97878 28.000
17.99873 38.000
18.01868 49.000
18.03863 47.000
18.05857 55.000
18.07852 41.000
18.09847 42.000
18.11841 23.000
18.13836 26.000
18.15831 19.000
18.17825 22.000
18.19820 25.000
18.21815 32.000
18.23810 19.000
18.25804 21.000
18.27799 18.000
18.29794 21.000
18.31788 24.000
18.33783 21.000
18.35778 17.000
18.37772 20.000
18.39767 22.000
18.41762 25.000
18.43756 25.000
18.45751 15.000
18.47746 25.000
18.49741 13.000
18.51735 24.000
18.53730 21.000
18.55725 25.000
18.57719 26.000
18.59714 19.000
18.61709 31.000
18.63703 21.000
18.65698 24.000
18.67693 34.000
18.69688 23.000
18.71682 20.000
18.73677 22.000
18.75672 27.000
18.77666 27.000
18.79661 21.000
18.81656 34.000
18.83650 23.000
18.85645 22.000
18.87640 26.000
18.89634 21.000
18.91629 16.000
18.93624 21.000
18.95619 17.000
18.97613 19.000
18.99608 14.000
19.01603 21.000
19.03597 21.000
19.05592 28.000
19.07587 20.000
19.09581 25.000
19.11576 22.000
19.13571 24.000
19.15566 15.000
19.17560 18.000
19.19555 18.000
19.21550 18.000
19.23544 25.000
19.25539 18.000
19.27534 24.000
19.29528 36.000
19.31523 23.000
19.33518 19.000
19.35513 19.000
19.37507 25.000
19.39502 14.000
19.41497 23.000
19.43491 26.000
19.45486 24.000
19.47481 29.000
19.49475 24.000
19.51470 20.000
19.53465 26.000
19.55459 29.000
19.57454 25.000
19.59449 21.000
19.61444 32.000
19.63438 22.000
19.65433 25.000
19.67428 23.000
19.69422 31.000
19.71417 27.000
19.73412 29.000
19.75406 26.000
19.77401 22.000
19.79396 25.000
19.81391 25.000
19.83385 23.000
19.85380 25.000
19.87375 23.000
19.89369 22.000
19.91364 23.000
19.93359 15.000
19.95353 19.000
19.97348 13.000
19.99343 23.000
20.01337 28.000
20.03332 20.000
20.05327 18.000
20.07322 19.000
20.09316 28.000
20.11311 25.000
20.13306 22.000
20.15300 21.000
20.17295 17.000
20.19290 24.000
20.21284 18.000
20.23279 25.000
20.25274 20.000
20.27269 23.000
20.29263 17.000
20.31258 21.000
20.33253 20.000
20.35247 25.000
20.37242 21.000
20.39237 26.000
20.41231 24.000
20.43226 28.000
20.45221 22.000
20.47215 34.000
20.49210 27.000
20.51205 18.000
20.53200 19.000
20.55194 27.000
20.57189 25.000
20.59184 28.000
20.61178 21.000
20.63173 34.000
20.65168 30.000
20.67162 33.000
20.69157 24.000
20.71152 28.000
20.73147 19.000
20.75141 22.000
20.77136 26.000
20.79131 36.000
20.81125 32.000
20.83120 36.000
20.85115 34.000
20.87109 20.000
20.89104 21.000
20.91099 31.000
20.93094 25.000
20.95088 32.000
20.97083 22.000
20.99078 21.000
21.01072 28.000
21.03067 30.000
21.05062 21.000
21.07056 33.000
21.09051 29.000
21.11046 16.000
21.13040 27.000
21.15035 25.000
21.17030 19.000
21.19025 23.000
21.21019 20.000
21.23014 16.000
21.25009 33.000
21.27003 26.000
21.28998 18.000
21.30993 25.000
21.32987 19.000
21.34982 20.000
21.36977 22.000
21.38972 23.000
21.40966 32.000
21.42961 16.000
21.44956 18.000
21.46950 29.000
21.48945 22.000
21.50940 20.000
21.52934 15.000
21.54929 23.000
21.56924 17.000
21.58918 15.000
21.60913 17.000
21.62908 22.000
21.64903 18.000
21.66897 28.000
21.68892 26.000
21.70887 31.000
21.72881 25.000
21.74876 27.000
21.76871 27.000
21.78865 18.000
21.80860 28.000
21.82855 28.000
21.84850 25.000
21.86844 24.000
21.88839 23.000
21.90834 25.000
21.92828 23.000
21.94823 25.000
21.96818 21.000
21.98812 22.000
22.00807 25.000
22.02802 17.000
22.04796 18.000
22.06791 22.000
22.08786 20.000
22.10781 24.000
22.12775 36.000
22.14770 24.000
22.16765 33.000
22.18759 21.000
22.20754 34.000
22.22749 30.000
22.24743 26.000
22.26738 28.000
22.28733 23.000
22.30728 36.000
22.32722 35.000
22.34717 30.000
22.36712 25.000
22.38706 29.000
22.40701 31.000
22.42696 28.000
22.44690 24.000
22.46685 30.000
22.48680 29.000
22.50675 20.000
22.52669 29.000
22.54664 19.000
22.56659 25.000
22.58653 25.000
22.60648 25.000
22.62643 25.000
22.64637 20.000
22.66632 16.000
22.68627 20.000
22.70621 19.000
22.72616 16.000
22.74611 24.000
22.76606 25.000
22.78600 30.000
22.80595 28.000
22.82590 22.000
22.84584 19.000
22.86579 22.000
22.88574 28.000
22.90568 24.000
22.92563 23.000
22.94558 31.000
22.96553 32.000
22.98547 30.000
23.00542 30.000
23.02537 24.000
23.04531 31.000
23.06526 24.000
23.08521 31.000
23.10515 25.000
23.12510 25.000
23.14505 23.000
23.16499 34.000
23.18494 17.000
23.20489 20.000
23.22484 26.000
23.24478 19.000
23.26473 21.000
23.28468 23.000
23.30462 26.000
23.32457 19.000
23.34452 29.000
23.36446 22.000
23.38441 19.000
23.40436 31.000
23.42431 26.000
23.44425 30.000
23.46420 26.000
23.48415 25.000
23.50409 22.000
23.52404 32.000
23.54399 30.000
23.56393 32.000
23.58388 37.000
23.60383 28.000
23.62377 23.000
23.64372 22.000
23.66367 26.000
23.68362 34.000
23.70356 30.000
23.72351 35.000
23.74346 31.000
23.76340 38.000
23.78335 38.000
23.80330 31.000
23.82324 32.000
23.84319 29.000
23.86314 32.000
23.88309 39.000
23.90303 30.000
23.92298 36.000
23.94293 30.000
23.96287 36.000
23.98282 36.000
24.00277 27.000
24.02271 40.000
24.04266 37.000
24.06261 31.000
24.08256 38.000
24.10250 40.000
24.12245 51.000
24.14240 30.000
24.16234 38.000
24.18229 51.000
24.20224 47.000
24.22218 38.000
24.24213 17.000
24.26208 32.000
24.28202 33.000
24.30197 25.000
24.32192 27.000
24.34187 24.000
24.36181 28.000
24.38176 35.000
24.40171 29.000
24.42165 30.000
24.44160 25.000
24.46155 27.000
24.48149 34.000
24.50144 46.000
24.52139 26.000
24.54134 32.000
24.56128 27.000
24.58123 43.000
24.60118 29.000
24.62112 34.000
24.64107 45.000
24.66102 37.000
24.68096 28.000
24.70091 31.000
24.72086 37.000
24.74080 40.000
24.76075 37.000
24.78070 25.000
24.80065 39.000
24.82059 39.000
24.84054 37.000
24.86049 26.000
24.88043 35.000
24.90038 40.000
24.92033 48.000
24.94027 41.000
24.96022 38.000
24.98017 38.000
25.00012 49.000
25.02006 38.000
25.04001 57.000
25.05996 40.000
25.07990 47.000
25.09985 49.000
25.11980 59.000
25.13974 74.000
25.15969 66.000
25.17964 76.000
25.19958 75.000
25.21953 110.000
25.23948 97.000
25.25943 109.000
25.27937 106.000
25.29932 105.000
25.31927 124.000
25.33921 94.000
25.35916 104.000
25.37911 86.000
25.39905 91.000
25.41900 52.000
25.43895 70.000
25.45890 68.000
25.47884 72.000
25.49879 72.000
25.51874 55.000
25.53868 63.000
25.55863 55.000
25.57858 42.000
25.59852 40.000
25.61847 52.000
25.63842 46.000
25.65837 48.000
25.67831 50.000
25.69826 47.000
25.71821 27.000
25.73815 36.000
25.75810 37.000
25.77805 35.000
25.79799 37.000
25.81794 42.000
25.83789 33.000
25.85783 46.000
25.87778 33.000
25.89773 31.000
25.91768 29.000
25.93762 45.000
25.95757 34.000
25.97752 33.000
25.99746 33.000
26.01741 25.000
26.03736 35.000
26.05730 44.000
26.07725 38.000
26.09720 34.000
26.11715 45.000
26.13709 43.000
26.15704 30.000
26.17699 46.000
26.19693 34.000
26.21688 37.000
26.23683 42.000
26.25677 41.000
26.27672 45.000
26.29667 38.000
26.31661 38.000
26.33656 42.000
26.35651 46.000
26.37646 55.000
26.39640 50.000
26.41635 50.000
26.43630 54.000
26.45624 60.000
26.47619 67.000
26.49614 54.000
26.51608 54.000
26.53603 65.000
26.55598 52.000
26.57593 50.000
26.59587 36.000
26.61582 37.000
26.63577 55.000
26.65571 39.000
26.67566 45.000
26.69561 48.000
26.71555 38.000
26.73550 56.000
26.75545 56.000
26.77539 38.000
26.79534 47.000
26.81529 39.000
26.83524 41.000
26.85518 32.000
26.87513 49.000
26.89508 35.000
26.91502 45.000
26.93497 45.000
26.95492 45.000
26.97486 39.000
26.99481 39.000
27.01476 35.000
27.03471 30.000
27.05465 38.000
27.07460 47.000
27.09455 29.000
27.11449 44.000
27.13444 40.000
27.15439 27.000
27.17433 31.000
27.19428 35.000
27.21423 32.000
27.23417 23.000
27.25412 35.000
27.27407 42.000
27.29402 29.000
27.31396 29.000
27.33391 32.000
27.35386 42.000
27.37380 37.000
27.39375 44.000
27.41370 32.000
27.43364 37.000
27.45359 26.000
27.47354 36.000
27.49349 45.000
27.51343 36.000
27.53338 32.000
27.55333 44.000
27.57327 29.000
27.59322 27.000
27.61317 37.000
27.63311 38.000
27.65306 41.000
27.67301 42.000
27.69296 50.000
27.71290 39.000
27.73285 29.000
27.75280 34.000
27.77274 34.000
27.79269 22.000
27.81264 22.000
27.83258 40.000
27.85253 45.000
27.87248 32.000
27.89242 31.000
27.91237 37.000
27.93232 38.000
27.95227 32.000
27.97221 38.000
27.99216 34.000
28.01211 26.000
28.03205 34.000
28.05200 30.000
28.07195 36.000
28.09189 47.000
28.11184 37.000
28.13179 28.000
28.15174 37.000
28.17168 32.000
28.19163 28.000
28.21158 35.000
28.23152 32.000
28.25147 37.000
28.27142 29.000
28.29136 32.000
28.31131 31.000
28.33126 38.000
28.35120 36.000
28.37115 32.000
28.39110 40.000
28.41105 31.000
28.43099 41.000
28.45094 33.000
28.47089 58.000
28.49083 40.000
28.51078 35.000
28.53073 34.000
28.55067 42.000
28.57062 27.000
28.59057 43.000
28.61052 63.000
28.63046 40.000
28.65041 45.000
28.67036 45.000
28.69030 47.000
28.71025 54.000
28.73020 60.000
28.75014 45.000
28.77009 53.000
28.79004 69.000
28.80998 61.000
28.82993 77.000
28.84988 53.000
28.86983 68.000
28.88977 69.000
28.90972 73.000
28.92967 69.000
28.94961 62.000
28.96956 90.000
28.98951 65.000
29.00945 50.000
29.02940 54.000
29.04935 43.000
29.06930 43.000
29.08924 43.000
29.10919 51.000
29.12914 43.000
29.14908 34.000
29.16903 40.000
29.18898 43.000
29.20892 45.000
29.22887 47.000
29.24882 38.000
29.26877 42.000
29.28871 49.000
29.30866 33.000
29.32861 32.000
29.34855 47.000
29.36850 60.000
29.38845 58.000
29.40839 43.000
29.42834 32.000
29.44829 31.000
29.46823 41.000
29.48818 40.000
29.50813 49.000
29.52808 48.000
29.54802 39.000
29.56797 50.000
29.58792 40.000
29.60786 42.000
29.62781 43.000
29.64776 32.000
29.66770 38.000
29.68765 33.000
29.70760 47.000
29.72755 38.000
29.74749 40.000
29.76744 31.000
29.78739 46.000
29.80733 41.000
29.82728 31.000
29.84723 32.000
29.86717 52.000
29.88712 38.000
29.90707 45.000
29.92701 48.000
29.94696 58.000
29.96691 62.000
29.98686 51.000
30.00680 53.000
30.02675 41.000
30.04670 36.000
30.06664 45.000
30.08659 40.000
30.10654 37.000
30.12648 44.000
30.14643 44.000
30.16638 48.000
30.18633 46.000
30.20627 47.000
30.22622 39.000
30.24617 40.000
30.26611 38.000
30.28606 39.000
30.30601 40.000
30.32595 43.000
30.34590 42.000
30.36585 33.000
30.38579 38.000
30.40574 43.000
30.42569 46.000
30.44564 30.000
30.46558 40.000
30.48553 38.000
30.50548 34.000
30.52542 43.000
30.54537 41.000
30.56532 27.000
30.58526 32.000
30.60521 41.000
30.62516 41.000
30.64511 41.000
30.66505 40.000
30.68500 40.000
30.70495 33.000
30.72489 29.000
30.74484 47.000
30.76479 45.000
30.78473 39.000
30.80468 43.000
30.82463 40.000
30.84458 44.000
30.86452 39.000
30.88447 46.000
30.90442 43.000
30.92436 51.000
30.94431 49.000
30.96426 31.000
30.98420 52.000
31.00415 59.000
31.02410 70.000
31.04404 60.000
31.06399 56.000
31.08394 58.000
31.10389 52.000
31.12383 67.000
31.14378 51.000
31.16373 65.000
31.18367 42.000
31.20362 27.000
31.22357 41.000
31.24351 40.000
31.26346 35.000
31.28341 42.000
31.30336 65.000
31.32330 53.000
31.34325 41.000
31.36320 68.000
31.38314 63.000
31.40309 60.000
31.42304 63.000
31.44298 70.000
31.46293 71.000
31.48288 65.000
31.50282 102.000
31.52277 123.000
31.54272 158.000
31.56267 221.000
31.58261 284.000
31.60256 376.000
31.62251 469.000
31.64245 523.000
31.66240 562.000
31.68235 542.000
31.70229 465.000
31.72224 398.000
31.74219 304.000
31.76214 264.000
31.78208 193.000
31.80203 157.000
31.82198 129.000
31.84192 86.000
31.86187 84.000
31.88182 81.000
31.90176 79.000
31.92171 66.000
31.94166 74.000
31.96160 97.000
31.98155 71.000
32.00150 62.000
32.02145 73.000
32.04139 84.000
32.06134 80.000
32.08129 85.000
32.10123 72.000
32.12118 94.000
32.14113 85.000
32.16107 98.000
32.18102 75.000
32.20097 78.000
32.22092 77.000
32.24086 75.000
32.26081 79.000
32.28076 88.000
32.30070 95.000
32.32065 92.000
32.34060 86.000
32.36054 91.000
32.38049 104.000
32.40044 86.000
32.42039 99.000
32.44033 94.000
32.46028 71.000
32.48023 81.000
32.50017 61.000
32.52012 59.000
32.54007 44.000
32.56001 49.000
32.57996 34.000
32.59991 44.000
32.61985 43.000
32.63980 38.000
32.65975 44.000
32.67970 47.000
32.69964 40.000
32.71959 36.000
32.73954 48.000
32.75948 52.000
32.77943 36.000
32.79938 30.000
32.81932 41.000
32.83927 45.000
32.85922 37.000
32.87917 44.000
32.89911 37.000
32.91906 46.000
32.93901 34.000
32.95895 47.000
32.97890 32.000
32.99885 51.000
33.01879 36.000
33.03874 31.000
33.05869 38.000
33.07863 41.000
33.09858 33.000
33.11853 56.000
33.13848 42.000
33.15842 54.000
33.17837 44.000
33.19832 49.000
33.21826 57.000
33.23821 43.000
33.25816 45.000
33.27810 45.000
33.29805 28.000
33.31800 33.000
33.33795 36.000
33.35789 39.000
33.37784 39.000
33.39779 42.000
33.41773 28.000
33.43768 37.000
33.45763 32.000
33.47757 34.000
33.49752 37.000
33.51747 48.000
33.53741 34.000
33.55736 29.000
33.57731 37.000
33.59726 32.000
33.61720 41.000
33.63715 33.000
33.65710 40.000
33.67704 45.000
33.69699 34.000
33.71694 34.000
33.73688 42.000
33.75683 32.000
33.77678 34.000
33.79673 35.000
33.81667 26.000
33.83662 30.000
33.85657 47.000
33.87651 36.000
33.89646 27.000
33.91641 34.000
33.93635 30.000
33.95630 36.000
33.97625 45.000
33.99620 36.000
34.01614 46.000
34.03609 41.000
34.05604 45.000
34.07598 46.000
34.09593 38.000
34.11588 55.000
34.13582 50.000
34.15577 43.000
34.17572 46.000
34.19566 58.000
34.21561 46.000
34.23556 46.000
34.25551 57.000
34.27545 53.000
34.29540 59.000
34.31535 52.000
34.33529 76.000
34.35524 72.000
34.37519 87.000
34.39513 75.000
34.41508 81.000
34.43503 90.000
34.45498 83.000
34.47492 71.000
34.49487 86.000
34.51482 89.000
34.53476 93.000
34.55471 82.000
34.57466 67.000
34.59460 68.000
34.61455 69.000
34.63450 64.000
34.65444 67.000
34.67439 70.000
34.69434 63.000
34.71429 57.000
34.73423 55.000
34.75418 64.000
34.77413 50.000
34.79407 66.000
34.81402 58.000
34.83397 57.000
34.85391 71.000
34.87386 50.000
34.89381 49.000
34.91376 62.000
34.93370 58.000
34.95365 63.000
34.97360 55.000
34.99354 68.000
35.01349 61.000
35.03344 61.000
35.05338 68.000
35.07333 54.000
35.09328 52.000
35.11322 55.000
35.13317 62.000
35.15312 71.000
35.17307 56.000
35.19301 70.000
35.21296 84.000
35.23291 67.000
35.25285 80.000
35.27280 71.000
35.29275 62.000
35.31269 72.000
35.33264 84.000
35.35259 96.000
35.37254 77.000
35.39248 79.000
35.41243 96.000
35.43238 89.000
35.45232 77.000
35.47227 77.000
35.49222 92.000
35.51216 80.000
35.53211 90.000
35.55206 81.000
35.57201 93.000
35.59195 83.000
35.61190 105.000
35.63185 105.000
35.65179 110.000
35.67174 127.000
35.69169 115.000
35.71163 96.000
35.73158 122.000
35.75153 120.000
35.77147 137.000
35.79142 127.000
35.81137 145.000
35.83132 153.000
35.85126 171.000
35.87121 178.000
35.89116 186.000
35.91110 202.000
35.93105 184.000
35.95100 228.000
35.97094 225.000
35.99089 250.000
36.01084 248.000
36.03079 229.000
36.05073 238.000
36.07068 298.000
36.09063 307.000
36.11057 284.000
36.13052 286.000
36.15047 235.000
36.17041 235.000
36.19036 202.000
36.21031 190.000
36.23025 185.000
36.25020 137.000
36.27015 140.000
36.29010 126.000
36.31004 108.000
36.32999 137.000
36.34994 113.000
36.36988 120.000
36.38983 134.000
36.40978 153.000
36.42972 160.000
36.44967 143.000
36.46962 162.000
36.48957 157.000
36.50951 141.000
36.52946 160.000
36.54941 123.000
36.56935 126.000
36.58930 125.000
36.60925 109.000
36.62919 115.000
36.64914 92.000
36.66909 60.000
36.68903 85.000
36.70898 79.000
36.72893 75.000
36.74888 73.000
36.76882 67.000
36.78877 70.000
36.80872 75.000
36.82866 92.000
36.84861 66.000
36.86856 71.000
36.88850 80.000
36.90845 82.000
36.92840 85.000
36.94835 67.000
36.96829 70.000
36.98824 81.000
37.00819 76.000
37.02813 75.000
37.04808 83.000
37.06803 80.000
37.08797 81.000
37.10792 66.000
37.12787 72.000
37.14781 67.000
37.16776 66.000
37.18771 57.000
37.20766 63.000
37.22760 54.000
37.24755 63.000
37.26750 55.000
37.28744 61.000
37.30739 66.000
37.32734 73.000
37.34728 71.000
37.36723 59.000
37.38718 87.000
37.40713 62.000
37.42707 71.000
37.44702 61.000
37.46697 83.000
37.48691 69.000
37.50686 77.000
37.52681 56.000
37.54675 79.000
37.56670 72.000
37.58665 66.000
37.60660 61.000
37.62654 68.000
37.64649 62.000
37.66644 74.000
37.68638 71.000
37.70633 64.000
37.72628 77.000
37.74622 83.000
37.76617 76.000
37.78612 73.000
37.80606 95.000
37.82601 95.000
37.84596 77.000
37.86591 94.000
37.88585 124.000
37.90580 112.000
37.92575 93.000
37.94569 131.000
37.96564 129.000
37.98559 120.000
38.00553 141.000
38.02548 149.000
38.04543 159.000
38.06538 145.000
38.08532 162.000
38.10527 165.000
38.12522 133.000
38.14516 153.000
38.16511 162.000
38.18506 138.000
38.20500 148.000
38.22495 138.000
38.24490 128.000
38.26484 130.000
38.28479 115.000
38.30474 101.000
38.32469 107.000
38.34463 116.000
38.36458 93.000
38.38453 118.000
38.40447 95.000
38.42442 102.000
38.44437 104.000
38.46431 116.000
38.48426 85.000
38.50421 87.000
38.52416 80.000
38.54410 85.000
38.56405 95.000
38.58400 124.000
38.60394 116.000
38.62389 110.000
38.64384 77.000
38.66378 94.000
38.68373 103.000
38.70368 120.000
38.72362 108.000
38.74357 98.000
38.76352 107.000
38.78347 119.000
38.80341 113.000
38.82336 110.000
38.84331 119.000
38.86325 138.000
38.88320 128.000
38.90315 107.000
38.92309 107.000
38.94304 135.000
38.96299 104.000
38.98294 101.000
39.00288 127.000
39.02283 128.000
39.04278 146.000
39.06272 141.000
39.08267 140.000
39.10262 141.000
39.12256 147.000
39.14251 173.000
39.16246 185.000
39.18241 208.000
39.20235 176.000
39.22230 213.000
39.24225 241.000
39.26219 236.000
39.28214 272.000
39.30209 307.000
39.32203 317.000
39.34198 361.000
39.36193 394.000
39.38187 395.000
39.40182 416.000
39.42177 460.000
39.44172 442.000
39.46166 480.000
39.48161 513.000
39.50156 539.000
39.52150 467.000
39.54145 460.000
39.56140 483.000
39.58134 449.000
39.60129 438.000
39.62124 417.000
39.64119 382.000
39.66113 343.000
39.68108 300.000
39.70103 289.000
39.72097 240.000
39.74092 256.000
39.76087 200.000
39.78081 202.000
39.80076 164.000
39.82071 151.000
39.84065 188.000
39.86060 159.000
39.88055 143.000
39.90050 147.000
39.92044 164.000
39.94039 150.000
39.96034 165.000
39.98028 153.000
40.00023 137.000
40.02018 150.000
40.04012 151.000
40.06007 152.000
40.08002 137.000
40.09997 131.000
40.11991 135.000
40.13986 138.000
40.15981 123.000
40.17975 113.000
40.19970 95.000
40.21965 79.000
40.23959 75.000
40.25954 81.000
40.27949 61.000
40.29943 64.000
40.31938 48.000
40.33933 55.000
40.35928 80.000
40.37922 44.000
40.39917 41.000
40.41912 51.000
40.43906 57.000
40.45901 54.000
40.47896 47.000
40.49890 44.000
40.51885 53.000
40.53880 42.000
40.55875 46.000
40.57869 52.000
40.59864 36.000
40.61859 47.000
40.63853 42.000
40.65848 44.000
40.67843 41.000
40.69837 51.000
40.71832 32.000
40.73827 38.000
40.75822 54.000
40.77816 60.000
40.79811 43.000
40.81806 35.000
40.83800 52.000
40.85795 47.000
40.87790 41.000
40.89784 45.000
40.91779 45.000
40.93774 52.000
40.95768 53.000
40.97763 55.000
40.99758 51.000
41.01753 54.000
41.03747 53.000
41.05742 40.000
41.07737 37.000
41.09731 47.000
41.11726 38.000
41.13721 43.000
41.15715 56.000
41.17710 37.000
41.19705 39.000
41.21700 33.000
41.23694 38.000
41.25689 35.000
41.27684 42.000
41.29678 43.000
41.31673 33.000
41.33668 35.000
41.35662 40.000
41.37657 43.000
41.39652 39.000
41.41646 45.000
41.43641 34.000
41.45636 38.000
41.47631 42.000
41.49625 25.000
41.51620 48.000
41.53615 40.000
41.55609 36.000
41.57604 38.000
41.59599 37.000
41.61593 28.000
41.63588 39.000
41.65583 42.000
41.67578 46.000
41.69572 45.000
41.71567 31.000
41.73562 43.000
41.75556 30.000
41.77551 31.000
41.79546 35.000
41.81540 36.000
41.83535 35.000
41.85530 36.000
41.87524 45.000
41.89519 47.000
41.91514 45.000
41.93509 47.000
41.95503 26.000
41.97498 56.000
41.99493 46.000
42.01487 57.000
42.03482 56.000
42.05477 49.000
42.07471 59.000
42.09466 65.000
42.11461 66.000
42.13456 70.000
42.15450 73.000
42.17445 67.000
42.19440 66.000
42.21434 67.000
42.23429 64.000
42.25424 72.000
42.27418 70.000
42.29413 62.000
42.31408 60.000
42.33403 73.000
42.35397 60.000
42.37392 54.000
42.39387 60.000
42.41381 57.000
42.43376 41.000
42.45371 57.000
42.47365 57.000
42.49360 51.000
42.51355 38.000
42.53349 64.000
42.55344 44.000
42.57339 49.000
42.59334 47.000
42.61328 66.000
42.63323 45.000
42.65318 55.000
42.67312 47.000
42.69307 50.000
42.71302 48.000
42.73296 55.000
42.75291 50.000
42.77286 63.000
42.79281 56.000
42.81275 54.000
42.83270 60.000
42.85265 51.000
42.87259 47.000
42.89254 65.000
42.91249 56.000
42.93243 63.000
42.95238 101.000
42.97233 69.000
42.99227 68.000
43.01222 71.000
43.03217 63.000
43.05212 85.000
43.07206 84.000
43.09201 87.000
43.11196 80.000
43.13190 87.000
43.15185 85.000
43.17180 90.000
43.19174 108.000
43.21169 99.000
43.23164 126.000
43.25159 111.000
43.27153 117.000
43.29148 95.000
43.31143 136.000
43.33137 125.000
43.35132 165.000
43.37127 171.000
43.39121 168.000
43.41116 203.000
43.43111 201.000
43.45105 204.000
43.47100 197.000
43.49095 204.000
43.51090 263.000
43.53084 201.000
43.55079 220.000
43.57074 188.000
43.59068 199.000
43.61063 184.000
43.63058 190.000
43.65052 166.000
43.67047 142.000
43.69042 131.000
43.71037 141.000
43.73031 111.000
43.75026 102.000
43.77021 107.000
43.79015 111.000
43.81010 109.000
43.83005 96.000
43.84999 102.000
43.86994 68.000
43.88989 86.000
43.90984 84.000
43.92978 83.000
43.94973 90.000
43.96968 91.000
43.98962 80.000
44.00957 86.000
44.02952 102.000
44.04946 97.000
44.06941 94.000
44.08936 72.000
44.10930 99.000
44.12925 84.000
44.14920 82.000
44.16915 86.000
44.18909 88.000
44.20904 87.000
44.22899 78.000
44.24893 63.000
44.26888 89.000
44.28883 72.000
44.30877 77.000
44.32872 83.000
44.34867 67.000
44.36862 76.000
44.38856 75.000
44.40851 73.000
44.42846 86.000
44.44840 75.000
44.46835 74.000
44.48830 64.000
44.50824 55.000
44.52819 64.000
44.54814 59.000
44.56808 48.000
44.58803 64.000
44.60798 56.000
44.62793 57.000
44.64787 43.000
44.66782 40.000
44.68777 38.000
44.70771 47.000
44.72766 43.000
44.74761 37.000
44.76755 46.000
44.78750 53.000
44.80745 47.000
44.82740 49.000
44.84734 49.000
44.86729 41.000
44.88724 49.000
44.90718 44.000
44.92713 36.000
44.94708 39.000
44.96702 44.000
44.98697 49.000
45.00692 45.000
45.02686 42.000
45.04681 38.000
45.06676 40.000
45.08671 32.000
45.10665 28.000
45.12660 44.000
45.14655 38.000
45.16649 39.000
45.18644 38.000
45.20639 37.000
45.22633 42.000
45.24628 37.000
45.26623 35.000
45.28618 31.000
45.30612 39.000
45.32607 33.000
45.34602 34.000
45.36596 38.000
45.38591 25.000
45.40586 42.000
45.42580 34.000
45.44575 35.000
45.46570 34.000
45.48565 28.000
45.50559 41.000
45.52554 44.000
45.54549 25.000
45.56543 36.000
45.58538 30.000
45.60533 35.000
45.62527 23.000
45.64522 29.000
45.66517 33.000
45.68511 40.000
45.70506 29.000
45.72501 25.000
45.74496 35.000
45.76490 26.000
45.78485 39.000
45.80480 35.000
45.82474 37.000
45.84469 30.000
45.86464 24.000
45.88458 30.000
45.90453 22.000
45.92448 26.000
45.94443 32.000
45.96437 21.000
45.98432 30.000
46.00427 35.000
46.02421 31.000
46.04416 29.000
46.06411 30.000
46.08405 22.000
46.10400 33.000
46.12395 27.000
46.14389 40.000
46.16384 31.000
46.18379 24.000
46.20374 23.000
46.22368 24.000
46.24363 29.000
46.26358 34.000
46.28352 31.000
46.30347 30.000
46.32342 34.000
46.34336 30.000
46.36331 28.000
46.38326 35.000
46.40321 30.000
46.42315 39.000
46.44310 38.000
46.46305 32.000
46.48299 28.000
46.50294 30.000
46.52289 28.000
46.54283 35.000
46.56278 40.000
46.58273 24.000
46.60267 41.000
46.62262 20.000
46.64257 31.000
46.66252 38.000
46.68246 29.000
46.70241 32.000
46.72236 26.000
46.74230 32.000
46.76225 36.000
46.78220 28.000
46.80214 29.000
46.82209 29.000
46.84204 27.000
46.86199 33.000
46.88193 38.000
46.90188 38.000
46.92183 32.000
46.94177 38.000
46.96172 30.000
46.98167 26.000
47.00161 46.000
47.02156 43.000
47.04151 41.000
47.06146 48.000
47.08140 37.000
47.10135 40.000
47.12130 42.000
47.14124 46.000
47.16119 49.000
47.18114 56.000
47.20108 61.000
47.22103 51.000
47.24098 58.000
47.26092 42.000
47.28087 65.000
47.30082 68.000
47.32077 72.000
47.34071 72.000
47.36066 84.000
47.38061 77.000
47.40055 74.000
47.42050 73.000
47.44045 99.000
47.46039 99.000
47.48034 72.000
47.50029 91.000
47.52024 100.000
47.54018 93.000
47.56013 89.000
47.58008 90.000
47.60002 77.000
47.61997 71.000
47.63992 84.000
47.65986 85.000
47.67981 80.000
47.69976 83.000
47.71970 80.000
47.73965 71.000
47.75960 97.000
47.77955 57.000
47.79949 78.000
47.81944 88.000
47.83939 86.000
47.85933 89.000
47.87928 74.000
47.89923 68.000
47.91917 80.000
47.93912 75.000
47.95907 90.000
47.97902 79.000
47.99896 76.000
48.01891 98.000
48.03886 88.000
48.05880 109.000
48.07875 118.000
48.09870 102.000
48.11864 99.000
48.13859 119.000
48.15854 118.000
48.17848 112.000
48.19843 131.000
48.21838 132.000
48.23833 147.000
48.25827 127.000
48.27822 129.000
48.29817 168.000
48.31811 165.000
48.33806 188.000
48.35801 177.000
48.37795 175.000
48.39790 186.000
48.41785 207.000
48.43780 229.000
48.45774 257.000
48.47769 243.000
48.49764 300.000
48.51758 326.000
48.53753 327.000
48.55748 378.000
48.57742 390.000
48.59737 384.000
48.61732 405.000
48.63726 450.000
48.65721 502.000
48.67716 489.000
48.69711 496.000
48.71705 446.000
48.73700 447.000
48.75695 457.000
48.77689 414.000
48.79684 379.000
48.81679 354.000
48.83673 346.000
48.85668 298.000
48.87663 291.000
48.89658 277.000
48.91652 240.000
48.93647 203.000
48.95642 189.000
48.97636 180.000
48.99631 186.000
49.01626 170.000
49.03620 137.000
49.05615 146.000
49.07610 153.000
49.09605 158.000
49.11599 117.000
49.13594 123.000
49.15589 129.000
49.17583 119.000
49.19578 106.000
49.21573 133.000
49.23567 127.000
49.25562 137.000
49.27557 104.000
49.29551 117.000
49.31546 123.000
49.33541 133.000
49.35536 109.000
49.37530 100.000
49.39525 133.000
49.41520 124.000
49.43514 139.000
49.45509 139.000
49.47504 130.000
49.49498 98.000
49.51493 106.000
49.53488 115.000
49.55483 98.000
49.57477 75.000
49.59472 103.000
49.61467 89.000
49.63461 86.000
49.65456 69.000
49.67451 73.000
49.69445 68.000
49.71440 64.000
49.73435 61.000
49.75429 60.000
49.77424 56.000
49.79419 54.000
49.81414 55.000
49.83408 60.000
49.85403 49.000
49.87398 42.000
49.89392 47.000
49.91387 37.000
49.93382 47.000
49.95376 39.000
49.97371 57.000
49.99366 38.000
50.01361 38.000
50.03355 36.000
50.05350 30.000
50.07345 48.000
50.09339 43.000
50.11334 43.000
50.13329 38.000
50.15323 39.000
50.17318 30.000
50.19313 47.000
50.21307 53.000
50.23302 36.000
50.25297 31.000
50.27292 41.000
50.29286 31.000
50.31281 35.000
50.33276 36.000
50.35270 26.000
50.37265 48.000
50.39260 41.000
50.41254 46.000
50.43249 30.000
50.45244 30.000
50.47239 29.000
50.49233 39.000
50.51228 33.000
50.53223 35.000
50.55217 37.000
50.57212 34.000
50.59207 33.000
50.61201 33.000
50.63196 31.000
50.65191 37.000
50.67186 33.000
50.69180 39.000
50.71175 43.000
50.73170 38.000
50.75164 35.000
50.77159 42.000
50.79154 30.000
50.81148 36.000
50.83143 36.000
50.85138 40.000
50.87132 47.000
50.89127 39.000
50.91122 32.000
50.93117 48.000
50.95111 38.000
50.97106 33.000
50.99101 45.000
51.01095 45.000
51.03090 39.000
51.05085 50.000
51.07079 37.000
51.09074 25.000
51.11069 36.000
51.13064 33.000
51.15058 19.000
51.17053 25.000
51.19048 26.000
51.21042 30.000
51.23037 35.000
51.25032 32.000
51.27026 26.000
51.29021 24.000
51.31016 21.000
51.33010 21.000
51.35005 27.000
51.37000 36.000
51.38995 30.000
51.40989 38.000
51.42984 33.000
51.44979 25.000
51.46973 38.000
51.48968 26.000
51.50963 34.000
51.52957 29.000
51.54952 30.000
51.56947 21.000
51.58942 26.000
51.60936 39.000
51.62931 32.000
51.64926 30.000
51.66920 31.000
51.68915 35.000
51.70910 28.000
51.72904 25.000
51.74899 32.000
51.76894 24.000
51.78888 38.000
51.80883 23.000
51.82878 39.000
51.84873 35.000
51.86867 29.000
51.88862 40.000
51.90857 32.000
51.92851 39.000
51.94846 31.000
51.96841 25.000
51.98835 24.000
52.00830 23.000
52.02825 27.000
52.04820 29.000
52.06814 23.000
52.08809 21.000
52.10804 30.000
52.12798 36.000
52.14793 19.000
52.16788 22.000
52.18782 18.000
52.20777 26.000
52.22772 36.000
52.24767 35.000
52.26761 21.000
52.28756 23.000
52.30751 22.000
52.32745 25.000
52.34740 27.000
52.36735 29.000
52.38729 23.000
52.40724 27.000
52.42719 27.000
52.44713 29.000
52.46708 29.000
52.48703 31.000
52.50698 37.000
52.52692 33.000
52.54687 34.000
52.56682 30.000
52.58676 27.000
52.60671 24.000
52.62666 30.000
52.64660 25.000
52.66655 31.000
52.68650 25.000
52.70645 23.000
52.72639 24.000
52.74634 27.000
52.76629 31.000
52.78623 25.000
52.80618 25.000
52.82613 31.000
52.84607 34.000
52.86602 35.000
52.88597 36.000
52.90591 32.000
52.92586 34.000
52.94581 31.000
52.96576 32.000
52.98570 26.000
53.00565 31.000
53.02560 31.000
53.04554 29.000
53.06549 21.000
53.08544 44.000
53.10538 38.000
53.12533 34.000
53.14528 36.000
53.16523 27.000
53.18517 39.000
53.20512 32.000
53.22507 33.000
53.24501 35.000
53.26496 32.000
53.28491 46.000
53.30485 31.000
53.32480 36.000
53.34475 41.000
53.36469 34.000
53.38464 23.000
53.40459 39.000
53.42454 40.000
53.44448 35.000
53.46443 41.000
53.48438 34.000
53.50432 34.000
53.52427 28.000
53.54422 36.000
53.56416 26.000
53.58411 31.000
53.60406 31.000
53.62401 25.000
53.64395 32.000
53.66390 26.000
53.68385 37.000
53.70379 29.000
53.72374 37.000
53.74369 33.000
53.76363 34.000
53.78358 32.000
53.80353 32.000
53.82348 38.000
53.84342 32.000
53.86337 28.000
53.88332 38.000
53.90326 36.000
53.92321 34.000
53.94316 40.000
53.96310 31.000
53.98305 35.000
54.00300 41.000
54.02294 28.000
54.04289 48.000
54.06284 51.000
54.08279 38.000
54.10273 38.000
54.12268 32.000
54.14263 30.000
54.16257 28.000
54.18252 32.000
54.20247 32.000
54.22241 34.000
54.24236 33.000
54.26231 24.000
54.28226 31.000
54.30220 33.000
54.32215 24.000
54.34210 22.000
54.36204 25.000
54.38199 34.000
54.40194 30.000
54.42188 20.000
54.44183 23.000
54.46178 27.000
54.48172 38.000
54.50167 29.000
54.52162 37.000
54.54157 29.000
54.56151 26.000
54.58146 30.000
54.60141 24.000
54.62135 31.000
54.64130 20.000
54.66125 23.000
54.68119 27.000
54.70114 23.000
54.72109 23.000
54.74104 26.000
54.76098 16.000
54.78093 19.000
54.80088 34.000
54.82082 19.000
54.84077 24.000
54.86072 22.000
54.88066 23.000
54.90061 27.000
54.92056 20.000
54.94050 28.000
54.96045 24.000
54.98040 26.000
55.00035 33.000
55.02029 23.000
55.04024 34.000
55.06019 27.000
55.08013 28.000
55.10008 28.000
55.12003 27.000
55.13997 23.000
55.15992 24.000
55.17987 27.000
55.19982 22.000
55.21976 25.000
55.23971 20.000
55.25966 24.000
55.27960 30.000
55.29955 26.000
55.31950 21.000
55.33944 31.000
55.35939 25.000
55.37934 31.000
55.39929 28.000
55.41923 25.000
55.43918 21.000
55.45913 27.000
55.47907 13.000
55.49902 29.000
55.51897 26.000
55.53891 19.000
55.55886 17.000
55.57881 26.000
55.59875 19.000
55.61870 21.000
55.63865 28.000
55.65860 25.000
55.67854 19.000
55.69849 15.000
55.71844 20.000
55.73838 26.000
55.75833 28.000
55.77828 26.000
55.79822 28.000
55.81817 26.000
55.83812 17.000
55.85807 30.000
55.87801 24.000
55.89796 29.000
55.91791 20.000
55.93785 20.000
55.95780 24.000
55.97775 24.000
55.99769 23.000
56.01764 31.000
56.03759 23.000
56.05753 22.000
56.07748 23.000
56.09743 30.000
56.11738 29.000
56.13732 23.000
56.15727 22.000
56.17722 29.000
56.19716 17.000
56.21711 27.000
56.23706 25.000
56.25700 29.000
56.27695 26.000
56.29690 25.000
56.31685 19.000
56.33679 20.000
56.35674 17.000
56.37669 24.000
56.39663 16.000
56.41658 17.000
56.43653 21.000
56.45647 26.000
56.47642 25.000
56.49637 18.000
56.51631 19.000
56.53626 22.000
56.55621 22.000
56.57616 24.000
56.59610 23.000
56.61605 34.000
56.63600 17.000
56.65594 25.000
56.67589 18.000
56.69584 21.000
56.71578 24.000
56.73573 25.000
56.75568 28.000
56.77563 31.000
56.79557 18.000
56.81552 24.000
56.83547 22.000
56.85541 22.000
56.87536 24.000
56.89531 23.000
56.91525 22.000
56.93520 19.000
56.95515 32.000
56.97510 26.000
56.99504 15.000
57.01499 25.000
57.03494 21.000
57.05488 30.000
57.07483 28.000
57.09478 27.000
57.11472 22.000
57.13467 24.000
57.15462 23.000
57.17456 36.000
57.19451 26.000
57.21446 19.000
57.23441 20.000
57.25435 15.000
57.27430 24.000
57.29425 19.000
57.31419 13.000
57.33414 11.000
57.35409 27.000
57.37403 17.000
57.39398 25.000
57.41393 20.000
57.43388 15.000
57.45382 19.000
57.47377 28.000
57.49372 21.000
57.51366 17.000
57.53361 29.000
57.55356 26.000
57.57350 21.000
57.59345 29.000
57.61340 21.000
57.63334 23.000
57.65329 20.000
57.67324 17.000
57.69319 24.000
57.71313 21.000
57.73308 29.000
57.75303 28.000
57.77297 23.000
57.79292 38.000
57.81287 26.000
57.83281 21.000
57.85276 23.000
57.87271 23.000
57.89266 31.000
57.91260 22.000
57.93255 30.000
57.95250 27.000
57.97244 26.000
57.99239 20.000
58.01234 20.000
58.03228 18.000
58.05223 22.000
58.07218 36.000
58.09212 28.000
58.11207 19.000
58.13202 23.000
58.15197 24.000
58.17191 13.000
58.19186 30.000
58.21181 27.000
58.23175 31.000
58.25170 24.000
58.27165 34.000
58.29159 27.000
58.31154 24.000
58.33149 36.000
58.35144 29.000
58.37138 27.000
58.39133 24.000
58.41128 28.000
58.43122 16.000
58.45117 22.000
58.47112 29.000
58.49106 29.000
58.51101 22.000
58.53096 30.000
58.55090 48.000
58.57085 34.000
58.59080 38.000
58.61075 37.000
58.63069 30.000
58.65064 28.000
58.67059 39.000
58.69053 40.000
58.71048 25.000
58.73043 36.000
58.75037 31.000
58.77032 29.000
58.79027 12.000
58.81022 34.000
58.83016 23.000
58.85011 33.000
58.87006 20.000
58.89000 19.000
58.90995 25.000
58.92990 32.000
58.94984 22.000
58.96979 25.000
58.98974 33.000
59.00969 31.000
59.02963 21.000
59.04958 19.000
59.06953 22.000
59.08947 23.000
59.10942 24.000
59.12937 19.000
59.14931 30.000
59.16926 21.000
59.18921 18.000
59.20915 31.000
59.22910 26.000
59.24905 23.000
59.26900 24.000
59.28894 17.000
59.30889 27.000
59.32884 14.000
59.34878 31.000
59.36873 23.000
59.38868 22.000
59.40862 28.000
59.42857 21.000
59.44852 35.000
59.46847 23.000
59.48841 27.000
59.50836 27.000
59.52831 17.000
59.54825 26.000
59.56820 21.000
59.58815 23.000
59.60809 31.000
59.62804 24.000
59.64799 26.000
59.66793 30.000
59.68788 33.000
59.70783 18.000
59.72778 30.000
59.74772 27.000
59.76767 28.000
59.78762 37.000
59.80756 27.000
59.82751 38.000
59.84746 34.000
59.86740 31.000
59.88735 24.000
59.90730 41.000
59.92725 48.000
59.94719 46.000
59.96714 55.000
59.98709 47.000
60.00703 45.000
60.02698 40.000
60.04693 39.000
60.06687 35.000
60.08682 50.000
60.10677 40.000
60.12671 49.000
60.14666 40.000
60.16661 27.000
60.18656 41.000
60.20650 37.000
60.22645 23.000
60.24640 39.000
60.26634 48.000
60.28629 33.000
60.30624 30.000
60.32618 35.000
60.34613 43.000
60.36608 37.000
60.38603 49.000
60.40597 42.000
60.42592 37.000
60.44587 44.000
60.46581 33.000
60.48576 47.000
60.50571 44.000
60.52565 42.000
60.54560 52.000
60.56555 48.000
60.58550 44.000
60.60544 61.000
60.62539 67.000
60.64534 64.000
60.66528 60.000
60.68523 47.000
60.70518 56.000
60.72512 61.000
60.74507 64.000
60.76502 55.000
60.78496 50.000
60.80491 60.000
60.82486 60.000
60.84481 59.000
60.86475 68.000
60.88470 69.000
60.90465 68.000
60.92459 72.000
60.94454 55.000
60.96449 56.000
60.98443 65.000
61.00438 70.000
61.02433 68.000
61.04428 59.000
61.06422 60.000
61.08417 60.000
61.10412 62.000
61.12406 66.000
61.14401 67.000
61.16396 71.000
61.18390 71.000
61.20385 75.000
61.22380 95.000
61.24374 77.000
61.26369 76.000
61.28364 77.000
61.30359 68.000
61.32353 97.000
61.34348 98.000
61.36343 106.000
61.38337 112.000
61.40332 111.000
61.42327 108.000
61.44321 120.000
61.46316 135.000
61.48311 153.000
61.50306 125.000
61.52300 159.000
61.54295 178.000
61.56290 201.000
61.58284 194.000
61.60279 225.000
61.62274 218.000
61.64268 217.000
61.66263 227.000
61.68258 239.000
61.70252 217.000
61.72247 235.000
61.74242 219.000
61.76237 191.000
61.78231 199.000
61.80226 194.000
61.82221 183.000
61.84215 151.000
61.86210 158.000
61.88205 157.000
61.90199 145.000
61.92194 109.000
61.94189 131.000
61.96184 113.000
61.98178 89.000
62.00173 98.000
62.02168 86.000
62.04162 85.000
62.06157 69.000
62.08152 104.000
62.10146 85.000
62.12141 83.000
62.14136 86.000
62.16131 84.000
62.18125 58.000
62.20120 62.000
62.22115 77.000
62.24109 66.000
62.26104 68.000
62.28099 57.000
62.30093 73.000
62.32088 71.000
62.34083 65.000
62.36077 64.000
62.38072 61.000
62.40067 74.000
62.42062 64.000
62.44056 52.000
62.46051 80.000
62.48046 96.000
62.50040 77.000
62.52035 69.000
62.54030 72.000
62.56024 88.000
62.58019 80.000
62.60014 97.000
62.62009 90.000
62.64003 98.000
62.65998 103.000
62.67993 117.000
62.69987 105.000
62.71982 101.000
62.73977 115.000
62.75971 121.000
62.77966 123.000
62.79961 126.000
62.81955 107.000
62.83950 104.000
62.85945 122.000
62.87940 109.000
62.89934 97.000
62.91929 95.000
62.93924 77.000
62.95918 94.000
62.97913 81.000
62.99908 97.000
63.01902 74.000
63.03897 84.000
63.05892 67.000
63.07887 69.000
63.09881 70.000
63.11876 62.000
63.13871 69.000
63.15865 52.000
63.17860 63.000
63.19855 63.000
63.21849 67.000
63.23844 51.000
63.25839 49.000
63.27833 48.000
63.29828 62.000
63.31823 44.000
63.33818 52.000
63.35812 58.000
63.37807 57.000
63.39802 49.000
63.41796 62.000
63.43791 54.000
63.45786 50.000
63.47780 59.000
63.49775 49.000
63.51770 45.000
63.53765 57.000
63.55759 63.000
63.57754 56.000
63.59749 55.000
63.61743 70.000
63.63738 46.000
63.65733 64.000
63.67727 54.000
63.69722 56.000
63.71717 60.000
63.73712 54.000
63.75706 62.000
63.77701 60.000
63.79696 54.000
63.81690 58.000
63.83685 72.000
63.85680 56.000
63.87674 59.000
63.89669 64.000
63.91664 66.000
63.93658 64.000
63.95653 58.000
63.97648 48.000
63.99643 79.000
64.01637 82.000
64.03632 69.000
64.05627 68.000
64.07621 76.000
64.09616 68.000
64.11611 105.000
64.13605 89.000
64.15600 71.000
64.17595 81.000
64.19590 88.000
64.21584 70.000
64.23579 84.000
64.25574 66.000
64.27568 69.000
64.29563 71.000
64.31558 73.000
64.33552 86.000
64.35547 75.000
64.37542 102.000
64.39536 80.000
64.41531 93.000
64.43526 93.000
64.45521 93.000
64.47515 80.000
64.49510 77.000
64.51505 87.000
64.53499 99.000
64.55494 90.000
64.57489 96.000
64.59483 99.000
64.61478 98.000
64.63473 83.000
64.65468 80.000
64.67462 109.000
64.69457 97.000
64.71452 89.000
64.73446 70.000
64.75441 76.000
64.77436 109.000
64.79430 94.000
64.81425 80.000
64.83420 81.000
64.85414 109.000
64.87409 84.000
64.89404 98.000
64.91399 93.000
64.93393 84.000
64.95388 74.000
64.97383 74.000
64.99377 69.000
65.01372 87.000
65.03367 89.000
65.05361 76.000
65.07356 85.000
65.09351 102.000
65.11346 71.000
65.13340 95.000
65.15335 93.000
65.17330 76.000
65.19324 100.000
65.21319 67.000
65.23314 100.000
65.25308 89.000
65.27303 92.000
65.29298 105.000
65.31293 102.000
65.33287 95.000
65.35282 96.000
65.37277 103.000
65.39271 96.000
65.41266 96.000
65.43261 92.000
65.45255 94.000
65.47250 91.000
65.49245 107.000
65.51239 92.000
65.53234 100.000
65.55229 114.000
65.57224 122.000
65.59218 96.000
65.61213 140.000
65.63208 134.000
65.65202 123.000
65.67197 126.000
65.69192 121.000
65.71186 111.000
65.73181 117.000
65.75176 136.000
65.77171 126.000
65.79165 134.000
65.81160 98.000
65.83155 124.000
65.85149 105.000
65.87144 111.000
65.89139 108.000
65.91133 112.000
65.93128 117.000
65.95123 114.000
65.97117 104.000
65.99112 108.000
66.01107 105.000
66.03102 99.000
66.05096 112.000
66.07091 123.000
66.09086 127.000
66.11080 112.000
66.13075 99.000
66.15070 103.000
66.17064 98.000
66.19059 106.000
66.21054 72.000
66.23049 95.000
66.25043 96.000
66.27038 87.000
66.29033 83.000
66.31027 70.000
66.33022 68.000
66.35017 70.000
66.37011 77.000
66.39006 68.000
66.41001 75.000
66.42995 65.000
66.44990 55.000
66.46985 61.000
66.48980 62.000
66.50974 73.000
66.52969 65.000
66.54964 56.000
66.56958 60.000
66.58953 64.000
66.60948 65.000
66.62942 76.000
66.64937 57.000
66.66932 67.000
66.68927 72.000
66.70921 75.000
66.72916 59.000
66.74911 69.000
66.76905 60.000
66.78900 76.000
66.80895 54.000
66.82889 62.000
66.84884 76.000
66.86879 58.000
66.88874 49.000
66.90868 63.000
66.92863 56.000
66.94858 64.000
66.96852 59.000
66.98847 68.000
67.00842 65.000
67.02836 57.000
67.04831 63.000
67.06826 51.000
67.08820 53.000
67.10815 42.000
67.12810 47.000
67.14805 41.000
67.16799 48.000
67.18794 42.000
67.20789 53.000
67.22783 47.000
67.24778 47.000
67.26773 45.000
67.28767 49.000
67.30762 43.000
67.32757 52.000
67.34752 47.000
67.36746 45.000
67.38741 41.000
67.40736 52.000
67.42730 48.000
67.44725 47.000
67.46720 48.000
67.48714 33.000
67.50709 41.000
67.52704 30.000
67.54698 48.000
67.56693 42.000
67.58688 42.000
67.60683 48.000
67.62677 64.000
67.64672 50.000
67.66667 41.000
67.68661 41.000
67.70656 38.000
67.72651 35.000
67.74645 40.000
67.76640 47.000
67.78635 57.000
67.80630 57.000
67.82624 62.000
67.84619 61.000
67.86614 50.000
67.88608 61.000
67.90603 46.000
67.92598 55.000
67.94592 58.000
67.96587 55.000
67.98582 49.000
68.00576 52.000
68.02571 50.000
68.04566 68.000
68.06561 57.000
68.08555 46.000
68.10550 56.000
68.12545 59.000
68.14539 62.000
68.16534 48.000
68.18529 54.000
68.20523 51.000
68.22518 59.000
68.24513 51.000
68.26508 51.000
68.28502 37.000
68.30497 63.000
68.32492 53.000
68.34486 48.000
68.36481 35.000
68.38476 29.000
68.40470 37.000
68.42465 44.000
68.44460 38.000
68.46455 29.000
68.48449 30.000
68.50444 23.000
68.52439 33.000
68.54433 27.000
68.56428 36.000
68.58423 45.000
68.60417 20.000
68.62412 22.000
68.64407 25.000
68.66401 38.000
68.68396 34.000
68.70391 24.000
68.72386 26.000
68.74380 24.000
68.76375 31.000
68.78370 21.000
68.80364 25.000
68.82359 19.000
68.84354 30.000
68.86348 19.000
68.88343 22.000
68.90338 24.000
68.92333 22.000
68.94327 26.000
68.96322 18.000
68.98317 15.000
69.00311 23.000
69.02306 20.000
69.04301 25.000
69.06295 23.000
69.08290 21.000
69.10285 27.000
69.12279 22.000
69.14274 24.000
69.16269 22.000
69.18264 22.000
69.20258 36.000
69.22253 24.000
69.24248 17.000
69.26242 21.000
69.28237 19.000
69.30232 23.000
69.32226 21.000
69.34221 19.000
69.36216 25.000
69.38211 29.000
69.40205 28.000
69.42200 19.000
69.44195 16.000
69.46189 18.000
69.48184 15.000
69.50179 28.000
69.52173 21.000
69.54168 16.000
69.56163 18.000
69.58157 21.000
69.60152 23.000
69.62147 27.000
69.64142 20.000
69.66136 22.000
69.68131 21.000
69.70126 18.000
69.72120 23.000
69.74115 12.000
69.76110 30.000
69.78104 26.000
69.80099 23.000
69.82094 23.000
69.84089 22.000
69.86083 23.000
69.88078 24.000
69.90073 16.000
69.92067 18.000
69.94062 23.000
69.96057 13.000
69.98051 23.000
70.00046 25.000
70.02041 18.000
70.04035 23.000
70.06030 17.000
70.08025 21.000
70.10020 20.000
70.12014 24.000
70.14009 16.000
70.16004 15.000
70.17998 22.000
70.19993 14.000
70.21988 25.000
70.23982 18.000
70.25977 15.000
70.27972 22.000
70.29967 21.000
70.31961 25.000
70.33956 24.000
70.35951 22.000
70.37945 29.000
70.39940 13.000
70.41935 16.000
70.43929 17.000
70.45924 20.000
70.47919 19.000
70.49914 17.000
70.51908 18.000
70.53903 18.000
70.55898 20.000
70.57892 18.000
70.59887 14.000
70.61882 23.000
70.63876 16.000
70.65871 20.000
70.67866 14.000
70.69860 20.000
70.71855 21.000
70.73850 22.000
70.75845 17.000
70.77839 16.000
70.79834 20.000
70.81829 21.000
70.83823 16.000
70.85818 20.000
70.87813 11.000
70.89807 20.000
70.91802 27.000
70.93797 20.000
70.95792 18.000
70.97786 16.000
70.99781 13.000
71.01776 22.000
71.03770 12.000
71.05765 24.000
71.07760 10.000
71.09754 14.000
71.11749 15.000
71.13744 16.000
71.15738 25.000
71.17733 17.000
71.19728 27.000
71.21723 23.000
71.23717 22.000
71.25712 20.000
71.27707 18.000
71.29701 20.000
71.31696 23.000
71.33691 21.000
71.35685 17.000
71.37680 17.000
71.39675 23.000
71.41670 11.000
71.43664 16.000
71.45659 17.000
71.47654 27.000
71.49648 25.000
71.51643 21.000
71.53638 28.000
71.55632 24.000
71.57627 19.000
71.59622 17.000
71.61616 25.000
71.63611 31.000
71.65606 25.000
71.67601 26.000
71.69595 27.000
71.71590 25.000
71.73585 22.000
71.75579 19.000
71.77574 21.000
71.79569 30.000
71.81563 24.000
71.83558 27.000
71.85553 25.000
71.87548 21.000
71.89542 33.000
71.91537 24.000
71.93532 32.000
71.95526 37.000
71.97521 31.000
71.99516 27.000
72.01510 32.000
72.03505 29.000
72.05500 42.000
72.07495 31.000
72.09489 31.000
72.11484 29.000
72.13479 31.000
72.15473 39.000
72.17468 29.000
72.19463 37.000
72.21457 33.000
72.23452 25.000
72.25447 37.000
72.27441 33.000
72.29436 41.000
72.31431 18.000
72.33426 32.000
72.35420 36.000
72.37415 40.000
72.39410 35.000
72.41404 24.000
72.43399 33.000
72.45394 35.000
72.47388 18.000
72.49383 30.000
72.51378 28.000
72.53373 20.000
72.55367 29.000
72.57362 26.000
72.59357 26.000
72.61351 30.000
72.63346 31.000
72.65341 28.000
72.67335 33.000
72.69330 33.000
72.71325 29.000
72.73319 18.000
72.75314 25.000
72.77309 21.000
72.79304 30.000
72.81298 32.000
72.83293 23.000
72.85288 23.000
72.87282 40.000
72.89277 27.000
72.91272 38.000
72.93266 34.000
72.95261 32.000
72.97256 27.000
72.99251 23.000
73.01245 29.000
73.03240 29.000
73.05235 27.000
73.07229 22.000
73.09224 40.000
73.11219 30.000
73.13213 28.000
73.15208 34.000
73.17203 31.000
73.19197 30.000
73.21192 26.000
73.23187 28.000
73.25182 42.000
73.27176 32.000
73.29171 31.000
73.31166 30.000
73.33160 29.000
73.35155 35.000
73.37150 39.000
73.39144 32.000
73.41139 40.000
73.43134 33.000
73.45129 36.000
73.47123 28.000
73.49118 35.000
73.51113 36.000
73.53107 40.000
73.55102 25.000
73.57097 30.000
73.59091 43.000
73.61086 34.000
73.63081 33.000
73.65076 37.000
73.67070 40.000
73.69065 36.000
73.71060 39.000
73.73054 32.000
73.75049 44.000
73.77044 30.000
73.79038 46.000
73.81033 36.000
73.83028 21.000
73.85022 34.000
73.87017 21.000
73.89012 26.000
73.91007 21.000
73.93001 29.000
73.94996 28.000
73.96991 37.000
73.98985 36.000
74.00980 24.000
74.02975 27.000
74.04969 25.000
74.06964 41.000
74.08959 23.000
74.10954 34.000
74.12948 20.000
74.14943 31.000
74.16938 30.000
74.18932 30.000
74.20927 25.000
74.22922 46.000
74.24916 34.000
74.26911 30.000
74.28906 34.000
74.30900 20.000
74.32895 24.000
74.34890 25.000
74.36885 26.000
74.38879 36.000
74.40874 40.000
74.42869 26.000
74.44863 33.000
74.46858 31.000
74.48853 22.000
74.50847 33.000
74.52842 29.000
74.54837 33.000
74.56832 34.000
74.58826 49.000
74.60821 33.000
74.62816 31.000
74.64810 37.000
74.66805 39.000
74.68800 41.000
74.70794 36.000
74.72789 35.000
74.74784 48.000
74.76778 38.000
74.78773 40.000
74.80768 39.000
74.82763 39.000
74.84757 40.000
74.86752 35.000
74.88747 41.000
74.90741 42.000
74.92736 40.000
74.94731 47.000
74.96725 36.000
74.98720 38.000
75.00715 39.000
75.02710 39.000
75.04704 32.000
75.06699 46.000
75.08694 27.000
75.10688 31.000
75.12683 43.000
75.14678 33.000
75.16672 25.000
75.18667 22.000
75.20662 28.000
75.22657 23.000
75.24651 31.000
75.26646 33.000
75.28641 28.000
75.30635 23.000
75.32630 33.000
75.34625 25.000
75.36619 33.000
75.38614 28.000
75.40609 26.000
75.42603 27.000
75.44598 31.000
75.46593 38.000
75.48588 31.000
75.50582 22.000
75.52577 27.000
75.54572 23.000
75.56566 21.000
75.58561 18.000
75.60556 23.000
75.62550 30.000
75.64545 27.000
75.66540 29.000
75.68535 28.000
75.70529 22.000
75.72524 28.000
75.74519 24.000
75.76513 23.000
75.78508 27.000
75.80503 27.000
75.82497 26.000
75.84492 31.000
75.86487 20.000
75.88481 21.000
75.90476 25.000
75.92471 17.000
75.94466 21.000
75.96460 20.000
75.98455 19.000
76.00450 21.000
76.02444 26.000
76.04439 31.000
76.06434 26.000
76.08428 32.000
76.10423 30.000
76.12418 33.000
76.14413 34.000
76.16407 20.000
76.18402 28.000
76.20397 37.000
76.22391 42.000
76.24386 36.000
76.26381 31.000
76.28375 37.000
76.30370 36.000
76.32365 31.000
76.34359 34.000
76.36354 40.000
76.38349 35.000
76.40344 41.000
76.42338 37.000
76.44333 42.000
76.46328 30.000
76.48322 34.000
76.50317 51.000
76.52312 42.000
76.54306 36.000
76.56301 53.000
76.58296 55.000
76.60291 42.000
76.62285 41.000
76.64280 55.000
76.66275 55.000
76.68269 39.000
76.70264 38.000
76.72259 45.000
76.74253 44.000
76.76248 39.000
76.78243 26.000
76.80238 35.000
76.82232 33.000
76.84227 48.000
76.86222 54.000
76.88216 47.000
76.90211 42.000
76.92206 54.000
76.94200 50.000
76.96195 45.000
76.98190 41.000
77.00184 33.000
77.02179 39.000
77.04174 32.000
77.06169 60.000
77.08163 41.000
77.10158 40.000
77.12153 45.000
77.14147 47.000
77.16142 40.000
77.18137 40.000
77.20131 51.000
77.22126 48.000
77.24121 46.000
77.26116 54.000
77.28110 46.000
77.30105 43.000
77.32100 43.000
77.34094 65.000
77.36089 57.000
77.38084 70.000
77.40078 69.000
77.42073 68.000
77.44068 70.000
77.46062 55.000
77.48057 87.000
77.50052 76.000
77.52047 80.000
77.54041 80.000
77.56036 83.000
77.58031 79.000
77.60025 76.000
77.62020 85.000
77.64015 74.000
77.66009 86.000
77.68004 84.000
77.69999 80.000
77.71994 66.000
77.73988 68.000
77.75983 83.000
77.77978 73.000
77.79972 59.000
77.81967 50.000
77.83962 70.000
77.85956 69.000
77.87951 65.000
77.89946 56.000
77.91940 41.000
77.93935 52.000
77.95930 48.000
77.97925 52.000
77.99919 42.000
78.01914 49.000
78.03909 46.000
78.05903 45.000
78.07898 42.000
78.09893 36.000
78.11887 55.000
78.13882 38.000
78.15877 41.000
78.17872 56.000
78.19866 35.000
78.21861 39.000
78.23856 56.000
78.25850 45.000
78.27845 36.000
78.29840 46.000
78.31834 44.000
78.33829 54.000
78.35824 47.000
78.37819 51.000
78.39813 50.000
78.41808 38.000
78.43803 63.000
78.45797 40.000
78.47792 43.000
78.49787 54.000
78.51781 60.000
78.53776 55.000
78.55771 43.000
78.57765 70.000
78.59760 51.000
78.61755 62.000
78.63750 57.000
78.65744 43.000
78.67739 56.000
78.69734 48.000
78.71728 70.000
78.73723 58.000
78.75718 48.000
78.77712 50.000
78.79707 55.000
78.81702 51.000
78.83697 51.000
78.85691 41.000
78.87686 58.000
78.89681 35.000
78.91675 61.000
78.93670 48.000
78.95665 50.000
78.97659 39.000
78.99654 38.000
79.01649 42.000
79.03643 37.000
79.05638 53.000
79.07633 38.000
79.09628 36.000
79.11622 40.000
79.13617 29.000
79.15612 35.000
79.17606 37.000
79.19601 30.000
79.21596 35.000
79.23590 23.000
79.25585 30.000
79.27580 27.000
79.29575 32.000
79.31569 27.000
79.33564 30.000
79.35559 30.000
79.37553 31.000
79.39548 33.000
79.41543 33.000
79.43537 33.000
79.45532 23.000
79.47527 23.000
79.49521 25.000
79.51516 20.000
79.53511 35.000
79.55506 30.000
79.57500 28.000
79.59495 28.000
79.61490 33.000
79.63484 39.000
79.65479 34.000
79.67474 24.000
79.69468 26.000
79.71463 25.000
79.73458 35.000
79.75453 22.000
79.77447 27.000
79.79442 15.000
79.81437 21.000
79.83431 24.000
79.85426 28.000
79.87421 28.000
79.89415 32.000
79.91410 30.000
79.93405 26.000
79.95399 20.000
79.97394 14.000
79.99389 24.000
80.01384 26.000
80.03378 12.000
80.05373 21.000
80.07368 19.000
80.09362 22.000
80.11357 17.000
80.13352 15.000
80.15346 22.000
80.17341 15.000
80.19336 21.000
80.21331 23.000
80.23325 18.000
80.25320 17.000
80.27315 19.000
80.29309 22.000
80.31304 19.000
80.33299 22.000
80.35293 21.000
80.37288 27.000
80.39283 21.000
80.41278 19.000
80.43272 20.000
80.45267 17.000
80.47262 23.000
80.49256 21.000
80.51251 23.000
80.53246 17.000
80.55240 34.000
80.57235 14.000
80.59230 19.000
80.61224 22.000
80.63219 21.000
80.65214 19.000
80.67209 14.000
80.69203 16.000
80.71198 19.000
80.73193 20.000
80.75187 18.000
80.77182 20.000
80.79177 19.000
80.81171 19.000
80.83166 18.000
80.85161 17.000
80.87156 14.000
80.89150 20.000
80.91145 25.000
80.93140 21.000
80.95134 19.000
80.97129 23.000
80.99124 15.000
81.01118 20.000
81.03113 18.000
81.05108 34.000
81.07102 39.000
81.09097 34.000
81.11092 26.000
81.13087 18.000
81.15081 30.000
81.17076 32.000
81.19071 27.000
81.21065 26.000
81.23060 20.000
81.25055 37.000
81.27049 28.000
81.29044 30.000
81.31039 34.000
81.33034 27.000
81.35028 24.000
81.37023 33.000
81.39018 35.000
81.41012 32.000
81.43007 31.000
81.45002 48.000
81.46996 35.000
81.48991 25.000
81.50986 35.000
81.52980 43.000
81.54975 29.000
81.56970 27.000
81.58965 37.000
81.60959 37.000
81.62954 29.000
81.64949 22.000
81.66943 24.000
81.68938 28.000
81.70933 30.000
81.72927 20.000
81.74922 24.000
81.76917 23.000
81.78912 24.000
81.80906 24.000
81.82901 29.000
81.84896 18.000
81.86890 24.000
81.88885 29.000
81.90880 22.000
81.92874 27.000
81.94869 21.000
81.96864 20.000
81.98859 20.000
82.00853 19.000
82.02848 14.000
82.04843 21.000
82.06837 19.000
82.08832 27.000
82.10827 20.000
82.12821 29.000
82.14816 24.000
82.16811 38.000
82.18805 30.000
82.20800 17.000
82.22795 27.000
82.24790 30.000
82.26784 24.000
82.28779 18.000
82.30774 20.000
82.32768 29.000
82.34763 30.000
82.36758 25.000
82.38752 16.000
82.40747 19.000
82.42742 31.000
82.44737 29.000
82.46731 23.000
82.48726 16.000
82.50721 22.000
82.52715 21.000
82.54710 18.000
82.56705 22.000
82.58699 25.000
82.60694 17.000
82.62689 17.000
82.64683 20.000
82.66678 23.000
82.68673 24.000
82.70668 31.000
82.72662 26.000
82.74657 18.000
82.76652 29.000
82.78646 28.000
82.80641 29.000
82.82636 20.000
82.84630 25.000
82.86625 22.000
82.88620 27.000
82.90615 24.000
82.92609 21.000
82.94604 21.000
82.96599 18.000
82.98593 31.000
83.00588 19.000
83.02583 24.000
83.04577 25.000
83.06572 17.000
83.08567 28.000
83.10561 23.000
83.12556 25.000
83.14551 23.000
83.16546 18.000
83.18540 15.000
83.20535 19.000
83.22530 28.000
83.24524 24.000
83.26519 13.000
83.28514 23.000
83.30508 22.000
83.32503 24.000
83.34498 17.000
83.36493 19.000
83.38487 23.000
83.40482 21.000
83.42477 27.000
83.44471 6.000
83.46466 20.000
83.48461 26.000
83.50455 24.000
83.52450 24.000
83.54445 29.000
83.56440 25.000
83.58434 21.000
83.60429 16.000
83.62424 20.000
83.64418 27.000
83.66413 27.000
83.68408 16.000
83.70402 17.000
83.72397 18.000
83.74392 17.000
83.76386 16.000
83.78381 25.000
83.80376 21.000
83.82371 19.000
83.84365 21.000
83.86360 28.000
83.88355 22.000
83.90349 14.000
83.92344 13.000
83.94339 13.000
83.96333 19.000
83.98328 30.000
84.00323 19.000
84.02318 23.000
84.04312 28.000
84.06307 23.000
84.08302 20.000
84.10296 28.000
84.12291 25.000
84.14286 24.000
84.16280 26.000
84.18275 27.000
84.20270 29.000
84.22264 31.000
84.24259 22.000
84.26254 21.000
84.28249 30.000
84.30243 23.000
84.32238 29.000
84.34233 30.000
84.36227 26.000
84.38222 34.000
84.40217 23.000
84.42211 27.000
84.44206 31.000
84.46201 21.000
84.48196 27.000
84.50190 22.000
84.52185 31.000
84.54180 32.000
84.56174 27.000
84.58169 25.000
84.60164 26.000
84.62158 25.000
84.64153 48.000
84.66148 34.000
84.68142 40.000
84.70137 27.000
84.72132 32.000
84.74127 39.000
84.76121 45.000
84.78116 46.000
84.80111 47.000
84.82105 36.000
84.84100 46.000
84.86095 41.000
84.88089 44.000
84.90084 41.000
84.92079 43.000
84.94074 51.000
84.96068 42.000
84.98063 44.000
85.00058 39.000
85.02052 38.000
85.04047 40.000
85.06042 42.000
85.08036 50.000
85.10031 43.000
85.12026 42.000
85.14021 58.000
85.16015 35.000
85.18010 41.000
85.20005 47.000
85.21999 43.000
85.23994 36.000
85.25989 33.000
85.27983 41.000
85.29978 47.000
85.31973 31.000
85.33967 45.000
85.35962 38.000
85.37957 47.000
85.39952 27.000
85.41946 40.000
85.43941 40.000
85.45936 36.000
85.47930 35.000
85.49925 44.000
85.51920 29.000
85.53914 33.000
85.55909 25.000
85.57904 23.000
85.59899 27.000
85.61893 28.000
85.63888 33.000
85.65883 31.000
85.67877 21.000
85.69872 24.000
85.71867 35.000
85.73861 28.000
85.75856 32.000
85.77851 41.000
85.79845 34.000
85.81840 46.000
85.83835 39.000
85.85830 54.000
85.87824 40.000
85.89819 27.000
85.91814 42.000
85.93808 33.000
85.95803 38.000
85.97798 37.000
85.99792 39.000
86.01787 28.000
86.03782 34.000
86.05777 43.000
86.07771 35.000
86.09766 33.000
86.11761 33.000
86.13755 33.000
86.15750 31.000
86.17745 38.000
86.19739 25.000
86.21734 22.000
86.23729 22.000
86.25723 33.000
86.27718 31.000
86.29713 29.000
86.31708 25.000
86.33702 30.000
86.35697 36.000
86.37692 37.000
86.39686 29.000
86.41681 27.000
86.43676 29.000
86.45670 36.000
86.47665 18.000
86.49660 24.000
86.51655 39.000
86.53649 22.000
86.55644 31.000
86.57639 30.000
86.59633 27.000
86.61628 34.000
86.63623 30.000
86.65617 31.000
86.67612 33.000
86.69607 43.000
86.71602 23.000
86.73596 30.000
86.75591 32.000
86.77586 17.000
86.79580 27.000
86.81575 25.000
86.83570 25.000
86.85564 32.000
86.87559 28.000
86.89554 23.000
86.91548 24.000
86.93543 20.000
86.95538 19.000
86.97533 28.000
86.99527 33.000
87.01522 16.000
87.03517 18.000
87.05511 23.000
87.07506 24.000
87.09501 13.000
87.11495 33.000
87.13490 20.000
87.15485 24.000
87.17480 15.000
87.19474 21.000
87.21469 19.000
87.23464 25.000
87.25458 17.000
87.27453 22.000
87.29448 25.000
87.31442 25.000
87.33437 19.000
87.35432 23.000
87.37426 29.000
87.39421 17.000
87.41416 20.000
87.43411 17.000
87.45405 22.000
87.47400 17.000
87.49395 12.000
87.51389 22.000
87.53384 23.000
87.55379 12.000
87.57373 10.000
87.59368 18.000
87.61363 17.000
87.63358 16.000
87.65352 22.000
87.67347 16.000
87.69342 19.000
87.71336 14.000
87.73331 13.000
87.75326 18.000
87.77320 12.000
87.79315 17.000
87.81310 16.000
87.83304 19.000
87.85299 21.000
87.87294 19.000
87.89289 16.000
87.91283 14.000
87.93278 17.000
87.95273 14.000
87.97267 15.000
87.99262 23.000
88.01257 11.000
88.03251 12.000
88.05246 21.000
88.07241 21.000
88.09236 10.000
88.11230 24.000
88.13225 15.000
88.15220 23.000
88.17214 22.000
88.19209 16.000
88.21204 23.000
88.23198 19.000
88.25193 18.000
88.27188 19.000
88.29183 19.000
88.31177 13.000
88.33172 19.000
88.35167 14.000
88.37161 18.000
88.39156 12.000
88.41151 18.000
88.43145 19.000
88.45140 20.000
88.47135 16.000
88.49129 19.000
88.51124 16.000
88.53119 17.000
88.55114 17.000
88.57108 15.000
88.59103 11.000
88.61098 28.000
88.63092 8.000
88.65087 16.000
88.67082 18.000
88.69076 12.000
88.71071 8.000
88.73066 13.000
88.75061 8.000
88.77055 29.000
88.79050 20.000
88.81045 19.000
88.83039 14.000
88.85034 17.000
88.87029 15.000
88.89023 14.000
88.91018 9.000
88.93013 13.000
88.95007 9.000
88.97002 20.000
88.98997 18.000
89.00992 15.000
89.02986 20.000
89.04981 13.000
89.06976 17.000
89.08970 12.000
89.10965 15.000
89.12960 17.000
89.14954 17.000
89.16949 9.000
89.18944 23.000
89.20939 18.000
89.22933 21.000
89.24928 18.000
89.26923 13.000
89.28917 21.000
89.30912 12.000
89.32907 17.000
89.34901 16.000
89.36896 16.000
89.38891 10.000
89.40885 11.000
89.42880 13.000
89.44875 10.000
89.46870 15.000
89.48864 19.000
89.50859 21.000
89.52854 15.000
89.54848 13.000
89.56843 15.000
89.58838 11.000
89.60832 17.000
89.62827 22.000
89.64822 17.000
89.66817 16.000
89.68811 14.000
89.70806 12.000
89.72801 16.000
89.74795 9.000
89.76790 18.000
89.78785 17.000
89.80779 16.000
89.82774 19.000
89.84769 24.000
89.86764 23.000
89.88758 17.000
89.90753 26.000
89.92748 18.000
89.94742 11.000
89.96737 16.000
89.98732 16.000
90.00726 20.000
