10.00000 97.000
10.01995 76.000
10.03989 108.000
10.05984 97.000
10.07979 95.000
10.09973 114.000
10.11968 103.000
10.13963 95.000
10.15958 95.000
10.17952 82.000
10.19947 95.000
10.21942 88.000
10.23936 109.000
10.25931 93.000
10.27926 99.000
10.29920 91.000
10.31915 92.000
10.33910 98.000
10.35905 97.000
10.37899 100.000
10.39894 123.000
10.41889 109.000
10.43883 97.000
10.45878 105.000
10.47873 97.000
10.49867 101.000
10.51862 92.000
10.53857 99.000
10.55851 103.000
10.57846 98.000
10.59841 110.000
10.61836 90.000
10.63830 102.000
10.65825 82.000
10.67820 121.000
10.69814 113.000
10.71809 88.000
10.73804 125.000
10.75798 91.000
10.77793 103.000
10.79788 83.000
10.81783 91.000
10.83777 89.000
10.85772 105.000
10.87767 99.000
10.89761 110.000
10.91756 90.000
10.93751 111.000
10.95745 96.000
10.97740 90.000
10.99735 112.000
11.01730 103.000
11.03724 112.000
11.05719 106.000
11.07714 105.000
11.09708 119.000
11.11703 105.000
11.13698 109.000
11.15692 109.000
11.17687 121.000
11.19682 109.000
11.21676 89.000
11.23671 110.000
11.25666 118.000
11.27661 128.000
11.29655 113.000
11.31650 107.000
11.33645 102.000
11.35639 120.000
11.37634 103.000
11.39629 92.000
11.41623 110.000
11.43618 107.000
11.45613 116.000
11.47608 117.000
11.49602 114.000
11.51597 97.000
11.53592 105.000
11.55586 127.000
11.57581 106.000
11.59576 115.000
11.61570 109.000
11.63565 102.000
11.65560 102.000
11.67554 115.000
11.69549 117.000
11.71544 114.000
11.73539 122.000
11.75533 120.000
11.77528 112.000
11.79523 92.000
11.81517 123.000
11.83512 121.000
11.85507 129.000
11.87501 120.000
11.89496 121.000
11.91491 116.000
11.93486 94.000
11.95480 123.000
11.97475 123.000
11.99470 117.000
12.01464 115.000
12.03459 137.000
12.05454 136.000
12.07448 114.000
12.09443 122.000
12.11438 114.000
12.13432 128.000
12.15427 112.000
12.17422 125.000
12.19417 103.000
12.21411 123.000
12.23406 121.000
12.25401 119.000
12.27395 141.000
12.29390 124.000
12.31385 123.000
12.33379 142.000
12.35374 143.000
12.37369 121.000
12.39364 134.000
12.41358 104.000
12.43353 125.000
12.45348 124.000
12.47342 122.000
12.49337 142.000
12.51332 110.000
12.53326 119.000
12.55321 127.000
12.57316 137.000
12.59311 120.000
12.61305 110.000
12.63300 125.000
12.65295 122.000
12.67289 115.000
12.69284 124.000
12.71279 126.000
12.73273 148.000
12.75268 147.000
12.77263 127.000
12.79257 124.000
12.81252 124.000
12.83247 138.000
12.85242 137.000
12.87236 143.000
12.89231 146.000
12.91226 137.000
12.93220 132.000
12.95215 126.000
12.97210 136.000
12.99204 138.000
13.01199 127.000
13.03194 143.000
13.05189 143.000
13.07183 137.000
13.09178 124.000
13.11173 145.000
13.13167 122.000
13.15162 130.000
13.17157 146.000
13.19151 130.000
13.21146 121.000
13.23141 146.000
13.25135 110.000
13.27130 137.000
13.29125 128.000
13.31120 144.000
13.33114 124.000
13.35109 131.000
13.37104 145.000
13.39098 128.000
13.41093 141.000
13.43088 134.000
13.45082 139.000
13.47077 142.000
13.49072 149.000
13.51067 143.000
13.53061 136.000
13.55056 136.000
13.57051 118.000
13.59045 147.000
13.61040 158.000
13.63035 136.000
13.65029 110.000
13.67024 138.000
13.69019 161.000
13.71013 127.000
13.73008 157.000
13.75003 146.000
13.76998 164.000
13.78992 128.000
13.80987 149.000
13.82982 151.000
13.84976 164.000
13.86971 147.000
13.88966 153.000
13.90960 166.000
13.92955 160.000
13.94950 171.000
13.96945 145.000
13.98939 139.000
14.00934 153.000
14.02929 140.000
14.04923 115.000
14.06918 188.000
14.08913 155.000
14.10907 176.000
14.12902 137.000
14.14897 150.000
14.16892 146.000
14.18886 127.000
14.20881 165.000
14.22876 161.000
14.24870 152.000
14.26865 136.000
14.28860 147.000
14.30854 159.000
14.32849 135.000
14.34844 165.000
14.36838 154.000
14.38833 139.000
14.40828 152.000
14.42823 169.000
14.44817 142.000
14.46812 141.000
14.48807 146.000
14.50801 162.000
14.52796 154.000
14.54791 132.000
14.56785 146.000
14.58780 154.000
14.60775 141.000
14.62770 137.000
14.64764 153.000
14.66759 155.000
14.68754 151.000
14.70748 144.000
14.72743 157.000
14.74738 151.000
14.76732 140.000
14.78727 162.000
14.80722 167.000
14.82716 167.000
14.84711 140.000
14.86706 152.000
14.88701 180.000
14.90695 142.000
14.92690 162.000
14.94685 136.000
14.96679 167.000
14.98674 160.000
15.00669 180.000
15.02663 160.000
15.04658 168.000
15.06653 139.000
15.08648 155.000
15.10642 146.000
15.12637 168.000
15.14632 172.000
15.16626 161.000
15.18621 167.000
15.20616 170.000
15.22610 169.000
15.24605 185.000
15.26600 187.000
15.28594 174.000
15.30589 163.000
15.32584 181.000
15.34579 165.000
15.36573 194.000
15.38568 182.000
15.40563 181.000
15.42557 165.000
15.44552 156.000
15.46547 170.000
15.48541 157.000
15.50536 184.000
15.52531 161.000
15.54526 175.000
15.56520 178.000
15.58515 169.000
15.60510 169.000
15.62504 173.000
15.64499 185.000
15.66494 191.000
15.68488 158.000
15.70483 175.000
15.72478 189.000
15.74472 177.000
15.76467 163.000
15.78462 196.000
15.80457 177.000
15.82451 168.000
15.84446 182.000
15.86441 188.000
15.88435 184.000
15.90430 168.000
15.92425 195.000
15.94419 187.000
15.96414 187.000
15.98409 186.000
16.00404 186.000
16.02398 179.000
16.04393 194.000
16.06388 195.000
16.08382 197.000
16.10377 213.000
16.12372 198.000
16.14366 183.000
16.16361 179.000
16.18356 213.000
16.20351 186.000
16.22345 224.000
16.24340 190.000
16.26335 208.000
16.28329 218.000
16.30324 206.000
16.32319 234.000
16.34313 250.000
16.36308 217.000
16.38303 188.000
16.40297 219.000
16.42292 181.000
16.44287 191.000
16.46282 200.000
16.48276 198.000
16.50271 220.000
16.52266 194.000
16.54260 219.000
16.56255 219.000
16.58250 216.000
16.60244 224.000
16.62239 267.000
16.64234 221.000
16.66229 225.000
16.68223 246.000
16.70218 202.000
16.72213 215.000
16.74207 223.000
16.76202 224.000
16.78197 244.000
16.80191 245.000
16.82186 223.000
16.84181 227.000
16.86175 223.000
16.88170 233.000
16.90165 222.000
16.92160 232.000
16.94154 263.000
16.96149 234.000
16.98144 223.000
17.00138 242.000
17.02133 244.000
17.04128 218.000
17.06122 267.000
17.08117 296.000
17.10112 264.000
17.12107 254.000
17.14101 226.000
17.16096 258.000
17.18091 244.000
17.20085 241.000
17.22080 239.000
17.24075 273.000
17.26069 234.000
17.28064 246.000
17.30059 253.000
17.32053 278.000
17.34048 256.000
17.36043 283.000
17.38038 291.000
17.40032 279.000
17.42027 262.000
17.44022 265.000
17.46016 275.000
17.48011 274.000
17.50006 267.000
17.52000 276.000
17.53995 309.000
17.55990 278.000
17.57985 296.000
17.59979 298.000
17.61974 264.000
17.63969 276.000
17.65963 216.000
17.67958 309.000
17.69953 297.000
17.71947 315.000
17.73942 319.000
17.75937 291.000
17.77932 302.000
17.79926 312.000
17.81921 292.000
17.83916 308.000
17.85910 342.000
17.87905 338.000
17.89900 332.000
17.91894 307.000
17.93889 309.000
17.95884 340.000
17.97878 295.000
17.99873 314.000
18.01868 329.000
18.03863 306.000
18.05857 349.000
18.07852 316.000
18.09847 296.000
18.11841 362.000
18.13836 336.000
18.15831 292.000
18.17825 342.000
18.19820 383.000
18.21815 331.000
18.23810 316.000
18.25804 356.000
18.27799 352.000
18.29794 309.000
18.31788 345.000
18.33783 340.000
18.35778 339.000
18.37772 341.000
18.39767 356.000
18.41762 323.000
18.43756 364.000
18.45751 343.000
18.47746 381.000
18.49741 330.000
18.51735 399.000
18.53730 371.000
18.55725 411.000
18.57719 362.000
18.59714 344.000
18.61709 341.000
18.63703 370.000
18.65698 339.000
18.67693 381.000
18.69688 393.000
18.71682 376.000
18.73677 347.000
18.75672 361.000
18.77666 345.000
18.79661 357.000
18.81656 382.000
18.83650 362.000
18.85645 390.000
18.87640 392.000
18.89634 376.000
18.91629 410.000
18.93624 383.000
18.95619 367.000
18.97613 392.000
18.99608 397.000
19.01603 395.000
19.03597 384.000
19.05592 391.000
19.07587 396.000
19.09581 381.000
19.11576 416.000
19.13571 423.000
19.15566 406.000
19.17560 369.000
19.19555 430.000
19.21550 395.000
19.23544 414.000
19.25539 408.000
19.27534 413.000
19.29528 393.000
19.31523 406.000
19.33518 417.000
19.35513 385.000
19.37507 407.000
19.39502 430.000
19.41497 405.000
19.43491 455.000
19.45486 437.000
19.47481 408.000
19.49475 397.000
19.51470 446.000
19.53465 451.000
19.55459 428.000
19.57454 425.000
19.59449 462.000
19.61444 422.000
19.63438 432.000
19.65433 446.000
19.67428 426.000
19.69422 439.000
19.71417 420.000
19.73412 450.000
19.75406 403.000
19.77401 441.000
19.79396 476.000
19.81391 460.000
19.83385 459.000
19.85380 476.000
19.87375 481.000
19.89369 485.000
19.91364 469.000
19.93359 463.000
19.95353 491.000
19.97348 440.000
19.99343 495.000
20.01337 457.000
20.03332 471.000
20.05327 425.000
20.07322 450.000
20.09316 464.000
20.11311 424.000
20.13306 441.000
20.15300 457.000
20.17295 490.000
20.19290 443.000
20.21284 493.000
20.23279 528.000
20.25274 450.000
20.27269 469.000
20.29263 451.000
20.31258 449.000
20.33253 496.000
20.35247 484.000
20.37242 454.000
20.39237 517.000
20.41231 451.000
20.43226 500.000
20.45221 513.000
20.47215 479.000
20.49210 495.000
20.51205 475.000
20.53200 500.000
20.55194 535.000
20.57189 510.000
20.59184 499.000
20.61178 495.000
20.63173 508.000
20.65168 497.000
20.67162 457.000
20.69157 494.000
20.71152 518.000
20.73147 498.000
20.75141 475.000
20.77136 498.000
20.79131 519.000
20.81125 510.000
20.83120 527.000
20.85115 481.000
20.87109 486.000
20.89104 494.000
20.91099 516.000
20.93094 522.000
20.95088 534.000
20.97083 485.000
20.99078 519.000
21.01072 494.000
21.03067 506.000
21.05062 531.000
21.07056 501.000
21.09051 519.000
21.11046 498.000
21.13040 508.000
21.15035 536.000
21.17030 521.000
21.19025 484.000
21.21019 504.000
21.23014 480.000
21.25009 539.000
21.27003 537.000
21.28998 514.000
21.30993 545.000
21.32987 537.000
21.34982 503.000
21.36977 537.000
21.38972 460.000
21.40966 544.000
21.42961 506.000
21.44956 550.000
21.46950 569.000
21.48945 548.000
21.50940 524.000
21.52934 550.000
21.54929 556.000
21.56924 525.000
21.58918 530.000
21.60913 538.000
21.62908 499.000
21.64903 492.000
21.66897 552.000
21.68892 534.000
21.70887 500.000
21.72881 527.000
21.74876 524.000
21.76871 555.000
21.78865 543.000
21.80860 543.000
21.82855 609.000
21.84850 540.000
21.86844 528.000
21.88839 552.000
21.90834 569.000
21.92828 539.000
21.94823 594.000
21.96818 558.000
21.98812 546.000
22.00807 506.000
22.02802 565.000
22.04796 554.000
22.06791 561.000
22.08786 566.000
22.10781 516.000
22.12775 525.000
22.14770 567.000
22.16765 586.000
22.18759 541.000
22.20754 550.000
22.22749 634.000
22.24743 597.000
22.26738 595.000
22.28733 580.000
22.30728 552.000
22.32722 520.000
22.34717 613.000
22.36712 588.000
22.38706 614.000
22.40701 545.000
22.42696 575.000
22.44690 557.000
22.46685 578.000
22.48680 578.000
22.50675 535.000
22.52669 595.000
22.54664 601.000
22.56659 587.000
22.58653 608.000
22.60648 549.000
22.62643 575.000
22.64637 605.000
22.66632 591.000
22.68627 601.000
22.70621 614.000
22.72616 575.000
22.74611 630.000
22.76606 619.000
22.78600 609.000
22.80595 633.000
22.82590 621.000
22.84584 623.000
22.86579 634.000
22.88574 630.000
22.90568 582.000
22.92563 634.000
22.94558 617.000
22.96553 608.000
22.98547 601.000
23.00542 612.000
23.02537 639.000
23.04531 592.000
23.06526 627.000
23.08521 618.000
23.10515 633.000
23.12510 643.000
23.14505 635.000
23.16499 614.000
23.18494 566.000
23.20489 663.000
23.22484 643.000
23.24478 655.000
23.26473 650.000
23.28468 646.000
23.30462 635.000
23.32457 618.000
23.34452 615.000
23.36446 591.000
23.38441 668.000
23.40436 636.000
23.42431 649.000
23.44425 600.000
23.46420 667.000
23.48415 684.000
23.50409 652.000
23.52404 660.000
23.54399 672.000
23.56393 623.000
23.58388 695.000
23.60383 656.000
23.62377 669.000
23.64372 669.000
23.66367 682.000
23.68362 696.000
23.70356 640.000
23.72351 653.000
23.74346 706.000
23.76340 657.000
23.78335 648.000
23.80330 707.000
23.82324 681.000
23.84319 698.000
23.86314 638.000
23.88309 705.000
23.90303 704.000
23.92298 661.000
23.94293 693.000
23.96287 725.000
23.98282 690.000
24.00277 711.000
24.02271 693.000
24.04266 726.000
24.06261 710.000
24.08256 726.000
24.10250 672.000
24.12245 679.000
24.14240 701.000
24.16234 725.000
24.18229 723.000
24.20224 729.000
24.22218 711.000
24.24213 733.000
24.26208 687.000
24.28202 701.000
24.30197 726.000
24.32192 715.000
24.34187 686.000
24.36181 758.000
24.38176 674.000
24.40171 675.000
24.42165 754.000
24.44160 705.000
24.46155 727.000
24.48149 695.000
24.50144 740.000
24.52139 755.000
24.54134 709.000
24.56128 717.000
24.58123 718.000
24.60118 755.000
24.62112 729.000
24.64107 748.000
24.66102 755.000
24.68096 786.000
24.70091 738.000
24.72086 711.000
24.74080 752.000
24.76075 756.000
24.78070 772.000
24.80065 740.000
24.82059 750.000
24.84054 807.000
24.86049 763.000
24.88043 741.000
24.90038 731.000
24.92033 783.000
24.94027 797.000
24.96022 755.000
24.98017 797.000
25.00012 756.000
25.02006 779.000
25.04001 807.000
25.05996 865.000
25.07990 799.000
25.09985 817.000
25.11980 791.000
25.13974 811.000
25.15969 759.000
25.17964 799.000
25.19958 764.000
25.21953 768.000
25.23948 777.000
25.25943 814.000
25.27937 804.000
25.29932 823.000
25.31927 799.000
25.33921 830.000
25.35916 903.000
25.37911 786.000
25.39905 844.000
25.41900 839.000
25.43895 815.000
25.45890 868.000
25.47884 846.000
25.49879 850.000
25.51874 838.000
25.53868 801.000
25.55863 838.000
25.57858 800.000
25.59852 861.000
25.61847 833.000
25.63842 805.000
25.65837 790.000
25.67831 878.000
25.69826 828.000
25.71821 878.000
25.73815 785.000
25.75810 885.000
25.77805 940.000
25.79799 920.000
25.81794 828.000
25.83789 818.000
25.85783 952.000
25.87778 878.000
25.89773 893.000
25.91768 819.000
25.93762 833.000
25.95757 864.000
25.97752 882.000
25.99746 862.000
26.01741 882.000
26.03736 920.000
26.05730 910.000
26.07725 927.000
26.09720 934.000
26.11715 971.000
26.13709 894.000
26.15704 864.000
26.17699 876.000
26.19693 864.000
26.21688 878.000
26.23683 954.000
26.25677 911.000
26.27672 986.000
26.29667 923.000
26.31661 909.000
26.33656 992.000
26.35651 975.000
26.37646 909.000
26.39640 929.000
26.41635 925.000
26.43630 906.000
26.45624 922.000
26.47619 935.000
26.49614 979.000
26.51608 949.000
26.53603 924.000
26.55598 1009.000
26.57593 971.000
26.59587 950.000
26.61582 1012.000
26.63577 967.000
26.65571 940.000
26.67566 981.000
26.69561 1087.000
26.71555 994.000
26.73550 981.000
26.75545 1001.000
26.77539 995.000
26.79534 1016.000
26.81529 986.000
26.83524 1018.000
26.85518 1012.000
26.87513 993.000
26.89508 1046.000
26.91502 1072.000
26.93497 1035.000
26.95492 1018.000
26.97486 1078.000
26.99481 1047.000
27.01476 1049.000
27.03471 1014.000
27.05465 1051.000
27.07460 1024.000
27.09455 1029.000
27.11449 1059.000
27.13444 1034.000
27.15439 1000.000
27.17433 1061.000
27.19428 1029.000
27.21423 1071.000
27.23417 1054.000
27.25412 1037.000
27.27407 1068.000
27.29402 1088.000
27.31396 1082.000
27.33391 1136.000
27.35386 1094.000
27.37380 1082.000
27.39375 1126.000
27.41370 1123.000
27.43364 1090.000
27.45359 1156.000
27.47354 1079.000
27.49349 1083.000
27.51343 1121.000
27.53338 1132.000
27.55333 1110.000
27.57327 1135.000
27.59322 1034.000
27.61317 1082.000
27.63311 1124.000
27.65306 1111.000
27.67301 1080.000
27.69296 1075.000
27.71290 1163.000
27.73285 1113.000
27.75280 1102.000
27.77274 1162.000
27.79269 1093.000
27.81264 1169.000
27.83258 1156.000
27.85253 1082.000
27.87248 1138.000
27.89242 1161.000
27.91237 1120.000
27.93232 1138.000
27.95227 1150.000
27.97221 1193.000
27.99216 1177.000
28.01211 1165.000
28.03205 1142.000
28.05200 1152.000
28.07195 1145.000
28.09189 1143.000
28.11184 1183.000
28.13179 1172.000
28.15174 1163.000
28.17168 1159.000
28.19163 1135.000
28.21158 1143.000
28.23152 1170.000
28.25147 1196.000
28.27142 1172.000
28.29136 1177.000
28.31131 1157.000
28.33126 1178.000
28.35120 1139.000
28.37115 1111.000
28.39110 1180.000
28.41105 1140.000
28.43099 1159.000
28.45094 1194.000
28.47089 1231.000
28.49083 1148.000
28.51078 1178.000
28.53073 1213.000
28.55067 1173.000
28.57062 1135.000
28.59057 1184.000
28.61052 1194.000
28.63046 1209.000
28.65041 1253.000
28.67036 1156.000
28.69030 1187.000
28.71025 1128.000
28.73020 1219.000
28.75014 1255.000
28.77009 1166.000
28.79004 1166.000
28.80998 1257.000
28.82993 1176.000
28.84988 1242.000
28.86983 1158.000
28.88977 1163.000
28.90972 1178.000
28.92967 1217.000
28.94961 1186.000
28.96956 1232.000
28.98951 1183.000
29.00945 1269.000
29.02940 1247.000
29.04935 1125.000
29.06930 1216.000
29.08924 1229.000
29.10919 1320.000
29.12914 1205.000
29.14908 1236.000
29.16903 1217.000
29.18898 1199.000
29.20892 1254.000
29.22887 1219.000
29.24882 1233.000
29.26877 1183.000
29.28871 1212.000
29.30866 1197.000
29.32861 1227.000
29.34855 1170.000
29.36850 1197.000
29.38845 1234.000
29.40839 1210.000
29.42834 1219.000
29.44829 1213.000
29.46823 1150.000
29.48818 1303.000
29.50813 1160.000
29.52808 1217.000
29.54802 1150.000
29.56797 1251.000
29.58792 1216.000
29.60786 1239.000
29.62781 1230.000
29.64776 1228.000
29.66770 1165.000
29.68765 1153.000
29.70760 1148.000
29.72755 1272.000
29.74749 1246.000
29.76744 1174.000
29.78739 1202.000
29.80733 1253.000
29.82728 1183.000
29.84723 1228.000
29.86717 1244.000
29.88712 1146.000
29.90707 1104.000
29.92701 1237.000
29.94696 1237.000
29.96691 1252.000
29.98686 1221.000
30.00680 1239.000
30.02675 1157.000
30.04670 1189.000
30.06664 1189.000
30.08659 1169.000
30.10654 1230.000
30.12648 1189.000
30.14643 1271.000
30.16638 1258.000
30.18633 1220.000
30.20627 1194.000
30.22622 1189.000
30.24617 1155.000
30.26611 1258.000
30.28606 1268.000
30.30601 1131.000
30.32595 1244.000
30.34590 1187.000
30.36585 1161.000
30.38579 1166.000
30.40574 1171.000
30.42569 1186.000
30.44564 1184.000
30.46558 1163.000
30.48553 1223.000
30.50548 1202.000
30.52542 1153.000
30.54537 1206.000
30.56532 1178.000
30.58526 1158.000
30.60521 1139.000
30.62516 1191.000
30.64511 1212.000
30.66505 1287.000
30.68500 1235.000
30.70495 1159.000
30.72489 1210.000
30.74484 1205.000
30.76479 1130.000
30.78473 1139.000
30.80468 1225.000
30.82463 1145.000
30.84458 1199.000
30.86452 1181.000
30.88447 1217.000
30.90442 1232.000
30.92436 1157.000
30.94431 1157.000
30.96426 1167.000
30.98420 1199.000
31.00415 1172.000
31.02410 1143.000
31.04404 1162.000
31.06399 1162.000
31.08394 1139.000
31.10389 1188.000
31.12383 1147.000
31.14378 1138.000
31.16373 1205.000
31.18367 1166.000
31.20362 1124.000
31.22357 1177.000
31.24351 1135.000
31.26346 1223.000
31.28341 1178.000
31.30336 1171.000
31.32330 1253.000
31.34325 1140.000
31.36320 1241.000
31.38314 1181.000
31.40309 1175.000
31.42304 1151.000
31.44298 1094.000
31.46293 1156.000
31.48288 1090.000
31.50282 1142.000
31.52277 1187.000
31.54272 1114.000
31.56267 1189.000
31.58261 1157.000
31.60256 1158.000
31.62251 1159.000
31.64245 1139.000
31.66240 1136.000
31.68235 1150.000
31.70229 1114.000
31.72224 1122.000
31.74219 1078.000
31.76214 1131.000
31.78208 1124.000
31.80203 1138.000
31.82198 1056.000
31.84192 1137.000
31.86187 1125.000
31.88182 1114.000
31.90176 1123.000
31.92171 1154.000
31.94166 1111.000
31.96160 1178.000
31.98155 1158.000
32.00150 1103.000
32.02145 1120.000
32.04139 1172.000
32.06134 1155.000
32.08129 1117.000
32.10123 1157.000
32.12118 1198.000
32.14113 1144.000
32.16107 1094.000
32.18102 1161.000
32.20097 1101.000
32.22092 1143.000
32.24086 1042.000
32.26081 1088.000
32.28076 1080.000
32.30070 1120.000
32.32065 1111.000
32.34060 1103.000
32.36054 1156.000
32.38049 1101.000
32.40044 1030.000
32.42039 1057.000
32.44033 1076.000
32.46028 1102.000
32.48023 1051.000
32.50017 1043.000
32.52012 1060.000
32.54007 1103.000
32.56001 1021.000
32.57996 1017.000
32.59991 1098.000
32.61985 1089.000
32.63980 1049.000
32.65975 1051.000
32.67970 1092.000
32.69964 1009.000
32.71959 1064.000
32.73954 1047.000
32.75948 1058.000
32.77943 936.000
32.79938 1036.000
32.81932 1040.000
32.83927 1008.000
32.85922 1009.000
32.87917 1016.000
32.89911 1047.000
32.91906 1051.000
32.93901 1018.000
32.95895 1040.000
32.97890 1013.000
32.99885 996.000
33.01879 1017.000
33.03874 977.000
33.05869 1015.000
33.07863 1061.000
33.09858 1002.000
33.11853 1022.000
33.13848 958.000
33.15842 969.000
33.17837 992.000
33.19832 1004.000
33.21826 1015.000
33.23821 951.000
33.25816 956.000
33.27810 997.000
33.29805 976.000
33.31800 992.000
33.33795 994.000
33.35789 954.000
33.37784 1028.000
33.39779 962.000
33.41773 953.000
33.43768 991.000
33.45763 992.000
33.47757 942.000
33.49752 975.000
33.51747 983.000
33.53741 954.000
33.55736 943.000
33.57731 1009.000
33.59726 1013.000
33.61720 963.000
33.63715 988.000
33.65710 1010.000
33.67704 930.000
33.69699 953.000
33.71694 950.000
33.73688 917.000
33.75683 947.000
33.77678 929.000
33.79673 894.000
33.81667 948.000
33.83662 951.000
33.85657 939.000
33.87651 922.000
33.89646 920.000
33.91641 925.000
33.93635 868.000
33.95630 939.000
33.97625 942.000
33.99620 915.000
34.01614 923.000
34.03609 890.000
34.05604 905.000
34.07598 944.000
34.09593 913.000
34.11588 901.000
34.13582 968.000
34.15577 932.000
34.17572 904.000
34.19566 896.000
34.21561 918.000
34.23556 910.000
34.25551 921.000
34.27545 864.000
34.29540 942.000
34.31535 909.000
34.33529 923.000
34.35524 946.000
34.37519 993.000
34.39513 906.000
34.41508 934.000
34.43503 886.000
34.45498 923.000
34.47492 900.000
34.49487 906.000
34.51482 969.000
34.53476 959.000
34.55471 975.000
34.57466 925.000
34.59460 883.000
34.61455 925.000
34.63450 924.000
34.65444 992.000
34.67439 938.000
34.69434 925.000
34.71429 943.000
34.73423 954.000
34.75418 977.000
34.77413 937.000
34.79407 1060.000
34.81402 1010.000
34.83397 1113.000
34.85391 1121.000
34.87386 1127.000
34.89381 1154.000
34.91376 1274.000
34.93370 1327.000
34.95365 1302.000
34.97360 1381.000
34.99354 1427.000
35.01349 1512.000
35.03344 1477.000
35.05338 1542.000
35.07333 1503.000
35.09328 1520.000
35.11322 1493.000
35.13317 1411.000
35.15312 1432.000
35.17307 1373.000
35.19301 1350.000
35.21296 1233.000
35.23291 1233.000
35.25285 1182.000
35.27280 1091.000
35.29275 1125.000
35.31269 1034.000
35.33264 944.000
35.35259 980.000
35.37254 899.000
35.39248 892.000
35.41243 895.000
35.43238 826.000
35.45232 867.000
35.47227 853.000
35.49222 863.000
35.51216 893.000
35.53211 855.000
35.55206 866.000
35.57201 840.000
35.59195 857.000
35.61190 842.000
35.63185 838.000
35.65179 816.000
35.67174 774.000
35.69169 791.000
35.71163 795.000
35.73158 842.000
35.75153 885.000
35.77147 777.000
35.79142 822.000
35.81137 773.000
35.83132 771.000
35.85126 846.000
35.87121 849.000
35.89116 807.000
35.91110 788.000
35.93105 799.000
35.95100 775.000
35.97094 815.000
35.99089 754.000
36.01084 758.000
36.03079 866.000
36.05073 785.000
36.07068 826.000
36.09063 744.000
36.11057 781.000
36.13052 798.000
36.15047 825.000
36.17041 780.000
36.19036 749.000
36.21031 751.000
36.23025 811.000
36.25020 760.000
36.27015 778.000
36.29010 799.000
36.31004 787.000
36.32999 761.000
36.34994 779.000
36.36988 819.000
36.38983 785.000
36.40978 855.000
36.42972 784.000
36.44967 788.000
36.46962 768.000
36.48957 779.000
36.50951 797.000
36.52946 773.000
36.54941 826.000
36.56935 825.000
36.58930 758.000
36.60925 770.000
36.62919 794.000
36.64914 793.000
36.66909 774.000
36.68903 774.000
36.70898 821.000
36.72893 762.000
36.74888 738.000
36.76882 792.000
36.78877 806.000
36.80872 751.000
36.82866 730.000
36.84861 749.000
36.86856 756.000
36.88850 798.000
36.90845 759.000
36.92840 771.000
36.94835 809.000
36.96829 741.000
36.98824 773.000
37.00819 797.000
37.02813 778.000
37.04808 787.000
37.06803 782.000
37.08797 776.000
37.10792 802.000
37.12787 715.000
37.14781 757.000
37.16776 727.000
37.18771 758.000
37.20766 745.000
37.22760 771.000
37.24755 780.000
37.26750 817.000
37.28744 758.000
37.30739 840.000
37.32734 737.000
37.34728 733.000
37.36723 793.000
37.38718 731.000
37.40713 770.000
37.42707 819.000
37.44702 803.000
37.46697 780.000
37.48691 759.000
37.50686 726.000
37.52681 778.000
37.54675 777.000
37.56670 766.000
37.58665 766.000
37.60660 793.000
37.62654 780.000
37.64649 796.000
37.66644 790.000
37.68638 796.000
37.70633 754.000
37.72628 804.000
37.74622 839.000
37.76617 823.000
37.78612 797.000
37.80606 825.000
37.82601 769.000
37.84596 800.000
37.86591 918.000
37.88585 851.000
37.90580 925.000
37.92575 917.000
37.94569 900.000
37.96564 907.000
37.98559 942.000
38.00553 950.000
38.02548 955.000
38.04543 1000.000
38.06538 995.000
38.08532 1007.000
38.10527 1099.000
38.12522 1102.000
38.14516 1235.000
38.16511 1212.000
38.18506 1300.000
38.20500 1293.000
38.22495 1343.000
38.24490 1426.000
38.26484 1465.000
38.28479 1511.000
38.30474 1495.000
38.32469 1394.000
38.34463 1471.000
38.36458 1424.000
38.38453 1302.000
38.40447 1247.000
38.42442 1299.000
38.44437 1295.000
38.46431 1278.000
38.48426 1158.000
38.50421 1212.000
38.52416 1129.000
38.54410 1099.000
38.56405 1084.000
38.58400 1018.000
38.60394 963.000
38.62389 923.000
38.64384 875.000
38.66378 849.000
38.68373 873.000
38.70368 790.000
38.72362 867.000
38.74357 836.000
38.76352 799.000
38.78347 816.000
38.80341 792.000
38.82336 750.000
38.84331 822.000
38.86325 817.000
38.88320 837.000
38.90315 807.000
38.92309 803.000
38.94304 720.000
38.96299 739.000
38.98294 790.000
39.00288 763.000
39.02283 806.000
39.04278 774.000
39.06272 828.000
39.08267 778.000
39.10262 764.000
39.12256 744.000
39.14251 760.000
39.16246 749.000
39.18241 766.000
39.20235 761.000
39.22230 763.000
39.24225 708.000
39.26219 772.000
39.28214 736.000
39.30209 767.000
39.32203 755.000
39.34198 738.000
39.36193 723.000
39.38187 778.000
39.40182 750.000
39.42177 760.000
39.44172 814.000
39.46166 779.000
39.48161 720.000
39.50156 763.000
39.52150 711.000
39.54145 790.000
39.56140 700.000
39.58134 787.000
39.60129 759.000
39.62124 803.000
39.64119 723.000
39.66113 747.000
39.68108 809.000
39.70103 734.000
39.72097 747.000
39.74092 792.000
39.76087 815.000
39.78081 767.000
39.80076 785.000
39.82071 765.000
39.84065 760.000
39.86060 787.000
39.88055 731.000
39.90050 749.000
39.92044 796.000
39.94039 752.000
39.96034 755.000
39.98028 720.000
40.00023 758.000
40.02018 753.000
40.04012 784.000
40.06007 744.000
40.08002 730.000
40.09997 741.000
40.11991 788.000
40.13986 742.000
40.15981 789.000
40.17975 785.000
40.19970 779.000
40.21965 793.000
40.23959 780.000
40.25954 745.000
40.27949 757.000
40.29943 789.000
40.31938 772.000
40.33933 733.000
40.35928 786.000
40.37922 764.000
40.39917 790.000
40.41912 737.000
40.43906 754.000
40.45901 700.000
40.47896 763.000
40.49890 784.000
40.51885 750.000
40.53880 758.000
40.55875 809.000
40.57869 727.000
40.59864 704.000
40.61859 739.000
40.63853 740.000
40.65848 795.000
40.67843 774.000
40.69837 779.000
40.71832 778.000
40.73827 746.000
40.75822 750.000
40.77816 814.000
40.79811 730.000
40.81806 730.000
40.83800 751.000
40.85795 780.000
40.87790 787.000
40.89784 752.000
40.91779 774.000
40.93774 726.000
40.95768 755.000
40.97763 744.000
40.99758 787.000
41.01753 733.000
41.03747 734.000
41.05742 778.000
41.07737 755.000
41.09731 734.000
41.11726 777.000
41.13721 808.000
41.15715 775.000
41.17710 725.000
41.19705 685.000
41.21700 762.000
41.23694 752.000
41.25689 736.000
41.27684 756.000
41.29678 748.000
41.31673 722.000
41.33668 747.000
41.35662 758.000
41.37657 725.000
41.39652 766.000
41.41646 741.000
41.43641 772.000
41.45636 747.000
41.47631 754.000
41.49625 772.000
41.51620 709.000
41.53615 737.000
41.55609 758.000
41.57604 729.000
41.59599 787.000
41.61593 792.000
41.63588 761.000
41.65583 711.000
41.67578 779.000
41.69572 750.000
41.71567 733.000
41.73562 718.000
41.75556 778.000
41.77551 747.000
41.79546 746.000
41.81540 780.000
41.83535 745.000
41.85530 743.000
41.87524 745.000
41.89519 784.000
41.91514 704.000
41.93509 784.000
41.95503 759.000
41.97498 747.000
41.99493 729.000
42.01487 733.000
42.03482 782.000
42.05477 761.000
42.07471 697.000
42.09466 738.000
42.11461 775.000
42.13456 712.000
42.15450 735.000
42.17445 767.000
42.19440 719.000
42.21434 715.000
42.23429 708.000
42.25424 800.000
42.27418 754.000
42.29413 669.000
42.31408 734.000
42.33403 710.000
42.35397 715.000
42.37392 695.000
42.39387 712.000
42.41381 686.000
42.43376 735.000
42.45371 715.000
42.47365 701.000
42.49360 708.000
42.51355 735.000
42.53349 729.000
42.55344 679.000
42.57339 727.000
42.59334 661.000
42.61328 716.000
42.63323 725.000
42.65318 717.000
42.67312 739.000
42.69307 717.000
42.71302 764.000
42.73296 690.000
42.75291 714.000
42.77286 772.000
42.79281 711.000
42.81275 709.000
42.83270 726.000
42.85265 709.000
42.87259 727.000
42.89254 730.000
42.91249 739.000
42.93243 724.000
42.95238 699.000
42.97233 767.000
42.99227 691.000
43.01222 747.000
43.03217 671.000
43.05212 695.000
43.07206 671.000
43.09201 743.000
43.11196 681.000
43.13190 689.000
43.15185 727.000
43.17180 674.000
43.19174 673.000
43.21169 705.000
43.23164 686.000
43.25159 643.000
43.27153 670.000
43.29148 701.000
43.31143 689.000
43.33137 652.000
43.35132 718.000
43.37127 680.000
43.39121 694.000
43.41116 696.000
43.43111 707.000
43.45105 670.000
43.47100 660.000
43.49095 677.000
43.51090 678.000
43.53084 668.000
43.55079 708.000
43.57074 687.000
43.59068 692.000
43.61063 708.000
43.63058 684.000
43.65052 698.000
43.67047 692.000
43.69042 679.000
43.71037 625.000
43.73031 712.000
43.75026 717.000
43.77021 727.000
43.79015 707.000
43.81010 678.000
43.83005 694.000
43.84999 681.000
43.86994 681.000
43.88989 652.000
43.90984 666.000
43.92978 687.000
43.94973 650.000
43.96968 679.000
43.98962 626.000
44.00957 689.000
44.02952 637.000
44.04946 652.000
44.06941 698.000
44.08936 704.000
44.10930 686.000
44.12925 637.000
44.14920 674.000
44.16915 679.000
44.18909 644.000
44.20904 640.000
44.22899 646.000
44.24893 689.000
44.26888 645.000
44.28883 651.000
44.30877 646.000
44.32872 694.000
44.34867 598.000
44.36862 679.000
44.38856 618.000
44.40851 680.000
44.42846 676.000
44.44840 685.000
44.46835 626.000
44.48830 665.000
44.50824 642.000
44.52819 631.000
44.54814 649.000
44.56808 621.000
44.58803 649.000
44.60798 574.000
44.62793 629.000
44.64787 616.000
44.66782 631.000
44.68777 675.000
44.70771 659.000
44.72766 580.000
44.74761 597.000
44.76755 638.000
44.78750 633.000
44.80745 646.000
44.82740 644.000
44.84734 653.000
44.86729 653.000
44.88724 648.000
44.90718 599.000
44.92713 616.000
44.94708 654.000
44.96702 670.000
44.98697 629.000
45.00692 645.000
45.02686 625.000
45.04681 601.000
45.06676 583.000
45.08671 611.000
45.10665 628.000
45.12660 630.000
45.14655 636.000
45.16649 605.000
45.18644 547.000
45.20639 601.000
45.22633 646.000
45.24628 582.000
45.26623 586.000
45.28618 604.000
45.30612 637.000
45.32607 638.000
45.34602 570.000
45.36596 644.000
45.38591 574.000
45.40586 639.000
45.42580 582.000
45.44575 615.000
45.46570 563.000
45.48565 637.000
45.50559 640.000
45.52554 621.000
45.54549 586.000
45.56543 620.000
45.58538 563.000
45.60533 604.000
45.62527 656.000
45.64522 560.000
45.66517 596.000
45.68511 595.000
45.70506 604.000
45.72501 600.000
45.74496 620.000
45.76490 567.000
45.78485 636.000
45.80480 604.000
45.82474 609.000
45.84469 617.000
45.86464 591.000
45.88458 648.000
45.90453 590.000
45.92448 548.000
45.94443 603.000
45.96437 604.000
45.98432 639.000
46.00427 638.000
46.02421 579.000
46.04416 578.000
46.06411 580.000
46.08405 589.000
46.10400 571.000
46.12395 563.000
46.14389 542.000
46.16384 582.000
46.18379 581.000
46.20374 539.000
46.22368 615.000
46.24363 565.000
46.26358 585.000
46.28352 578.000
46.30347 581.000
46.32342 599.000
46.34336 572.000
46.36331 557.000
46.38326 576.000
46.40321 526.000
46.42315 530.000
46.44310 557.000
46.46305 563.000
46.48299 591.000
46.50294 593.000
46.52289 610.000
46.54283 545.000
46.56278 557.000
46.58273 565.000
46.60267 594.000
46.62262 577.000
46.64257 588.000
46.66252 582.000
46.68246 539.000
46.70241 542.000
46.72236 551.000
46.74230 584.000
46.76225 562.000
46.78220 562.000
46.80214 559.000
46.82209 531.000
46.84204 593.000
46.86199 545.000
46.88193 575.000
46.90188 520.000
46.92183 514.000
46.94177 532.000
46.96172 553.000
46.98167 559.000
47.00161 534.000
47.02156 565.000
47.04151 551.000
47.06146 531.000
47.08140 557.000
47.10135 517.000
47.12130 538.000
47.14124 568.000
47.16119 527.000
47.18114 576.000
47.20108 572.000
47.22103 553.000
47.24098 586.000
47.26092 550.000
47.28087 583.000
47.30082 523.000
47.32077 544.000
47.34071 563.000
47.36066 537.000
47.38061 521.000
47.40055 533.000
47.42050 517.000
47.44045 546.000
47.46039 558.000
47.48034 574.000
47.50029 567.000
47.52024 513.000
47.54018 569.000
47.56013 581.000
47.58008 543.000
47.60002 550.000
47.61997 557.000
47.63992 530.000
47.65986 540.000
47.67981 508.000
47.69976 548.000
47.71970 566.000
47.73965 574.000
47.75960 577.000
47.77955 563.000
47.79949 559.000
47.81944 523.000
47.83939 568.000
47.85933 583.000
47.87928 561.000
47.89923 553.000
47.91917 578.000
47.93912 577.000
47.95907 557.000
47.97902 603.000
47.99896 562.000
48.01891 638.000
48.03886 633.000
48.05880 638.000
48.07875 606.000
48.09870 620.000
48.11864 647.000
48.13859 631.000
48.15854 675.000
48.17848 669.000
48.19843 660.000
48.21838 684.000
48.23833 726.000
48.25827 746.000
48.27822 686.000
48.29817 713.000
48.31811 777.000
48.33806 709.000
48.35801 729.000
48.37795 684.000
48.39790 714.000
48.41785 674.000
48.43780 682.000
48.45774 654.000
48.47769 621.000
48.49764 614.000
48.51758 581.000
48.53753 608.000
48.55748 584.000
48.57742 599.000
48.59737 556.000
48.61732 585.000
48.63726 527.000
48.65721 516.000
48.67716 516.000
48.69711 528.000
48.71705 568.000
48.73700 542.000
48.75695 527.000
48.77689 503.000
48.79684 514.000
48.81679 514.000
48.83673 549.000
48.85668 491.000
48.87663 545.000
48.89658 505.000
48.91652 539.000
48.93647 537.000
48.95642 512.000
48.97636 509.000
48.99631 533.000
49.01626 488.000
49.03620 544.000
49.05615 493.000
49.07610 510.000
49.09605 541.000
49.11599 533.000
49.13594 525.000
49.15589 528.000
49.17583 520.000
49.19578 526.000
49.21573 503.000
49.23567 513.000
49.25562 511.000
49.27557 479.000
49.29551 508.000
49.31546 494.000
49.33541 537.000
49.35536 512.000
49.37530 512.000
49.39525 521.000
49.41520 516.000
49.43514 484.000
49.45509 497.000
49.47504 511.000
49.49498 517.000
49.51493 506.000
49.53488 484.000
49.55483 496.000
49.57477 465.000
49.59472 498.000
49.61467 512.000
49.63461 512.000
49.65456 548.000
49.67451 495.000
49.69445 516.000
49.71440 487.000
49.73435 499.000
49.75429 475.000
49.77424 422.000
49.79419 537.000
49.81414 514.000
49.83408 511.000
49.85403 498.000
49.87398 482.000
49.89392 483.000
49.91387 467.000
49.93382 485.000
49.95376 490.000
49.97371 485.000
49.99366 520.000
50.01361 494.000
50.03355 469.000
50.05350 518.000
50.07345 535.000
50.09339 479.000
50.11334 500.000
50.13329 491.000
50.15323 481.000
50.17318 501.000
50.19313 522.000
50.21307 509.000
50.23302 452.000
50.25297 507.000
50.27292 464.000
50.29286 509.000
50.31281 502.000
50.33276 521.000
50.35270 486.000
50.37265 481.000
50.39260 500.000
50.41254 496.000
50.43249 475.000
50.45244 516.000
50.47239 513.000
50.49233 517.000
50.51228 480.000
50.53223 488.000
50.55217 483.000
50.57212 502.000
50.59207 475.000
50.61201 523.000
50.63196 480.000
50.65191 483.000
50.67186 492.000
50.69180 520.000
50.71175 477.000
50.73170 508.000
50.75164 532.000
50.77159 486.000
50.79154 517.000
50.81148 486.000
50.83143 485.000
50.85138 445.000
50.87132 526.000
50.89127 482.000
50.91122 469.000
50.93117 459.000
50.95111 515.000
50.97106 498.000
50.99101 459.000
51.01095 508.000
51.03090 495.000
51.05085 486.000
51.07079 491.000
51.09074 442.000
51.11069 449.000
51.13064 475.000
51.15058 483.000
51.17053 472.000
51.19048 500.000
51.21042 475.000
51.23037 504.000
51.25032 482.000
51.27026 504.000
51.29021 506.000
51.31016 469.000
51.33010 464.000
51.35005 495.000
51.37000 477.000
51.38995 481.000
51.40989 453.000
51.42984 460.000
51.44979 475.000
51.46973 487.000
51.48968 501.000
51.50963 495.000
51.52957 448.000
51.54952 466.000
51.56947 454.000
51.58942 468.000
51.60936 484.000
51.62931 475.000
51.64926 519.000
51.66920 491.000
51.68915 495.000
51.70910 457.000
51.72904 469.000
51.74899 458.000
51.76894 455.000
51.78888 488.000
51.80883 484.000
51.82878 464.000
51.84873 469.000
51.86867 439.000
51.88862 476.000
51.90857 497.000
51.92851 482.000
51.94846 486.000
51.96841 485.000
51.98835 453.000
52.00830 528.000
52.02825 490.000
52.04820 445.000
52.06814 456.000
52.08809 442.000
52.10804 475.000
52.12798 480.000
52.14793 528.000
52.16788 449.000
52.18782 455.000
52.20777 486.000
52.22772 494.000
52.24767 494.000
52.26761 472.000
52.28756 495.000
52.30751 461.000
52.32745 488.000
52.34740 500.000
52.36735 450.000
52.38729 508.000
52.40724 469.000
52.42719 457.000
52.44713 465.000
52.46708 443.000
52.48703 446.000
52.50698 512.000
52.52692 481.000
52.54687 485.000
52.56682 457.000
52.58676 442.000
52.60671 492.000
52.62666 481.000
52.64660 490.000
52.66655 512.000
52.68650 501.000
52.70645 487.000
52.72639 544.000
52.74634 505.000
52.76629 486.000
52.78623 483.000
52.80618 498.000
52.82613 504.000
52.84607 524.000
52.86602 518.000
52.88597 534.000
52.90591 519.000
52.92586 525.000
52.94581 510.000
52.96576 503.000
52.98570 538.000
53.00565 535.000
53.02560 506.000
53.04554 505.000
53.06549 515.000
53.08544 495.000
53.10538 531.000
53.12533 476.000
53.14528 506.000
53.16523 536.000
53.18517 503.000
53.20512 503.000
53.22507 476.000
53.24501 471.000
53.26496 463.000
53.28491 463.000
53.30485 508.000
53.32480 475.000
53.34475 491.000
53.36469 471.000
53.38464 436.000
53.40459 463.000
53.42454 467.000
53.44448 469.000
53.46443 462.000
53.48438 435.000
53.50432 473.000
53.52427 487.000
53.54422 487.000
53.56416 474.000
53.58411 464.000
53.60406 443.000
53.62401 454.000
53.64395 430.000
53.66390 443.000
53.68385 430.000
53.70379 442.000
53.72374 434.000
53.74369 495.000
53.76363 478.000
53.78358 462.000
53.80353 444.000
53.82348 466.000
53.84342 460.000
53.86337 482.000
53.88332 527.000
53.90326 517.000
53.92321 436.000
53.94316 435.000
53.96310 478.000
53.98305 463.000
54.00300 450.000
54.02294 474.000
54.04289 449.000
54.06284 484.000
54.08279 465.000
54.10273 447.000
54.12268 450.000
54.14263 475.000
54.16257 455.000
54.18252 489.000
54.20247 457.000
54.22241 440.000
54.24236 461.000
54.26231 520.000
54.28226 447.000
54.30220 486.000
54.32215 451.000
54.34210 457.000
54.36204 415.000
54.38199 469.000
54.40194 479.000
54.42188 457.000
54.44183 429.000
54.46178 431.000
54.48172 431.000
54.50167 469.000
54.52162 489.000
54.54157 423.000
54.56151 428.000
54.58146 457.000
54.60141 406.000
54.62135 485.000
54.64130 446.000
54.66125 423.000
54.68119 396.000
54.70114 426.000
54.72109 467.000
54.74104 443.000
54.76098 444.000
54.78093 448.000
54.80088 465.000
54.82082 420.000
54.84077 445.000
54.86072 431.000
54.88066 424.000
54.90061 471.000
54.92056 468.000
54.94050 451.000
54.96045 470.000
54.98040 478.000
55.00035 462.000
55.02029 426.000
55.04024 427.000
55.06019 431.000
55.08013 421.000
55.10008 435.000
55.12003 461.000
55.13997 420.000
55.15992 442.000
55.17987 494.000
55.19982 451.000
55.21976 447.000
55.23971 483.000
55.25966 437.000
55.27960 431.000
55.29955 403.000
55.31950 443.000
55.33944 465.000
55.35939 432.000
55.37934 438.000
55.39929 476.000
55.41923 444.000
55.43918 414.000
55.45913 458.000
55.47907 455.000
55.49902 455.000
55.51897 425.000
55.53891 456.000
55.55886 441.000
55.57881 386.000
55.59875 390.000
55.61870 410.000
55.63865 418.000
55.65860 413.000
55.67854 458.000
55.69849 428.000
55.71844 440.000
55.73838 400.000
55.75833 440.000
55.77828 447.000
55.79822 464.000
55.81817 427.000
55.83812 455.000
55.85807 443.000
55.87801 426.000
55.89796 451.000
55.91791 468.000
55.93785 418.000
55.95780 457.000
55.97775 435.000
55.99769 429.000
56.01764 419.000
56.03759 427.000
56.05753 441.000
56.07748 460.000
56.09743 451.000
56.11738 483.000
56.13732 413.000
56.15727 462.000
56.17722 433.000
56.19716 443.000
56.21711 447.000
56.23706 407.000
56.25700 420.000
56.27695 461.000
56.29690 430.000
56.31685 458.000
56.33679 411.000
56.35674 448.000
56.37669 425.000
56.39663 463.000
56.41658 459.000
56.43653 408.000
56.45647 423.000
56.47642 447.000
56.49637 412.000
56.51631 416.000
56.53626 413.000
56.55621 419.000
56.57616 413.000
56.59610 476.000
56.61605 445.000
56.63600 444.000
56.65594 456.000
56.67589 434.000
56.69584 428.000
56.71578 388.000
56.73573 408.000
56.75568 436.000
56.77563 511.000
56.79557 443.000
56.81552 408.000
56.83547 442.000
56.85541 430.000
56.87536 434.000
56.89531 431.000
56.91525 399.000
56.93520 457.000
56.95515 433.000
56.97510 411.000
56.99504 420.000
57.01499 446.000
57.03494 418.000
57.05488 418.000
57.07483 379.000
57.09478 431.000
57.11472 438.000
57.13467 434.000
57.15462 445.000
57.17456 450.000
57.19451 446.000
57.21446 448.000
57.23441 484.000
57.25435 401.000
57.27430 423.000
57.29425 419.000
57.31419 412.000
57.33414 404.000
57.35409 448.000
57.37403 443.000
57.39398 409.000
57.41393 450.000
57.43388 432.000
57.45382 472.000
57.47377 437.000
57.49372 465.000
57.51366 463.000
57.53361 468.000
57.55356 465.000
57.57350 466.000
57.59345 481.000
57.61340 476.000
57.63334 459.000
57.65329 496.000
57.67324 481.000
57.69319 482.000
57.71313 541.000
57.73308 501.000
57.75303 548.000
57.77297 465.000
57.79292 489.000
57.81287 546.000
57.83281 492.000
57.85276 518.000
57.87271 487.000
57.89266 509.000
57.91260 511.000
57.93255 499.000
57.95250 515.000
57.97244 468.000
57.99239 515.000
58.01234 481.000
58.03228 485.000
58.05223 494.000
58.07218 505.000
58.09212 436.000
58.11207 487.000
58.13202 437.000
58.15197 423.000
58.17191 449.000
58.19186 455.000
58.21181 419.000
58.23175 450.000
58.25170 454.000
58.27165 422.000
58.29159 406.000
58.31154 446.000
58.33149 426.000
58.35144 413.000
58.37138 398.000
58.39133 419.000
58.41128 397.000
58.43122 432.000
58.45117 427.000
58.47112 409.000
58.49106 430.000
58.51101 408.000
58.53096 412.000
58.55090 473.000
58.57085 394.000
58.59080 426.000
58.61075 409.000
58.63069 420.000
58.65064 436.000
58.67059 444.000
58.69053 429.000
58.71048 382.000
58.73043 386.000
58.75037 399.000
58.77032 403.000
58.79027 415.000
58.81022 410.000
58.83016 446.000
58.85011 422.000
58.87006 424.000
58.89000 412.000
58.90995 408.000
58.92990 429.000
58.94984 417.000
58.96979 415.000
58.98974 426.000
59.00969 413.000
59.02963 409.000
59.04958 430.000
59.06953 427.000
59.08947 399.000
59.10942 409.000
59.12937 417.000
59.14931 365.000
59.16926 392.000
59.18921 428.000
59.20915 430.000
59.22910 399.000
59.24905 436.000
59.26900 418.000
59.28894 427.000
59.30889 389.000
59.32884 418.000
59.34878 418.000
59.36873 406.000
59.38868 398.000
59.40862 405.000
59.42857 424.000
59.44852 387.000
59.46847 395.000
59.48841 449.000
59.50836 400.000
59.52831 433.000
59.54825 404.000
59.56820 414.000
59.58815 423.000
59.60809 453.000
59.62804 415.000
59.64799 389.000
59.66793 384.000
59.68788 432.000
59.70783 449.000
59.72778 424.000
59.74772 397.000
59.76767 401.000
59.78762 414.000
59.80756 404.000
59.82751 388.000
59.84746 395.000
59.86740 391.000
59.88735 400.000
59.90730 383.000
59.92725 408.000
59.94719 387.000
59.96714 416.000
59.98709 407.000
60.00703 389.000
60.02698 403.000
60.04693 383.000
60.06687 451.000
60.08682 396.000
60.10677 431.000
60.12671 420.000
60.14666 418.000
60.16661 401.000
60.18656 422.000
60.20650 425.000
60.22645 446.000
60.24640 401.000
60.26634 362.000
60.28629 374.000
60.30624 420.000
60.32618 426.000
60.34613 422.000
60.36608 419.000
60.38603 419.000
60.40597 438.000
60.42592 411.000
60.44587 451.000
60.46581 438.000
60.48576 406.000
60.50571 399.000
60.52565 380.000
60.54560 422.000
60.56555 392.000
60.58550 399.000
60.60544 435.000
60.62539 429.000
60.64534 435.000
60.66528 447.000
60.68523 440.000
60.70518 429.000
60.72512 455.000
60.74507 422.000
60.76502 441.000
60.78496 441.000
60.80491 472.000
60.82486 496.000
60.84481 457.000
60.86475 467.000
60.88470 494.000
60.90465 496.000
60.92459 504.000
60.94454 527.000
60.96449 498.000
60.98443 514.000
61.00438 542.000
61.02433 570.000
61.04428 571.000
61.06422 549.000
61.08417 556.000
61.10412 555.000
61.12406 558.000
61.14401 555.000
61.16396 570.000
61.18390 606.000
61.20385 570.000
61.22380 584.000
61.24374 472.000
61.26369 486.000
61.28364 469.000
61.30359 500.000
61.32353 486.000
61.34348 481.000
61.36343 441.000
61.38337 445.000
61.40332 449.000
61.42327 417.000
61.44321 456.000
61.46316 396.000
61.48311 424.000
61.50306 401.000
61.52300 430.000
61.54295 424.000
61.56290 397.000
61.58284 434.000
61.60279 408.000
61.62274 401.000
61.64268 416.000
61.66263 381.000
61.68258 401.000
61.70252 401.000
61.72247 340.000
61.74242 364.000
61.76237 424.000
61.78231 408.000
61.80226 374.000
61.82221 412.000
61.84215 395.000
61.86210 420.000
61.88205 434.000
61.90199 392.000
61.92194 395.000
61.94189 385.000
61.96184 422.000
61.98178 366.000
62.00173 432.000
62.02168 383.000
62.04162 379.000
62.06157 415.000
62.08152 400.000
62.10146 423.000
62.12141 387.000
62.14136 340.000
62.16131 387.000
62.18125 389.000
62.20120 425.000
62.22115 380.000
62.24109 429.000
62.26104 415.000
62.28099 390.000
62.30093 367.000
62.32088 370.000
62.34083 416.000
62.36077 389.000
62.38072 343.000
62.40067 405.000
62.42062 386.000
62.44056 366.000
62.46051 386.000
62.48046 344.000
62.50040 379.000
62.52035 372.000
62.54030 377.000
62.56024 369.000
62.58019 412.000
62.60014 404.000
62.62009 402.000
62.64003 407.000
62.65998 398.000
62.67993 395.000
62.69987 412.000
62.71982 400.000
62.73977 385.000
62.75971 388.000
62.77966 405.000
62.79961 417.000
62.81955 418.000
62.83950 413.000
62.85945 404.000
62.87940 399.000
62.89934 426.000
62.91929 395.000
62.93924 415.000
62.95918 447.000
62.97913 397.000
62.99908 406.000
63.01902 412.000
63.03897 427.000
63.05892 379.000
63.07887 374.000
63.09881 421.000
63.11876 396.000
63.13871 403.000
63.15865 395.000
63.17860 412.000
63.19855 424.000
63.21849 391.000
63.23844 398.000
63.25839 433.000
63.27833 408.000
63.29828 395.000
63.31823 371.000
63.33818 342.000
63.35812 389.000
63.37807 396.000
63.39802 357.000
63.41796 398.000
63.43791 396.000
63.45786 387.000
63.47780 394.000
63.49775 382.000
63.51770 372.000
63.53765 409.000
63.55759 411.000
63.57754 388.000
63.59749 410.000
63.61743 374.000
63.63738 374.000
63.65733 371.000
63.67727 384.000
63.69722 376.000
63.71717 396.000
63.73712 373.000
63.75706 401.000
63.77701 390.000
63.79696 386.000
63.81690 400.000
63.83685 386.000
63.85680 390.000
63.87674 383.000
63.89669 411.000
63.91664 356.000
63.93658 421.000
63.95653 415.000
63.97648 405.000
63.99643 410.000
64.01637 405.000
64.03632 361.000
64.05627 361.000
64.07621 370.000
64.09616 394.000
64.11611 390.000
64.13605 412.000
64.15600 397.000
64.17595 390.000
64.19590 422.000
64.21584 389.000
64.23579 390.000
64.25574 374.000
64.27568 363.000
64.29563 405.000
64.31558 421.000
64.33552 396.000
64.35547 367.000
64.37542 382.000
64.39536 402.000
64.41531 399.000
64.43526 391.000
64.45521 422.000
64.47515 376.000
64.49510 392.000
64.51505 397.000
64.53499 370.000
64.55494 416.000
64.57489 381.000
64.59483 387.000
64.61478 422.000
64.63473 406.000
64.65468 394.000
64.67462 420.000
64.69457 387.000
64.71452 401.000
64.73446 392.000
64.75441 383.000
64.77436 390.000
64.79430 379.000
64.81425 389.000
64.83420 425.000
64.85414 394.000
64.87409 426.000
64.89404 408.000
64.91399 404.000
64.93393 430.000
64.95388 429.000
64.97383 425.000
64.99377 414.000
65.01372 437.000
65.03367 438.000
65.05361 437.000
65.07356 438.000
65.09351 430.000
65.11346 439.000
65.13340 425.000
65.15335 422.000
65.17330 446.000
65.19324 430.000
65.21319 458.000
65.23314 489.000
65.25308 435.000
65.27303 487.000
65.29298 495.000
65.31293 468.000
65.33287 494.000
65.35282 499.000
65.37277 539.000
65.39271 524.000
65.41266 507.000
65.43261 484.000
65.45255 518.000
65.47250 536.000
65.49245 502.000
65.51239 516.000
65.53234 516.000
65.55229 534.000
65.57224 522.000
65.59218 508.000
65.61213 488.000
65.63208 544.000
65.65202 527.000
65.67197 494.000
65.69192 480.000
65.71186 533.000
65.73181 536.000
65.75176 555.000
65.77171 579.000
65.79165 553.000
65.81160 502.000
65.83155 515.000
65.85149 520.000
65.87144 525.000
65.89139 495.000
65.91133 505.000
65.93128 487.000
65.95123 484.000
65.97117 492.000
65.99112 474.000
66.01107 470.000
66.03102 472.000
66.05096 460.000
66.07091 433.000
66.09086 457.000
66.11080 447.000
66.13075 411.000
66.15070 468.000
66.17064 441.000
66.19059 448.000
66.21054 425.000
66.23049 415.000
66.25043 418.000
66.27038 361.000
66.29033 424.000
66.31027 409.000
66.33022 354.000
66.35017 391.000
66.37011 393.000
66.39006 379.000
66.41001 367.000
66.42995 365.000
66.44990 411.000
66.46985 406.000
66.48980 413.000
66.50974 417.000
66.52969 339.000
66.54964 383.000
66.56958 383.000
66.58953 368.000
66.60948 334.000
66.62942 401.000
66.64937 384.000
66.66932 376.000
66.68927 346.000
66.70921 389.000
66.72916 407.000
66.74911 397.000
66.76905 395.000
66.78900 389.000
66.80895 397.000
66.82889 400.000
66.84884 404.000
66.86879 375.000
66.88874 387.000
66.90868 410.000
66.92863 422.000
66.94858 378.000
66.96852 367.000
66.98847 401.000
67.00842 400.000
67.02836 381.000
67.04831 449.000
67.06826 413.000
67.08820 392.000
67.10815 394.000
67.12810 428.000
67.14805 428.000
67.16799 413.000
67.18794 439.000
67.20789 437.000
67.22783 448.000
67.24778 448.000
67.26773 432.000
67.28767 451.000
67.30762 483.000
67.32757 457.000
67.34752 492.000
67.36746 492.000
67.38741 465.000
67.40736 477.000
67.42730 483.000
67.44725 522.000
67.46720 490.000
67.48714 481.000
67.50709 498.000
67.52704 536.000
67.54698 516.000
67.56693 533.000
67.58688 545.000
67.60683 547.000
67.62677 557.000
67.64672 536.000
67.66667 507.000
67.68661 545.000
67.70656 555.000
67.72651 525.000
67.74645 522.000
67.76640 519.000
67.78635 519.000
67.80630 432.000
67.82624 448.000
67.84619 492.000
67.86614 444.000
67.88608 441.000
67.90603 442.000
67.92598 481.000
67.94592 424.000
67.96587 401.000
67.98582 406.000
68.00576 433.000
68.02571 385.000
68.04566 411.000
68.06561 408.000
68.08555 396.000
68.10550 408.000
68.12545 363.000
68.14539 412.000
68.16534 412.000
68.18529 407.000
68.20523 400.000
68.22518 378.000
68.24513 405.000
68.26508 362.000
68.28502 419.000
68.30497 373.000
68.32492 335.000
68.34486 387.000
68.36481 390.000
68.38476 376.000
68.40470 394.000
68.42465 392.000
68.44460 377.000
68.46455 403.000
68.48449 369.000
68.50444 412.000
68.52439 412.000
68.54433 407.000
68.56428 386.000
68.58423 394.000
68.60417 359.000
68.62412 385.000
68.64407 377.000
68.66401 375.000
68.68396 392.000
68.70391 400.000
68.72386 401.000
68.74380 363.000
68.76375 370.000
68.78370 336.000
68.80364 348.000
68.82359 403.000
68.84354 380.000
68.86348 376.000
68.88343 365.000
68.90338 395.000
68.92333 384.000
68.94327 401.000
68.96322 369.000
68.98317 389.000
69.00311 388.000
69.02306 362.000
69.04301 356.000
69.06295 381.000
69.08290 368.000
69.10285 395.000
69.12279 381.000
69.14274 379.000
69.16269 345.000
69.18264 381.000
69.20258 382.000
69.22253 396.000
69.24248 393.000
69.26242 384.000
69.28237 387.000
69.30232 331.000
69.32226 329.000
69.34221 400.000
69.36216 353.000
69.38211 339.000
69.40205 386.000
69.42200 387.000
69.44195 396.000
69.46189 378.000
69.48184 388.000
69.50179 357.000
69.52173 378.000
69.54168 353.000
69.56163 382.000
69.58157 369.000
69.60152 383.000
69.62147 357.000
69.64142 392.000
69.66136 385.000
69.68131 372.000
69.70126 365.000
69.72120 376.000
69.74115 371.000
69.76110 370.000
69.78104 408.000
69.80099 353.000
69.82094 372.000
69.84089 355.000
69.86083 350.000
69.88078 391.000
69.90073 395.000
69.92067 348.000
69.94062 392.000
69.96057 376.000
69.98051 349.000
70.00046 413.000
70.02041 391.000
70.04035 334.000
70.06030 366.000
70.08025 371.000
70.10020 365.000
70.12014 377.000
70.14009 366.000
70.16004 347.000
70.17998 374.000
70.19993 397.000
70.21988 384.000
70.23982 405.000
70.25977 369.000
70.27972 395.000
70.29967 378.000
70.31961 378.000
70.33956 380.000
70.35951 383.000
70.37945 353.000
70.39940 383.000
70.41935 391.000
70.43929 376.000
70.45924 368.000
70.47919 379.000
70.49914 369.000
70.51908 345.000
70.53903 369.000
70.55898 346.000
70.57892 372.000
70.59887 357.000
70.61882 391.000
70.63876 369.000
70.65871 364.000
70.67866 378.000
70.69860 346.000
70.71855 404.000
70.73850 381.000
70.75845 382.000
70.77839 381.000
70.79834 395.000
70.81829 379.000
70.83823 405.000
70.85818 350.000
70.87813 349.000
70.89807 397.000
70.91802 351.000
70.93797 397.000
70.95792 365.000
70.97786 379.000
70.99781 387.000
71.01776 398.000
71.03770 368.000
71.05765 354.000
71.07760 367.000
71.09754 398.000
71.11749 387.000
71.13744 387.000
71.15738 387.000
71.17733 357.000
71.19728 367.000
71.21723 393.000
71.23717 356.000
71.25712 383.000
71.27707 381.000
71.29701 346.000
71.31696 390.000
71.33691 375.000
71.35685 346.000
71.37680 356.000
71.39675 377.000
71.41670 375.000
71.43664 367.000
71.45659 383.000
71.47654 352.000
71.49648 428.000
71.51643 380.000
71.53638 367.000
71.55632 405.000
71.57627 363.000
71.59622 370.000
71.61616 383.000
71.63611 416.000
71.65606 417.000
71.67601 384.000
71.69595 437.000
71.71590 393.000
71.73585 419.000
71.75579 422.000
71.77574 425.000
71.79569 407.000
71.81563 436.000
71.83558 425.000
71.85553 439.000
71.87548 457.000
71.89542 421.000
71.91537 415.000
71.93532 456.000
71.95526 447.000
71.97521 413.000
71.99516 457.000
72.01510 394.000
72.03505 414.000
72.05500 460.000
72.07495 405.000
72.09489 422.000
72.11484 422.000
72.13479 421.000
72.15473 431.000
72.17468 399.000
72.19463 385.000
72.21457 379.000
72.23452 430.000
72.25447 412.000
72.27441 395.000
72.29436 381.000
72.31431 402.000
72.33426 416.000
72.35420 427.000
72.37415 371.000
72.39410 384.000
72.41404 415.000
72.43399 395.000
72.45394 403.000
72.47388 354.000
72.49383 403.000
72.51378 376.000
72.53373 374.000
72.55367 418.000
72.57362 369.000
72.59357 393.000
72.61351 363.000
72.63346 388.000
72.65341 365.000
72.67335 362.000
72.69330 359.000
72.71325 390.000
72.73319 379.000
72.75314 348.000
72.77309 371.000
72.79304 357.000
72.81298 381.000
72.83293 399.000
72.85288 354.000
72.87282 394.000
72.89277 405.000
72.91272 368.000
72.93266 366.000
72.95261 348.000
72.97256 377.000
72.99251 347.000
73.01245 340.000
73.03240 364.000
73.05235 345.000
73.07229 363.000
73.09224 357.000
73.11219 363.000
73.13213 380.000
73.15208 379.000
73.17203 368.000
73.19197 386.000
73.21192 353.000
73.23187 345.000
73.25182 378.000
73.27176 367.000
73.29171 401.000
73.31166 349.000
73.33160 372.000
73.35155 346.000
73.37150 353.000
73.39144 416.000
73.41139 369.000
73.43134 411.000
73.45129 347.000
73.47123 386.000
73.49118 340.000
73.51113 386.000
73.53107 337.000
73.55102 361.000
73.57097 341.000
73.59091 355.000
73.61086 391.000
73.63081 351.000
73.65076 376.000
73.67070 395.000
73.69065 395.000
73.71060 360.000
73.73054 379.000
73.75049 330.000
73.77044 373.000
73.79038 395.000
73.81033 388.000
73.83028 345.000
73.85022 357.000
73.87017 373.000
73.89012 340.000
73.91007 386.000
73.93001 370.000
73.94996 368.000
73.96991 381.000
73.98985 360.000
74.00980 368.000
74.02975 366.000
74.04969 382.000
74.06964 344.000
74.08959 352.000
74.10954 399.000
74.12948 367.000
74.14943 351.000
74.16938 403.000
74.18932 374.000
74.20927 385.000
74.22922 416.000
74.24916 418.000
74.26911 394.000
74.28906 439.000
74.30900 442.000
74.32895 392.000
74.34890 437.000
74.36885 399.000
74.38879 456.000
74.40874 424.000
74.42869 391.000
74.44863 422.000
74.46858 453.000
74.48853 386.000
74.50847 455.000
74.52842 475.000
74.54837 459.000
74.56832 440.000
74.58826 430.000
74.60821 434.000
74.62816 453.000
74.64810 463.000
74.66805 436.000
74.68800 444.000
74.70794 475.000
74.72789 448.000
74.74784 429.000
74.76778 439.000
74.78773 441.000
74.80768 462.000
74.82763 479.000
74.84757 419.000
74.86752 419.000
74.88747 421.000
74.90741 393.000
74.92736 470.000
74.94731 406.000
74.96725 435.000
74.98720 402.000
75.00715 390.000
75.02710 371.000
75.04704 366.000
75.06699 399.000
75.08694 392.000
75.10688 380.000
75.12683 417.000
75.14678 368.000
75.16672 371.000
75.18667 365.000
75.20662 385.000
75.22657 391.000
75.24651 404.000
75.26646 366.000
75.28641 387.000
75.30635 375.000
75.32630 393.000
75.34625 382.000
75.36619 359.000
75.38614 374.000
75.40609 386.000
75.42603 342.000
75.44598 380.000
75.46593 416.000
75.48588 386.000
75.50582 374.000
75.52577 340.000
75.54572 376.000
75.56566 383.000
75.58561 367.000
75.60556 365.000
75.62550 369.000
75.64545 361.000
75.66540 364.000
75.68535 329.000
75.70529 347.000
75.72524 369.000
75.74519 379.000
75.76513 358.000
75.78508 357.000
75.80503 366.000
75.82497 355.000
75.84492 336.000
75.86487 316.000
75.88481 366.000
75.90476 374.000
75.92471 347.000
75.94466 367.000
75.96460 370.000
75.98455 367.000
76.00450 353.000
76.02444 337.000
76.04439 345.000
76.06434 367.000
76.08428 375.000
76.10423 366.000
76.12418 357.000
76.14413 347.000
76.16407 396.000
76.18402 387.000
76.20397 404.000
76.22391 357.000
76.24386 401.000
76.26381 355.000
76.28375 405.000
76.30370 355.000
76.32365 350.000
76.34359 347.000
76.36354 374.000
76.38349 356.000
76.40344 360.000
76.42338 359.000
76.44333 368.000
76.46328 389.000
76.48322 364.000
76.50317 313.000
76.52312 380.000
76.54306 338.000
76.56301 385.000
76.58296 351.000
76.60291 362.000
76.62285 376.000
76.64280 356.000
76.66275 362.000
76.68269 346.000
76.70264 336.000
76.72259 343.000
76.74253 347.000
76.76248 321.000
76.78243 358.000
76.80238 343.000
76.82232 361.000
76.84227 357.000
76.86222 366.000
76.88216 371.000
76.90211 396.000
76.92206 377.000
76.94200 382.000
76.96195 373.000
76.98190 349.000
77.00184 328.000
77.02179 361.000
77.04174 350.000
77.06169 346.000
77.08163 357.000
77.10158 360.000
77.12153 369.000
77.14147 325.000
77.16142 344.000
77.18137 341.000
77.20131 355.000
77.22126 335.000
77.24121 369.000
77.26116 374.000
77.28110 380.000
77.30105 343.000
77.32100 385.000
77.34094 338.000
77.36089 362.000
77.38084 408.000
77.40078 367.000
77.42073 375.000
77.44068 362.000
77.46062 350.000
77.48057 359.000
77.50052 374.000
77.52047 375.000
77.54041 396.000
77.56036 354.000
77.58031 376.000
77.60025 335.000
77.62020 372.000
77.64015 373.000
77.66009 364.000
77.68004 387.000
77.69999 334.000
77.71994 346.000
77.73988 364.000
77.75983 347.000
77.77978 378.000
77.79972 363.000
77.81967 387.000
77.83962 395.000
77.85956 368.000
77.87951 357.000
77.89946 343.000
77.91940 367.000
77.93935 342.000
77.95930 373.000
77.97925 342.000
77.99919 384.000
78.01914 389.000
78.03909 371.000
78.05903 338.000
78.07898 373.000
78.09893 385.000
78.11887 341.000
78.13882 347.000
78.15877 370.000
78.17872 362.000
78.19866 382.000
78.21861 387.000
78.23856 394.000
78.25850 391.000
78.27845 346.000
78.29840 348.000
78.31834 383.000
78.33829 386.000
78.35824 372.000
78.37819 351.000
78.39813 346.000
78.41808 353.000
78.43803 364.000
78.45797 314.000
78.47792 338.000
78.49787 367.000
78.51781 363.000
78.53776 382.000
78.55771 360.000
78.57765 359.000
78.59760 361.000
78.61755 335.000
78.63750 381.000
78.65744 386.000
78.67739 362.000
78.69734 358.000
78.71728 383.000
78.73723 357.000
78.75718 365.000
78.77712 398.000
78.79707 339.000
78.81702 380.000
78.83697 386.000
78.85691 363.000
78.87686 342.000
78.89681 371.000
78.91675 365.000
78.93670 324.000
78.95665 313.000
78.97659 334.000
78.99654 374.000
79.01649 381.000
79.03643 364.000
79.05638 327.000
79.07633 362.000
79.09628 369.000
79.11622 361.000
79.13617 361.000
79.15612 397.000
79.17606 349.000
79.19601 355.000
79.21596 356.000
79.23590 351.000
79.25585 341.000
79.27580 367.000
79.29575 340.000
79.31569 392.000
79.33564 368.000
79.35559 374.000
79.37553 354.000
79.39548 372.000
79.41543 373.000
79.43537 389.000
79.45532 346.000
79.47527 365.000
79.49521 372.000
79.51516 397.000
79.53511 392.000
79.55506 350.000
79.57500 349.000
79.59495 404.000
79.61490 393.000
79.63484 361.000
79.65479 384.000
79.67474 357.000
79.69468 387.000
79.71463 331.000
79.73458 372.000
79.75453 387.000
79.77447 347.000
79.79442 383.000
79.81437 348.000
79.83431 410.000
79.85426 397.000
79.87421 402.000
79.89415 388.000
79.91410 394.000
79.93405 388.000
79.95399 370.000
79.97394 378.000
79.99389 353.000
80.01384 379.000
80.03378 353.000
80.05373 375.000
80.07368 384.000
80.09362 388.000
80.11357 372.000
80.13352 345.000
80.15346 383.000
80.17341 355.000
80.19336 371.000
80.21331 360.000
80.23325 388.000
80.25320 362.000
80.27315 370.000
80.29309 349.000
80.31304 337.000
80.33299 354.000
80.35293 363.000
80.37288 362.000
80.39283 346.000
80.41278 338.000
80.43272 380.000
80.45267 380.000
80.47262 348.000
80.49256 360.000
80.51251 361.000
80.53246 340.000
80.55240 368.000
80.57235 383.000
80.59230 362.000
80.61224 357.000
80.63219 359.000
80.65214 425.000
80.67209 351.000
80.69203 346.000
80.71198 324.000
80.73193 342.000
80.75187 323.000
80.77182 331.000
80.79177 341.000
80.81171 339.000
80.83166 365.000
80.85161 366.000
80.87156 343.000
80.89150 356.000
80.91145 359.000
80.93140 358.000
80.95134 357.000
80.97129 334.000
80.99124 381.000
81.01118 356.000
81.03113 337.000
81.05108 350.000
81.07102 373.000
81.09097 361.000
81.11092 325.000
81.13087 351.000
81.15081 373.000
81.17076 358.000
81.19071 357.000
81.21065 366.000
81.23060 370.000
81.25055 358.000
81.27049 360.000
81.29044 372.000
81.31039 362.000
81.33034 355.000
81.35028 340.000
81.37023 402.000
81.39018 364.000
81.41012 373.000
81.43007 383.000
81.45002 390.000
81.46996 342.000
81.48991 337.000
81.50986 378.000
81.52980 375.000
81.54975 377.000
81.56970 343.000
81.58965 347.000
81.60959 348.000
81.62954 367.000
81.64949 370.000
81.66943 368.000
81.68938 360.000
81.70933 386.000
81.72927 370.000
81.74922 390.000
81.76917 384.000
81.78912 362.000
81.80906 394.000
81.82901 365.000
81.84896 384.000
81.86890 362.000
81.88885 379.000
81.90880 407.000
81.92874 380.000
81.94869 418.000
81.96864 421.000
81.98859 410.000
82.00853 353.000
82.02848 364.000
82.04843 388.000
82.06837 408.000
82.08832 364.000
82.10827 413.000
82.12821 415.000
82.14816 402.000
82.16811 380.000
82.18805 402.000
82.20800 386.000
82.22795 387.000
82.24790 364.000
82.26784 365.000
82.28779 385.000
82.30774 373.000
82.32768 378.000
82.34763 414.000
82.36758 368.000
82.38752 372.000
82.40747 394.000
82.42742 384.000
82.44737 376.000
82.46731 406.000
82.48726 428.000
82.50721 378.000
82.52715 387.000
82.54710 375.000
82.56705 385.000
82.58699 410.000
82.60694 404.000
82.62689 400.000
82.64683 388.000
82.66678 386.000
82.68673 395.000
82.70668 397.000
82.72662 402.000
82.74657 403.000
82.76652 371.000
82.78646 414.000
82.80641 403.000
82.82636 389.000
82.84630 357.000
82.86625 437.000
82.88620 403.000
82.90615 393.000
82.92609 359.000
82.94604 374.000
82.96599 388.000
82.98593 416.000
83.00588 418.000
83.02583 389.000
83.04577 384.000
83.06572 431.000
83.08567 408.000
83.10561 401.000
83.12556 377.000
83.14551 407.000
83.16546 383.000
83.18540 394.000
83.20535 390.000
83.22530 370.000
83.24524 437.000
83.26519 405.000
83.28514 367.000
83.30508 365.000
83.32503 392.000
83.34498 376.000
83.36493 389.000
83.38487 396.000
83.40482 447.000
83.42477 393.000
83.44471 366.000
83.46466 351.000
83.48461 396.000
83.50455 355.000
83.52450 393.000
83.54445 368.000
83.56440 370.000
83.58434 393.000
83.60429 383.000
83.62424 332.000
83.64418 371.000
83.66413 370.000
83.68408 353.000
83.70402 359.000
83.72397 364.000
83.74392 375.000
83.76386 330.000
83.78381 355.000
83.80376 374.000
83.82371 360.000
83.84365 400.000
83.86360 348.000
83.88355 366.000
83.90349 359.000
83.92344 381.000
83.94339 372.000
83.96333 354.000
83.98328 345.000
84.00323 373.000
84.02318 369.000
84.04312 349.000
84.06307 389.000
84.08302 370.000
84.10296 375.000
84.12291 370.000
84.14286 377.000
84.16280 396.000
84.18275 381.000
84.20270 395.000
84.22264 363.000
84.24259 320.000
84.26254 365.000
84.28249 372.000
84.30243 323.000
84.32238 408.000
84.34233 334.000
84.36227 374.000
84.38222 367.000
84.40217 368.000
84.42211 392.000
84.44206 342.000
84.46201 362.000
84.48196 343.000
84.50190 368.000
84.52185 358.000
84.54180 391.000
84.56174 360.000
84.58169 351.000
84.60164 355.000
84.62158 392.000
84.64153 359.000
84.66148 350.000
84.68142 371.000
84.70137 300.000
84.72132 325.000
84.74127 350.000
84.76121 388.000
84.78116 325.000
84.80111 346.000
84.82105 351.000
84.84100 355.000
84.86095 351.000
84.88089 388.000
84.90084 379.000
84.92079 310.000
84.94074 370.000
84.96068 380.000
84.98063 354.000
85.00058 344.000
85.02052 394.000
85.04047 354.000
85.06042 333.000
85.08036 341.000
85.10031 370.000
85.12026 330.000
85.14021 315.000
85.16015 328.000
85.18010 352.000
85.20005 386.000
85.21999 390.000
85.23994 353.000
85.25989 300.000
85.27983 326.000
85.29978 392.000
85.31973 357.000
85.33967 332.000
85.35962 359.000
85.37957 334.000
85.39952 362.000
85.41946 332.000
85.43941 346.000
85.45936 348.000
85.47930 363.000
85.49925 372.000
85.51920 343.000
85.53914 360.000
85.55909 328.000
85.57904 387.000
85.59899 364.000
85.61893 381.000
85.63888 368.000
85.65883 368.000
85.67877 375.000
85.69872 370.000
85.71867 358.000
85.73861 352.000
85.75856 346.000
85.77851 347.000
85.79845 361.000
85.81840 364.000
85.83835 365.000
85.85830 381.000
85.87824 340.000
85.89819 364.000
85.91814 388.000
85.93808 347.000
85.95803 369.000
85.97798 356.000
85.99792 343.000
86.01787 354.000
86.03782 340.000
86.05777 349.000
86.07771 347.000
86.09766 353.000
86.11761 362.000
86.13755 365.000
86.15750 388.000
86.17745 350.000
86.19739 344.000
86.21734 371.000
86.23729 394.000
86.25723 357.000
86.27718 368.000
86.29713 380.000
86.31708 378.000
86.33702 350.000
86.35697 342.000
86.37692 338.000
86.39686 355.000
86.41681 332.000
86.43676 381.000
86.45670 391.000
86.47665 368.000
86.49660 365.000
86.51655 348.000
86.53649 341.000
86.55644 360.000
86.57639 336.000
86.59633 352.000
86.61628 334.000
86.63623 356.000
86.65617 364.000
86.67612 348.000
86.69607 321.000
86.71602 358.000
86.73596 361.000
86.75591 338.000
86.77586 363.000
86.79580 357.000
86.81575 342.000
86.83570 388.000
86.85564 374.000
86.87559 366.000
86.89554 406.000
86.91548 354.000
86.93543 413.000
86.95538 369.000
86.97533 342.000
86.99527 331.000
87.01522 328.000
87.03517 372.000
87.05511 341.000
87.07506 368.000
87.09501 346.000
87.11495 363.000
87.13490 368.000
87.15485 359.000
87.17480 354.000
87.19474 343.000
87.21469 306.000
87.23464 381.000
87.25458 369.000
87.27453 298.000
87.29448 343.000
87.31442 349.000
87.33437 365.000
87.35432 361.000
87.37426 362.000
87.39421 356.000
87.41416 354.000
87.43411 338.000
87.45405 361.000
87.47400 349.000
87.49395 333.000
87.51389 355.000
87.53384 358.000
87.55379 340.000
87.57373 355.000
87.59368 370.000
87.61363 355.000
87.63358 342.000
87.65352 353.000
87.67347 368.000
87.69342 325.000
87.71336 337.000
87.73331 373.000
87.75326 374.000
87.77320 362.000
87.79315 308.000
87.81310 318.000
87.83304 358.000
87.85299 325.000
87.87294 393.000
87.89289 380.000
87.91283 335.000
87.93278 390.000
87.95273 335.000
87.97267 362.000
87.99262 338.000
88.01257 309.000
88.03251 375.000
88.05246 350.000
88.07241 359.000
88.09236 360.000
88.11230 337.000
88.13225 323.000
88.15220 346.000
88.17214 376.000
88.19209 344.000
88.21204 355.000
88.23198 320.000
88.25193 341.000
88.27188 362.000
88.29183 374.000
88.31177 378.000
88.33172 340.000
88.35167 380.000
88.37161 366.000
88.39156 337.000
88.41151 371.000
88.43145 338.000
88.45140 347.000
88.47135 335.000
88.49129 380.000
88.51124 391.000
88.53119 339.000
88.55114 347.000
88.57108 325.000
88.59103 360.000
88.61098 319.000
88.63092 341.000
88.65087 383.000
88.67082 371.000
88.69076 334.000
88.71071 386.000
88.73066 353.000
88.75061 336.000
88.77055 376.000
88.79050 347.000
88.81045 356.000
88.83039 337.000
88.85034 356.000
88.87029 315.000
88.89023 334.000
88.91018 355.000
88.93013 355.000
88.95007 344.000
88.97002 367.000
88.98997 369.000
89.00992 352.000
89.02986 329.000
89.04981 391.000
89.06976 341.000
89.08970 341.000
89.10965 362.000
89.12960 410.000
89.14954 356.000
89.16949 400.000
89.18944 344.000
89.20939 352.000
89.22933 400.000
89.24928 357.000
89.26923 359.000
89.28917 381.000
89.30912 368.000
89.32907 381.000
89.34901 374.000
89.36896 333.000
89.38891 355.000
89.40885 373.000
89.42880 362.000
89.44875 355.000
89.46870 355.000
89.48864 368.000
89.50859 351.000
89.52854 385.000
89.54848 364.000
89.56843 371.000
89.58838 348.000
89.60832 388.000
89.62827 377.000
89.64822 357.000
89.66817 412.000
89.68811 396.000
89.70806 384.000
89.72801 385.000
89.74795 396.000
89.76790 340.000
89.78785 378.000
89.80779 374.000
89.82774 369.000
89.84769 331.000
89.86764 346.000
89.88758 339.000
89.90753 347.000
89.92748 359.000
89.94742 356.000
89.96737 338.000
89.98732 343.000
90.00726 315.000
