10.00000 81.000
10.01995 85.000
10.03989 107.000
10.05984 106.000
10.07979 108.000
10.09973 105.000
10.11968 102.000
10.13963 89.000
10.15958 91.000
10.17952 95.000
10.19947 102.000
10.21942 98.000
10.23936 88.000
10.25931 70.000
10.27926 70.000
10.29920 82.000
10.31915 95.000
10.33910 78.000
10.35905 99.000
10.37899 118.000
10.39894 86.000
10.41889 94.000
10.43883 128.000
10.45878 95.000
10.47873 85.000
10.49867 107.000
10.51862 93.000
10.53857 88.000
10.55851 104.000
10.57846 92.000
10.59841 98.000
10.61836 114.000
10.63830 96.000
10.65825 107.000
10.67820 101.000
10.69814 81.000
10.71809 115.000
10.73804 79.000
10.75798 117.000
10.77793 90.000
10.79788 111.000
10.81783 85.000
10.83777 88.000
10.85772 83.000
10.87767 88.000
10.89761 92.000
10.91756 98.000
10.93751 107.000
10.95745 119.000
10.97740 104.000
10.99735 99.000
11.01730 132.000
11.03724 87.000
11.05719 93.000
11.07714 105.000
11.09708 100.000
11.11703 113.000
11.13698 102.000
11.15692 94.000
11.17687 86.000
11.19682 112.000
11.21676 101.000
11.23671 111.000
11.25666 102.000
11.27661 79.000
11.29655 108.000
11.31650 94.000
11.33645 109.000
11.35639 105.000
11.37634 96.000
11.39629 114.000
11.41623 111.000
11.43618 105.000
11.45613 120.000
11.47608 100.000
11.49602 116.000
11.51597 93.000
11.53592 104.000
11.55586 91.000
11.57581 111.000
11.59576 99.000
11.61570 114.000
11.63565 86.000
11.65560 108.000
11.67554 102.000
11.69549 111.000
11.71544 111.000
11.73539 104.000
11.75533 105.000
11.77528 94.000
11.79523 100.000
11.81517 110.000
11.83512 108.000
11.85507 114.000
11.87501 107.000
11.89496 94.000
11.91491 104.000
11.93486 98.000
11.95480 94.000
11.97475 118.000
11.99470 112.000
12.01464 121.000
12.03459 116.000
12.05454 125.000
12.07448 110.000
12.09443 119.000
12.11438 106.000
12.13432 124.000
12.15427 96.000
12.17422 121.000
12.19417 115.000
12.21411 109.000
12.23406 116.000
12.25401 135.000
12.27395 101.000
12.29390 118.000
12.31385 107.000
12.33379 112.000
12.35374 128.000
12.37369 110.000
12.39364 110.000
12.41358 115.000
12.43353 110.000
12.45348 116.000
12.47342 96.000
12.49337 107.000
12.51332 120.000
12.53326 130.000
12.55321 111.000
12.57316 113.000
12.59311 117.000
12.61305 118.000
12.63300 107.000
12.65295 145.000
12.67289 102.000
12.69284 125.000
12.71279 121.000
12.73273 129.000
12.75268 129.000
12.77263 133.000
12.79257 126.000
12.81252 128.000
12.83247 136.000
12.85242 122.000
12.87236 120.000
12.89231 108.000
12.91226 119.000
12.93220 102.000
12.95215 111.000
12.97210 103.000
12.99204 135.000
13.01199 135.000
13.03194 125.000
13.05189 134.000
13.07183 122.000
13.09178 121.000
13.11173 109.000
13.13167 138.000
13.15162 138.000
13.17157 133.000
13.19151 136.000
13.21146 112.000
13.23141 114.000
13.25135 121.000
13.27130 117.000
13.29125 129.000
13.31120 133.000
13.33114 145.000
13.35109 123.000
13.37104 119.000
13.39098 119.000
13.41093 126.000
13.43088 119.000
13.45082 126.000
13.47077 121.000
13.49072 132.000
13.51067 123.000
13.53061 116.000
13.55056 122.000
13.57051 117.000
13.59045 124.000
13.61040 115.000
13.63035 144.000
13.65029 139.000
13.67024 114.000
13.69019 115.000
13.71013 117.000
13.73008 119.000
13.75003 128.000
13.76998 129.000
13.78992 138.000
13.80987 138.000
13.82982 138.000
13.84976 129.000
13.86971 110.000
13.88966 135.000
13.90960 123.000
13.92955 150.000
13.94950 109.000
13.96945 138.000
13.98939 115.000
14.00934 127.000
14.02929 121.000
14.04923 118.000
14.06918 132.000
14.08913 137.000
14.10907 139.000
14.12902 136.000
14.14897 144.000
14.16892 133.000
14.18886 130.000
14.20881 121.000
14.22876 126.000
14.24870 120.000
14.26865 156.000
14.28860 131.000
14.30854 123.000
14.32849 136.000
14.34844 129.000
14.36838 123.000
14.38833 147.000
14.40828 146.000
14.42823 161.000
14.44817 145.000
14.46812 139.000
14.48807 136.000
14.50801 153.000
14.52796 166.000
14.54791 159.000
14.56785 125.000
14.58780 144.000
14.60775 129.000
14.62770 147.000
14.64764 161.000
14.66759 136.000
14.68754 130.000
14.70748 136.000
14.72743 142.000
14.74738 143.000
14.76732 128.000
14.78727 134.000
14.80722 141.000
14.82716 148.000
14.84711 137.000
14.86706 150.000
14.88701 155.000
14.90695 169.000
14.92690 147.000
14.94685 141.000
14.96679 153.000
14.98674 139.000
15.00669 145.000
15.02663 144.000
15.04658 148.000
15.06653 151.000
15.08648 134.000
15.10642 166.000
15.12637 181.000
15.14632 145.000
15.16626 175.000
15.18621 165.000
15.20616 158.000
15.22610 172.000
15.24605 151.000
15.26600 147.000
15.28594 168.000
15.30589 168.000
15.32584 151.000
15.34579 154.000
15.36573 156.000
15.38568 194.000
15.40563 164.000
15.42557 160.000
15.44552 164.000
15.46547 164.000
15.48541 163.000
15.50536 178.000
15.52531 173.000
15.54526 158.000
15.56520 166.000
15.58515 156.000
15.60510 181.000
15.62504 140.000
15.64499 187.000
15.66494 178.000
15.68488 154.000
15.70483 174.000
15.72478 170.000
15.74472 192.000
15.76467 173.000
15.78462 163.000
15.80457 178.000
15.82451 146.000
15.84446 183.000
15.86441 196.000
15.88435 181.000
15.90430 202.000
15.92425 183.000
15.94419 194.000
15.96414 191.000
15.98409 194.000
16.00404 173.000
16.02398 170.000
16.04393 185.000
16.06388 191.000
16.08382 190.000
16.10377 191.000
16.12372 199.000
16.14366 181.000
16.16361 170.000
16.18356 189.000
16.20351 210.000
16.22345 208.000
16.24340 181.000
16.26335 205.000
16.28329 190.000
16.30324 209.000
16.32319 157.000
16.34313 215.000
16.36308 198.000
16.38303 189.000
16.40297 197.000
16.42292 199.000
16.44287 202.000
16.46282 212.000
16.48276 236.000
16.50271 206.000
16.52266 199.000
16.54260 229.000
16.56255 245.000
16.58250 227.000
16.60244 203.000
16.62239 209.000
16.64234 231.000
16.66229 220.000
16.68223 204.000
16.70218 253.000
16.72213 212.000
16.74207 213.000
16.76202 211.000
16.78197 225.000
16.80191 221.000
16.82186 249.000
16.84181 246.000
16.86175 229.000
16.88170 255.000
16.90165 232.000
16.92160 249.000
16.94154 212.000
16.96149 226.000
16.98144 276.000
17.00138 257.000
17.02133 253.000
17.04128 270.000
17.06122 250.000
17.08117 257.000
17.10112 251.000
17.12107 240.000
17.14101 258.000
17.16096 250.000
17.18091 241.000
17.20085 247.000
17.22080 251.000
17.24075 281.000
17.26069 267.000
17.28064 260.000
17.30059 258.000
17.32053 278.000
17.34048 254.000
17.36043 316.000
17.38038 257.000
17.40032 276.000
17.42027 257.000
17.44022 298.000
17.46016 279.000
17.48011 286.000
17.50006 263.000
17.52000 305.000
17.53995 283.000
17.55990 261.000
17.57985 290.000
17.59979 300.000
17.61974 299.000
17.63969 312.000
17.65963 311.000
17.67958 338.000
17.69953 330.000
17.71947 328.000
17.73942 335.000
17.75937 300.000
17.77932 294.000
17.79926 296.000
17.81921 330.000
17.83916 331.000
17.85910 317.000
17.87905 338.000
17.89900 323.000
17.91894 365.000
17.93889 320.000
17.95884 335.000
17.97878 346.000
17.99873 350.000
18.01868 347.000
18.03863 312.000
18.05857 349.000
18.07852 325.000
18.09847 322.000
18.11841 325.000
18.13836 341.000
18.15831 357.000
18.17825 338.000
18.19820 341.000
18.21815 346.000
18.23810 338.000
18.25804 362.000
18.27799 342.000
18.29794 341.000
18.31788 372.000
18.33783 364.000
18.35778 370.000
18.37772 400.000
18.39767 359.000
18.41762 380.000
18.43756 410.000
18.45751 370.000
18.47746 422.000
18.49741 360.000
18.51735 357.000
18.53730 371.000
18.55725 381.000
18.57719 367.000
18.59714 409.000
18.61709 385.000
18.63703 327.000
18.65698 361.000
18.67693 416.000
18.69688 397.000
18.71682 381.000
18.73677 353.000
18.75672 391.000
18.77666 391.000
18.79661 410.000
18.81656 429.000
18.83650 389.000
18.85645 356.000
18.87640 404.000
18.89634 446.000
18.91629 438.000
18.93624 439.000
18.95619 426.000
18.97613 426.000
18.99608 408.000
19.01603 404.000
19.03597 454.000
19.05592 453.000
19.07587 419.000
19.09581 435.000
19.11576 463.000
19.13571 422.000
19.15566 432.000
19.17560 420.000
19.19555 446.000
19.21550 492.000
19.23544 402.000
19.25539 470.000
19.27534 450.000
19.29528 438.000
19.31523 431.000
19.33518 410.000
19.35513 447.000
19.37507 445.000
19.39502 458.000
19.41497 428.000
19.43491 436.000
19.45486 484.000
19.47481 473.000
19.49475 487.000
19.51470 439.000
19.53465 457.000
19.55459 489.000
19.57454 428.000
19.59449 446.000
19.61444 427.000
19.63438 461.000
19.65433 455.000
19.67428 471.000
19.69422 450.000
19.71417 457.000
19.73412 487.000
19.75406 501.000
19.77401 441.000
19.79396 461.000
19.81391 502.000
19.83385 478.000
19.85380 488.000
19.87375 476.000
19.89369 510.000
19.91364 463.000
19.93359 492.000
19.95353 504.000
19.97348 464.000
19.99343 510.000
20.01337 457.000
20.03332 483.000
20.05327 477.000
20.07322 513.000
20.09316 482.000
20.11311 473.000
20.13306 463.000
20.15300 503.000
20.17295 468.000
20.19290 519.000
20.21284 481.000
20.23279 515.000
20.25274 487.000
20.27269 497.000
20.29263 486.000
20.31258 508.000
20.33253 480.000
20.35247 527.000
20.37242 518.000
20.39237 491.000
20.41231 499.000
20.43226 510.000
20.45221 510.000
20.47215 538.000
20.49210 452.000
20.51205 486.000
20.53200 502.000
20.55194 521.000
20.57189 516.000
20.59184 502.000
20.61178 518.000
20.63173 573.000
20.65168 537.000
20.67162 520.000
20.69157 554.000
20.71152 560.000
20.73147 532.000
20.75141 566.000
20.77136 533.000
20.79131 543.000
20.81125 540.000
20.83120 534.000
20.85115 525.000
20.87109 557.000
20.89104 527.000
20.91099 523.000
20.93094 534.000
20.95088 578.000
20.97083 595.000
20.99078 558.000
21.01072 515.000
21.03067 550.000
21.05062 554.000
21.07056 550.000
21.09051 546.000
21.11046 532.000
21.13040 520.000
21.15035 575.000
21.17030 559.000
21.19025 546.000
21.21019 553.000
21.23014 535.000
21.25009 583.000
21.27003 571.000
21.28998 539.000
21.30993 530.000
21.32987 548.000
21.34982 532.000
21.36977 538.000
21.38972 563.000
21.40966 530.000
21.42961 597.000
21.44956 533.000
21.46950 574.000
21.48945 573.000
21.50940 578.000
21.52934 574.000
21.54929 584.000
21.56924 548.000
21.58918 605.000
21.60913 579.000
21.62908 593.000
21.64903 567.000
21.66897 568.000
21.68892 546.000
21.70887 592.000
21.72881 568.000
21.74876 573.000
21.76871 612.000
21.78865 576.000
21.80860 609.000
21.82855 561.000
21.84850 590.000
21.86844 546.000
21.88839 601.000
21.90834 595.000
21.92828 602.000
21.94823 584.000
21.96818 592.000
21.98812 631.000
22.00807 585.000
22.02802 622.000
22.04796 612.000
22.06791 586.000
22.08786 613.000
22.10781 592.000
22.12775 581.000
22.14770 591.000
22.16765 585.000
22.18759 592.000
22.20754 597.000
22.22749 577.000
22.24743 578.000
22.26738 630.000
22.28733 641.000
22.30728 599.000
22.32722 600.000
22.34717 591.000
22.36712 607.000
22.38706 591.000
22.40701 571.000
22.42696 590.000
22.44690 582.000
22.46685 652.000
22.48680 631.000
22.50675 615.000
22.52669 620.000
22.54664 611.000
22.56659 650.000
22.58653 618.000
22.60648 653.000
22.62643 637.000
22.64637 610.000
22.66632 639.000
22.68627 642.000
22.70621 611.000
22.72616 659.000
22.74611 629.000
22.76606 674.000
22.78600 588.000
22.80595 658.000
22.82590 624.000
22.84584 593.000
22.86579 682.000
22.88574 687.000
22.90568 695.000
22.92563 657.000
22.94558 666.000
22.96553 657.000
22.98547 670.000
23.00542 688.000
23.02537 623.000
23.04531 642.000
23.06526 689.000
23.08521 678.000
23.10515 644.000
23.12510 683.000
23.14505 649.000
23.16499 669.000
23.18494 679.000
23.20489 658.000
23.22484 682.000
23.24478 666.000
23.26473 640.000
23.28468 731.000
23.30462 707.000
23.32457 641.000
23.34452 717.000
23.36446 660.000
23.38441 648.000
23.40436 658.000
23.42431 671.000
23.44425 692.000
23.46420 693.000
23.48415 666.000
23.50409 717.000
23.52404 731.000
23.54399 646.000
23.56393 682.000
23.58388 729.000
23.60383 709.000
23.62377 679.000
23.64372 690.000
23.66367 711.000
23.68362 708.000
23.70356 716.000
23.72351 663.000
23.74346 717.000
23.76340 700.000
23.78335 698.000
23.80330 673.000
23.82324 685.000
23.84319 754.000
23.86314 745.000
23.88309 706.000
23.90303 733.000
23.92298 724.000
23.94293 706.000
23.96287 739.000
23.98282 730.000
24.00277 767.000
24.02271 744.000
24.04266 681.000
24.06261 715.000
24.08256 730.000
24.10250 760.000
24.12245 747.000
24.14240 787.000
24.16234 750.000
24.18229 809.000
24.20224 759.000
24.22218 810.000
24.24213 749.000
24.26208 744.000
24.28202 791.000
24.30197 801.000
24.32192 806.000
24.34187 759.000
24.36181 741.000
24.38176 755.000
24.40171 755.000
24.42165 782.000
24.44160 747.000
24.46155 801.000
24.48149 787.000
24.50144 776.000
24.52139 791.000
24.54134 817.000
24.56128 809.000
24.58123 833.000
24.60118 750.000
24.62112 768.000
24.64107 787.000
24.66102 767.000
24.68096 779.000
24.70091 842.000
24.72086 818.000
24.74080 779.000
24.76075 792.000
24.78070 796.000
24.80065 789.000
24.82059 787.000
24.84054 819.000
24.86049 815.000
24.88043 776.000
24.90038 785.000
24.92033 834.000
24.94027 855.000
24.96022 837.000
24.98017 844.000
25.00012 847.000
25.02006 804.000
25.04001 854.000
25.05996 843.000
25.07990 882.000
25.09985 889.000
25.11980 863.000
25.13974 818.000
25.15969 876.000
25.17964 808.000
25.19958 844.000
25.21953 835.000
25.23948 878.000
25.25943 915.000
25.27937 853.000
25.29932 908.000
25.31927 930.000
25.33921 891.000
25.35916 885.000
25.37911 789.000
25.39905 815.000
25.41900 902.000
25.43895 896.000
25.45890 845.000
25.47884 884.000
25.49879 842.000
25.51874 934.000
25.53868 888.000
25.55863 937.000
25.57858 918.000
25.59852 914.000
25.61847 939.000
25.63842 910.000
25.65837 939.000
25.67831 973.000
25.69826 942.000
25.71821 897.000
25.73815 949.000
25.75810 968.000
25.77805 910.000
25.79799 972.000
25.81794 941.000
25.83789 913.000
25.85783 988.000
25.87778 932.000
25.89773 894.000
25.91768 919.000
25.93762 977.000
25.95757 958.000
25.97752 879.000
25.99746 931.000
26.01741 962.000
26.03736 958.000
26.05730 976.000
26.07725 972.000
26.09720 988.000
26.11715 994.000
26.13709 955.000
26.15704 955.000
26.17699 947.000
26.19693 975.000
26.21688 1010.000
26.23683 993.000
26.25677 1023.000
26.27672 1043.000
26.29667 973.000
26.31661 1001.000
26.33656 996.000
26.35651 1076.000
26.37646 1000.000
26.39640 1050.000
26.41635 1043.000
26.43630 1039.000
26.45624 1041.000
26.47619 1091.000
26.49614 1008.000
26.51608 1048.000
26.53603 1085.000
26.55598 1018.000
26.57593 1022.000
26.59587 1109.000
26.61582 1077.000
26.63577 1090.000
26.65571 1096.000
26.67566 1051.000
26.69561 1016.000
26.71555 1062.000
26.73550 1079.000
26.75545 1082.000
26.77539 1095.000
26.79534 1135.000
26.81529 1056.000
26.83524 1098.000
26.85518 1072.000
26.87513 1098.000
26.89508 1064.000
26.91502 1087.000
26.93497 1094.000
26.95492 1116.000
26.97486 1025.000
26.99481 1118.000
27.01476 1135.000
27.03471 1128.000
27.05465 1067.000
27.07460 1117.000
27.09455 1151.000
27.11449 1075.000
27.13444 1163.000
27.15439 1177.000
27.17433 1088.000
27.19428 1090.000
27.21423 1106.000
27.23417 1152.000
27.25412 1108.000
27.27407 1141.000
27.29402 1138.000
27.31396 1123.000
27.33391 1128.000
27.35386 1134.000
27.37380 1136.000
27.39375 1160.000
27.41370 1151.000
27.43364 1097.000
27.45359 1167.000
27.47354 1142.000
27.49349 1180.000
27.51343 1221.000
27.53338 1199.000
27.55333 1164.000
27.57327 1180.000
27.59322 1220.000
27.61317 1197.000
27.63311 1186.000
27.65306 1180.000
27.67301 1210.000
27.69296 1206.000
27.71290 1131.000
27.73285 1134.000
27.75280 1252.000
27.77274 1232.000
27.79269 1177.000
27.81264 1214.000
27.83258 1216.000
27.85253 1202.000
27.87248 1188.000
27.89242 1152.000
27.91237 1255.000
27.93232 1198.000
27.95227 1244.000
27.97221 1234.000
27.99216 1206.000
28.01211 1219.000
28.03205 1193.000
28.05200 1227.000
28.07195 1232.000
28.09189 1243.000
28.11184 1209.000
28.13179 1226.000
28.15174 1315.000
28.17168 1234.000
28.19163 1270.000
28.21158 1247.000
28.23152 1225.000
28.25147 1221.000
28.27142 1243.000
28.29136 1276.000
28.31131 1279.000
28.33126 1237.000
28.35120 1274.000
28.37115 1236.000
28.39110 1241.000
28.41105 1248.000
28.43099 1230.000
28.45094 1215.000
28.47089 1277.000
28.49083 1231.000
28.51078 1264.000
28.53073 1237.000
28.55067 1188.000
28.57062 1245.000
28.59057 1311.000
28.61052 1255.000
28.63046 1264.000
28.65041 1336.000
28.67036 1253.000
28.69030 1274.000
28.71025 1256.000
28.73020 1252.000
28.75014 1303.000
28.77009 1306.000
28.79004 1239.000
28.80998 1330.000
28.82993 1326.000
28.84988 1251.000
28.86983 1235.000
28.88977 1257.000
28.90972 1331.000
28.92967 1262.000
28.94961 1235.000
28.96956 1243.000
28.98951 1297.000
29.00945 1308.000
29.02940 1309.000
29.04935 1325.000
29.06930 1333.000
29.08924 1256.000
29.10919 1329.000
29.12914 1327.000
29.14908 1359.000
29.16903 1285.000
29.18898 1347.000
29.20892 1336.000
29.22887 1276.000
29.24882 1318.000
29.26877 1360.000
29.28871 1237.000
29.30866 1351.000
29.32861 1328.000
29.34855 1281.000
29.36850 1304.000
29.38845 1365.000
29.40839 1271.000
29.42834 1325.000
29.44829 1345.000
29.46823 1306.000
29.48818 1313.000
29.50813 1292.000
29.52808 1363.000
29.54802 1332.000
29.56797 1350.000
29.58792 1268.000
29.60786 1318.000
29.62781 1294.000
29.64776 1251.000
29.66770 1319.000
29.68765 1317.000
29.70760 1320.000
29.72755 1287.000
29.74749 1362.000
29.76744 1279.000
29.78739 1314.000
29.80733 1345.000
29.82728 1392.000
29.84723 1309.000
29.86717 1333.000
29.88712 1268.000
29.90707 1299.000
29.92701 1383.000
29.94696 1283.000
29.96691 1319.000
29.98686 1316.000
30.00680 1215.000
30.02675 1352.000
30.04670 1313.000
30.06664 1312.000
30.08659 1252.000
30.10654 1273.000
30.12648 1275.000
30.14643 1323.000
30.16638 1320.000
30.18633 1359.000
30.20627 1304.000
30.22622 1261.000
30.24617 1263.000
30.26611 1318.000
30.28606 1303.000
30.30601 1299.000
30.32595 1296.000
30.34590 1323.000
30.36585 1303.000
30.38579 1349.000
30.40574 1270.000
30.42569 1299.000
30.44564 1268.000
30.46558 1255.000
30.48553 1328.000
30.50548 1313.000
30.52542 1252.000
30.54537 1240.000
30.56532 1306.000
30.58526 1281.000
30.60521 1284.000
30.62516 1331.000
30.64511 1289.000
30.66505 1306.000
30.68500 1256.000
30.70495 1302.000
30.72489 1303.000
30.74484 1308.000
30.76479 1230.000
30.78473 1336.000
30.80468 1294.000
30.82463 1325.000
30.84458 1255.000
30.86452 1270.000
30.88447 1299.000
30.90442 1255.000
30.92436 1285.000
30.94431 1259.000
30.96426 1307.000
30.98420 1271.000
31.00415 1235.000
31.02410 1193.000
31.04404 1272.000
31.06399 1298.000
31.08394 1238.000
31.10389 1251.000
31.12383 1239.000
31.14378 1230.000
31.16373 1242.000
31.18367 1232.000
31.20362 1264.000
31.22357 1255.000
31.24351 1261.000
31.26346 1283.000
31.28341 1274.000
31.30336 1193.000
31.32330 1184.000
31.34325 1243.000
31.36320 1217.000
31.38314 1227.000
31.40309 1220.000
31.42304 1206.000
31.44298 1213.000
31.46293 1253.000
31.48288 1188.000
31.50282 1280.000
31.52277 1267.000
31.54272 1199.000
31.56267 1287.000
31.58261 1194.000
31.60256 1275.000
31.62251 1172.000
31.64245 1190.000
31.66240 1180.000
31.68235 1248.000
31.70229 1249.000
31.72224 1187.000
31.74219 1246.000
31.76214 1207.000
31.78208 1231.000
31.80203 1271.000
31.82198 1218.000
31.84192 1306.000
31.86187 1257.000
31.88182 1193.000
31.90176 1249.000
31.92171 1260.000
31.94166 1239.000
31.96160 1227.000
31.98155 1261.000
32.00150 1225.000
32.02145 1239.000
32.04139 1206.000
32.06134 1257.000
32.08129 1217.000
32.10123 1231.000
32.12118 1129.000
32.14113 1177.000
32.16107 1195.000
32.18102 1150.000
32.20097 1176.000
32.22092 1125.000
32.24086 1185.000
32.26081 1130.000
32.28076 1173.000
32.30070 1202.000
32.32065 1137.000
32.34060 1188.000
32.36054 1196.000
32.38049 1141.000
32.40044 1176.000
32.42039 1137.000
32.44033 1146.000
32.46028 1190.000
32.48023 1157.000
32.50017 1079.000
32.52012 1153.000
32.54007 1198.000
32.56001 1156.000
32.57996 1104.000
32.59991 1169.000
32.61985 1120.000
32.63980 1125.000
32.65975 1227.000
32.67970 1115.000
32.69964 1107.000
32.71959 1096.000
32.73954 1150.000
32.75948 1110.000
32.77943 1130.000
32.79938 1062.000
32.81932 1132.000
32.83927 1096.000
32.85922 1079.000
32.87917 1106.000
32.89911 1083.000
32.91906 1116.000
32.93901 1130.000
32.95895 1108.000
32.97890 1066.000
32.99885 1050.000
33.01879 1102.000
33.03874 1119.000
33.05869 1097.000
33.07863 1047.000
33.09858 1084.000
33.11853 1095.000
33.13848 1097.000
33.15842 1073.000
33.17837 1048.000
33.19832 1052.000
33.21826 1054.000
33.23821 1048.000
33.25816 1055.000
33.27810 1017.000
33.29805 1083.000
33.31800 1060.000
33.33795 1068.000
33.35789 1071.000
33.37784 1033.000
33.39779 999.000
33.41773 1003.000
33.43768 1063.000
33.45763 1042.000
33.47757 1075.000
33.49752 1052.000
33.51747 1084.000
33.53741 1055.000
33.55736 1031.000
33.57731 1060.000
33.59726 1035.000
33.61720 991.000
33.63715 1026.000
33.65710 1038.000
33.67704 1011.000
33.69699 1058.000
33.71694 990.000
33.73688 985.000
33.75683 1059.000
33.77678 986.000
33.79673 1014.000
33.81667 988.000
33.83662 952.000
33.85657 1017.000
33.87651 979.000
33.89646 991.000
33.91641 966.000
33.93635 981.000
33.95630 989.000
33.97625 993.000
33.99620 1016.000
34.01614 1016.000
34.03609 1011.000
34.05604 998.000
34.07598 1050.000
34.09593 988.000
34.11588 1007.000
34.13582 1003.000
34.15577 1029.000
34.17572 1002.000
34.19566 969.000
34.21561 947.000
34.23556 1021.000
34.25551 952.000
34.27545 983.000
34.29540 1001.000
34.31535 1029.000
34.33529 982.000
34.35524 989.000
34.37519 976.000
34.39513 1008.000
34.41508 1011.000
34.43503 974.000
34.45498 1007.000
34.47492 1007.000
34.49487 1010.000
34.51482 1010.000
34.53476 1066.000
34.55471 1056.000
34.57466 1038.000
34.59460 1131.000
34.61455 1111.000
34.63450 1157.000
34.65444 1233.000
34.67439 1223.000
34.69434 1306.000
34.71429 1351.000
34.73423 1336.000
34.75418 1342.000
34.77413 1458.000
34.79407 1442.000
34.81402 1628.000
34.83397 1572.000
34.85391 1622.000
34.87386 1843.000
34.89381 1865.000
34.91376 1807.000
34.93370 1993.000
34.95365 2012.000
34.97360 1994.000
34.99354 2050.000
35.01349 2111.000
35.03344 1997.000
35.05338 2063.000
35.07333 1948.000
35.09328 1755.000
35.11322 1644.000
35.13317 1490.000
35.15312 1416.000
35.17307 1303.000
35.19301 1267.000
35.21296 1109.000
35.23291 1100.000
35.25285 1054.000
35.27280 1081.000
35.29275 943.000
35.31269 948.000
35.33264 963.000
35.35259 1015.000
35.37254 967.000
35.39248 925.000
35.41243 944.000
35.43238 935.000
35.45232 931.000
35.47227 902.000
35.49222 914.000
35.51216 903.000
35.53211 938.000
35.55206 916.000
35.57201 882.000
35.59195 924.000
35.61190 855.000
35.63185 905.000
35.65179 896.000
35.67174 879.000
35.69169 949.000
35.71163 887.000
35.73158 880.000
35.75153 923.000
35.77147 908.000
35.79142 872.000
35.81137 851.000
35.83132 906.000
35.85126 887.000
35.87121 925.000
35.89116 867.000
35.91110 889.000
35.93105 864.000
35.95100 852.000
35.97094 858.000
35.99089 867.000
36.01084 838.000
36.03079 874.000
36.05073 889.000
36.07068 830.000
36.09063 828.000
36.11057 858.000
36.13052 846.000
36.15047 903.000
36.17041 846.000
36.19036 835.000
36.21031 864.000
36.23025 886.000
36.25020 852.000
36.27015 889.000
36.29010 828.000
36.31004 842.000
36.32999 867.000
36.34994 863.000
36.36988 888.000
36.38983 894.000
36.40978 886.000
36.42972 855.000
36.44967 851.000
36.46962 831.000
36.48957 821.000
36.50951 869.000
36.52946 865.000
36.54941 853.000
36.56935 892.000
36.58930 898.000
36.60925 808.000
36.62919 895.000
36.64914 832.000
36.66909 844.000
36.68903 873.000
36.70898 859.000
36.72893 860.000
36.74888 846.000
36.76882 814.000
36.78877 816.000
36.80872 846.000
36.82866 841.000
36.84861 841.000
36.86856 848.000
36.88850 801.000
36.90845 800.000
36.92840 782.000
36.94835 862.000
36.96829 833.000
36.98824 843.000
37.00819 803.000
37.02813 813.000
37.04808 844.000
37.06803 804.000
37.08797 852.000
37.10792 876.000
37.12787 888.000
37.14781 878.000
37.16776 803.000
37.18771 828.000
37.20766 854.000
37.22760 855.000
37.24755 913.000
37.26750 887.000
37.28744 893.000
37.30739 857.000
37.32734 884.000
37.34728 852.000
37.36723 902.000
37.38718 903.000
37.40713 867.000
37.42707 856.000
37.44702 874.000
37.46697 836.000
37.48691 889.000
37.50686 912.000
37.52681 910.000
37.54675 865.000
37.56670 902.000
37.58665 931.000
37.60660 930.000
37.62654 917.000
37.64649 942.000
37.66644 895.000
37.68638 970.000
37.70633 989.000
37.72628 964.000
37.74622 968.000
37.76617 1068.000
37.78612 1050.000
37.80606 1048.000
37.82601 1110.000
37.84596 1141.000
37.86591 1157.000
37.88585 1278.000
37.90580 1196.000
37.92575 1311.000
37.94569 1414.000
37.96564 1451.000
37.98559 1484.000
38.00553 1565.000
38.02548 1648.000
38.04543 1708.000
38.06538 1920.000
38.08532 1869.000
38.10527 1924.000
38.12522 1959.000
38.14516 2143.000
38.16511 2079.000
38.18506 2257.000
38.20500 2343.000
38.22495 2255.000
38.24490 2231.000
38.26484 2086.000
38.28479 2076.000
38.30474 1884.000
38.32469 1796.000
38.34463 1780.000
38.36458 1739.000
38.38453 1565.000
38.40447 1442.000
38.42442 1424.000
38.44437 1383.000
38.46431 1324.000
38.48426 1287.000
38.50421 1267.000
38.52416 1108.000
38.54410 1140.000
38.56405 1074.000
38.58400 1065.000
38.60394 1016.000
38.62389 957.000
38.64384 991.000
38.66378 960.000
38.68373 938.000
38.70368 933.000
38.72362 898.000
38.74357 913.000
38.76352 877.000
38.78347 942.000
38.80341 843.000
38.82336 911.000
38.84331 876.000
38.86325 839.000
38.88320 894.000
38.90315 873.000
38.92309 917.000
38.94304 807.000
38.96299 819.000
38.98294 865.000
39.00288 839.000
39.02283 876.000
39.04278 831.000
39.06272 843.000
39.08267 843.000
39.10262 831.000
39.12256 901.000
39.14251 829.000
39.16246 865.000
39.18241 868.000
39.20235 807.000
39.22230 817.000
39.24225 845.000
39.26219 874.000
39.28214 831.000
39.30209 827.000
39.32203 847.000
39.34198 856.000
39.36193 820.000
39.38187 809.000
39.40182 830.000
39.42177 802.000
39.44172 843.000
39.46166 853.000
39.48161 825.000
39.50156 826.000
39.52150 856.000
39.54145 830.000
39.56140 853.000
39.58134 807.000
39.60129 803.000
39.62124 857.000
39.64119 844.000
39.66113 844.000
39.68108 842.000
39.70103 826.000
39.72097 842.000
39.74092 822.000
39.76087 828.000
39.78081 828.000
39.80076 847.000
39.82071 845.000
39.84065 858.000
39.86060 825.000
39.88055 838.000
39.90050 872.000
39.92044 856.000
39.94039 885.000
39.96034 855.000
39.98028 867.000
40.00023 835.000
40.02018 844.000
40.04012 772.000
40.06007 815.000
40.08002 839.000
40.09997 828.000
40.11991 815.000
40.13986 844.000
40.15981 828.000
40.17975 863.000
40.19970 804.000
40.21965 803.000
40.23959 825.000
40.25954 819.000
40.27949 857.000
40.29943 800.000
40.31938 855.000
40.33933 782.000
40.35928 784.000
40.37922 814.000
40.39917 826.000
40.41912 766.000
40.43906 924.000
40.45901 846.000
40.47896 853.000
40.49890 798.000
40.51885 838.000
40.53880 796.000
40.55875 789.000
40.57869 900.000
40.59864 821.000
40.61859 888.000
40.63853 867.000
40.65848 832.000
40.67843 894.000
40.69837 793.000
40.71832 888.000
40.73827 810.000
40.75822 840.000
40.77816 848.000
40.79811 791.000
40.81806 846.000
40.83800 830.000
40.85795 827.000
40.87790 778.000
40.89784 814.000
40.91779 832.000
40.93774 866.000
40.95768 843.000
40.97763 848.000
40.99758 837.000
41.01753 866.000
41.03747 827.000
41.05742 820.000
41.07737 865.000
41.09731 798.000
41.11726 883.000
41.13721 887.000
41.15715 808.000
41.17710 865.000
41.19705 893.000
41.21700 821.000
41.23694 872.000
41.25689 840.000
41.27684 845.000
41.29678 837.000
41.31673 810.000
41.33668 850.000
41.35662 814.000
41.37657 876.000
41.39652 810.000
41.41646 850.000
41.43641 851.000
41.45636 833.000
41.47631 841.000
41.49625 758.000
41.51620 790.000
41.53615 835.000
41.55609 778.000
41.57604 854.000
41.59599 836.000
41.61593 786.000
41.63588 809.000
41.65583 845.000
41.67578 814.000
41.69572 846.000
41.71567 763.000
41.73562 835.000
41.75556 814.000
41.77551 805.000
41.79546 808.000
41.81540 846.000
41.83535 809.000
41.85530 760.000
41.87524 798.000
41.89519 791.000
41.91514 757.000
41.93509 837.000
41.95503 819.000
41.97498 817.000
41.99493 820.000
42.01487 836.000
42.03482 752.000
42.05477 834.000
42.07471 825.000
42.09466 841.000
42.11461 816.000
42.13456 783.000
42.15450 801.000
42.17445 789.000
42.19440 848.000
42.21434 870.000
42.23429 856.000
42.25424 786.000
42.27418 815.000
42.29413 828.000
42.31408 809.000
42.33403 858.000
42.35397 809.000
42.37392 841.000
42.39387 832.000
42.41381 830.000
42.43376 841.000
42.45371 788.000
42.47365 814.000
42.49360 842.000
42.51355 824.000
42.53349 868.000
42.55344 816.000
42.57339 804.000
42.59334 830.000
42.61328 819.000
42.63323 817.000
42.65318 814.000
42.67312 820.000
42.69307 795.000
42.71302 883.000
42.73296 811.000
42.75291 793.000
42.77286 794.000
42.79281 821.000
42.81275 773.000
42.83270 885.000
42.85265 809.000
42.87259 848.000
42.89254 788.000
42.91249 824.000
42.93243 827.000
42.95238 836.000
42.97233 789.000
42.99227 762.000
43.01222 796.000
43.03217 837.000
43.05212 853.000
43.07206 812.000
43.09201 804.000
43.11196 792.000
43.13190 789.000
43.15185 741.000
43.17180 789.000
43.19174 797.000
43.21169 772.000
43.23164 753.000
43.25159 762.000
43.27153 802.000
43.29148 823.000
43.31143 840.000
43.33137 730.000
43.35132 782.000
43.37127 795.000
43.39121 738.000
43.41116 794.000
43.43111 814.000
43.45105 795.000
43.47100 753.000
43.49095 757.000
43.51090 769.000
43.53084 768.000
43.55079 805.000
43.57074 780.000
43.59068 738.000
43.61063 772.000
43.63058 796.000
43.65052 741.000
43.67047 829.000
43.69042 760.000
43.71037 817.000
43.73031 731.000
43.75026 763.000
43.77021 720.000
43.79015 739.000
43.81010 762.000
43.83005 775.000
43.84999 798.000
43.86994 764.000
43.88989 766.000
43.90984 769.000
43.92978 756.000
43.94973 730.000
43.96968 730.000
43.98962 745.000
44.00957 764.000
44.02952 773.000
44.04946 694.000
44.06941 749.000
44.08936 763.000
44.10930 741.000
44.12925 765.000
44.14920 778.000
44.16915 745.000
44.18909 733.000
44.20904 728.000
44.22899 709.000
44.24893 750.000
44.26888 775.000
44.28883 761.000
44.30877 776.000
44.32872 746.000
44.34867 713.000
44.36862 703.000
44.38856 751.000
44.40851 726.000
44.42846 731.000
44.44840 701.000
44.46835 709.000
44.48830 744.000
44.50824 768.000
44.52819 751.000
44.54814 724.000
44.56808 766.000
44.58803 736.000
44.60798 731.000
44.62793 753.000
44.64787 760.000
44.66782 752.000
44.68777 747.000
44.70771 726.000
44.72766 722.000
44.74761 737.000
44.76755 742.000
44.78750 716.000
44.80745 758.000
44.82740 732.000
44.84734 717.000
44.86729 759.000
44.88724 737.000
44.90718 707.000
44.92713 678.000
44.94708 713.000
44.96702 746.000
44.98697 689.000
45.00692 747.000
45.02686 758.000
45.04681 772.000
45.06676 724.000
45.08671 757.000
45.10665 754.000
45.12660 769.000
45.14655 691.000
45.16649 705.000
45.18644 725.000
45.20639 693.000
45.22633 748.000
45.24628 690.000
45.26623 713.000
45.28618 771.000
45.30612 677.000
45.32607 681.000
45.34602 701.000
45.36596 701.000
45.38591 732.000
45.40586 743.000
45.42580 798.000
45.44575 698.000
45.46570 709.000
45.48565 744.000
45.50559 762.000
45.52554 689.000
45.54549 683.000
45.56543 722.000
45.58538 729.000
45.60533 743.000
45.62527 696.000
45.64522 743.000
45.66517 726.000
45.68511 691.000
45.70506 775.000
45.72501 711.000
45.74496 762.000
45.76490 724.000
45.78485 786.000
45.80480 702.000
45.82474 691.000
45.84469 730.000
45.86464 695.000
45.88458 702.000
45.90453 687.000
45.92448 730.000
45.94443 656.000
45.96437 696.000
45.98432 669.000
46.00427 716.000
46.02421 709.000
46.04416 703.000
46.06411 747.000
46.08405 674.000
46.10400 674.000
46.12395 662.000
46.14389 732.000
46.16384 666.000
46.18379 710.000
46.20374 674.000
46.22368 679.000
46.24363 669.000
46.26358 659.000
46.28352 731.000
46.30347 651.000
46.32342 753.000
46.34336 676.000
46.36331 639.000
46.38326 659.000
46.40321 725.000
46.42315 658.000
46.44310 642.000
46.46305 650.000
46.48299 659.000
46.50294 635.000
46.52289 651.000
46.54283 660.000
46.56278 673.000
46.58273 686.000
46.60267 697.000
46.62262 695.000
46.64257 649.000
46.66252 652.000
46.68246 672.000
46.70241 644.000
46.72236 661.000
46.74230 630.000
46.76225 680.000
46.78220 622.000
46.80214 669.000
46.82209 655.000
46.84204 732.000
46.86199 639.000
46.88193 661.000
46.90188 696.000
46.92183 688.000
46.94177 639.000
46.96172 687.000
46.98167 672.000
47.00161 713.000
47.02156 646.000
47.04151 680.000
47.06146 656.000
47.08140 672.000
47.10135 605.000
47.12130 641.000
47.14124 652.000
47.16119 667.000
47.18114 661.000
47.20108 659.000
47.22103 610.000
47.24098 655.000
47.26092 683.000
47.28087 658.000
47.30082 698.000
47.32077 708.000
47.34071 648.000
47.36066 675.000
47.38061 644.000
47.40055 667.000
47.42050 659.000
47.44045 655.000
47.46039 674.000
47.48034 631.000
47.50029 667.000
47.52024 671.000
47.54018 607.000
47.56013 681.000
47.58008 707.000
47.60002 653.000
47.61997 679.000
47.63992 680.000
47.65986 651.000
47.67981 683.000
47.69976 692.000
47.71970 716.000
47.73965 714.000
47.75960 760.000
47.77955 708.000
47.79949 728.000
47.81944 743.000
47.83939 787.000
47.85933 719.000
47.87928 794.000
47.89923 792.000
47.91917 835.000
47.93912 818.000
47.95907 901.000
47.97902 871.000
47.99896 963.000
48.01891 957.000
48.03886 993.000
48.05880 978.000
48.07875 1016.000
48.09870 1037.000
48.11864 1063.000
48.13859 1131.000
48.15854 1100.000
48.17848 1082.000
48.19843 1111.000
48.21838 1149.000
48.23833 1260.000
48.25827 1231.000
48.27822 1171.000
48.29817 1222.000
48.31811 1030.000
48.33806 1019.000
48.35801 1020.000
48.37795 1004.000
48.39790 904.000
48.41785 880.000
48.43780 870.000
48.45774 840.000
48.47769 819.000
48.49764 784.000
48.51758 750.000
48.53753 732.000
48.55748 741.000
48.57742 790.000
48.59737 724.000
48.61732 653.000
48.63726 705.000
48.65721 680.000
48.67716 704.000
48.69711 643.000
48.71705 703.000
48.73700 670.000
48.75695 639.000
48.77689 613.000
48.79684 733.000
48.81679 701.000
48.83673 626.000
48.85668 688.000
48.87663 717.000
48.89658 623.000
48.91652 645.000
48.93647 703.000
48.95642 671.000
48.97636 640.000
48.99631 621.000
49.01626 643.000
49.03620 614.000
49.05615 626.000
49.07610 614.000
49.09605 615.000
49.11599 659.000
49.13594 628.000
49.15589 680.000
49.17583 616.000
49.19578 679.000
49.21573 607.000
49.23567 638.000
49.25562 628.000
49.27557 635.000
49.29551 650.000
49.31546 638.000
49.33541 689.000
49.35536 637.000
49.37530 639.000
49.39525 604.000
49.41520 584.000
49.43514 672.000
49.45509 635.000
49.47504 697.000
49.49498 621.000
49.51493 665.000
49.53488 594.000
49.55483 606.000
49.57477 637.000
49.59472 616.000
49.61467 619.000
49.63461 613.000
49.65456 646.000
49.67451 577.000
49.69445 628.000
49.71440 602.000
49.73435 599.000
49.75429 607.000
49.77424 649.000
49.79419 616.000
49.81414 631.000
49.83408 628.000
49.85403 627.000
49.87398 637.000
49.89392 576.000
49.91387 582.000
49.93382 589.000
49.95376 611.000
49.97371 627.000
49.99366 599.000
50.01361 584.000
50.03355 657.000
50.05350 638.000
50.07345 605.000
50.09339 617.000
50.11334 606.000
50.13329 621.000
50.15323 618.000
50.17318 627.000
50.19313 633.000
50.21307 609.000
50.23302 621.000
50.25297 605.000
50.27292 658.000
50.29286 653.000
50.31281 620.000
50.33276 619.000
50.35270 620.000
50.37265 634.000
50.39260 582.000
50.41254 672.000
50.43249 580.000
50.45244 615.000
50.47239 613.000
50.49233 626.000
50.51228 643.000
50.53223 614.000
50.55217 621.000
50.57212 686.000
50.59207 609.000
50.61201 639.000
50.63196 593.000
50.65191 623.000
50.67186 611.000
50.69180 631.000
50.71175 657.000
50.73170 607.000
50.75164 659.000
50.77159 628.000
50.79154 610.000
50.81148 638.000
50.83143 653.000
50.85138 645.000
50.87132 644.000
50.89127 616.000
50.91122 633.000
50.93117 624.000
50.95111 653.000
50.97106 632.000
50.99101 620.000
51.01095 607.000
51.03090 631.000
51.05085 605.000
51.07079 635.000
51.09074 628.000
51.11069 601.000
51.13064 642.000
51.15058 594.000
51.17053 588.000
51.19048 604.000
51.21042 549.000
51.23037 622.000
51.25032 641.000
51.27026 580.000
51.29021 653.000
51.31016 594.000
51.33010 634.000
51.35005 616.000
51.37000 607.000
51.38995 591.000
51.40989 602.000
51.42984 583.000
51.44979 611.000
51.46973 605.000
51.48968 592.000
51.50963 637.000
51.52957 571.000
51.54952 625.000
51.56947 613.000
51.58942 616.000
51.60936 621.000
51.62931 600.000
51.64926 596.000
51.66920 578.000
51.68915 632.000
51.70910 606.000
51.72904 617.000
51.74899 606.000
51.76894 599.000
51.78888 619.000
51.80883 597.000
51.82878 603.000
51.84873 626.000
51.86867 621.000
51.88862 616.000
51.90857 583.000
51.92851 609.000
51.94846 643.000
51.96841 589.000
51.98835 563.000
52.00830 657.000
52.02825 586.000
52.04820 582.000
52.06814 606.000
52.08809 536.000
52.10804 605.000
52.12798 612.000
52.14793 627.000
52.16788 627.000
52.18782 627.000
52.20777 660.000
52.22772 598.000
52.24767 626.000
52.26761 615.000
52.28756 598.000
52.30751 626.000
52.32745 626.000
52.34740 601.000
52.36735 605.000
52.38729 593.000
52.40724 664.000
52.42719 581.000
52.44713 629.000
52.46708 646.000
52.48703 642.000
52.50698 669.000
52.52692 606.000
52.54687 621.000
52.56682 649.000
52.58676 619.000
52.60671 616.000
52.62666 621.000
52.64660 669.000
52.66655 662.000
52.68650 711.000
52.70645 684.000
52.72639 692.000
52.74634 677.000
52.76629 709.000
52.78623 676.000
52.80618 748.000
52.82613 654.000
52.84607 743.000
52.86602 779.000
52.88597 690.000
52.90591 767.000
52.92586 739.000
52.94581 756.000
52.96576 760.000
52.98570 737.000
53.00565 803.000
53.02560 798.000
53.04554 716.000
53.06549 713.000
53.08544 758.000
53.10538 692.000
53.12533 727.000
53.14528 696.000
53.16523 696.000
53.18517 700.000
53.20512 684.000
53.22507 655.000
53.24501 664.000
53.26496 640.000
53.28491 627.000
53.30485 632.000
53.32480 592.000
53.34475 635.000
53.36469 616.000
53.38464 633.000
53.40459 628.000
53.42454 596.000
53.44448 616.000
53.46443 596.000
53.48438 598.000
53.50432 613.000
53.52427 626.000
53.54422 569.000
53.56416 596.000
53.58411 585.000
53.60406 589.000
53.62401 584.000
53.64395 601.000
53.66390 565.000
53.68385 587.000
53.70379 619.000
53.72374 622.000
53.74369 606.000
53.76363 613.000
53.78358 607.000
53.80353 597.000
53.82348 568.000
53.84342 657.000
53.86337 597.000
53.88332 604.000
53.90326 607.000
53.92321 590.000
53.94316 606.000
53.96310 608.000
53.98305 577.000
54.00300 585.000
54.02294 611.000
54.04289 592.000
54.06284 591.000
54.08279 601.000
54.10273 544.000
54.12268 534.000
54.14263 577.000
54.16257 583.000
54.18252 615.000
54.20247 589.000
54.22241 577.000
54.24236 566.000
54.26231 625.000
54.28226 570.000
54.30220 568.000
54.32215 647.000
54.34210 616.000
54.36204 584.000
54.38199 531.000
54.40194 638.000
54.42188 578.000
54.44183 610.000
54.46178 599.000
54.48172 615.000
54.50167 567.000
54.52162 575.000
54.54157 598.000
54.56151 576.000
54.58146 602.000
54.60141 569.000
54.62135 596.000
54.64130 538.000
54.66125 594.000
54.68119 596.000
54.70114 641.000
54.72109 564.000
54.74104 592.000
54.76098 590.000
54.78093 618.000
54.80088 560.000
54.82082 586.000
54.84077 590.000
54.86072 585.000
54.88066 581.000
54.90061 604.000
54.92056 580.000
54.94050 568.000
54.96045 592.000
54.98040 602.000
55.00035 577.000
55.02029 569.000
55.04024 555.000
55.06019 541.000
55.08013 530.000
55.10008 611.000
55.12003 564.000
55.13997 573.000
55.15992 618.000
55.17987 594.000
55.19982 562.000
55.21976 629.000
55.23971 546.000
55.25966 595.000
55.27960 574.000
55.29955 601.000
55.31950 573.000
55.33944 555.000
55.35939 568.000
55.37934 641.000
55.39929 576.000
55.41923 541.000
55.43918 584.000
55.45913 571.000
55.47907 590.000
55.49902 563.000
55.51897 542.000
55.53891 586.000
55.55886 546.000
55.57881 589.000
55.59875 532.000
55.61870 569.000
55.63865 550.000
55.65860 612.000
55.67854 603.000
55.69849 563.000
55.71844 577.000
55.73838 593.000
55.75833 575.000
55.77828 586.000
55.79822 569.000
55.81817 620.000
55.83812 583.000
55.85807 600.000
55.87801 563.000
55.89796 631.000
55.91791 634.000
55.93785 576.000
55.95780 572.000
55.97775 583.000
55.99769 567.000
56.01764 561.000
56.03759 629.000
56.05753 606.000
56.07748 641.000
56.09743 631.000
56.11738 596.000
56.13732 601.000
56.15727 598.000
56.17722 569.000
56.19716 578.000
56.21711 619.000
56.23706 608.000
56.25700 571.000
56.27695 576.000
56.29690 616.000
56.31685 568.000
56.33679 598.000
56.35674 603.000
56.37669 563.000
56.39663 566.000
56.41658 541.000
56.43653 587.000
56.45647 545.000
56.47642 593.000
56.49637 601.000
56.51631 599.000
56.53626 576.000
56.55621 576.000
56.57616 599.000
56.59610 576.000
56.61605 612.000
56.63600 560.000
56.65594 584.000
56.67589 605.000
56.69584 577.000
56.71578 571.000
56.73573 584.000
56.75568 554.000
56.77563 586.000
56.79557 558.000
56.81552 573.000
56.83547 575.000
56.85541 549.000
56.87536 571.000
56.89531 601.000
56.91525 650.000
56.93520 566.000
56.95515 607.000
56.97510 614.000
56.99504 616.000
57.01499 595.000
57.03494 568.000
57.05488 583.000
57.07483 600.000
57.09478 618.000
57.11472 628.000
57.13467 593.000
57.15462 596.000
57.17456 555.000
57.19451 586.000
57.21446 593.000
57.23441 622.000
57.25435 621.000
57.27430 591.000
57.29425 605.000
57.31419 604.000
57.33414 636.000
57.35409 608.000
57.37403 589.000
57.39398 630.000
57.41393 628.000
57.43388 677.000
57.45382 653.000
57.47377 688.000
57.49372 718.000
57.51366 732.000
57.53361 723.000
57.55356 744.000
57.57350 734.000
57.59345 740.000
57.61340 783.000
57.63334 770.000
57.65329 771.000
57.67324 781.000
57.69319 808.000
57.71313 841.000
57.73308 816.000
57.75303 835.000
57.77297 836.000
57.79292 839.000
57.81287 877.000
57.83281 898.000
57.85276 893.000
57.87271 846.000
57.89266 733.000
57.91260 770.000
57.93255 759.000
57.95250 763.000
57.97244 749.000
57.99239 754.000
58.01234 685.000
58.03228 741.000
58.05223 651.000
58.07218 648.000
58.09212 666.000
58.11207 653.000
58.13202 622.000
58.15197 637.000
58.17191 634.000
58.19186 613.000
58.21181 588.000
58.23175 589.000
58.25170 559.000
58.27165 604.000
58.29159 572.000
58.31154 606.000
58.33149 539.000
58.35144 615.000
58.37138 582.000
58.39133 591.000
58.41128 596.000
58.43122 583.000
58.45117 544.000
58.47112 581.000
58.49106 559.000
58.51101 591.000
58.53096 585.000
58.55090 613.000
58.57085 609.000
58.59080 607.000
58.61075 646.000
58.63069 586.000
58.65064 568.000
58.67059 582.000
58.69053 568.000
58.71048 580.000
58.73043 546.000
58.75037 529.000
58.77032 551.000
58.79027 570.000
58.81022 566.000
58.83016 523.000
58.85011 554.000
58.87006 576.000
58.89000 557.000
58.90995 509.000
58.92990 572.000
58.94984 571.000
58.96979 565.000
58.98974 560.000
59.00969 603.000
59.02963 529.000
59.04958 569.000
59.06953 555.000
59.08947 628.000
59.10942 553.000
59.12937 574.000
59.14931 547.000
59.16926 588.000
59.18921 588.000
59.20915 558.000
59.22910 552.000
59.24905 561.000
59.26900 537.000
59.28894 584.000
59.30889 539.000
59.32884 562.000
59.34878 566.000
59.36873 608.000
59.38868 584.000
59.40862 603.000
59.42857 545.000
59.44852 535.000
59.46847 561.000
59.48841 558.000
59.50836 544.000
59.52831 591.000
59.54825 557.000
59.56820 534.000
59.58815 599.000
59.60809 580.000
59.62804 538.000
59.64799 526.000
59.66793 579.000
59.68788 579.000
59.70783 549.000
59.72778 611.000
59.74772 570.000
59.76767 564.000
59.78762 571.000
59.80756 589.000
59.82751 588.000
59.84746 566.000
59.86740 604.000
59.88735 584.000
59.90730 557.000
59.92725 557.000
59.94719 541.000
59.96714 537.000
59.98709 597.000
60.00703 553.000
60.02698 554.000
60.04693 551.000
60.06687 571.000
60.08682 551.000
60.10677 582.000
60.12671 564.000
60.14666 604.000
60.16661 551.000
60.18656 568.000
60.20650 578.000
60.22645 610.000
60.24640 535.000
60.26634 557.000
60.28629 596.000
60.30624 598.000
60.32618 601.000
60.34613 595.000
60.36608 581.000
60.38603 558.000
60.40597 586.000
60.42592 556.000
60.44587 600.000
60.46581 571.000
60.48576 587.000
60.50571 555.000
60.52565 594.000
60.54560 595.000
60.56555 623.000
60.58550 638.000
60.60544 600.000
60.62539 635.000
60.64534 655.000
60.66528 654.000
60.68523 662.000
60.70518 680.000
60.72512 715.000
60.74507 758.000
60.76502 751.000
60.78496 769.000
60.80491 768.000
60.82486 843.000
60.84481 804.000
60.86475 807.000
60.88470 824.000
60.90465 896.000
60.92459 874.000
60.94454 856.000
60.96449 911.000
60.98443 983.000
61.00438 1008.000
61.02433 1070.000
61.04428 1054.000
61.06422 1069.000
61.08417 1051.000
61.10412 1073.000
61.12406 970.000
61.14401 918.000
61.16396 935.000
61.18390 901.000
61.20385 831.000
61.22380 823.000
61.24374 829.000
61.26369 813.000
61.28364 778.000
61.30359 725.000
61.32353 721.000
61.34348 695.000
61.36343 701.000
61.38337 644.000
61.40332 638.000
61.42327 621.000
61.44321 583.000
61.46316 604.000
61.48311 590.000
61.50306 570.000
61.52300 573.000
61.54295 585.000
61.56290 558.000
61.58284 581.000
61.60279 570.000
61.62274 550.000
61.64268 567.000
61.66263 611.000
61.68258 559.000
61.70252 599.000
61.72247 615.000
61.74242 566.000
61.76237 593.000
61.78231 592.000
61.80226 577.000
61.82221 576.000
61.84215 558.000
61.86210 547.000
61.88205 569.000
61.90199 639.000
61.92194 552.000
61.94189 567.000
61.96184 615.000
61.98178 524.000
62.00173 595.000
62.02168 552.000
62.04162 538.000
62.06157 562.000
62.08152 556.000
62.10146 576.000
62.12141 571.000
62.14136 563.000
62.16131 579.000
62.18125 542.000
62.20120 597.000
62.22115 549.000
62.24109 552.000
62.26104 537.000
62.28099 586.000
62.30093 547.000
62.32088 625.000
62.34083 545.000
62.36077 543.000
62.38072 529.000
62.40067 553.000
62.42062 578.000
62.44056 554.000
62.46051 538.000
62.48046 600.000
62.50040 582.000
62.52035 613.000
62.54030 570.000
62.56024 577.000
62.58019 595.000
62.60014 547.000
62.62009 598.000
62.64003 588.000
62.65998 557.000
62.67993 544.000
62.69987 569.000
62.71982 581.000
62.73977 525.000
62.75971 575.000
62.77966 581.000
62.79961 580.000
62.81955 566.000
62.83950 576.000
62.85945 567.000
62.87940 576.000
62.89934 491.000
62.91929 529.000
62.93924 568.000
62.95918 561.000
62.97913 544.000
62.99908 557.000
63.01902 568.000
63.03897 596.000
63.05892 521.000
63.07887 570.000
63.09881 544.000
63.11876 543.000
63.13871 551.000
63.15865 537.000
63.17860 548.000
63.19855 566.000
63.21849 571.000
63.23844 593.000
63.25839 547.000
63.27833 581.000
63.29828 521.000
63.31823 529.000
63.33818 555.000
63.35812 535.000
63.37807 525.000
63.39802 544.000
63.41796 519.000
63.43791 553.000
63.45786 564.000
63.47780 529.000
63.49775 568.000
63.51770 542.000
63.53765 561.000
63.55759 556.000
63.57754 561.000
63.59749 566.000
63.61743 551.000
63.63738 533.000
63.65733 514.000
63.67727 549.000
63.69722 533.000
63.71717 540.000
63.73712 547.000
63.75706 558.000
63.77701 564.000
63.79696 558.000
63.81690 558.000
63.83685 552.000
63.85680 600.000
63.87674 513.000
63.89669 559.000
63.91664 591.000
63.93658 551.000
63.95653 571.000
63.97648 597.000
63.99643 590.000
64.01637 541.000
64.03632 585.000
64.05627 524.000
64.07621 544.000
64.09616 558.000
64.11611 556.000
64.13605 582.000
64.15600 587.000
64.17595 562.000
64.19590 525.000
64.21584 540.000
64.23579 539.000
64.25574 609.000
64.27568 576.000
64.29563 539.000
64.31558 596.000
64.33552 594.000
64.35547 563.000
64.37542 591.000
64.39536 548.000
64.41531 596.000
64.43526 552.000
64.45521 602.000
64.47515 548.000
64.49510 612.000
64.51505 574.000
64.53499 564.000
64.55494 566.000
64.57489 545.000
64.59483 574.000
64.61478 556.000
64.63473 577.000
64.65468 595.000
64.67462 555.000
64.69457 594.000
64.71452 579.000
64.73446 595.000
64.75441 600.000
64.77436 593.000
64.79430 631.000
64.81425 596.000
64.83420 646.000
64.85414 592.000
64.87409 652.000
64.89404 615.000
64.91399 655.000
64.93393 613.000
64.95388 601.000
64.97383 677.000
64.99377 665.000
65.01372 685.000
65.03367 694.000
65.05361 697.000
65.07356 685.000
65.09351 740.000
65.11346 697.000
65.13340 721.000
65.15335 729.000
65.17330 765.000
65.19324 796.000
65.21319 752.000
65.23314 837.000
65.25308 828.000
65.27303 794.000
65.29298 857.000
65.31293 860.000
65.33287 845.000
65.35282 847.000
65.37277 896.000
65.39271 909.000
65.41266 907.000
65.43261 850.000
65.45255 839.000
65.47250 838.000
65.49245 875.000
65.51239 872.000
65.53234 868.000
65.55229 866.000
65.57224 841.000
65.59218 908.000
65.61213 876.000
65.63208 860.000
65.65202 882.000
65.67197 896.000
65.69192 921.000
65.71186 890.000
65.73181 930.000
65.75176 971.000
65.77171 986.000
65.79165 956.000
65.81160 1035.000
65.83155 916.000
65.85149 903.000
65.87144 862.000
65.89139 843.000
65.91133 791.000
65.93128 781.000
65.95123 790.000
65.97117 769.000
65.99112 777.000
66.01107 777.000
66.03102 749.000
66.05096 680.000
66.07091 652.000
66.09086 695.000
66.11080 621.000
66.13075 649.000
66.15070 633.000
66.17064 657.000
66.19059 606.000
66.21054 624.000
66.23049 610.000
66.25043 600.000
66.27038 611.000
66.29033 585.000
66.31027 573.000
66.33022 566.000
66.35017 590.000
66.37011 579.000
66.39006 588.000
66.41001 578.000
66.42995 553.000
66.44990 584.000
66.46985 602.000
66.48980 557.000
66.50974 607.000
66.52969 562.000
66.54964 547.000
66.56958 586.000
66.58953 549.000
66.60948 546.000
66.62942 538.000
66.64937 571.000
66.66932 585.000
66.68927 583.000
66.70921 567.000
66.72916 592.000
66.74911 606.000
66.76905 560.000
66.78900 586.000
66.80895 638.000
66.82889 561.000
66.84884 585.000
66.86879 580.000
66.88874 602.000
66.90868 601.000
66.92863 614.000
66.94858 566.000
66.96852 561.000
66.98847 607.000
67.00842 632.000
67.02836 667.000
67.04831 625.000
67.06826 632.000
67.08820 629.000
67.10815 656.000
67.12810 692.000
67.14805 673.000
67.16799 673.000
67.18794 695.000
67.20789 699.000
67.22783 752.000
67.24778 716.000
67.26773 778.000
67.28767 753.000
67.30762 762.000
67.32757 802.000
67.34752 808.000
67.36746 897.000
67.38741 844.000
67.40736 880.000
67.42730 904.000
67.44725 972.000
67.46720 887.000
67.48714 972.000
67.50709 916.000
67.52704 876.000
67.54698 899.000
67.56693 899.000
67.58688 915.000
67.60683 916.000
67.62677 942.000
67.64672 958.000
67.66667 944.000
67.68661 896.000
67.70656 894.000
67.72651 824.000
67.74645 784.000
67.76640 763.000
67.78635 805.000
67.80630 711.000
67.82624 755.000
67.84619 768.000
67.86614 701.000
67.88608 704.000
67.90603 676.000
67.92598 619.000
67.94592 609.000
67.96587 622.000
67.98582 630.000
68.00576 603.000
68.02571 587.000
68.04566 568.000
68.06561 585.000
68.08555 599.000
68.10550 553.000
68.12545 583.000
68.14539 603.000
68.16534 582.000
68.18529 550.000
68.20523 563.000
68.22518 600.000
68.24513 554.000
68.26508 561.000
68.28502 537.000
68.30497 568.000
68.32492 540.000
68.34486 508.000
68.36481 533.000
68.38476 616.000
68.40470 579.000
68.42465 562.000
68.44460 534.000
68.46455 579.000
68.48449 567.000
68.50444 492.000
68.52439 568.000
68.54433 583.000
68.56428 561.000
68.58423 518.000
68.60417 526.000
68.62412 579.000
68.64407 614.000
68.66401 530.000
68.68396 554.000
68.70391 571.000
68.72386 525.000
68.74380 533.000
68.76375 520.000
68.78370 554.000
68.80364 576.000
68.82359 523.000
68.84354 521.000
68.86348 531.000
68.88343 565.000
68.90338 541.000
68.92333 571.000
68.94327 530.000
68.96322 485.000
68.98317 551.000
69.00311 545.000
69.02306 581.000
69.04301 537.000
69.06295 518.000
69.08290 567.000
69.10285 537.000
69.12279 526.000
69.14274 568.000
69.16269 568.000
69.18264 516.000
69.20258 554.000
69.22253 539.000
69.24248 510.000
69.26242 514.000
69.28237 574.000
69.30232 511.000
69.32226 537.000
69.34221 550.000
69.36216 539.000
69.38211 500.000
69.40205 518.000
69.42200 513.000
69.44195 544.000
69.46189 528.000
69.48184 543.000
69.50179 505.000
69.52173 515.000
69.54168 538.000
69.56163 538.000
69.58157 514.000
69.60152 554.000
69.62147 547.000
69.64142 519.000
69.66136 521.000
69.68131 554.000
69.70126 529.000
69.72120 523.000
69.74115 526.000
69.76110 503.000
69.78104 533.000
69.80099 542.000
69.82094 506.000
69.84089 543.000
69.86083 512.000
69.88078 538.000
69.90073 536.000
69.92067 552.000
69.94062 528.000
69.96057 523.000
69.98051 588.000
70.00046 503.000
70.02041 533.000
70.04035 528.000
70.06030 534.000
70.08025 577.000
70.10020 507.000
70.12014 539.000
70.14009 554.000
70.16004 541.000
70.17998 547.000
70.19993 541.000
70.21988 549.000
70.23982 545.000
70.25977 556.000
70.27972 571.000
70.29967 505.000
70.31961 528.000
70.33956 530.000
70.35951 510.000
70.37945 525.000
70.39940 538.000
70.41935 548.000
70.43929 515.000
70.45924 522.000
70.47919 503.000
70.49914 527.000
70.51908 532.000
70.53903 520.000
70.55898 562.000
70.57892 551.000
70.59887 549.000
70.61882 539.000
70.63876 525.000
70.65871 511.000
70.67866 503.000
70.69860 500.000
70.71855 515.000
70.73850 540.000
70.75845 528.000
70.77839 566.000
70.79834 560.000
70.81829 535.000
70.83823 538.000
70.85818 562.000
70.87813 542.000
70.89807 540.000
70.91802 553.000
70.93797 593.000
70.95792 530.000
70.97786 535.000
70.99781 544.000
71.01776 501.000
71.03770 525.000
71.05765 546.000
71.07760 545.000
71.09754 481.000
71.11749 510.000
71.13744 566.000
71.15738 527.000
71.17733 505.000
71.19728 525.000
71.21723 541.000
71.23717 575.000
71.25712 536.000
71.27707 553.000
71.29701 507.000
71.31696 531.000
71.33691 529.000
71.35685 552.000
71.37680 548.000
71.39675 581.000
71.41670 502.000
71.43664 561.000
71.45659 534.000
71.47654 529.000
71.49648 553.000
71.51643 586.000
71.53638 568.000
71.55632 603.000
71.57627 551.000
71.59622 543.000
71.61616 595.000
71.63611 616.000
71.65606 571.000
71.67601 576.000
71.69595 613.000
71.71590 609.000
71.73585 610.000
71.75579 626.000
71.77574 647.000
71.79569 649.000
71.81563 667.000
71.83558 612.000
71.85553 635.000
71.87548 674.000
71.89542 656.000
71.91537 667.000
71.93532 715.000
71.95526 685.000
71.97521 665.000
71.99516 641.000
72.01510 649.000
72.03505 708.000
72.05500 643.000
72.07495 648.000
72.09489 653.000
72.11484 629.000
72.13479 637.000
72.15473 602.000
72.17468 609.000
72.19463 563.000
72.21457 598.000
72.23452 578.000
72.25447 571.000
72.27441 575.000
72.29436 527.000
72.31431 578.000
72.33426 535.000
72.35420 534.000
72.37415 547.000
72.39410 548.000
72.41404 549.000
72.43399 558.000
72.45394 563.000
72.47388 529.000
72.49383 519.000
72.51378 513.000
72.53373 559.000
72.55367 506.000
72.57362 538.000
72.59357 486.000
72.61351 489.000
72.63346 559.000
72.65341 528.000
72.67335 525.000
72.69330 496.000
72.71325 523.000
72.73319 551.000
72.75314 557.000
72.77309 536.000
72.79304 555.000
72.81298 520.000
72.83293 569.000
72.85288 576.000
72.87282 539.000
72.89277 518.000
72.91272 506.000
72.93266 475.000
72.95261 515.000
72.97256 571.000
72.99251 539.000
73.01245 540.000
73.03240 496.000
73.05235 538.000
73.07229 496.000
73.09224 535.000
73.11219 492.000
73.13213 562.000
73.15208 515.000
73.17203 530.000
73.19197 495.000
73.21192 541.000
73.23187 498.000
73.25182 476.000
73.27176 524.000
73.29171 552.000
73.31166 514.000
73.33160 480.000
73.35155 537.000
73.37150 493.000
73.39144 523.000
73.41139 542.000
73.43134 575.000
73.45129 498.000
73.47123 497.000
73.49118 522.000
73.51113 535.000
73.53107 482.000
73.55102 542.000
73.57097 534.000
73.59091 532.000
73.61086 539.000
73.63081 503.000
73.65076 562.000
73.67070 524.000
73.69065 564.000
73.71060 511.000
73.73054 500.000
73.75049 529.000
73.77044 505.000
73.79038 496.000
73.81033 531.000
73.83028 572.000
73.85022 532.000
73.87017 536.000
73.89012 550.000
73.91007 536.000
73.93001 541.000
73.94996 549.000
73.96991 537.000
73.98985 549.000
74.00980 572.000
74.02975 500.000
74.04969 521.000
74.06964 563.000
74.08959 569.000
74.10954 517.000
74.12948 574.000
74.14943 528.000
74.16938 555.000
74.18932 570.000
74.20927 585.000
74.22922 602.000
74.24916 570.000
74.26911 496.000
74.28906 619.000
74.30900 635.000
74.32895 623.000
74.34890 614.000
74.36885 617.000
74.38879 636.000
74.40874 624.000
74.42869 674.000
74.44863 683.000
74.46858 663.000
74.48853 733.000
74.50847 679.000
74.52842 707.000
74.54837 734.000
74.56832 771.000
74.58826 726.000
74.60821 691.000
74.62816 689.000
74.64810 721.000
74.66805 662.000
74.68800 708.000
74.70794 705.000
74.72789 720.000
74.74784 700.000
74.76778 747.000
74.78773 693.000
74.80768 795.000
74.82763 719.000
74.84757 695.000
74.86752 712.000
74.88747 653.000
74.90741 596.000
74.92736 660.000
74.94731 611.000
74.96725 608.000
74.98720 565.000
75.00715 565.000
75.02710 615.000
75.04704 615.000
75.06699 581.000
75.08694 622.000
75.10688 610.000
75.12683 590.000
75.14678 547.000
75.16672 580.000
75.18667 550.000
75.20662 518.000
75.22657 536.000
75.24651 516.000
75.26646 485.000
75.28641 497.000
75.30635 538.000
75.32630 528.000
75.34625 510.000
75.36619 564.000
75.38614 516.000
75.40609 541.000
75.42603 525.000
75.44598 506.000
75.46593 529.000
75.48588 496.000
75.50582 517.000
75.52577 517.000
75.54572 500.000
75.56566 526.000
75.58561 507.000
75.60556 528.000
75.62550 516.000
75.64545 544.000
75.66540 532.000
75.68535 492.000
75.70529 537.000
75.72524 531.000
75.74519 536.000
75.76513 478.000
75.78508 541.000
75.80503 518.000
75.82497 509.000
75.84492 542.000
75.86487 518.000
75.88481 534.000
75.90476 455.000
75.92471 511.000
75.94466 515.000
75.96460 527.000
75.98455 451.000
76.00450 536.000
76.02444 527.000
76.04439 510.000
76.06434 503.000
76.08428 527.000
76.10423 494.000
76.12418 513.000
76.14413 533.000
76.16407 512.000
76.18402 519.000
76.20397 510.000
76.22391 574.000
76.24386 506.000
76.26381 451.000
76.28375 513.000
76.30370 503.000
76.32365 553.000
76.34359 556.000
76.36354 545.000
76.38349 504.000
76.40344 519.000
76.42338 502.000
76.44333 518.000
76.46328 506.000
76.48322 534.000
76.50317 493.000
76.52312 533.000
76.54306 463.000
76.56301 509.000
76.58296 480.000
76.60291 476.000
76.62285 510.000
76.64280 524.000
76.66275 529.000
76.68269 515.000
76.70264 505.000
76.72259 492.000
76.74253 508.000
76.76248 531.000
76.78243 506.000
76.80238 516.000
76.82232 484.000
76.84227 514.000
76.86222 524.000
76.88216 501.000
76.90211 518.000
76.92206 535.000
76.94200 524.000
76.96195 522.000
76.98190 500.000
77.00184 479.000
77.02179 536.000
77.04174 511.000
77.06169 489.000
77.08163 512.000
77.10158 525.000
77.12153 486.000
77.14147 526.000
77.16142 518.000
77.18137 508.000
77.20131 521.000
77.22126 459.000
77.24121 485.000
77.26116 473.000
77.28110 502.000
77.30105 516.000
77.32100 497.000
77.34094 515.000
77.36089 492.000
77.38084 481.000
77.40078 526.000
77.42073 524.000
77.44068 557.000
77.46062 535.000
77.48057 522.000
77.50052 550.000
77.52047 507.000
77.54041 542.000
77.56036 486.000
77.58031 493.000
77.60025 525.000
77.62020 532.000
77.64015 524.000
77.66009 509.000
77.68004 526.000
77.69999 531.000
77.71994 492.000
77.73988 519.000
77.75983 503.000
77.77978 511.000
77.79972 523.000
77.81967 488.000
77.83962 512.000
77.85956 497.000
77.87951 522.000
77.89946 538.000
77.91940 556.000
77.93935 509.000
77.95930 485.000
77.97925 500.000
77.99919 543.000
78.01914 511.000
78.03909 491.000
78.05903 537.000
78.07898 529.000
78.09893 538.000
78.11887 471.000
78.13882 532.000
78.15877 534.000
78.17872 503.000
78.19866 497.000
78.21861 523.000
78.23856 532.000
78.25850 496.000
78.27845 555.000
78.29840 497.000
78.31834 504.000
78.33829 484.000
78.35824 499.000
78.37819 500.000
78.39813 468.000
78.41808 528.000
78.43803 510.000
78.45797 504.000
78.47792 499.000
78.49787 499.000
78.51781 507.000
78.53776 524.000
78.55771 503.000
78.57765 515.000
78.59760 513.000
78.61755 545.000
78.63750 518.000
78.65744 498.000
78.67739 510.000
78.69734 505.000
78.71728 537.000
78.73723 517.000
78.75718 500.000
78.77712 540.000
78.79707 495.000
78.81702 533.000
78.83697 532.000
78.85691 489.000
78.87686 518.000
78.89681 531.000
78.91675 552.000
78.93670 501.000
78.95665 530.000
78.97659 497.000
78.99654 493.000
79.01649 495.000
79.03643 477.000
79.05638 507.000
79.07633 486.000
79.09628 515.000
79.11622 514.000
79.13617 515.000
79.15612 429.000
79.17606 465.000
79.19601 542.000
79.21596 550.000
79.23590 495.000
79.25585 521.000
79.27580 522.000
79.29575 511.000
79.31569 543.000
79.33564 494.000
79.35559 524.000
79.37553 486.000
79.39548 518.000
79.41543 559.000
79.43537 555.000
79.45532 515.000
79.47527 535.000
79.49521 507.000
79.51516 554.000
79.53511 483.000
79.55506 529.000
79.57500 554.000
79.59495 552.000
79.61490 536.000
79.63484 588.000
79.65479 542.000
79.67474 585.000
79.69468 555.000
79.71463 535.000
79.73458 554.000
79.75453 584.000
79.77447 540.000
79.79442 532.000
79.81437 536.000
79.83431 533.000
79.85426 593.000
79.87421 590.000
79.89415 578.000
79.91410 519.000
79.93405 515.000
79.95399 563.000
79.97394 529.000
79.99389 528.000
80.01384 538.000
80.03378 504.000
80.05373 513.000
80.07368 539.000
80.09362 493.000
80.11357 538.000
80.13352 583.000
80.15346 521.000
80.17341 450.000
80.19336 556.000
80.21331 517.000
80.23325 483.000
80.25320 509.000
80.27315 512.000
80.29309 519.000
80.31304 525.000
80.33299 515.000
80.35293 518.000
80.37288 510.000
80.39283 513.000
80.41278 499.000
80.43272 531.000
80.45267 458.000
80.47262 521.000
80.49256 511.000
80.51251 517.000
80.53246 501.000
80.55240 530.000
80.57235 504.000
80.59230 488.000
80.61224 546.000
80.63219 549.000
80.65214 519.000
80.67209 481.000
80.69203 488.000
80.71198 495.000
80.73193 508.000
80.75187 496.000
80.77182 471.000
80.79177 508.000
80.81171 494.000
80.83166 498.000
80.85161 552.000
80.87156 519.000
80.89150 478.000
80.91145 530.000
80.93140 503.000
80.95134 520.000
80.97129 509.000
80.99124 536.000
81.01118 538.000
81.03113 502.000
81.05108 546.000
81.07102 481.000
81.09097 499.000
81.11092 482.000
81.13087 574.000
81.15081 494.000
81.17076 564.000
81.19071 502.000
81.21065 526.000
81.23060 541.000
81.25055 551.000
81.27049 527.000
81.29044 509.000
81.31039 488.000
81.33034 511.000
81.35028 519.000
81.37023 481.000
81.39018 532.000
81.41012 510.000
81.43007 521.000
81.45002 534.000
81.46996 556.000
81.48991 544.000
81.50986 490.000
81.52980 530.000
81.54975 506.000
81.56970 526.000
81.58965 514.000
81.60959 549.000
81.62954 524.000
81.64949 569.000
81.66943 535.000
81.68938 604.000
81.70933 571.000
81.72927 551.000
81.74922 543.000
81.76917 589.000
81.78912 552.000
81.80906 574.000
81.82901 623.000
81.84896 590.000
81.86890 554.000
81.88885 604.000
81.90880 621.000
81.92874 619.000
81.94869 624.000
81.96864 547.000
81.98859 564.000
82.00853 605.000
82.02848 628.000
82.04843 646.000
82.06837 579.000
82.08832 579.000
82.10827 631.000
82.12821 588.000
82.14816 568.000
82.16811 584.000
82.18805 582.000
82.20800 592.000
82.22795 552.000
82.24790 568.000
82.26784 541.000
82.28779 611.000
82.30774 563.000
82.32768 550.000
82.34763 551.000
82.36758 567.000
82.38752 564.000
82.40747 597.000
82.42742 541.000
82.44737 582.000
82.46731 561.000
82.48726 586.000
82.50721 539.000
82.52715 526.000
82.54710 541.000
82.56705 603.000
82.58699 618.000
82.60694 592.000
82.62689 579.000
82.64683 587.000
82.66678 594.000
82.68673 546.000
82.70668 582.000
82.72662 609.000
82.74657 578.000
82.76652 613.000
82.78646 566.000
82.80641 578.000
82.82636 581.000
82.84630 562.000
82.86625 603.000
82.88620 611.000
82.90615 587.000
82.92609 529.000
82.94604 603.000
82.96599 577.000
82.98593 580.000
83.00588 539.000
83.02583 611.000
83.04577 556.000
83.06572 611.000
83.08567 564.000
83.10561 609.000
83.12556 594.000
83.14551 580.000
83.16546 610.000
83.18540 629.000
83.20535 581.000
83.22530 544.000
83.24524 596.000
83.26519 620.000
83.28514 582.000
83.30508 544.000
83.32503 603.000
83.34498 567.000
83.36493 544.000
83.38487 552.000
83.40482 562.000
83.42477 527.000
83.44471 547.000
83.46466 574.000
83.48461 542.000
83.50455 505.000
83.52450 553.000
83.54445 551.000
83.56440 525.000
83.58434 510.000
83.60429 542.000
83.62424 569.000
83.64418 556.000
83.66413 479.000
83.68408 502.000
83.70402 543.000
83.72397 525.000
83.74392 482.000
83.76386 551.000
83.78381 517.000
83.80376 485.000
83.82371 541.000
83.84365 513.000
83.86360 485.000
83.88355 529.000
83.90349 519.000
83.92344 497.000
83.94339 480.000
83.96333 509.000
83.98328 479.000
84.00323 512.000
84.02318 501.000
84.04312 524.000
84.06307 511.000
84.08302 481.000
84.10296 500.000
84.12291 504.000
84.14286 525.000
84.16280 508.000
84.18275 516.000
84.20270 525.000
84.22264 527.000
84.24259 492.000
84.26254 513.000
84.28249 508.000
84.30243 535.000
84.32238 518.000
84.34233 509.000
84.36227 505.000
84.38222 502.000
84.40217 507.000
84.42211 524.000
84.44206 530.000
84.46201 508.000
84.48196 521.000
84.50190 510.000
84.52185 483.000
84.54180 544.000
84.56174 539.000
84.58169 533.000
84.60164 516.000
84.62158 509.000
84.64153 496.000
84.66148 522.000
84.68142 494.000
84.70137 486.000
84.72132 511.000
84.74127 483.000
84.76121 514.000
84.78116 494.000
84.80111 538.000
84.82105 503.000
84.84100 507.000
84.86095 516.000
84.88089 509.000
84.90084 539.000
84.92079 525.000
84.94074 487.000
84.96068 525.000
84.98063 522.000
85.00058 508.000
85.02052 461.000
85.04047 516.000
85.06042 525.000
85.08036 501.000
85.10031 522.000
85.12026 509.000
85.14021 500.000
85.16015 492.000
85.18010 528.000
85.20005 513.000
85.21999 513.000
85.23994 516.000
85.25989 529.000
85.27983 466.000
85.29978 507.000
85.31973 478.000
85.33967 483.000
85.35962 541.000
85.37957 500.000
85.39952 536.000
85.41946 500.000
85.43941 517.000
85.45936 492.000
85.47930 479.000
85.49925 537.000
85.51920 521.000
85.53914 517.000
85.55909 473.000
85.57904 516.000
85.59899 509.000
85.61893 509.000
85.63888 553.000
85.65883 515.000
85.67877 522.000
85.69872 549.000
85.71867 483.000
85.73861 528.000
85.75856 522.000
85.77851 480.000
85.79845 514.000
85.81840 479.000
85.83835 479.000
85.85830 528.000
85.87824 506.000
85.89819 506.000
85.91814 514.000
85.93808 527.000
85.95803 507.000
85.97798 521.000
85.99792 550.000
86.01787 503.000
86.03782 525.000
86.05777 515.000
86.07771 558.000
86.09766 509.000
86.11761 559.000
86.13755 518.000
86.15750 489.000
86.17745 547.000
86.19739 528.000
86.21734 514.000
86.23729 556.000
86.25723 574.000
86.27718 543.000
86.29713 530.000
86.31708 513.000
86.33702 571.000
86.35697 523.000
86.37692 518.000
86.39686 498.000
86.41681 494.000
86.43676 532.000
86.45670 503.000
86.47665 504.000
86.49660 498.000
86.51655 529.000
86.53649 510.000
86.55644 492.000
86.57639 539.000
86.59633 491.000
86.61628 499.000
86.63623 503.000
86.65617 521.000
86.67612 541.000
86.69607 508.000
86.71602 527.000
86.73596 524.000
86.75591 517.000
86.77586 498.000
86.79580 554.000
86.81575 519.000
86.83570 513.000
86.85564 523.000
86.87559 514.000
86.89554 486.000
86.91548 502.000
86.93543 545.000
86.95538 539.000
86.97533 519.000
86.99527 505.000
87.01522 505.000
87.03517 515.000
87.05511 522.000
87.07506 523.000
87.09501 469.000
87.11495 504.000
87.13490 525.000
87.15485 494.000
87.17480 527.000
87.19474 480.000
87.21469 517.000
87.23464 504.000
87.25458 497.000
87.27453 481.000
87.29448 512.000
87.31442 513.000
87.33437 475.000
87.35432 494.000
87.37426 514.000
87.39421 548.000
87.41416 521.000
87.43411 522.000
87.45405 499.000
87.47400 543.000
87.49395 520.000
87.51389 478.000
87.53384 486.000
87.55379 545.000
87.57373 523.000
87.59368 524.000
87.61363 509.000
87.63358 484.000
87.65352 523.000
87.67347 492.000
87.69342 504.000
87.71336 515.000
87.73331 551.000
87.75326 507.000
87.77320 455.000
87.79315 497.000
87.81310 484.000
87.83304 511.000
87.85299 482.000
87.87294 497.000
87.89289 489.000
87.91283 496.000
87.93278 522.000
87.95273 482.000
87.97267 537.000
87.99262 538.000
88.01257 549.000
88.03251 477.000
88.05246 516.000
88.07241 536.000
88.09236 521.000
88.11230 510.000
88.13225 516.000
88.15220 516.000
88.17214 502.000
88.19209 515.000
88.21204 503.000
88.23198 498.000
88.25193 525.000
88.27188 512.000
88.29183 512.000
88.31177 513.000
88.33172 528.000
88.35167 518.000
88.37161 520.000
88.39156 503.000
88.41151 481.000
88.43145 513.000
88.45140 523.000
88.47135 532.000
88.49129 526.000
88.51124 513.000
88.53119 501.000
88.55114 521.000
88.57108 510.000
88.59103 516.000
88.61098 527.000
88.63092 512.000
88.65087 499.000
88.67082 492.000
88.69076 536.000
88.71071 526.000
88.73066 507.000
88.75061 529.000
88.77055 524.000
88.79050 503.000
88.81045 514.000
88.83039 536.000
88.85034 510.000
88.87029 527.000
88.89023 511.000
88.91018 546.000
88.93013 522.000
88.95007 556.000
88.97002 535.000
88.98997 556.000
89.00992 550.000
89.02986 606.000
89.04981 528.000
89.06976 550.000
89.08970 526.000
89.10965 572.000
89.12960 560.000
89.14954 552.000
89.16949 551.000
89.18944 573.000
89.20939 571.000
89.22933 611.000
89.24928 562.000
89.26923 618.000
89.28917 602.000
89.30912 590.000
89.32907 581.000
89.34901 595.000
89.36896 608.000
89.38891 583.000
89.40885 595.000
89.42880 656.000
89.44875 563.000
89.46870 571.000
89.48864 532.000
89.50859 573.000
89.52854 581.000
89.54848 564.000
89.56843 554.000
89.58838 570.000
89.60832 554.000
89.62827 580.000
89.64822 604.000
89.66817 553.000
89.68811 528.000
89.70806 559.000
89.72801 563.000
89.74795 525.000
89.76790 524.000
89.78785 582.000
89.80779 539.000
89.82774 526.000
89.84769 549.000
89.86764 557.000
89.88758 542.000
89.90753 540.000
89.92748 523.000
89.94742 521.000
89.96737 494.000
89.98732 510.000
90.00726 543.000
