10.00000 243.000
10.01995 221.000
10.03989 249.000
10.05984 267.000
10.07979 261.000
10.09973 256.000
10.11968 235.000
10.13963 218.000
10.15958 236.000
10.17952 255.000
10.19947 275.000
10.21942 231.000
10.23936 244.000
10.25931 286.000
10.27926 247.000
10.29920 258.000
10.31915 251.000
10.33910 274.000
10.35905 220.000
10.37899 254.000
10.39894 233.000
10.41889 251.000
10.43883 241.000
10.45878 264.000
10.47873 245.000
10.49867 277.000
10.51862 222.000
10.53857 255.000
10.55851 258.000
10.57846 272.000
10.59841 248.000
10.61836 224.000
10.63830 245.000
10.65825 268.000
10.67820 260.000
10.69814 262.000
10.71809 280.000
10.73804 252.000
10.75798 245.000
10.77793 220.000
10.79788 252.000
10.81783 236.000
10.83777 269.000
10.85772 246.000
10.87767 235.000
10.89761 256.000
10.91756 241.000
10.93751 232.000
10.95745 267.000
10.97740 240.000
10.99735 245.000
11.01730 255.000
11.03724 269.000
11.05719 241.000
11.07714 269.000
11.09708 278.000
11.11703 276.000
11.13698 260.000
11.15692 248.000
11.17687 238.000
11.19682 254.000
11.21676 251.000
11.23671 289.000
11.25666 261.000
11.27661 239.000
11.29655 226.000
11.31650 223.000
11.33645 256.000
11.35639 253.000
11.37634 240.000
11.39629 272.000
11.41623 254.000
11.43618 272.000
11.45613 243.000
11.47608 258.000
11.49602 267.000
11.51597 262.000
11.53592 234.000
11.55586 257.000
11.57581 249.000
11.59576 250.000
11.61570 247.000
11.63565 256.000
11.65560 255.000
11.67554 259.000
11.69549 243.000
11.71544 273.000
11.73539 237.000
11.75533 240.000
11.77528 254.000
11.79523 255.000
11.81517 267.000
11.83512 264.000
11.85507 261.000
11.87501 276.000
11.89496 280.000
11.91491 253.000
11.93486 249.000
11.95480 254.000
11.97475 234.000
11.99470 283.000
12.01464 259.000
12.03459 275.000
12.05454 234.000
12.07448 248.000
12.09443 270.000
12.11438 245.000
12.13432 253.000
12.15427 246.000
12.17422 272.000
12.19417 273.000
12.21411 252.000
12.23406 260.000
12.25401 241.000
12.27395 271.000
12.29390 281.000
12.31385 254.000
12.33379 258.000
12.35374 240.000
12.37369 258.000
12.39364 293.000
12.41358 258.000
12.43353 267.000
12.45348 241.000
12.47342 263.000
12.49337 263.000
12.51332 280.000
12.53326 264.000
12.55321 244.000
12.57316 250.000
12.59311 289.000
12.61305 246.000
12.63300 253.000
12.65295 289.000
12.67289 272.000
12.69284 267.000
12.71279 247.000
12.73273 308.000
12.75268 269.000
12.77263 273.000
12.79257 258.000
12.81252 269.000
12.83247 274.000
12.85242 291.000
12.87236 244.000
12.89231 248.000
12.91226 264.000
12.93220 238.000
12.95215 280.000
12.97210 269.000
12.99204 253.000
13.01199 314.000
13.03194 275.000
13.05189 272.000
13.07183 272.000
13.09178 247.000
13.11173 235.000
13.13167 265.000
13.15162 270.000
13.17157 277.000
13.19151 259.000
13.21146 246.000
13.23141 271.000
13.25135 230.000
13.27130 255.000
13.29125 253.000
13.31120 258.000
13.33114 281.000
13.35109 259.000
13.37104 255.000
13.39098 241.000
13.41093 243.000
13.43088 246.000
13.45082 239.000
13.47077 240.000
13.49072 237.000
13.51067 279.000
13.53061 223.000
13.55056 262.000
13.57051 277.000
13.59045 246.000
13.61040 262.000
13.63035 268.000
13.65029 229.000
13.67024 252.000
13.69019 256.000
13.71013 246.000
13.73008 279.000
13.75003 291.000
13.76998 273.000
13.78992 279.000
13.80987 247.000
13.82982 266.000
13.84976 279.000
13.86971 254.000
13.88966 287.000
13.90960 236.000
13.92955 274.000
13.94950 267.000
13.96945 255.000
13.98939 279.000
14.00934 274.000
14.02929 256.000
14.04923 263.000
14.06918 272.000
14.08913 257.000
14.10907 292.000
14.12902 280.000
14.14897 236.000
14.16892 274.000
14.18886 252.000
14.20881 316.000
14.22876 244.000
14.24870 252.000
14.26865 244.000
14.28860 263.000
14.30854 243.000
14.32849 251.000
14.34844 263.000
14.36838 264.000
14.38833 242.000
14.40828 272.000
14.42823 304.000
14.44817 270.000
14.46812 272.000
14.48807 221.000
14.50801 259.000
14.52796 265.000
14.54791 236.000
14.56785 261.000
14.58780 258.000
14.60775 257.000
14.62770 275.000
14.64764 238.000
14.66759 270.000
14.68754 272.000
14.70748 286.000
14.72743 275.000
14.74738 241.000
14.76732 268.000
14.78727 281.000
14.80722 278.000
14.82716 271.000
14.84711 238.000
14.86706 272.000
14.88701 272.000
14.90695 278.000
14.92690 266.000
14.94685 276.000
14.96679 256.000
14.98674 254.000
15.00669 260.000
15.02663 275.000
15.04658 260.000
15.06653 291.000
15.08648 280.000
15.10642 274.000
15.12637 270.000
15.14632 237.000
15.16626 240.000
15.18621 243.000
15.20616 265.000
15.22610 280.000
15.24605 269.000
15.26600 322.000
15.28594 265.000
15.30589 277.000
15.32584 297.000
15.34579 276.000
15.36573 284.000
15.38568 292.000
15.40563 326.000
15.42557 277.000
15.44552 286.000
15.46547 325.000
15.48541 304.000
15.50536 312.000
15.52531 352.000
15.54526 345.000
15.56520 391.000
15.58515 358.000
15.60510 378.000
15.62504 453.000
15.64499 471.000
15.66494 576.000
15.68488 716.000
15.70483 924.000
15.72478 1312.000
15.74472 1789.000
15.76467 2551.000
15.78462 3450.000
15.80457 3873.000
15.82451 3635.000
15.84446 2909.000
15.86441 1955.000
15.88435 1076.000
15.90430 645.000
15.92425 508.000
15.94419 386.000
15.96414 363.000
15.98409 364.000
16.00404 330.000
16.02398 305.000
16.04393 344.000
16.06388 304.000
16.08382 295.000
16.10377 328.000
16.12372 297.000
16.14366 311.000
16.16361 296.000
16.18356 293.000
16.20351 296.000
16.22345 288.000
16.24340 290.000
16.26335 281.000
16.28329 295.000
16.30324 282.000
16.32319 303.000
16.34313 283.000
16.36308 298.000
16.38303 293.000
16.40297 266.000
16.42292 302.000
16.44287 282.000
16.46282 261.000
16.48276 258.000
16.50271 262.000
16.52266 274.000
16.54260 281.000
16.56255 279.000
16.58250 282.000
16.60244 286.000
16.62239 250.000
16.64234 257.000
16.66229 289.000
16.68223 279.000
16.70218 281.000
16.72213 294.000
16.74207 281.000
16.76202 256.000
16.78197 269.000
16.80191 264.000
16.82186 285.000
16.84181 281.000
16.86175 279.000
16.88170 284.000
16.90165 288.000
16.92160 270.000
16.94154 271.000
16.96149 301.000
16.98144 304.000
17.00138 298.000
17.02133 269.000
17.04128 279.000
17.06122 287.000
17.08117 293.000
17.10112 297.000
17.12107 267.000
17.14101 281.000
17.16096 287.000
17.18091 276.000
17.20085 277.000
17.22080 279.000
17.24075 277.000
17.26069 279.000
17.28064 294.000
17.30059 270.000
17.32053 284.000
17.34048 280.000
17.36043 238.000
17.38038 273.000
17.40032 257.000
17.42027 266.000
17.44022 269.000
17.46016 237.000
17.48011 270.000
17.50006 273.000
17.52000 282.000
17.53995 257.000
17.55990 254.000
17.57985 277.000
17.59979 260.000
17.61974 276.000
17.63969 255.000
17.65963 306.000
17.67958 271.000
17.69953 255.000
17.71947 275.000
17.73942 294.000
17.75937 282.000
17.77932 281.000
17.79926 269.000
17.81921 283.000
17.83916 248.000
17.85910 273.000
17.87905 281.000
17.89900 320.000
17.91894 266.000
17.93889 304.000
17.95884 263.000
17.97878 238.000
17.99873 254.000
18.01868 286.000
18.03863 281.000
18.05857 291.000
18.07852 280.000
18.09847 270.000
18.11841 259.000
18.13836 273.000
18.15831 289.000
18.17825 273.000
18.19820 258.000
18.21815 283.000
18.23810 285.000
18.25804 270.000
18.27799 297.000
18.29794 311.000
18.31788 257.000
18.33783 291.000
18.35778 303.000
18.37772 313.000
18.39767 356.000
18.41762 347.000
18.43756 434.000
18.45751 474.000
18.47746 632.000
18.49741 713.000
18.51735 781.000
18.53730 724.000
18.55725 744.000
18.57719 491.000
18.59714 450.000
18.61709 354.000
18.63703 323.000
18.65698 320.000
18.67693 317.000
18.69688 316.000
18.71682 285.000
18.73677 275.000
18.75672 321.000
18.77666 283.000
18.79661 273.000
18.81656 283.000
18.83650 284.000
18.85645 333.000
18.87640 284.000
18.89634 305.000
18.91629 255.000
18.93624 303.000
18.95619 253.000
18.97613 289.000
18.99608 286.000
19.01603 288.000
19.03597 250.000
19.05592 269.000
19.07587 279.000
19.09581 300.000
19.11576 279.000
19.13571 323.000
19.15566 299.000
19.17560 245.000
19.19555 295.000
19.21550 256.000
19.23544 263.000
19.25539 276.000
19.27534 284.000
19.29528 283.000
19.31523 265.000
19.33518 280.000
19.35513 290.000
19.37507 308.000
19.39502 261.000
19.41497 274.000
19.43491 278.000
19.45486 284.000
19.47481 290.000
19.49475 277.000
19.51470 325.000
19.53465 311.000
19.55459 298.000
19.57454 272.000
19.59449 267.000
19.61444 265.000
19.63438 317.000
19.65433 272.000
19.67428 269.000
19.69422 280.000
19.71417 291.000
19.73412 296.000
19.75406 313.000
19.77401 291.000
19.79396 281.000
19.81391 287.000
19.83385 295.000
19.85380 275.000
19.87375 290.000
19.89369 283.000
19.91364 287.000
19.93359 294.000
19.95353 248.000
19.97348 255.000
19.99343 272.000
20.01337 279.000
20.03332 293.000
20.05327 276.000
20.07322 273.000
20.09316 280.000
20.11311 282.000
20.13306 320.000
20.15300 273.000
20.17295 266.000
20.19290 317.000
20.21284 309.000
20.23279 283.000
20.25274 308.000
20.27269 293.000
20.29263 296.000
20.31258 315.000
20.33253 265.000
20.35247 292.000
20.37242 298.000
20.39237 315.000
20.41231 264.000
20.43226 290.000
20.45221 300.000
20.47215 252.000
20.49210 292.000
20.51205 304.000
20.53200 261.000
20.55194 291.000
20.57189 284.000
20.59184 301.000
20.61178 300.000
20.63173 268.000
20.65168 290.000
20.67162 287.000
20.69157 272.000
20.71152 287.000
20.73147 283.000
20.75141 267.000
20.77136 292.000
20.79131 282.000
20.81125 290.000
20.83120 298.000
20.85115 295.000
20.87109 272.000
20.89104 269.000
20.91099 295.000
20.93094 294.000
20.95088 283.000
20.97083 263.000
20.99078 278.000
21.01072 293.000
21.03067 275.000
21.05062 274.000
21.07056 269.000
21.09051 325.000
21.11046 305.000
21.13040 286.000
21.15035 294.000
21.17030 285.000
21.19025 291.000
21.21019 300.000
21.23014 294.000
21.25009 264.000
21.27003 290.000
21.28998 294.000
21.30993 290.000
21.32987 290.000
21.34982 285.000
21.36977 308.000
21.38972 306.000
21.40966 284.000
21.42961 294.000
21.44956 310.000
21.46950 281.000
21.48945 262.000
21.50940 260.000
21.52934 294.000
21.54929 285.000
21.56924 272.000
21.58918 286.000
21.60913 298.000
21.62908 288.000
21.64903 274.000
21.66897 304.000
21.68892 301.000
21.70887 331.000
21.72881 286.000
21.74876 292.000
21.76871 321.000
21.78865 307.000
21.80860 290.000
21.82855 271.000
21.84850 281.000
21.86844 301.000
21.88839 288.000
21.90834 308.000
21.92828 307.000
21.94823 322.000
21.96818 314.000
21.98812 284.000
22.00807 299.000
22.02802 271.000
22.04796 291.000
22.06791 279.000
22.08786 295.000
22.10781 305.000
22.12775 285.000
22.14770 275.000
22.16765 291.000
22.18759 316.000
22.20754 275.000
22.22749 292.000
22.24743 319.000
22.26738 286.000
22.28733 308.000
22.30728 299.000
22.32722 298.000
22.34717 331.000
22.36712 281.000
22.38706 277.000
22.40701 300.000
22.42696 301.000
22.44690 286.000
22.46685 288.000
22.48680 313.000
22.50675 284.000
22.52669 285.000
22.54664 303.000
22.56659 321.000
22.58653 326.000
22.60648 288.000
22.62643 297.000
22.64637 294.000
22.66632 312.000
22.68627 325.000
22.70621 295.000
22.72616 334.000
22.74611 264.000
22.76606 313.000
22.78600 278.000
22.80595 293.000
22.82590 283.000
22.84584 325.000
22.86579 296.000
22.88574 284.000
22.90568 285.000
22.92563 311.000
22.94558 324.000
22.96553 302.000
22.98547 306.000
23.00542 294.000
23.02537 308.000
23.04531 298.000
23.06526 337.000
23.08521 313.000
23.10515 314.000
23.12510 294.000
23.14505 297.000
23.16499 275.000
23.18494 308.000
23.20489 288.000
23.22484 312.000
23.24478 312.000
23.26473 281.000
23.28468 318.000
23.30462 297.000
23.32457 291.000
23.34452 300.000
23.36446 276.000
23.38441 338.000
23.40436 298.000
23.42431 290.000
23.44425 298.000
23.46420 327.000
23.48415 302.000
23.50409 308.000
23.52404 317.000
23.54399 303.000
23.56393 302.000
23.58388 313.000
23.60383 291.000
23.62377 300.000
23.64372 294.000
23.66367 323.000
23.68362 307.000
23.70356 280.000
23.72351 355.000
23.74346 301.000
23.76340 310.000
23.78335 299.000
23.80330 314.000
23.82324 287.000
23.84319 330.000
23.86314 305.000
23.88309 293.000
23.90303 314.000
23.92298 323.000
23.94293 293.000
23.96287 301.000
23.98282 313.000
24.00277 268.000
24.02271 299.000
24.04266 271.000
24.06261 300.000
24.08256 292.000
24.10250 296.000
24.12245 316.000
24.14240 324.000
24.16234 307.000
24.18229 284.000
24.20224 285.000
24.22218 332.000
24.24213 343.000
24.26208 305.000
24.28202 290.000
24.30197 305.000
24.32192 316.000
24.34187 321.000
24.36181 290.000
24.38176 311.000
24.40171 301.000
24.42165 317.000
24.44160 320.000
24.46155 279.000
24.48149 312.000
24.50144 300.000
24.52139 322.000
24.54134 307.000
24.56128 316.000
24.58123 304.000
24.60118 289.000
24.62112 294.000
24.64107 306.000
24.66102 325.000
24.68096 308.000
24.70091 329.000
24.72086 320.000
24.74080 327.000
24.76075 307.000
24.78070 317.000
24.80065 300.000
24.82059 298.000
24.84054 292.000
24.86049 324.000
24.88043 310.000
24.90038 332.000
24.92033 322.000
24.94027 273.000
24.96022 316.000
24.98017 305.000
25.00012 316.000
25.02006 289.000
25.04001 281.000
25.05996 320.000
25.07990 315.000
25.09985 324.000
25.11980 325.000
25.13974 317.000
25.15969 311.000
25.17964 315.000
25.19958 357.000
25.21953 309.000
25.23948 325.000
25.25943 334.000
25.27937 334.000
25.29932 308.000
25.31927 301.000
25.33921 367.000
25.35916 330.000
25.37911 332.000
25.39905 324.000
25.41900 323.000
25.43895 319.000
25.45890 329.000
25.47884 349.000
25.49879 312.000
25.51874 335.000
25.53868 285.000
25.55863 326.000
25.57858 332.000
25.59852 344.000
25.61847 321.000
25.63842 300.000
25.65837 345.000
25.67831 303.000
25.69826 354.000
25.71821 310.000
25.73815 313.000
25.75810 301.000
25.77805 332.000
25.79799 315.000
25.81794 300.000
25.83789 326.000
25.85783 340.000
25.87778 309.000
25.89773 359.000
25.91768 324.000
25.93762 348.000
25.95757 372.000
25.97752 328.000
25.99746 338.000
26.01741 320.000
26.03736 324.000
26.05730 334.000
26.07725 329.000
26.09720 337.000
26.11715 338.000
26.13709 337.000
26.15704 334.000
26.17699 328.000
26.19693 341.000
26.21688 339.000
26.23683 322.000
26.25677 356.000
26.27672 299.000
26.29667 324.000
26.31661 345.000
26.33656 314.000
26.35651 347.000
26.37646 329.000
26.39640 314.000
26.41635 322.000
26.43630 338.000
26.45624 337.000
26.47619 328.000
26.49614 344.000
26.51608 332.000
26.53603 337.000
26.55598 309.000
26.57593 335.000
26.59587 340.000
26.61582 361.000
26.63577 340.000
26.65571 312.000
26.67566 380.000
26.69561 320.000
26.71555 328.000
26.73550 340.000
26.75545 344.000
26.77539 374.000
26.79534 312.000
26.81529 339.000
26.83524 348.000
26.85518 337.000
26.87513 339.000
26.89508 344.000
26.91502 317.000
26.93497 366.000
26.95492 354.000
26.97486 312.000
26.99481 327.000
27.01476 348.000
27.03471 331.000
27.05465 328.000
27.07460 348.000
27.09455 345.000
27.11449 320.000
27.13444 358.000
27.15439 353.000
27.17433 325.000
27.19428 301.000
27.21423 321.000
27.23417 331.000
27.25412 344.000
27.27407 387.000
27.29402 334.000
27.31396 342.000
27.33391 349.000
27.35386 341.000
27.37380 336.000
27.39375 353.000
27.41370 375.000
27.43364 351.000
27.45359 353.000
27.47354 354.000
27.49349 337.000
27.51343 382.000
27.53338 362.000
27.55333 347.000
27.57327 342.000
27.59322 318.000
27.61317 378.000
27.63311 368.000
27.65306 347.000
27.67301 382.000
27.69296 353.000
27.71290 357.000
27.73285 354.000
27.75280 356.000
27.77274 347.000
27.79269 340.000
27.81264 331.000
27.83258 358.000
27.85253 365.000
27.87248 373.000
27.89242 365.000
27.91237 369.000
27.93232 386.000
27.95227 381.000
27.97221 361.000
27.99216 347.000
28.01211 356.000
28.03205 358.000
28.05200 322.000
28.07195 350.000
28.09189 361.000
28.11184 334.000
28.13179 335.000
28.15174 333.000
28.17168 352.000
28.19163 355.000
28.21158 341.000
28.23152 324.000
28.25147 373.000
28.27142 367.000
28.29136 369.000
28.31131 333.000
28.33126 382.000
28.35120 326.000
28.37115 358.000
28.39110 355.000
28.41105 331.000
28.43099 355.000
28.45094 338.000
28.47089 349.000
28.49083 395.000
28.51078 347.000
28.53073 385.000
28.55067 345.000
28.57062 362.000
28.59057 386.000
28.61052 355.000
28.63046 394.000
28.65041 381.000
28.67036 349.000
28.69030 320.000
28.71025 379.000
28.73020 343.000
28.75014 353.000
28.77009 324.000
28.79004 363.000
28.80998 345.000
28.82993 361.000
28.84988 322.000
28.86983 315.000
28.88977 369.000
28.90972 390.000
28.92967 393.000
28.94961 368.000
28.96956 377.000
28.98951 381.000
29.00945 376.000
29.02940 348.000
29.04935 372.000
29.06930 320.000
29.08924 351.000
29.10919 351.000
29.12914 358.000
29.14908 357.000
29.16903 361.000
29.18898 360.000
29.20892 381.000
29.22887 365.000
29.24882 327.000
29.26877 398.000
29.28871 399.000
29.30866 374.000
29.32861 367.000
29.34855 346.000
29.36850 363.000
29.38845 358.000
29.40839 375.000
29.42834 375.000
29.44829 362.000
29.46823 384.000
29.48818 357.000
29.50813 368.000
29.52808 341.000
29.54802 380.000
29.56797 375.000
29.58792 351.000
29.60786 331.000
29.62781 379.000
29.64776 389.000
29.66770 371.000
29.68765 378.000
29.70760 391.000
29.72755 378.000
29.74749 370.000
29.76744 381.000
29.78739 395.000
29.80733 392.000
29.82728 344.000
29.84723 360.000
29.86717 355.000
29.88712 365.000
29.90707 372.000
29.92701 417.000
29.94696 378.000
29.96691 366.000
29.98686 394.000
30.00680 382.000
30.02675 377.000
30.04670 362.000
30.06664 381.000
30.08659 380.000
30.10654 366.000
30.12648 393.000
30.14643 384.000
30.16638 400.000
30.18633 391.000
30.20627 394.000
30.22622 361.000
30.24617 397.000
30.26611 447.000
30.28606 439.000
30.30601 498.000
30.32595 507.000
30.34590 591.000
30.36585 659.000
30.38579 769.000
30.40574 882.000
30.42569 1013.000
30.44564 1162.000
30.46558 1265.000
30.48553 1350.000
30.50548 1270.000
30.52542 1101.000
30.54537 988.000
30.56532 922.000
30.58526 775.000
30.60521 675.000
30.62516 568.000
30.64511 492.000
30.66505 441.000
30.68500 425.000
30.70495 463.000
30.72489 392.000
30.74484 369.000
30.76479 363.000
30.78473 414.000
30.80468 366.000
30.82463 385.000
30.84458 385.000
30.86452 398.000
30.88447 387.000
30.90442 376.000
30.92436 369.000
30.94431 389.000
30.96426 363.000
30.98420 397.000
31.00415 371.000
31.02410 371.000
31.04404 378.000
31.06399 378.000
31.08394 355.000
31.10389 384.000
31.12383 373.000
31.14378 362.000
31.16373 360.000
31.18367 405.000
31.20362 404.000
31.22357 364.000
31.24351 393.000
31.26346 347.000
31.28341 379.000
31.30336 413.000
31.32330 346.000
31.34325 376.000
31.36320 406.000
31.38314 413.000
31.40309 395.000
31.42304 392.000
31.44298 386.000
31.46293 378.000
31.48288 403.000
31.50282 399.000
31.52277 363.000
31.54272 419.000
31.56267 375.000
31.58261 384.000
31.60256 384.000
31.62251 383.000
31.64245 399.000
31.66240 403.000
31.68235 360.000
31.70229 384.000
31.72224 419.000
31.74219 377.000
31.76214 420.000
31.78208 376.000
31.80203 411.000
31.82198 424.000
31.84192 464.000
31.86187 511.000
31.88182 604.000
31.90176 578.000
31.92171 626.000
31.94166 644.000
31.96160 646.000
31.98155 579.000
32.00150 528.000
32.02145 524.000
32.04139 461.000
32.06134 494.000
32.08129 452.000
32.10123 434.000
32.12118 377.000
32.14113 401.000
32.16107 367.000
32.18102 391.000
32.20097 330.000
32.22092 350.000
32.24086 359.000
32.26081 368.000
32.28076 370.000
32.30070 365.000
32.32065 353.000
32.34060 348.000
32.36054 373.000
32.38049 403.000
32.40044 397.000
32.42039 431.000
32.44033 466.000
32.46028 399.000
32.48023 432.000
32.50017 460.000
32.52012 442.000
32.54007 484.000
32.56001 451.000
32.57996 448.000
32.59991 409.000
32.61985 402.000
32.63980 406.000
32.65975 392.000
32.67970 361.000
32.69964 386.000
32.71959 378.000
32.73954 361.000
32.75948 357.000
32.77943 355.000
32.79938 389.000
32.81932 353.000
32.83927 379.000
32.85922 360.000
32.87917 382.000
32.89911 395.000
32.91906 335.000
32.93901 368.000
32.95895 388.000
32.97890 375.000
32.99885 393.000
33.01879 372.000
33.03874 332.000
33.05869 339.000
33.07863 361.000
33.09858 345.000
33.11853 369.000
33.13848 371.000
33.15842 354.000
33.17837 376.000
33.19832 371.000
33.21826 375.000
33.23821 378.000
33.25816 364.000
33.27810 365.000
33.29805 362.000
33.31800 359.000
33.33795 359.000
33.35789 365.000
33.37784 350.000
33.39779 384.000
33.41773 346.000
33.43768 378.000
33.45763 336.000
33.47757 336.000
33.49752 357.000
33.51747 358.000
33.53741 338.000
33.55736 402.000
33.57731 372.000
33.59726 328.000
33.61720 344.000
33.63715 356.000
33.65710 320.000
33.67704 361.000
33.69699 360.000
33.71694 386.000
33.73688 317.000
33.75683 350.000
33.77678 310.000
33.79673 365.000
33.81667 351.000
33.83662 361.000
33.85657 366.000
33.87651 349.000
33.89646 322.000
33.91641 363.000
33.93635 344.000
33.95630 348.000
33.97625 326.000
33.99620 376.000
34.01614 346.000
34.03609 344.000
34.05604 356.000
34.07598 382.000
34.09593 368.000
34.11588 363.000
34.13582 352.000
34.15577 394.000
34.17572 374.000
34.19566 371.000
34.21561 311.000
34.23556 373.000
34.25551 342.000
34.27545 403.000
34.29540 343.000
34.31535 380.000
34.33529 330.000
34.35524 359.000
34.37519 341.000
34.39513 342.000
34.41508 374.000
34.43503 368.000
34.45498 381.000
34.47492 361.000
34.49487 364.000
34.51482 371.000
34.53476 379.000
34.55471 382.000
34.57466 367.000
34.59460 380.000
34.61455 366.000
34.63450 362.000
34.65444 358.000
34.67439 368.000
34.69434 361.000
34.71429 372.000
34.73423 361.000
34.75418 378.000
34.77413 379.000
34.79407 366.000
34.81402 367.000
34.83397 379.000
34.85391 366.000
34.87386 384.000
34.89381 379.000
34.91376 387.000
34.93370 356.000
34.95365 368.000
34.97360 381.000
34.99354 394.000
35.01349 432.000
35.03344 398.000
35.05338 391.000
35.07333 363.000
35.09328 435.000
35.11322 411.000
35.13317 393.000
35.15312 416.000
35.17307 432.000
35.19301 434.000
35.21296 498.000
35.23291 425.000
35.25285 417.000
35.27280 486.000
35.29275 510.000
35.31269 514.000
35.33264 530.000
35.35259 595.000
35.37254 684.000
35.39248 739.000
35.41243 825.000
35.43238 898.000
35.45232 956.000
35.47227 1031.000
35.49222 1147.000
35.51216 1200.000
35.53211 1259.000
35.55206 1230.000
35.57201 1212.000
35.59195 1189.000
35.61190 1078.000
35.63185 1024.000
35.65179 975.000
35.67174 917.000
35.69169 888.000
35.71163 944.000
35.73158 1026.000
35.75153 1087.000
35.77147 1249.000
35.79142 1507.000
35.81137 1678.000
35.83132 2040.000
35.85126 2387.000
35.87121 2752.000
35.89116 3163.000
35.91110 3193.000
35.93105 3227.000
35.95100 3053.000
35.97094 2589.000
35.99089 2235.000
36.01084 1985.000
36.03079 1742.000
36.05073 1516.000
36.07068 1181.000
36.09063 904.000
36.11057 691.000
36.13052 641.000
36.15047 567.000
36.17041 529.000
36.19036 518.000
36.21031 499.000
36.23025 454.000
36.25020 442.000
36.27015 422.000
36.29010 433.000
36.31004 479.000
36.32999 451.000
36.34994 414.000
36.36988 438.000
36.38983 404.000
36.40978 454.000
36.42972 411.000
36.44967 409.000
36.46962 426.000
36.48957 392.000
36.50951 418.000
36.52946 388.000
36.54941 374.000
36.56935 361.000
36.58930 393.000
36.60925 367.000
36.62919 395.000
36.64914 390.000
36.66909 408.000
36.68903 414.000
36.70898 362.000
36.72893 409.000
36.74888 397.000
36.76882 450.000
36.78877 409.000
36.80872 414.000
36.82866 401.000
36.84861 454.000
36.86856 416.000
36.88850 458.000
36.90845 455.000
36.92840 488.000
36.94835 509.000
36.96829 507.000
36.98824 518.000
37.00819 567.000
37.02813 677.000
37.04808 738.000
37.06803 991.000
37.08797 1271.000
37.10792 1553.000
37.12787 1916.000
37.14781 1900.000
37.16776 1610.000
37.18771 1523.000
37.20766 1497.000
37.22760 1388.000
37.24755 1214.000
37.26750 987.000
37.28744 784.000
37.30739 646.000
37.32734 587.000
37.34728 527.000
37.36723 444.000
37.38718 475.000
37.40713 465.000
37.42707 466.000
37.44702 482.000
37.46697 481.000
37.48691 531.000
37.50686 587.000
37.52681 618.000
37.54675 596.000
37.56670 631.000
37.58665 622.000
37.60660 617.000
37.62654 584.000
37.64649 544.000
37.66644 532.000
37.68638 521.000
37.70633 520.000
37.72628 436.000
37.74622 421.000
37.76617 413.000
37.78612 377.000
37.80606 378.000
37.82601 390.000
37.84596 374.000
37.86591 380.000
37.88585 382.000
37.90580 375.000
37.92575 338.000
37.94569 341.000
37.96564 384.000
37.98559 360.000
38.00553 393.000
38.02548 379.000
38.04543 360.000
38.06538 347.000
38.08532 372.000
38.10527 359.000
38.12522 368.000
38.14516 410.000
38.16511 387.000
38.18506 391.000
38.20500 365.000
38.22495 379.000
38.24490 400.000
38.26484 397.000
38.28479 418.000
38.30474 348.000
38.32469 449.000
38.34463 421.000
38.36458 407.000
38.38453 412.000
38.40447 470.000
38.42442 485.000
38.44437 484.000
38.46431 474.000
38.48426 449.000
38.50421 547.000
38.52416 590.000
38.54410 631.000
38.56405 712.000
38.58400 767.000
38.60394 866.000
38.62389 894.000
38.64384 1043.000
38.66378 1055.000
38.68373 1099.000
38.70368 1096.000
38.72362 1116.000
38.74357 1100.000
38.76352 1022.000
38.78347 943.000
38.80341 860.000
38.82336 800.000
38.84331 793.000
38.86325 739.000
38.88320 719.000
38.90315 668.000
38.92309 703.000
38.94304 742.000
38.96299 648.000
38.98294 612.000
39.00288 604.000
39.02283 608.000
39.04278 587.000
39.06272 546.000
39.08267 512.000
39.10262 508.000
39.12256 492.000
39.14251 452.000
39.16246 390.000
39.18241 414.000
39.20235 447.000
39.22230 413.000
39.24225 401.000
39.26219 405.000
39.28214 430.000
39.30209 444.000
39.32203 422.000
39.34198 429.000
39.36193 481.000
39.38187 525.000
39.40182 527.000
39.42177 648.000
39.44172 726.000
39.46166 936.000
39.48161 1138.000
39.50156 995.000
39.52150 934.000
39.54145 793.000
39.56140 784.000
39.58134 716.000
39.60129 723.000
39.62124 619.000
39.64119 525.000
39.66113 429.000
39.68108 426.000
39.70103 412.000
39.72097 389.000
39.74092 419.000
39.76087 338.000
39.78081 376.000
39.80076 347.000
39.82071 376.000
39.84065 404.000
39.86060 358.000
39.88055 353.000
39.90050 367.000
39.92044 376.000
39.94039 370.000
39.96034 388.000
39.98028 357.000
40.00023 362.000
40.02018 334.000
40.04012 354.000
40.06007 373.000
40.08002 352.000
40.09997 360.000
40.11991 336.000
40.13986 306.000
40.15981 369.000
40.17975 339.000
40.19970 365.000
40.21965 340.000
40.23959 315.000
40.25954 361.000
40.27949 382.000
40.29943 345.000
40.31938 373.000
40.33933 363.000
40.35928 336.000
40.37922 368.000
40.39917 354.000
40.41912 336.000
40.43906 342.000
40.45901 341.000
40.47896 352.000
40.49890 337.000
40.51885 345.000
40.53880 356.000
40.55875 339.000
40.57869 340.000
40.59864 343.000
40.61859 379.000
40.63853 359.000
40.65848 349.000
40.67843 334.000
40.69837 355.000
40.71832 316.000
40.73827 324.000
40.75822 364.000
40.77816 362.000
40.79811 363.000
40.81806 345.000
40.83800 334.000
40.85795 339.000
40.87790 320.000
40.89784 377.000
40.91779 312.000
40.93774 341.000
40.95768 341.000
40.97763 378.000
40.99758 367.000
41.01753 327.000
41.03747 369.000
41.05742 325.000
41.07737 376.000
41.09731 343.000
41.11726 364.000
41.13721 343.000
41.15715 358.000
41.17710 353.000
41.19705 339.000
41.21700 349.000
41.23694 337.000
41.25689 334.000
41.27684 327.000
41.29678 315.000
41.31673 353.000
41.33668 334.000
41.35662 307.000
41.37657 336.000
41.39652 302.000
41.41646 346.000
41.43641 317.000
41.45636 356.000
41.47631 349.000
41.49625 325.000
41.51620 334.000
41.53615 348.000
41.55609 324.000
41.57604 330.000
41.59599 339.000
41.61593 363.000
41.63588 338.000
41.65583 347.000
41.67578 329.000
41.69572 366.000
41.71567 398.000
41.73562 359.000
41.75556 351.000
41.77551 329.000
41.79546 367.000
41.81540 320.000
41.83535 355.000
41.85530 312.000
41.87524 340.000
41.89519 317.000
41.91514 333.000
41.93509 374.000
41.95503 368.000
41.97498 385.000
41.99493 343.000
42.01487 357.000
42.03482 347.000
42.05477 360.000
42.07471 349.000
42.09466 340.000
42.11461 345.000
42.13456 345.000
42.15450 365.000
42.17445 357.000
42.19440 349.000
42.21434 344.000
42.23429 350.000
42.25424 336.000
42.27418 353.000
42.29413 347.000
42.31408 382.000
42.33403 340.000
42.35397 350.000
42.37392 326.000
42.39387 362.000
42.41381 412.000
42.43376 359.000
42.45371 344.000
42.47365 361.000
42.49360 363.000
42.51355 359.000
42.53349 378.000
42.55344 352.000
42.57339 392.000
42.59334 387.000
42.61328 346.000
42.63323 402.000
42.65318 393.000
42.67312 404.000
42.69307 376.000
42.71302 433.000
42.73296 413.000
42.75291 423.000
42.77286 427.000
42.79281 422.000
42.81275 451.000
42.83270 403.000
42.85265 435.000
42.87259 483.000
42.89254 505.000
42.91249 589.000
42.93243 637.000
42.95238 609.000
42.97233 690.000
42.99227 729.000
43.01222 860.000
43.03217 925.000
43.05212 1096.000
43.07206 1275.000
43.09201 1332.000
43.11196 1557.000
43.13190 1785.000
43.15185 1862.000
43.17180 1840.000
43.19174 1840.000
43.21169 1758.000
43.23164 1606.000
43.25159 1514.000
43.27153 1473.000
43.29148 1246.000
43.31143 1142.000
43.33137 1063.000
43.35132 920.000
43.37127 779.000
43.39121 773.000
43.41116 702.000
43.43111 664.000
43.45105 620.000
43.47100 661.000
43.49095 711.000
43.51090 708.000
43.53084 805.000
43.55079 859.000
43.57074 916.000
43.59068 1025.000
43.61063 901.000
43.63058 889.000
43.65052 938.000
43.67047 965.000
43.69042 857.000
43.71037 779.000
43.73031 782.000
43.75026 656.000
43.77021 584.000
43.79015 566.000
43.81010 572.000
43.83005 439.000
43.84999 442.000
43.86994 435.000
43.88989 427.000
43.90984 416.000
43.92978 424.000
43.94973 413.000
43.96968 399.000
43.98962 377.000
44.00957 349.000
44.02952 362.000
44.04946 384.000
44.06941 364.000
44.08936 319.000
44.10930 372.000
44.12925 339.000
44.14920 346.000
44.16915 312.000
44.18909 336.000
44.20904 328.000
44.22899 342.000
44.24893 340.000
44.26888 367.000
44.28883 360.000
44.30877 352.000
44.32872 351.000
44.34867 340.000
44.36862 350.000
44.38856 366.000
44.40851 355.000
44.42846 318.000
44.44840 349.000
44.46835 341.000
44.48830 341.000
44.50824 335.000
44.52819 314.000
44.54814 357.000
44.56808 354.000
44.58803 416.000
44.60798 336.000
44.62793 323.000
44.64787 329.000
44.66782 350.000
44.68777 367.000
44.70771 360.000
44.72766 328.000
44.74761 359.000
44.76755 350.000
44.78750 346.000
44.80745 345.000
44.82740 355.000
44.84734 353.000
44.86729 332.000
44.88724 343.000
44.90718 386.000
44.92713 366.000
44.94708 400.000
44.96702 366.000
44.98697 373.000
45.00692 353.000
45.02686 377.000
45.04681 380.000
45.06676 352.000
45.08671 380.000
45.10665 379.000
45.12660 394.000
45.14655 410.000
45.16649 407.000
45.18644 428.000
45.20639 434.000
45.22633 404.000
45.24628 427.000
45.26623 386.000
45.28618 406.000
45.30612 405.000
45.32607 371.000
45.34602 420.000
45.36596 354.000
45.38591 337.000
45.40586 370.000
45.42580 340.000
45.44575 352.000
45.46570 352.000
45.48565 371.000
45.50559 380.000
45.52554 330.000
45.54549 342.000
45.56543 364.000
45.58538 320.000
45.60533 312.000
45.62527 342.000
45.64522 286.000
45.66517 355.000
45.68511 323.000
45.70506 352.000
45.72501 322.000
45.74496 316.000
45.76490 336.000
45.78485 365.000
45.80480 322.000
45.82474 314.000
45.84469 367.000
45.86464 352.000
45.88458 312.000
45.90453 338.000
45.92448 308.000
45.94443 347.000
45.96437 323.000
45.98432 330.000
46.00427 350.000
46.02421 322.000
46.04416 320.000
46.06411 323.000
46.08405 313.000
46.10400 327.000
46.12395 338.000
46.14389 344.000
46.16384 327.000
46.18379 328.000
46.20374 337.000
46.22368 337.000
46.24363 362.000
46.26358 315.000
46.28352 357.000
46.30347 335.000
46.32342 323.000
46.34336 372.000
46.36331 366.000
46.38326 306.000
46.40321 320.000
46.42315 308.000
46.44310 313.000
46.46305 350.000
46.48299 322.000
46.50294 319.000
46.52289 342.000
46.54283 301.000
46.56278 328.000
46.58273 317.000
46.60267 352.000
46.62262 323.000
46.64257 309.000
46.66252 317.000
46.68246 354.000
46.70241 353.000
46.72236 312.000
46.74230 323.000
46.76225 350.000
46.78220 303.000
46.80214 352.000
46.82209 329.000
46.84204 363.000
46.86199 330.000
46.88193 338.000
46.90188 325.000
46.92183 333.000
46.94177 326.000
46.96172 324.000
46.98167 338.000
47.00161 284.000
47.02156 327.000
47.04151 321.000
47.06146 290.000
47.08140 361.000
47.10135 345.000
47.12130 339.000
47.14124 333.000
47.16119 312.000
47.18114 320.000
47.20108 319.000
47.22103 355.000
47.24098 310.000
47.26092 307.000
47.28087 327.000
47.30082 356.000
47.32077 306.000
47.34071 315.000
47.36066 351.000
47.38061 305.000
47.40055 330.000
47.42050 329.000
47.44045 332.000
47.46039 306.000
47.48034 347.000
47.50029 359.000
47.52024 359.000
47.54018 290.000
47.56013 307.000
47.58008 322.000
47.60002 295.000
47.61997 338.000
47.63992 316.000
47.65986 311.000
47.67981 359.000
47.69976 341.000
47.71970 343.000
47.73965 329.000
47.75960 318.000
47.77955 333.000
47.79949 294.000
47.81944 337.000
47.83939 323.000
47.85933 328.000
47.87928 324.000
47.89923 334.000
47.91917 329.000
47.93912 323.000
47.95907 334.000
47.97902 321.000
47.99896 332.000
48.01891 356.000
48.03886 335.000
48.05880 314.000
48.07875 327.000
48.09870 352.000
48.11864 315.000
48.13859 341.000
48.15854 336.000
48.17848 354.000
48.19843 328.000
48.21838 313.000
48.23833 347.000
48.25827 356.000
48.27822 346.000
48.29817 338.000
48.31811 337.000
48.33806 347.000
48.35801 333.000
48.37795 379.000
48.39790 382.000
48.41785 350.000
48.43780 356.000
48.45774 372.000
48.47769 371.000
48.49764 359.000
48.51758 368.000
48.53753 352.000
48.55748 391.000
48.57742 419.000
48.59737 393.000
48.61732 412.000
48.63726 406.000
48.65721 486.000
48.67716 447.000
48.69711 560.000
48.71705 587.000
48.73700 585.000
48.75695 685.000
48.77689 787.000
48.79684 914.000
48.81679 977.000
48.83673 1029.000
48.85668 1063.000
48.87663 905.000
48.89658 840.000
48.91652 788.000
48.93647 793.000
48.95642 767.000
48.97636 723.000
48.99631 680.000
49.01626 627.000
49.03620 555.000
49.05615 487.000
49.07610 465.000
49.09605 393.000
49.11599 419.000
49.13594 387.000
49.15589 364.000
49.17583 335.000
49.19578 346.000
49.21573 376.000
49.23567 359.000
49.25562 346.000
49.27557 349.000
49.29551 356.000
49.31546 354.000
49.33541 327.000
49.35536 356.000
49.37530 319.000
49.39525 329.000
49.41520 281.000
49.43514 324.000
49.45509 287.000
49.47504 310.000
49.49498 317.000
49.51493 313.000
49.53488 322.000
49.55483 344.000
49.57477 337.000
49.59472 304.000
49.61467 338.000
49.63461 307.000
49.65456 331.000
49.67451 302.000
49.69445 315.000
49.71440 306.000
49.73435 323.000
49.75429 321.000
49.77424 300.000
49.79419 331.000
49.81414 313.000
49.83408 318.000
49.85403 336.000
49.87398 321.000
49.89392 369.000
49.91387 337.000
49.93382 326.000
49.95376 323.000
49.97371 308.000
49.99366 340.000
50.01361 319.000
50.03355 330.000
50.05350 303.000
50.07345 331.000
50.09339 326.000
50.11334 317.000
50.13329 318.000
50.15323 339.000
50.17318 325.000
50.19313 321.000
50.21307 333.000
50.23302 303.000
50.25297 335.000
50.27292 318.000
50.29286 336.000
50.31281 344.000
50.33276 317.000
50.35270 341.000
50.37265 318.000
50.39260 322.000
50.41254 279.000
50.43249 302.000
50.45244 314.000
50.47239 322.000
50.49233 313.000
50.51228 348.000
50.53223 322.000
50.55217 320.000
50.57212 307.000
50.59207 328.000
50.61201 292.000
50.63196 316.000
50.65191 331.000
50.67186 309.000
50.69180 313.000
50.71175 287.000
50.73170 311.000
50.75164 299.000
50.77159 322.000
50.79154 344.000
50.81148 297.000
50.83143 328.000
50.85138 343.000
50.87132 305.000
50.89127 291.000
50.91122 301.000
50.93117 326.000
50.95111 317.000
50.97106 273.000
50.99101 293.000
51.01095 285.000
51.03090 333.000
51.05085 326.000
51.07079 349.000
51.09074 340.000
51.11069 297.000
51.13064 314.000
51.15058 294.000
51.17053 308.000
51.19048 309.000
51.21042 344.000
51.23037 290.000
51.25032 318.000
51.27026 349.000
51.29021 334.000
51.31016 314.000
51.33010 341.000
51.35005 335.000
51.37000 352.000
51.38995 343.000
51.40989 279.000
51.42984 326.000
51.44979 354.000
51.46973 288.000
51.48968 307.000
51.50963 315.000
51.52957 348.000
51.54952 304.000
51.56947 312.000
51.58942 344.000
51.60936 300.000
51.62931 334.000
51.64926 272.000
51.66920 304.000
51.68915 313.000
51.70910 302.000
51.72904 316.000
51.74899 310.000
51.76894 324.000
51.78888 322.000
51.80883 277.000
51.82878 319.000
51.84873 314.000
51.86867 320.000
51.88862 335.000
51.90857 318.000
51.92851 305.000
51.94846 271.000
51.96841 327.000
51.98835 298.000
52.00830 333.000
52.02825 320.000
52.04820 317.000
52.06814 314.000
52.08809 322.000
52.10804 306.000
52.12798 329.000
52.14793 309.000
52.16788 290.000
52.18782 317.000
52.20777 305.000
52.22772 339.000
52.24767 341.000
52.26761 304.000
52.28756 307.000
52.30751 308.000
52.32745 296.000
52.34740 307.000
52.36735 343.000
52.38729 312.000
52.40724 323.000
52.42719 352.000
52.44713 351.000
52.46708 325.000
52.48703 347.000
52.50698 305.000
52.52692 328.000
52.54687 332.000
52.56682 309.000
52.58676 316.000
52.60671 300.000
52.62666 339.000
52.64660 307.000
52.66655 326.000
52.68650 305.000
52.70645 322.000
52.72639 360.000
52.74634 322.000
52.76629 304.000
52.78623 311.000
52.80618 324.000
52.82613 362.000
52.84607 361.000
52.86602 331.000
52.88597 344.000
52.90591 350.000
52.92586 320.000
52.94581 306.000
52.96576 341.000
52.98570 319.000
53.00565 322.000
53.02560 346.000
53.04554 339.000
53.06549 309.000
53.08544 344.000
53.10538 348.000
53.12533 357.000
53.14528 314.000
53.16523 310.000
53.18517 281.000
53.20512 326.000
53.22507 340.000
53.24501 333.000
53.26496 338.000
53.28491 331.000
53.30485 374.000
53.32480 334.000
53.34475 373.000
53.36469 383.000
53.38464 372.000
53.40459 358.000
53.42454 358.000
53.44448 354.000
53.46443 353.000
53.48438 362.000
53.50432 334.000
53.52427 374.000
53.54422 368.000
53.56416 357.000
53.58411 386.000
53.60406 345.000
53.62401 353.000
53.64395 332.000
53.66390 382.000
53.68385 386.000
53.70379 296.000
53.72374 332.000
53.74369 318.000
53.76363 345.000
53.78358 368.000
53.80353 356.000
53.82348 336.000
53.84342 317.000
53.86337 339.000
53.88332 335.000
53.90326 375.000
53.92321 376.000
53.94316 328.000
53.96310 363.000
53.98305 364.000
54.00300 390.000
54.02294 406.000
54.04289 403.000
54.06284 410.000
54.08279 479.000
54.10273 410.000
54.12268 448.000
54.14263 447.000
54.16257 480.000
54.18252 510.000
54.20247 478.000
54.22241 468.000
54.24236 481.000
54.26231 463.000
54.28226 434.000
54.30220 402.000
54.32215 384.000
54.34210 402.000
54.36204 382.000
54.38199 368.000
54.40194 383.000
54.42188 356.000
54.44183 353.000
54.46178 328.000
54.48172 335.000
54.50167 332.000
54.52162 300.000
54.54157 321.000
54.56151 338.000
54.58146 350.000
54.60141 325.000
54.62135 353.000
54.64130 323.000
54.66125 316.000
54.68119 332.000
54.70114 312.000
54.72109 294.000
54.74104 290.000
54.76098 326.000
54.78093 293.000
54.80088 319.000
54.82082 343.000
54.84077 307.000
54.86072 330.000
54.88066 337.000
54.90061 290.000
54.92056 302.000
54.94050 283.000
54.96045 312.000
54.98040 327.000
55.00035 332.000
55.02029 268.000
55.04024 316.000
55.06019 308.000
55.08013 328.000
55.10008 289.000
55.12003 313.000
55.13997 350.000
55.15992 303.000
55.17987 315.000
55.19982 299.000
55.21976 305.000
55.23971 305.000
55.25966 316.000
55.27960 334.000
55.29955 329.000
55.31950 282.000
55.33944 279.000
55.35939 300.000
55.37934 323.000
55.39929 324.000
55.41923 314.000
55.43918 314.000
55.45913 319.000
55.47907 319.000
55.49902 304.000
55.51897 326.000
55.53891 295.000
55.55886 325.000
55.57881 338.000
55.59875 324.000
55.61870 324.000
55.63865 323.000
55.65860 315.000
55.67854 315.000
55.69849 311.000
55.71844 300.000
55.73838 314.000
55.75833 340.000
55.77828 322.000
55.79822 296.000
55.81817 290.000
55.83812 323.000
55.85807 327.000
55.87801 290.000
55.89796 316.000
55.91791 305.000
55.93785 345.000
55.95780 326.000
55.97775 316.000
55.99769 308.000
56.01764 330.000
56.03759 286.000
56.05753 298.000
56.07748 309.000
56.09743 295.000
56.11738 292.000
56.13732 348.000
56.15727 324.000
56.17722 283.000
56.19716 345.000
56.21711 317.000
56.23706 298.000
56.25700 289.000
56.27695 340.000
56.29690 295.000
56.31685 345.000
56.33679 305.000
56.35674 298.000
56.37669 343.000
56.39663 357.000
56.41658 341.000
56.43653 344.000
56.45647 335.000
56.47642 344.000
56.49637 317.000
56.51631 334.000
56.53626 332.000
56.55621 292.000
56.57616 376.000
56.59610 291.000
56.61605 309.000
56.63600 348.000
56.65594 316.000
56.67589 336.000
56.69584 354.000
56.71578 337.000
56.73573 341.000
56.75568 328.000
56.77563 302.000
56.79557 327.000
56.81552 301.000
56.83547 362.000
56.85541 331.000
56.87536 306.000
56.89531 307.000
56.91525 304.000
56.93520 294.000
56.95515 375.000
56.97510 366.000
56.99504 330.000
57.01499 321.000
57.03494 331.000
57.05488 300.000
57.07483 311.000
57.09478 320.000
57.11472 321.000
57.13467 332.000
57.15462 342.000
57.17456 347.000
57.19451 331.000
57.21446 390.000
57.23441 359.000
57.25435 297.000
57.27430 339.000
57.29425 348.000
57.31419 370.000
57.33414 356.000
57.35409 398.000
57.37403 355.000
57.39398 376.000
57.41393 383.000
57.43388 400.000
57.45382 380.000
57.47377 430.000
57.49372 486.000
57.51366 451.000
57.53361 476.000
57.55356 533.000
57.57350 535.000
57.59345 555.000
57.61340 606.000
57.63334 648.000
57.65329 724.000
57.67324 803.000
57.69319 800.000
57.71313 824.000
57.73308 880.000
57.75303 840.000
57.77297 926.000
57.79292 836.000
57.81287 849.000
57.83281 777.000
57.85276 745.000
57.87271 726.000
57.89266 690.000
57.91260 662.000
57.93255 643.000
57.95250 615.000
57.97244 596.000
57.99239 496.000
58.01234 494.000
58.03228 465.000
58.05223 440.000
58.07218 435.000
58.09212 448.000
58.11207 431.000
58.13202 426.000
58.15197 416.000
58.17191 430.000
58.19186 466.000
58.21181 377.000
58.23175 413.000
58.25170 449.000
58.27165 415.000
58.29159 444.000
58.31154 367.000
58.33149 398.000
58.35144 400.000
58.37138 388.000
58.39133 375.000
58.41128 359.000
58.43122 349.000
58.45117 381.000
58.47112 342.000
58.49106 357.000
58.51101 327.000
58.53096 297.000
58.55090 340.000
58.57085 373.000
58.59080 329.000
58.61075 354.000
58.63069 348.000
58.65064 340.000
58.67059 314.000
58.69053 335.000
58.71048 350.000
58.73043 331.000
58.75037 315.000
58.77032 319.000
58.79027 318.000
58.81022 339.000
58.83016 299.000
58.85011 335.000
58.87006 310.000
58.89000 372.000
58.90995 326.000
58.92990 298.000
58.94984 303.000
58.96979 323.000
58.98974 317.000
59.00969 296.000
59.02963 351.000
59.04958 324.000
59.06953 336.000
59.08947 331.000
59.10942 353.000
59.12937 310.000
59.14931 294.000
59.16926 330.000
59.18921 320.000
59.20915 337.000
59.22910 315.000
59.24905 296.000
59.26900 321.000
59.28894 300.000
59.30889 322.000
59.32884 295.000
59.34878 312.000
59.36873 326.000
59.38868 329.000
59.40862 343.000
59.42857 330.000
59.44852 302.000
59.46847 302.000
59.48841 329.000
59.50836 332.000
59.52831 288.000
59.54825 264.000
59.56820 332.000
59.58815 317.000
59.60809 343.000
59.62804 314.000
59.64799 342.000
59.66793 280.000
59.68788 349.000
59.70783 287.000
59.72778 358.000
59.74772 312.000
59.76767 314.000
59.78762 347.000
59.80756 322.000
59.82751 322.000
59.84746 313.000
59.86740 331.000
59.88735 344.000
59.90730 327.000
59.92725 330.000
59.94719 322.000
59.96714 294.000
59.98709 335.000
60.00703 302.000
60.02698 289.000
60.04693 305.000
60.06687 296.000
60.08682 352.000
60.10677 300.000
60.12671 267.000
60.14666 302.000
60.16661 330.000
60.18656 306.000
60.20650 328.000
60.22645 324.000
60.24640 336.000
60.26634 345.000
60.28629 340.000
60.30624 261.000
60.32618 279.000
60.34613 313.000
60.36608 325.000
60.38603 324.000
60.40597 363.000
60.42592 318.000
60.44587 333.000
60.46581 311.000
60.48576 339.000
60.50571 346.000
60.52565 332.000
60.54560 334.000
60.56555 329.000
60.58550 302.000
60.60544 350.000
60.62539 326.000
60.64534 303.000
60.66528 325.000
60.68523 362.000
60.70518 349.000
60.72512 322.000
60.74507 357.000
60.76502 289.000
60.78496 340.000
60.80491 295.000
60.82486 300.000
60.84481 327.000
60.86475 330.000
60.88470 330.000
60.90465 312.000
60.92459 304.000
60.94454 374.000
60.96449 321.000
60.98443 354.000
61.00438 307.000
61.02433 293.000
61.04428 313.000
61.06422 342.000
61.08417 303.000
61.10412 361.000
61.12406 340.000
61.14401 347.000
61.16396 340.000
61.18390 313.000
61.20385 338.000
61.22380 331.000
61.24374 327.000
61.26369 365.000
61.28364 320.000
61.30359 360.000
61.32353 378.000
61.34348 330.000
61.36343 337.000
61.38337 351.000
61.40332 367.000
61.42327 386.000
61.44321 410.000
61.46316 376.000
61.48311 403.000
61.50306 399.000
61.52300 390.000
61.54295 459.000
61.56290 466.000
61.58284 443.000
61.60279 451.000
61.62274 444.000
61.64268 414.000
61.66263 415.000
61.68258 456.000
61.70252 443.000
61.72247 455.000
61.74242 428.000
61.76237 434.000
61.78231 452.000
61.80226 419.000
61.82221 416.000
61.84215 439.000
61.86210 398.000
61.88205 415.000
61.90199 407.000
61.92194 441.000
61.94189 481.000
61.96184 444.000
61.98178 502.000
62.00173 487.000
62.02168 502.000
62.04162 510.000
62.06157 503.000
62.08152 504.000
62.10146 465.000
62.12141 461.000
62.14136 431.000
62.16131 423.000
62.18125 537.000
62.20120 457.000
62.22115 446.000
62.24109 443.000
62.26104 463.000
62.28099 418.000
62.30093 466.000
62.32088 437.000
62.34083 461.000
62.36077 436.000
62.38072 432.000
62.40067 418.000
62.42062 426.000
62.44056 473.000
62.46051 453.000
62.48046 490.000
62.50040 580.000
62.52035 544.000
62.54030 566.000
62.56024 670.000
62.58019 750.000
62.60014 828.000
62.62009 884.000
62.64003 952.000
62.65998 969.000
62.67993 964.000
62.69987 979.000
62.71982 941.000
62.73977 951.000
62.75971 912.000
62.77966 891.000
62.79961 787.000
62.81955 785.000
62.83950 771.000
62.85945 746.000
62.87940 739.000
62.89934 663.000
62.91929 653.000
62.93924 554.000
62.95918 541.000
62.97913 502.000
62.99908 484.000
63.01902 422.000
63.03897 495.000
63.05892 466.000
63.07887 457.000
63.09881 437.000
63.11876 459.000
63.13871 463.000
63.15865 439.000
63.17860 506.000
63.19855 539.000
63.21849 513.000
63.23844 535.000
63.25839 582.000
63.27833 601.000
63.29828 655.000
63.31823 709.000
63.33818 690.000
63.35812 780.000
63.37807 757.000
63.39802 821.000
63.41796 855.000
63.43791 834.000
63.45786 907.000
63.47780 880.000
63.49775 900.000
63.51770 805.000
63.53765 753.000
63.55759 749.000
63.57754 718.000
63.59749 663.000
63.61743 704.000
63.63738 623.000
63.65733 625.000
63.67727 595.000
63.69722 561.000
63.71717 545.000
63.73712 462.000
63.75706 478.000
63.77701 422.000
63.79696 396.000
63.81690 382.000
63.83685 342.000
63.85680 376.000
63.87674 325.000
63.89669 349.000
63.91664 339.000
63.93658 343.000
63.95653 322.000
63.97648 361.000
63.99643 348.000
64.01637 334.000
64.03632 349.000
64.05627 333.000
64.07621 318.000
64.09616 320.000
64.11611 327.000
64.13605 339.000
64.15600 327.000
64.17595 386.000
64.19590 330.000
64.21584 357.000
64.23579 348.000
64.25574 346.000
64.27568 370.000
64.29563 341.000
64.31558 345.000
64.33552 348.000
64.35547 324.000
64.37542 360.000
64.39536 349.000
64.41531 358.000
64.43526 333.000
64.45521 359.000
64.47515 357.000
64.49510 390.000
64.51505 390.000
64.53499 415.000
64.55494 426.000
64.57489 476.000
64.59483 521.000
64.61478 458.000
64.63473 498.000
64.65468 487.000
64.67462 464.000
64.69457 441.000
64.71452 418.000
64.73446 402.000
64.75441 414.000
64.77436 387.000
64.79430 447.000
64.81425 453.000
64.83420 428.000
64.85414 379.000
64.87409 388.000
64.89404 378.000
64.91399 336.000
64.93393 357.000
64.95388 346.000
64.97383 301.000
64.99377 379.000
65.01372 330.000
65.03367 348.000
65.05361 320.000
65.07356 327.000
65.09351 322.000
65.11346 334.000
65.13340 343.000
65.15335 335.000
65.17330 326.000
65.19324 350.000
65.21319 367.000
65.23314 333.000
65.25308 320.000
65.27303 307.000
65.29298 332.000
65.31293 299.000
65.33287 313.000
65.35282 338.000
65.37277 372.000
65.39271 301.000
65.41266 313.000
65.43261 318.000
65.45255 369.000
65.47250 363.000
65.49245 359.000
65.51239 336.000
65.53234 379.000
65.55229 330.000
65.57224 354.000
65.59218 392.000
65.61213 386.000
65.63208 390.000
65.65202 372.000
65.67197 393.000
65.69192 393.000
65.71186 369.000
65.73181 359.000
65.75176 371.000
65.77171 356.000
65.79165 409.000
65.81160 367.000
65.83155 388.000
65.85149 354.000
65.87144 360.000
65.89139 413.000
65.91133 386.000
65.93128 381.000
65.95123 335.000
65.97117 336.000
65.99112 358.000
66.01107 383.000
66.03102 344.000
66.05096 361.000
66.07091 375.000
66.09086 426.000
66.11080 370.000
66.13075 371.000
66.15070 361.000
66.17064 369.000
66.19059 375.000
66.21054 397.000
66.23049 421.000
66.25043 415.000
66.27038 453.000
66.29033 394.000
66.31027 433.000
66.33022 400.000
66.35017 417.000
66.37011 424.000
66.39006 426.000
66.41001 447.000
66.42995 396.000
66.44990 367.000
66.46985 432.000
66.48980 433.000
66.50974 397.000
66.52969 419.000
66.54964 414.000
66.56958 415.000
66.58953 405.000
66.60948 373.000
66.62942 385.000
66.64937 385.000
66.66932 376.000
66.68927 405.000
66.70921 367.000
66.72916 373.000
66.74911 402.000
66.76905 410.000
66.78900 384.000
66.80895 383.000
66.82889 396.000
66.84884 412.000
66.86879 401.000
66.88874 412.000
66.90868 431.000
66.92863 424.000
66.94858 453.000
66.96852 449.000
66.98847 504.000
67.00842 489.000
67.02836 445.000
67.04831 431.000
67.06826 445.000
67.08820 390.000
67.10815 419.000
67.12810 395.000
67.14805 425.000
67.16799 394.000
67.18794 366.000
67.20789 398.000
67.22783 384.000
67.24778 384.000
67.26773 332.000
67.28767 348.000
67.30762 351.000
67.32757 362.000
67.34752 302.000
67.36746 339.000
67.38741 344.000
67.40736 312.000
67.42730 346.000
67.44725 344.000
67.46720 322.000
67.48714 303.000
67.50709 323.000
67.52704 316.000
67.54698 360.000
67.56693 315.000
67.58688 366.000
67.60683 336.000
67.62677 373.000
67.64672 334.000
67.66667 335.000
67.68661 342.000
67.70656 343.000
67.72651 326.000
67.74645 362.000
67.76640 373.000
67.78635 351.000
67.80630 354.000
67.82624 345.000
67.84619 414.000
67.86614 390.000
67.88608 400.000
67.90603 393.000
67.92598 380.000
67.94592 373.000
67.96587 379.000
67.98582 413.000
68.00576 396.000
68.02571 403.000
68.04566 419.000
68.06561 405.000
68.08555 359.000
68.10550 408.000
68.12545 409.000
68.14539 373.000
68.16534 427.000
68.18529 427.000
68.20523 409.000
68.22518 378.000
68.24513 345.000
68.26508 376.000
68.28502 375.000
68.30497 336.000
68.32492 366.000
68.34486 360.000
68.36481 317.000
68.38476 366.000
68.40470 361.000
68.42465 314.000
68.44460 300.000
68.46455 336.000
68.48449 333.000
68.50444 315.000
68.52439 318.000
68.54433 313.000
68.56428 318.000
68.58423 331.000
68.60417 335.000
68.62412 314.000
68.64407 294.000
68.66401 307.000
68.68396 324.000
68.70391 298.000
68.72386 299.000
68.74380 330.000
68.76375 339.000
68.78370 296.000
68.80364 330.000
68.82359 363.000
68.84354 311.000
68.86348 325.000
68.88343 316.000
68.90338 322.000
68.92333 325.000
68.94327 350.000
68.96322 344.000
68.98317 328.000
69.00311 308.000
69.02306 303.000
69.04301 317.000
69.06295 307.000
69.08290 342.000
69.10285 307.000
69.12279 343.000
69.14274 323.000
69.16269 294.000
69.18264 314.000
69.20258 317.000
69.22253 310.000
69.24248 301.000
69.26242 291.000
69.28237 284.000
69.30232 317.000
69.32226 276.000
69.34221 312.000
69.36216 363.000
69.38211 306.000
69.40205 289.000
69.42200 311.000
69.44195 353.000
69.46189 318.000
69.48184 319.000
69.50179 344.000
69.52173 305.000
69.54168 298.000
69.56163 325.000
69.58157 310.000
69.60152 287.000
69.62147 302.000
69.64142 292.000
69.66136 317.000
69.68131 288.000
69.70126 309.000
69.72120 280.000
69.74115 338.000
69.76110 326.000
69.78104 322.000
69.80099 313.000
69.82094 300.000
69.84089 336.000
69.86083 341.000
69.88078 311.000
69.90073 290.000
69.92067 305.000
69.94062 288.000
69.96057 303.000
69.98051 299.000
70.00046 366.000
70.02041 328.000
70.04035 282.000
70.06030 315.000
70.08025 313.000
70.10020 302.000
70.12014 315.000
70.14009 301.000
70.16004 302.000
70.17998 329.000
70.19993 309.000
70.21988 304.000
70.23982 334.000
70.25977 281.000
70.27972 287.000
70.29967 343.000
70.31961 307.000
70.33956 288.000
70.35951 324.000
70.37945 291.000
70.39940 305.000
70.41935 304.000
70.43929 298.000
70.45924 299.000
70.47919 343.000
70.49914 286.000
70.51908 333.000
70.53903 345.000
70.55898 310.000
70.57892 322.000
70.59887 276.000
70.61882 326.000
70.63876 285.000
70.65871 302.000
70.67866 306.000
70.69860 311.000
70.71855 331.000
70.73850 320.000
70.75845 265.000
70.77839 283.000
70.79834 305.000
70.81829 297.000
70.83823 333.000
70.85818 294.000
70.87813 341.000
70.89807 307.000
70.91802 291.000
70.93797 304.000
70.95792 286.000
70.97786 313.000
70.99781 323.000
71.01776 307.000
71.03770 307.000
71.05765 331.000
71.07760 321.000
71.09754 312.000
71.11749 306.000
71.13744 328.000
71.15738 307.000
71.17733 308.000
71.19728 322.000
71.21723 312.000
71.23717 302.000
71.25712 309.000
71.27707 324.000
71.29701 276.000
71.31696 325.000
71.33691 303.000
71.35685 316.000
71.37680 285.000
71.39675 304.000
71.41670 320.000
71.43664 303.000
71.45659 316.000
71.47654 307.000
71.49648 319.000
71.51643 332.000
71.53638 287.000
71.55632 307.000
71.57627 299.000
71.59622 324.000
71.61616 310.000
71.63611 324.000
71.65606 308.000
71.67601 346.000
71.69595 316.000
71.71590 336.000
71.73585 365.000
71.75579 325.000
71.77574 353.000
71.79569 348.000
71.81563 337.000
71.83558 296.000
71.85553 347.000
71.87548 331.000
71.89542 362.000
71.91537 354.000
71.93532 349.000
71.95526 348.000
71.97521 354.000
71.99516 332.000
72.01510 339.000
72.03505 341.000
72.05500 363.000
72.07495 329.000
72.09489 336.000
72.11484 367.000
72.13479 373.000
72.15473 346.000
72.17468 351.000
72.19463 377.000
72.21457 348.000
72.23452 341.000
72.25447 339.000
72.27441 380.000
72.29436 356.000
72.31431 304.000
72.33426 340.000
72.35420 375.000
72.37415 347.000
72.39410 318.000
72.41404 366.000
72.43399 367.000
72.45394 335.000
72.47388 326.000
72.49383 314.000
72.51378 334.000
72.53373 351.000
72.55367 350.000
72.57362 332.000
72.59357 347.000
72.61351 344.000
72.63346 347.000
72.65341 297.000
72.67335 309.000
72.69330 343.000
72.71325 315.000
72.73319 305.000
72.75314 330.000
72.77309 310.000
72.79304 330.000
72.81298 323.000
72.83293 321.000
72.85288 352.000
72.87282 320.000
72.89277 313.000
72.91272 287.000
72.93266 297.000
72.95261 324.000
72.97256 314.000
72.99251 281.000
73.01245 294.000
73.03240 283.000
73.05235 301.000
73.07229 299.000
73.09224 307.000
73.11219 304.000
73.13213 302.000
73.15208 332.000
73.17203 290.000
73.19197 320.000
73.21192 325.000
73.23187 309.000
73.25182 302.000
73.27176 314.000
73.29171 293.000
73.31166 279.000
73.33160 310.000
73.35155 348.000
73.37150 290.000
73.39144 333.000
73.41139 316.000
73.43134 325.000
73.45129 346.000
73.47123 301.000
73.49118 310.000
73.51113 305.000
73.53107 332.000
73.55102 327.000
73.57097 301.000
73.59091 307.000
73.61086 350.000
73.63081 282.000
73.65076 336.000
73.67070 322.000
73.69065 331.000
73.71060 301.000
73.73054 292.000
73.75049 324.000
73.77044 320.000
73.79038 343.000
73.81033 301.000
73.83028 372.000
73.85022 367.000
73.87017 298.000
73.89012 386.000
73.91007 385.000
73.93001 341.000
73.94996 338.000
73.96991 355.000
73.98985 351.000
74.00980 323.000
74.02975 345.000
74.04969 332.000
74.06964 342.000
74.08959 363.000
74.10954 346.000
74.12948 332.000
74.14943 359.000
74.16938 327.000
74.18932 309.000
74.20927 327.000
74.22922 333.000
74.24916 317.000
74.26911 308.000
74.28906 289.000
74.30900 304.000
74.32895 300.000
74.34890 328.000
74.36885 302.000
74.38879 331.000
74.40874 306.000
74.42869 347.000
74.44863 313.000
74.46858 310.000
74.48853 318.000
74.50847 319.000
74.52842 292.000
74.54837 347.000
74.56832 328.000
74.58826 319.000
74.60821 345.000
74.62816 342.000
74.64810 342.000
74.66805 373.000
74.68800 340.000
74.70794 339.000
74.72789 353.000
74.74784 345.000
74.76778 370.000
74.78773 366.000
74.80768 398.000
74.82763 386.000
74.84757 397.000
74.86752 409.000
74.88747 388.000
74.90741 431.000
74.92736 449.000
74.94731 519.000
74.96725 450.000
74.98720 515.000
75.00715 485.000
75.02710 548.000
75.04704 594.000
75.06699 611.000
75.08694 622.000
75.10688 630.000
75.12683 632.000
75.14678 650.000
75.16672 632.000
75.18667 649.000
75.20662 663.000
75.22657 676.000
75.24651 594.000
75.26646 617.000
75.28641 531.000
75.30635 577.000
75.32630 529.000
75.34625 543.000
75.36619 585.000
75.38614 494.000
75.40609 517.000
75.42603 470.000
75.44598 474.000
75.46593 482.000
75.48588 424.000
75.50582 407.000
75.52577 430.000
75.54572 417.000
75.56566 376.000
75.58561 389.000
75.60556 354.000
75.62550 341.000
75.64545 379.000
75.66540 350.000
75.68535 357.000
75.70529 357.000
75.72524 340.000
75.74519 330.000
75.76513 331.000
75.78508 337.000
75.80503 350.000
75.82497 328.000
75.84492 382.000
75.86487 358.000
75.88481 355.000
75.90476 306.000
75.92471 337.000
75.94466 351.000
75.96460 313.000
75.98455 343.000
76.00450 353.000
76.02444 391.000
76.04439 370.000
76.06434 386.000
76.08428 351.000
76.10423 401.000
76.12418 362.000
76.14413 360.000
76.16407 375.000
76.18402 367.000
76.20397 377.000
76.22391 350.000
76.24386 414.000
76.26381 381.000
76.28375 413.000
76.30370 315.000
76.32365 368.000
76.34359 346.000
76.36354 344.000
76.38349 326.000
76.40344 365.000
76.42338 334.000
76.44333 364.000
76.46328 329.000
76.48322 326.000
76.50317 352.000
76.52312 325.000
76.54306 343.000
76.56301 334.000
76.58296 301.000
76.60291 293.000
76.62285 319.000
76.64280 307.000
76.66275 349.000
76.68269 320.000
76.70264 314.000
76.72259 295.000
76.74253 316.000
76.76248 324.000
76.78243 287.000
76.80238 307.000
76.82232 327.000
76.84227 311.000
76.86222 350.000
76.88216 338.000
76.90211 301.000
76.92206 302.000
76.94200 281.000
76.96195 308.000
76.98190 317.000
77.00184 299.000
77.02179 300.000
77.04174 317.000
77.06169 326.000
77.08163 314.000
77.10158 319.000
77.12153 309.000
77.14147 320.000
77.16142 330.000
77.18137 324.000
77.20131 337.000
77.22126 275.000
77.24121 351.000
77.26116 325.000
77.28110 263.000
77.30105 301.000
77.32100 301.000
77.34094 280.000
77.36089 293.000
77.38084 300.000
77.40078 327.000
77.42073 330.000
77.44068 330.000
77.46062 301.000
77.48057 309.000
77.50052 319.000
77.52047 299.000
77.54041 332.000
77.56036 280.000
77.58031 319.000
77.60025 315.000
77.62020 295.000
77.64015 350.000
77.66009 311.000
77.68004 290.000
77.69999 303.000
77.71994 301.000
77.73988 310.000
77.75983 356.000
77.77978 309.000
77.79972 339.000
77.81967 319.000
77.83962 325.000
77.85956 306.000
77.87951 316.000
77.89946 323.000
77.91940 311.000
77.93935 317.000
77.95930 366.000
77.97925 331.000
77.99919 289.000
78.01914 336.000
78.03909 299.000
78.05903 316.000
78.07898 341.000
78.09893 324.000
78.11887 359.000
78.13882 368.000
78.15877 363.000
78.17872 288.000
78.19866 354.000
78.21861 373.000
78.23856 359.000
78.25850 333.000
78.27845 356.000
78.29840 316.000
78.31834 350.000
78.33829 350.000
78.35824 351.000
78.37819 367.000
78.39813 390.000
78.41808 382.000
78.43803 366.000
78.45797 345.000
78.47792 399.000
78.49787 357.000
78.51781 353.000
78.53776 359.000
78.55771 322.000
78.57765 322.000
78.59760 373.000
78.61755 345.000
78.63750 326.000
78.65744 322.000
78.67739 381.000
78.69734 330.000
78.71728 343.000
78.73723 332.000
78.75718 335.000
78.77712 323.000
78.79707 344.000
78.81702 346.000
78.83697 352.000
78.85691 332.000
78.87686 357.000
78.89681 356.000
78.91675 346.000
78.93670 335.000
78.95665 362.000
78.97659 351.000
78.99654 368.000
79.01649 399.000
79.03643 422.000
79.05638 481.000
79.07633 467.000
79.09628 473.000
79.11622 495.000
79.13617 436.000
79.15612 443.000
79.17606 467.000
79.19601 438.000
79.21596 427.000
79.23590 409.000
79.25585 435.000
79.27580 386.000
79.29575 419.000
79.31569 441.000
79.33564 427.000
79.35559 408.000
79.37553 381.000
79.39548 423.000
79.41543 386.000
79.43537 398.000
79.45532 383.000
79.47527 332.000
79.49521 345.000
79.51516 359.000
79.53511 331.000
79.55506 307.000
79.57500 328.000
79.59495 345.000
79.61490 325.000
79.63484 307.000
79.65479 327.000
79.67474 324.000
79.69468 294.000
79.71463 349.000
79.73458 296.000
79.75453 320.000
79.77447 317.000
79.79442 290.000
79.81437 324.000
79.83431 324.000
79.85426 298.000
79.87421 332.000
79.89415 291.000
79.91410 294.000
79.93405 326.000
79.95399 332.000
79.97394 321.000
79.99389 367.000
80.01384 367.000
80.03378 337.000
80.05373 337.000
80.07368 299.000
80.09362 376.000
80.11357 371.000
80.13352 306.000
80.15346 349.000
80.17341 309.000
80.19336 349.000
80.21331 347.000
80.23325 361.000
80.25320 345.000
80.27315 345.000
80.29309 343.000
80.31304 343.000
80.33299 334.000
80.35293 316.000
80.37288 374.000
80.39283 339.000
80.41278 333.000
80.43272 312.000
80.45267 333.000
80.47262 307.000
80.49256 299.000
80.51251 348.000
80.53246 315.000
80.55240 320.000
80.57235 338.000
80.59230 302.000
80.61224 296.000
80.63219 296.000
80.65214 312.000
80.67209 314.000
80.69203 289.000
80.71198 312.000
80.73193 319.000
80.75187 288.000
80.77182 322.000
80.79177 326.000
80.81171 302.000
80.83166 308.000
80.85161 305.000
80.87156 310.000
80.89150 310.000
80.91145 302.000
80.93140 306.000
80.95134 319.000
80.97129 332.000
80.99124 291.000
81.01118 304.000
81.03113 320.000
81.05108 283.000
81.07102 338.000
81.09097 303.000
81.11092 306.000
81.13087 309.000
81.15081 298.000
81.17076 353.000
81.19071 287.000
81.21065 305.000
81.23060 295.000
81.25055 323.000
81.27049 320.000
81.29044 320.000
81.31039 304.000
81.33034 288.000
81.35028 278.000
81.37023 324.000
81.39018 311.000
81.41012 344.000
81.43007 311.000
81.45002 339.000
81.46996 329.000
81.48991 295.000
81.50986 311.000
81.52980 298.000
81.54975 312.000
81.56970 293.000
81.58965 317.000
81.60959 289.000
81.62954 308.000
81.64949 279.000
81.66943 312.000
81.68938 311.000
81.70933 317.000
81.72927 323.000
81.74922 282.000
81.76917 318.000
81.78912 295.000
81.80906 291.000
81.82901 316.000
81.84896 279.000
81.86890 289.000
81.88885 294.000
81.90880 321.000
81.92874 326.000
81.94869 290.000
81.96864 318.000
81.98859 319.000
82.00853 321.000
82.02848 303.000
82.04843 318.000
82.06837 330.000
82.08832 306.000
82.10827 338.000
82.12821 356.000
82.14816 343.000
82.16811 291.000
82.18805 282.000
82.20800 315.000
82.22795 310.000
82.24790 314.000
82.26784 315.000
82.28779 296.000
82.30774 299.000
82.32768 311.000
82.34763 334.000
82.36758 325.000
82.38752 341.000
82.40747 326.000
82.42742 309.000
82.44737 330.000
82.46731 345.000
82.48726 308.000
82.50721 334.000
82.52715 335.000
82.54710 322.000
82.56705 349.000
82.58699 355.000
82.60694 352.000
82.62689 307.000
82.64683 362.000
82.66678 357.000
82.68673 323.000
82.70668 317.000
82.72662 327.000
82.74657 348.000
82.76652 314.000
82.78646 354.000
82.80641 342.000
82.82636 320.000
82.84630 340.000
82.86625 339.000
82.88620 321.000
82.90615 294.000
82.92609 348.000
82.94604 290.000
82.96599 332.000
82.98593 338.000
83.00588 321.000
83.02583 315.000
83.04577 327.000
83.06572 332.000
83.08567 349.000
83.10561 324.000
83.12556 342.000
83.14551 306.000
83.16546 336.000
83.18540 341.000
83.20535 319.000
83.22530 333.000
83.24524 346.000
83.26519 353.000
83.28514 367.000
83.30508 323.000
83.32503 314.000
83.34498 304.000
83.36493 314.000
83.38487 326.000
83.40482 324.000
83.42477 319.000
83.44471 371.000
83.46466 348.000
83.48461 333.000
83.50455 317.000
83.52450 319.000
83.54445 302.000
83.56440 324.000
83.58434 335.000
83.60429 328.000
83.62424 337.000
83.64418 348.000
83.66413 297.000
83.68408 321.000
83.70402 300.000
83.72397 366.000
83.74392 314.000
83.76386 326.000
83.78381 319.000
83.80376 334.000
83.82371 303.000
83.84365 309.000
83.86360 333.000
83.88355 342.000
83.90349 324.000
83.92344 323.000
83.94339 299.000
83.96333 320.000
83.98328 329.000
84.00323 301.000
84.02318 306.000
84.04312 312.000
84.06307 301.000
84.08302 288.000
84.10296 312.000
84.12291 323.000
84.14286 292.000
84.16280 340.000
84.18275 299.000
84.20270 301.000
84.22264 318.000
84.24259 316.000
84.26254 317.000
84.28249 307.000
84.30243 305.000
84.32238 333.000
84.34233 308.000
84.36227 328.000
84.38222 324.000
84.40217 294.000
84.42211 305.000
84.44206 293.000
84.46201 332.000
84.48196 304.000
84.50190 308.000
84.52185 277.000
84.54180 320.000
84.56174 323.000
84.58169 317.000
84.60164 310.000
84.62158 309.000
84.64153 325.000
84.66148 285.000
84.68142 315.000
84.70137 287.000
84.72132 315.000
84.74127 329.000
84.76121 321.000
84.78116 332.000
84.80111 333.000
84.82105 311.000
84.84100 334.000
84.86095 328.000
84.88089 323.000
84.90084 328.000
84.92079 320.000
84.94074 328.000
84.96068 364.000
84.98063 365.000
85.00058 347.000
85.02052 321.000
85.04047 367.000
85.06042 376.000
85.08036 319.000
85.10031 328.000
85.12026 338.000
85.14021 305.000
85.16015 365.000
85.18010 325.000
85.20005 330.000
85.21999 339.000
85.23994 344.000
85.25989 333.000
85.27983 316.000
85.29978 339.000
85.31973 321.000
85.33967 343.000
85.35962 325.000
85.37957 350.000
85.39952 297.000
85.41946 327.000
85.43941 306.000
85.45936 341.000
85.47930 352.000
85.49925 308.000
85.51920 304.000
85.53914 309.000
85.55909 308.000
85.57904 304.000
85.59899 318.000
85.61893 314.000
85.63888 267.000
85.65883 304.000
85.67877 312.000
85.69872 269.000
85.71867 310.000
85.73861 309.000
85.75856 304.000
85.77851 287.000
85.79845 281.000
85.81840 298.000
85.83835 262.000
85.85830 326.000
85.87824 303.000
85.89819 329.000
85.91814 322.000
85.93808 304.000
85.95803 322.000
85.97798 310.000
85.99792 319.000
86.01787 301.000
86.03782 279.000
86.05777 315.000
86.07771 296.000
86.09766 298.000
86.11761 310.000
86.13755 302.000
86.15750 310.000
86.17745 318.000
86.19739 276.000
86.21734 301.000
86.23729 290.000
86.25723 275.000
86.27718 353.000
86.29713 303.000
86.31708 325.000
86.33702 317.000
86.35697 300.000
86.37692 364.000
86.39686 335.000
86.41681 328.000
86.43676 314.000
86.45670 321.000
86.47665 313.000
86.49660 325.000
86.51655 266.000
86.53649 275.000
86.55644 341.000
86.57639 279.000
86.59633 291.000
86.61628 301.000
86.63623 308.000
86.65617 320.000
86.67612 342.000
86.69607 257.000
86.71602 316.000
86.73596 278.000
86.75591 315.000
86.77586 298.000
86.79580 324.000
86.81575 308.000
86.83570 307.000
86.85564 339.000
86.87559 358.000
86.89554 312.000
86.91548 307.000
86.93543 293.000
86.95538 304.000
86.97533 297.000
86.99527 330.000
87.01522 315.000
87.03517 310.000
87.05511 323.000
87.07506 315.000
87.09501 316.000
87.11495 300.000
87.13490 333.000
87.15485 289.000
87.17480 282.000
87.19474 306.000
87.21469 296.000
87.23464 302.000
87.25458 304.000
87.27453 340.000
87.29448 337.000
87.31442 309.000
87.33437 298.000
87.35432 318.000
87.37426 326.000
87.39421 288.000
87.41416 310.000
87.43411 325.000
87.45405 308.000
87.47400 273.000
87.49395 312.000
87.51389 337.000
87.53384 328.000
87.55379 339.000
87.57373 292.000
87.59368 315.000
87.61363 319.000
87.63358 317.000
87.65352 310.000
87.67347 316.000
87.69342 325.000
87.71336 324.000
87.73331 320.000
87.75326 299.000
87.77320 289.000
87.79315 310.000
87.81310 310.000
87.83304 332.000
87.85299 307.000
87.87294 322.000
87.89289 331.000
87.91283 316.000
87.93278 335.000
87.95273 320.000
87.97267 335.000
87.99262 307.000
88.01257 345.000
88.03251 363.000
88.05246 321.000
88.07241 328.000
88.09236 350.000
88.11230 349.000
88.13225 327.000
88.15220 336.000
88.17214 346.000
88.19209 354.000
88.21204 329.000
88.23198 347.000
88.25193 350.000
88.27188 337.000
88.29183 301.000
88.31177 314.000
88.33172 333.000
88.35167 360.000
88.37161 353.000
88.39156 365.000
88.41151 344.000
88.43145 326.000
88.45140 318.000
88.47135 341.000
88.49129 327.000
88.51124 330.000
88.53119 302.000
88.55114 331.000
88.57108 311.000
88.59103 327.000
88.61098 319.000
88.63092 324.000
88.65087 328.000
88.67082 312.000
88.69076 317.000
88.71071 311.000
88.73066 289.000
88.75061 311.000
88.77055 341.000
88.79050 270.000
88.81045 300.000
88.83039 323.000
88.85034 284.000
88.87029 321.000
88.89023 306.000
88.91018 291.000
88.93013 292.000
88.95007 283.000
88.97002 306.000
88.98997 312.000
89.00992 303.000
89.02986 296.000
89.04981 329.000
89.06976 310.000
89.08970 322.000
89.10965 299.000
89.12960 366.000
89.14954 285.000
89.16949 301.000
89.18944 304.000
89.20939 299.000
89.22933 295.000
89.24928 313.000
89.26923 291.000
89.28917 318.000
89.30912 296.000
89.32907 278.000
89.34901 325.000
89.36896 312.000
89.38891 341.000
89.40885 342.000
89.42880 319.000
89.44875 321.000
89.46870 327.000
89.48864 309.000
89.50859 301.000
89.52854 296.000
89.54848 314.000
89.56843 317.000
89.58838 299.000
89.60832 312.000
89.62827 298.000
89.64822 311.000
89.66817 317.000
89.68811 328.000
89.70806 310.000
89.72801 328.000
89.74795 321.000
89.76790 335.000
89.78785 347.000
89.80779 336.000
89.82774 315.000
89.84769 322.000
89.86764 313.000
89.88758 297.000
89.90753 301.000
89.92748 313.000
89.94742 289.000
89.96737 333.000
89.98732 327.000
90.00726 323.000
