10.00000 84.000
10.01995 93.000
10.03989 86.000
10.05984 92.000
10.07979 86.000
10.09973 85.000
10.11968 85.000
10.13963 74.000
10.15958 86.000
10.17952 76.000
10.19947 87.000
10.21942 93.000
10.23936 73.000
10.25931 83.000
10.27926 80.000
10.29920 84.000
10.31915 82.000
10.33910 77.000
10.35905 88.000
10.37899 79.000
10.39894 74.000
10.41889 88.000
10.43883 102.000
10.45878 80.000
10.47873 86.000
10.49867 100.000
10.51862 65.000
10.53857 93.000
10.55851 84.000
10.57846 96.000
10.59841 88.000
10.61836 67.000
10.63830 87.000
10.65825 93.000
10.67820 93.000
10.69814 83.000
10.71809 88.000
10.73804 71.000
10.75798 76.000
10.77793 79.000
10.79788 74.000
10.81783 74.000
10.83777 84.000
10.85772 64.000
10.87767 89.000
10.89761 88.000
10.91756 85.000
10.93751 80.000
10.95745 87.000
10.97740 72.000
10.99735 61.000
11.01730 82.000
11.03724 64.000
11.05719 75.000
11.07714 83.000
11.09708 86.000
11.11703 75.000
11.13698 89.000
11.15692 80.000
11.17687 82.000
11.19682 66.000
11.21676 81.000
11.23671 79.000
11.25666 75.000
11.27661 70.000
11.29655 76.000
11.31650 88.000
11.33645 87.000
11.35639 82.000
11.37634 92.000
11.39629 80.000
11.41623 73.000
11.43618 73.000
11.45613 89.000
11.47608 77.000
11.49602 80.000
11.51597 97.000
11.53592 87.000
11.55586 90.000
11.57581 83.000
11.59576 91.000
11.61570 87.000
11.63565 87.000
11.65560 86.000
11.67554 68.000
11.69549 91.000
11.71544 77.000
11.73539 89.000
11.75533 69.000
11.77528 69.000
11.79523 84.000
11.81517 70.000
11.83512 87.000
11.85507 72.000
11.87501 88.000
11.89496 77.000
11.91491 68.000
11.93486 66.000
11.95480 86.000
11.97475 63.000
11.99470 79.000
12.01464 87.000
12.03459 85.000
12.05454 94.000
12.07448 87.000
12.09443 91.000
12.11438 73.000
12.13432 81.000
12.15427 71.000
12.17422 91.000
12.19417 80.000
12.21411 86.000
12.23406 79.000
12.25401 80.000
12.27395 70.000
12.29390 90.000
12.31385 73.000
12.33379 76.000
12.35374 67.000
12.37369 83.000
12.39364 73.000
12.41358 80.000
12.43353 74.000
12.45348 73.000
12.47342 69.000
12.49337 85.000
12.51332 89.000
12.53326 78.000
12.55321 90.000
12.57316 78.000
12.59311 82.000
12.61305 67.000
12.63300 72.000
12.65295 83.000
12.67289 78.000
12.69284 75.000
12.71279 76.000
12.73273 83.000
12.75268 84.000
12.77263 73.000
12.79257 61.000
12.81252 83.000
12.83247 75.000
12.85242 60.000
12.87236 82.000
12.89231 54.000
12.91226 74.000
12.93220 89.000
12.95215 87.000
12.97210 71.000
12.99204 86.000
13.01199 62.000
13.03194 71.000
13.05189 76.000
13.07183 70.000
13.09178 71.000
13.11173 68.000
13.13167 75.000
13.15162 89.000
13.17157 70.000
13.19151 71.000
13.21146 64.000
13.23141 98.000
13.25135 63.000
13.27130 76.000
13.29125 73.000
13.31120 60.000
13.33114 73.000
13.35109 66.000
13.37104 80.000
13.39098 71.000
13.41093 90.000
13.43088 68.000
13.45082 74.000
13.47077 59.000
13.49072 83.000
13.51067 78.000
13.53061 68.000
13.55056 78.000
13.57051 76.000
13.59045 81.000
13.61040 83.000
13.63035 85.000
13.65029 76.000
13.67024 76.000
13.69019 67.000
13.71013 82.000
13.73008 82.000
13.75003 97.000
13.76998 76.000
13.78992 90.000
13.80987 77.000
13.82982 82.000
13.84976 77.000
13.86971 95.000
13.88966 64.000
13.90960 83.000
13.92955 83.000
13.94950 86.000
13.96945 76.000
13.98939 73.000
14.00934 90.000
14.02929 90.000
14.04923 92.000
14.06918 74.000
14.08913 68.000
14.10907 86.000
14.12902 75.000
14.14897 84.000
14.16892 83.000
14.18886 75.000
14.20881 90.000
14.22876 84.000
14.24870 69.000
14.26865 79.000
14.28860 94.000
14.30854 96.000
14.32849 85.000
14.34844 76.000
14.36838 89.000
14.38833 80.000
14.40828 85.000
14.42823 100.000
14.44817 83.000
14.46812 74.000
14.48807 83.000
14.50801 87.000
14.52796 86.000
14.54791 78.000
14.56785 85.000
14.58780 86.000
14.60775 87.000
14.62770 84.000
14.64764 99.000
14.66759 83.000
14.68754 104.000
14.70748 69.000
14.72743 83.000
14.74738 88.000
14.76732 85.000
14.78727 79.000
14.80722 87.000
14.82716 95.000
14.84711 78.000
14.86706 87.000
14.88701 90.000
14.90695 95.000
14.92690 115.000
14.94685 87.000
14.96679 109.000
14.98674 110.000
15.00669 103.000
15.02663 95.000
15.04658 112.000
15.06653 106.000
15.08648 100.000
15.10642 85.000
15.12637 131.000
15.14632 124.000
15.16626 127.000
15.18621 105.000
15.20616 112.000
15.22610 124.000
15.24605 113.000
15.26600 133.000
15.28594 128.000
15.30589 133.000
15.32584 132.000
15.34579 128.000
15.36573 144.000
15.38568 121.000
15.40563 150.000
15.42557 160.000
15.44552 195.000
15.46547 184.000
15.48541 179.000
15.50536 197.000
15.52531 190.000
15.54526 216.000
15.56520 236.000
15.58515 213.000
15.60510 277.000
15.62504 303.000
15.64499 396.000
15.66494 438.000
15.68488 587.000
15.70483 784.000
15.72478 1123.000
15.74472 1490.000
15.76467 2237.000
15.78462 2973.000
15.80457 4098.000
15.82451 4936.000
15.84446 4948.000
15.86441 4156.000
15.88435 2874.000
15.90430 1890.000
15.92425 1085.000
15.94419 665.000
15.96414 449.000
15.98409 378.000
16.00404 346.000
16.02398 289.000
16.04393 234.000
16.06388 216.000
16.08382 185.000
16.10377 190.000
16.12372 165.000
16.14366 155.000
16.16361 154.000
16.18356 159.000
16.20351 119.000
16.22345 145.000
16.24340 108.000
16.26335 150.000
16.28329 135.000
16.30324 148.000
16.32319 116.000
16.34313 132.000
16.36308 113.000
16.38303 106.000
16.40297 130.000
16.42292 110.000
16.44287 131.000
16.46282 105.000
16.48276 109.000
16.50271 108.000
16.52266 100.000
16.54260 88.000
16.56255 105.000
16.58250 109.000
16.60244 88.000
16.62239 104.000
16.64234 91.000
16.66229 95.000
16.68223 105.000
16.70218 90.000
16.72213 92.000
16.74207 86.000
16.76202 85.000
16.78197 110.000
16.80191 87.000
16.82186 58.000
16.84181 96.000
16.86175 96.000
16.88170 77.000
16.90165 80.000
16.92160 78.000
16.94154 74.000
16.96149 96.000
16.98144 81.000
17.00138 81.000
17.02133 90.000
17.04128 79.000
17.06122 111.000
17.08117 67.000
17.10112 85.000
17.12107 78.000
17.14101 84.000
17.16096 76.000
17.18091 84.000
17.20085 71.000
17.22080 78.000
17.24075 93.000
17.26069 79.000
17.28064 104.000
17.30059 79.000
17.32053 86.000
17.34048 68.000
17.36043 79.000
17.38038 73.000
17.40032 88.000
17.42027 88.000
17.44022 81.000
17.46016 91.000
17.48011 85.000
17.50006 69.000
17.52000 84.000
17.53995 93.000
17.55990 81.000
17.57985 65.000
17.59979 89.000
17.61974 78.000
17.63969 87.000
17.65963 93.000
17.67958 97.000
17.69953 69.000
17.71947 77.000
17.73942 70.000
17.75937 95.000
17.77932 83.000
17.79926 95.000
17.81921 93.000
17.83916 84.000
17.85910 76.000
17.87905 95.000
17.89900 82.000
17.91894 91.000
17.93889 85.000
17.95884 81.000
17.97878 73.000
17.99873 73.000
18.01868 81.000
18.03863 76.000
18.05857 81.000
18.07852 70.000
18.09847 92.000
18.11841 72.000
18.13836 89.000
18.15831 74.000
18.17825 88.000
18.19820 84.000
18.21815 89.000
18.23810 97.000
18.25804 106.000
18.27799 109.000
18.29794 117.000
18.31788 135.000
18.33783 205.000
18.35778 287.000
18.37772 402.000
18.39767 522.000
18.41762 635.000
18.43756 538.000
18.45751 441.000
18.47746 303.000
18.49741 185.000
18.51735 153.000
18.53730 136.000
18.55725 107.000
18.57719 112.000
18.59714 77.000
18.61709 77.000
18.63703 78.000
18.65698 80.000
18.67693 86.000
18.69688 90.000
18.71682 91.000
18.73677 62.000
18.75672 77.000
18.77666 81.000
18.79661 81.000
18.81656 78.000
18.83650 81.000
18.85645 80.000
18.87640 81.000
18.89634 75.000
18.91629 80.000
18.93624 70.000
18.95619 60.000
18.97613 89.000
18.99608 95.000
19.01603 89.000
19.03597 71.000
19.05592 73.000
19.07587 85.000
19.09581 74.000
19.11576 91.000
19.13571 103.000
19.15566 88.000
19.17560 62.000
19.19555 67.000
19.21550 72.000
19.23544 82.000
19.25539 66.000
19.27534 82.000
19.29528 90.000
19.31523 79.000
19.33518 90.000
19.35513 65.000
19.37507 75.000
19.39502 76.000
19.41497 71.000
19.43491 86.000
19.45486 75.000
19.47481 69.000
19.49475 78.000
19.51470 71.000
19.53465 98.000
19.55459 72.000
19.57454 76.000
19.59449 77.000
19.61444 73.000
19.63438 76.000
19.65433 79.000
19.67428 75.000
19.69422 99.000
19.71417 60.000
19.73412 84.000
19.75406 67.000
19.77401 71.000
19.79396 67.000
19.81391 86.000
19.83385 84.000
19.85380 82.000
19.87375 65.000
19.89369 84.000
19.91364 72.000
19.93359 65.000
19.95353 76.000
19.97348 77.000
19.99343 60.000
20.01337 64.000
20.03332 91.000
20.05327 75.000
20.07322 84.000
20.09316 85.000
20.11311 69.000
20.13306 75.000
20.15300 69.000
20.17295 70.000
20.19290 66.000
20.21284 66.000
20.23279 71.000
20.25274 75.000
20.27269 79.000
20.29263 78.000
20.31258 80.000
20.33253 86.000
20.35247 68.000
20.37242 67.000
20.39237 100.000
20.41231 77.000
20.43226 78.000
20.45221 78.000
20.47215 81.000
20.49210 73.000
20.51205 67.000
20.53200 77.000
20.55194 82.000
20.57189 87.000
20.59184 78.000
20.61178 74.000
20.63173 66.000
20.65168 75.000
20.67162 81.000
20.69157 79.000
20.71152 72.000
20.73147 85.000
20.75141 82.000
20.77136 88.000
20.79131 86.000
20.81125 74.000
20.83120 83.000
20.85115 86.000
20.87109 64.000
20.89104 62.000
20.91099 68.000
20.93094 66.000
20.95088 85.000
20.97083 94.000
20.99078 95.000
21.01072 102.000
21.03067 101.000
21.05062 106.000
21.07056 97.000
21.09051 118.000
21.11046 93.000
21.13040 103.000
21.15035 95.000
21.17030 108.000
21.19025 88.000
21.21019 81.000
21.23014 82.000
21.25009 97.000
21.27003 69.000
21.28998 74.000
21.30993 95.000
21.32987 74.000
21.34982 80.000
21.36977 80.000
21.38972 90.000
21.40966 87.000
21.42961 60.000
21.44956 73.000
21.46950 90.000
21.48945 76.000
21.50940 67.000
21.52934 80.000
21.54929 84.000
21.56924 71.000
21.58918 81.000
21.60913 90.000
21.62908 57.000
21.64903 78.000
21.66897 87.000
21.68892 73.000
21.70887 72.000
21.72881 94.000
21.74876 82.000
21.76871 85.000
21.78865 78.000
21.80860 84.000
21.82855 87.000
21.84850 87.000
21.86844 80.000
21.88839 73.000
21.90834 87.000
21.92828 90.000
21.94823 83.000
21.96818 71.000
21.98812 72.000
22.00807 85.000
22.02802 73.000
22.04796 79.000
22.06791 88.000
22.08786 86.000
22.10781 76.000
22.12775 86.000
22.14770 82.000
22.16765 74.000
22.18759 73.000
22.20754 74.000
22.22749 79.000
22.24743 68.000
22.26738 77.000
22.28733 71.000
22.30728 76.000
22.32722 89.000
22.34717 82.000
22.36712 69.000
22.38706 62.000
22.40701 68.000
22.42696 81.000
22.44690 93.000
22.46685 73.000
22.48680 69.000
22.50675 69.000
22.52669 82.000
22.54664 78.000
22.56659 76.000
22.58653 73.000
22.60648 82.000
22.62643 74.000
22.64637 80.000
22.66632 86.000
22.68627 80.000
22.70621 78.000
22.72616 69.000
22.74611 62.000
22.76606 74.000
22.78600 68.000
22.80595 64.000
22.82590 82.000
22.84584 85.000
22.86579 70.000
22.88574 80.000
22.90568 99.000
22.92563 64.000
22.94558 69.000
22.96553 73.000
22.98547 78.000
23.00542 66.000
23.02537 68.000
23.04531 69.000
23.06526 57.000
23.08521 84.000
23.10515 69.000
23.12510 59.000
23.14505 74.000
23.16499 64.000
23.18494 81.000
23.20489 78.000
23.22484 64.000
23.24478 68.000
23.26473 78.000
23.28468 71.000
23.30462 85.000
23.32457 85.000
23.34452 68.000
23.36446 70.000
23.38441 58.000
23.40436 92.000
23.42431 79.000
23.44425 74.000
23.46420 80.000
23.48415 75.000
23.50409 77.000
23.52404 72.000
23.54399 74.000
23.56393 77.000
23.58388 81.000
23.60383 95.000
23.62377 68.000
23.64372 70.000
23.66367 77.000
23.68362 65.000
23.70356 89.000
23.72351 76.000
23.74346 67.000
23.76340 64.000
23.78335 80.000
23.80330 66.000
23.82324 73.000
23.84319 88.000
23.86314 72.000
23.88309 64.000
23.90303 74.000
23.92298 76.000
23.94293 81.000
23.96287 55.000
23.98282 84.000
24.00277 69.000
24.02271 70.000
24.04266 84.000
24.06261 79.000
24.08256 87.000
24.10250 81.000
24.12245 82.000
24.14240 92.000
24.16234 79.000
24.18229 76.000
24.20224 85.000
24.22218 76.000
24.24213 82.000
24.26208 77.000
24.28202 77.000
24.30197 82.000
24.32192 88.000
24.34187 85.000
24.36181 82.000
24.38176 73.000
24.40171 72.000
24.42165 69.000
24.44160 85.000
24.46155 74.000
24.48149 80.000
24.50144 64.000
24.52139 82.000
24.54134 78.000
24.56128 85.000
24.58123 84.000
24.60118 81.000
24.62112 75.000
24.64107 66.000
24.66102 75.000
24.68096 74.000
24.70091 64.000
24.72086 74.000
24.74080 67.000
24.76075 74.000
24.78070 88.000
24.80065 80.000
24.82059 73.000
24.84054 95.000
24.86049 72.000
24.88043 81.000
24.90038 75.000
24.92033 63.000
24.94027 83.000
24.96022 76.000
24.98017 84.000
25.00012 73.000
25.02006 72.000
25.04001 76.000
25.05996 79.000
25.07990 72.000
25.09985 65.000
25.11980 73.000
25.13974 69.000
25.15969 92.000
25.17964 76.000
25.19958 71.000
25.21953 81.000
25.23948 82.000
25.25943 78.000
25.27937 63.000
25.29932 75.000
25.31927 71.000
25.33921 77.000
25.35916 75.000
25.37911 74.000
25.39905 81.000
25.41900 74.000
25.43895 70.000
25.45890 91.000
25.47884 74.000
25.49879 82.000
25.51874 80.000
25.53868 64.000
25.55863 77.000
25.57858 88.000
25.59852 59.000
25.61847 90.000
25.63842 76.000
25.65837 78.000
25.67831 90.000
25.69826 80.000
25.71821 67.000
25.73815 72.000
25.75810 84.000
25.77805 68.000
25.79799 63.000
25.81794 75.000
25.83789 69.000
25.85783 84.000
25.87778 70.000
25.89773 79.000
25.91768 85.000
25.93762 81.000
25.95757 81.000
25.97752 74.000
25.99746 81.000
26.01741 82.000
26.03736 99.000
26.05730 89.000
26.07725 89.000
26.09720 80.000
26.11715 91.000
26.13709 91.000
26.15704 68.000
26.17699 75.000
26.19693 72.000
26.21688 85.000
26.23683 92.000
26.25677 91.000
26.27672 86.000
26.29667 78.000
26.31661 77.000
26.33656 90.000
26.35651 89.000
26.37646 92.000
26.39640 83.000
26.41635 75.000
26.43630 101.000
26.45624 97.000
26.47619 72.000
26.49614 65.000
26.51608 89.000
26.53603 72.000
26.55598 94.000
26.57593 87.000
26.59587 81.000
26.61582 89.000
26.63577 73.000
26.65571 73.000
26.67566 72.000
26.69561 97.000
26.71555 94.000
26.73550 84.000
26.75545 83.000
26.77539 70.000
26.79534 104.000
26.81529 87.000
26.83524 86.000
26.85518 65.000
26.87513 77.000
26.89508 82.000
26.91502 77.000
26.93497 85.000
26.95492 88.000
26.97486 84.000
26.99481 101.000
27.01476 76.000
27.03471 98.000
27.05465 87.000
27.07460 79.000
27.09455 70.000
27.11449 72.000
27.13444 68.000
27.15439 76.000
27.17433 80.000
27.19428 93.000
27.21423 81.000
27.23417 108.000
27.25412 93.000
27.27407 98.000
27.29402 84.000
27.31396 101.000
27.33391 93.000
27.35386 97.000
27.37380 83.000
27.39375 87.000
27.41370 96.000
27.43364 88.000
27.45359 69.000
27.47354 83.000
27.49349 87.000
27.51343 91.000
27.53338 91.000
27.55333 78.000
27.57327 98.000
27.59322 83.000
27.61317 96.000
27.63311 74.000
27.65306 93.000
27.67301 77.000
27.69296 69.000
27.71290 111.000
27.73285 69.000
27.75280 89.000
27.77274 82.000
27.79269 89.000
27.81264 72.000
27.83258 88.000
27.85253 91.000
27.87248 86.000
27.89242 93.000
27.91237 92.000
27.93232 86.000
27.95227 92.000
27.97221 89.000
27.99216 95.000
28.01211 87.000
28.03205 88.000
28.05200 91.000
28.07195 87.000
28.09189 86.000
28.11184 84.000
28.13179 94.000
28.15174 86.000
28.17168 91.000
28.19163 92.000
28.21158 79.000
28.23152 89.000
28.25147 76.000
28.27142 96.000
28.29136 93.000
28.31131 90.000
28.33126 83.000
28.35120 88.000
28.37115 91.000
28.39110 83.000
28.41105 98.000
28.43099 97.000
28.45094 99.000
28.47089 88.000
28.49083 73.000
28.51078 89.000
28.53073 94.000
28.55067 93.000
28.57062 85.000
28.59057 97.000
28.61052 98.000
28.63046 74.000
28.65041 72.000
28.67036 88.000
28.69030 89.000
28.71025 107.000
28.73020 87.000
28.75014 92.000
28.77009 91.000
28.79004 98.000
28.80998 89.000
28.82993 95.000
28.84988 77.000
28.86983 86.000
28.88977 76.000
28.90972 76.000
28.92967 80.000
28.94961 105.000
28.96956 82.000
28.98951 76.000
29.00945 84.000
29.02940 90.000
29.04935 80.000
29.06930 87.000
29.08924 110.000
29.10919 98.000
29.12914 88.000
29.14908 75.000
29.16903 95.000
29.18898 96.000
29.20892 88.000
29.22887 95.000
29.24882 86.000
29.26877 89.000
29.28871 93.000
29.30866 90.000
29.32861 109.000
29.34855 104.000
29.36850 89.000
29.38845 101.000
29.40839 78.000
29.42834 80.000
29.44829 109.000
29.46823 81.000
29.48818 96.000
29.50813 88.000
29.52808 92.000
29.54802 98.000
29.56797 79.000
29.58792 97.000
29.60786 97.000
29.62781 80.000
29.64776 73.000
29.66770 106.000
29.68765 91.000
29.70760 82.000
29.72755 93.000
29.74749 90.000
29.76744 93.000
29.78739 102.000
29.80733 104.000
29.82728 87.000
29.84723 83.000
29.86717 95.000
29.88712 96.000
29.90707 92.000
29.92701 103.000
29.94696 97.000
29.96691 100.000
29.98686 107.000
30.00680 83.000
30.02675 125.000
30.04670 104.000
30.06664 117.000
30.08659 131.000
30.10654 138.000
30.12648 150.000
30.14643 168.000
30.16638 190.000
30.18633 229.000
30.20627 277.000
30.22622 435.000
30.24617 623.000
30.26611 954.000
30.28606 1269.000
30.30601 1306.000
30.32595 1059.000
30.34590 908.000
30.36585 888.000
30.38579 721.000
30.40574 511.000
30.42569 327.000
30.44564 261.000
30.46558 177.000
30.48553 162.000
30.50548 155.000
30.52542 121.000
30.54537 122.000
30.56532 106.000
30.58526 120.000
30.60521 131.000
30.62516 108.000
30.64511 92.000
30.66505 119.000
30.68500 88.000
30.70495 94.000
30.72489 93.000
30.74484 90.000
30.76479 97.000
30.78473 100.000
30.80468 90.000
30.82463 112.000
30.84458 102.000
30.86452 100.000
30.88447 97.000
30.90442 89.000
30.92436 93.000
30.94431 88.000
30.96426 105.000
30.98420 100.000
31.00415 91.000
31.02410 90.000
31.04404 84.000
31.06399 94.000
31.08394 100.000
31.10389 78.000
31.12383 84.000
31.14378 86.000
31.16373 118.000
31.18367 105.000
31.20362 86.000
31.22357 98.000
31.24351 71.000
31.26346 106.000
31.28341 102.000
31.30336 97.000
31.32330 110.000
31.34325 95.000
31.36320 105.000
31.38314 96.000
31.40309 101.000
31.42304 89.000
31.44298 106.000
31.46293 79.000
31.48288 88.000
31.50282 102.000
31.52277 89.000
31.54272 97.000
31.56267 100.000
31.58261 105.000
31.60256 111.000
31.62251 113.000
31.64245 103.000
31.66240 83.000
31.68235 141.000
31.70229 112.000
31.72224 118.000
31.74219 116.000
31.76214 113.000
31.78208 129.000
31.80203 132.000
31.82198 162.000
31.84192 180.000
31.86187 174.000
31.88182 203.000
31.90176 246.000
31.92171 291.000
31.94166 356.000
31.96160 356.000
31.98155 486.000
32.00150 456.000
32.02145 426.000
32.04139 440.000
32.06134 356.000
32.08129 327.000
32.10123 279.000
32.12118 264.000
32.14113 183.000
32.16107 148.000
32.18102 136.000
32.20097 141.000
32.22092 103.000
32.24086 108.000
32.26081 106.000
32.28076 102.000
32.30070 93.000
32.32065 107.000
32.34060 88.000
32.36054 98.000
32.38049 89.000
32.40044 95.000
32.42039 88.000
32.44033 74.000
32.46028 92.000
32.48023 70.000
32.50017 101.000
32.52012 69.000
32.54007 81.000
32.56001 78.000
32.57996 85.000
32.59991 92.000
32.61985 96.000
32.63980 60.000
32.65975 91.000
32.67970 74.000
32.69964 82.000
32.71959 94.000
32.73954 72.000
32.75948 88.000
32.77943 90.000
32.79938 86.000
32.81932 80.000
32.83927 102.000
32.85922 83.000
32.87917 88.000
32.89911 93.000
32.91906 89.000
32.93901 91.000
32.95895 95.000
32.97890 93.000
32.99885 92.000
33.01879 90.000
33.03874 96.000
33.05869 87.000
33.07863 94.000
33.09858 94.000
33.11853 102.000
33.13848 87.000
33.15842 114.000
33.17837 86.000
33.19832 73.000
33.21826 92.000
33.23821 93.000
33.25816 81.000
33.27810 84.000
33.29805 82.000
33.31800 85.000
33.33795 84.000
33.35789 100.000
33.37784 108.000
33.39779 93.000
33.41773 114.000
33.43768 82.000
33.45763 90.000
33.47757 83.000
33.49752 94.000
33.51747 89.000
33.53741 74.000
33.55736 93.000
33.57731 106.000
33.59726 102.000
33.61720 75.000
33.63715 80.000
33.65710 109.000
33.67704 74.000
33.69699 100.000
33.71694 73.000
33.73688 83.000
33.75683 83.000
33.77678 109.000
33.79673 78.000
33.81667 93.000
33.83662 98.000
33.85657 95.000
33.87651 87.000
33.89646 102.000
33.91641 85.000
33.93635 96.000
33.95630 81.000
33.97625 95.000
33.99620 99.000
34.01614 99.000
34.03609 106.000
34.05604 103.000
34.07598 104.000
34.09593 97.000
34.11588 96.000
34.13582 96.000
34.15577 107.000
34.17572 90.000
34.19566 78.000
34.21561 96.000
34.23556 96.000
34.25551 98.000
34.27545 79.000
34.29540 83.000
34.31535 78.000
34.33529 94.000
34.35524 87.000
34.37519 90.000
34.39513 104.000
34.41508 110.000
34.43503 81.000
34.45498 98.000
34.47492 94.000
34.49487 81.000
34.51482 107.000
34.53476 95.000
34.55471 106.000
34.57466 129.000
34.59460 114.000
34.61455 109.000
34.63450 103.000
34.65444 110.000
34.67439 123.000
34.69434 107.000
34.71429 92.000
34.73423 102.000
34.75418 114.000
34.77413 108.000
34.79407 115.000
34.81402 115.000
34.83397 112.000
34.85391 87.000
34.87386 94.000
34.89381 109.000
34.91376 107.000
34.93370 139.000
34.95365 106.000
34.97360 112.000
34.99354 117.000
35.01349 80.000
35.03344 107.000
35.05338 137.000
35.07333 126.000
35.09328 119.000
35.11322 103.000
35.13317 125.000
35.15312 125.000
35.17307 129.000
35.19301 134.000
35.21296 127.000
35.23291 121.000
35.25285 120.000
35.27280 148.000
35.29275 159.000
35.31269 156.000
35.33264 145.000
35.35259 175.000
35.37254 163.000
35.39248 185.000
35.41243 193.000
35.43238 230.000
35.45232 238.000
35.47227 283.000
35.49222 323.000
35.51216 336.000
35.53211 424.000
35.55206 517.000
35.57201 658.000
35.59195 921.000
35.61190 1266.000
35.63185 1927.000
35.65179 2776.000
35.67174 3710.000
35.69169 3965.000
35.71163 3498.000
35.73158 2988.000
35.75153 2934.000
35.77147 2879.000
35.79142 2412.000
35.81137 1842.000
35.83132 1422.000
35.85126 1062.000
35.87121 864.000
35.89116 746.000
35.91110 580.000
35.93105 487.000
35.95100 420.000
35.97094 380.000
35.99089 289.000
36.01084 240.000
36.03079 235.000
36.05073 199.000
36.07068 191.000
36.09063 155.000
36.11057 165.000
36.13052 149.000
36.15047 180.000
36.17041 124.000
36.19036 134.000
36.21031 130.000
36.23025 142.000
36.25020 128.000
36.27015 139.000
36.29010 141.000
36.31004 129.000
36.32999 111.000
36.34994 131.000
36.36988 145.000
36.38983 120.000
36.40978 109.000
36.42972 107.000
36.44967 97.000
36.46962 97.000
36.48957 110.000
36.50951 118.000
36.52946 115.000
36.54941 120.000
36.56935 119.000
36.58930 98.000
36.60925 148.000
36.62919 124.000
36.64914 125.000
36.66909 150.000
36.68903 165.000
36.70898 135.000
36.72893 137.000
36.74888 151.000
36.76882 134.000
36.78877 133.000
36.80872 139.000
36.82866 119.000
36.84861 115.000
36.86856 108.000
36.88850 115.000
36.90845 124.000
36.92840 112.000
36.94835 113.000
36.96829 113.000
36.98824 119.000
37.00819 116.000
37.02813 136.000
37.04808 121.000
37.06803 142.000
37.08797 121.000
37.10792 143.000
37.12787 148.000
37.14781 137.000
37.16776 183.000
37.18771 259.000
37.20766 307.000
37.22760 321.000
37.24755 325.000
37.26750 416.000
37.28744 428.000
37.30739 494.000
37.32734 477.000
37.34728 446.000
37.36723 394.000
37.38718 319.000
37.40713 335.000
37.42707 292.000
37.44702 247.000
37.46697 219.000
37.48691 167.000
37.50686 127.000
37.52681 132.000
37.54675 113.000
37.56670 140.000
37.58665 100.000
37.60660 116.000
37.62654 93.000
37.64649 122.000
37.66644 111.000
37.68638 102.000
37.70633 96.000
37.72628 116.000
37.74622 96.000
37.76617 89.000
37.78612 83.000
37.80606 98.000
37.82601 103.000
37.84596 97.000
37.86591 87.000
37.88585 107.000
37.90580 102.000
37.92575 100.000
37.94569 95.000
37.96564 89.000
37.98559 84.000
38.00553 92.000
38.02548 91.000
38.04543 98.000
38.06538 84.000
38.08532 112.000
38.10527 102.000
38.12522 96.000
38.14516 96.000
38.16511 87.000
38.18506 108.000
38.20500 103.000
38.22495 87.000
38.24490 94.000
38.26484 78.000
38.28479 94.000
38.30474 86.000
38.32469 95.000
38.34463 84.000
38.36458 118.000
38.38453 87.000
38.40447 88.000
38.42442 116.000
38.44437 108.000
38.46431 91.000
38.48426 105.000
38.50421 105.000
38.52416 98.000
38.54410 99.000
38.56405 87.000
38.58400 96.000
38.60394 88.000
38.62389 100.000
38.64384 88.000
38.66378 105.000
38.68373 93.000
38.70368 96.000
38.72362 118.000
38.74357 87.000
38.76352 92.000
38.78347 96.000
38.80341 125.000
38.82336 95.000
38.84331 94.000
38.86325 91.000
38.88320 113.000
38.90315 109.000
38.92309 99.000
38.94304 103.000
38.96299 131.000
38.98294 129.000
39.00288 117.000
39.02283 132.000
39.04278 152.000
39.06272 155.000
39.08267 148.000
39.10262 164.000
39.12256 199.000
39.14251 176.000
39.16246 208.000
39.18241 230.000
39.20235 276.000
39.22230 321.000
39.24225 357.000
39.26219 486.000
39.28214 662.000
39.30209 759.000
39.32203 833.000
39.34198 896.000
39.36193 854.000
39.38187 857.000
39.40182 814.000
39.42177 832.000
39.44172 829.000
39.46166 700.000
39.48161 566.000
39.50156 478.000
39.52150 426.000
39.54145 381.000
39.56140 298.000
39.58134 256.000
39.60129 246.000
39.62124 198.000
39.64119 174.000
39.66113 168.000
39.68108 152.000
39.70103 145.000
39.72097 143.000
39.74092 170.000
39.76087 130.000
39.78081 116.000
39.80076 117.000
39.82071 110.000
39.84065 120.000
39.86060 90.000
39.88055 105.000
39.90050 111.000
39.92044 83.000
39.94039 123.000
39.96034 93.000
39.98028 93.000
40.00023 106.000
40.02018 101.000
40.04012 109.000
40.06007 86.000
40.08002 67.000
40.09997 105.000
40.11991 93.000
40.13986 89.000
40.15981 90.000
40.17975 104.000
40.19970 105.000
40.21965 95.000
40.23959 86.000
40.25954 83.000
40.27949 117.000
40.29943 89.000
40.31938 92.000
40.33933 87.000
40.35928 95.000
40.37922 83.000
40.39917 87.000
40.41912 97.000
40.43906 92.000
40.45901 103.000
40.47896 94.000
40.49890 85.000
40.51885 87.000
40.53880 97.000
40.55875 84.000
40.57869 85.000
40.59864 83.000
40.61859 89.000
40.63853 81.000
40.65848 84.000
40.67843 94.000
40.69837 74.000
40.71832 95.000
40.73827 95.000
40.75822 85.000
40.77816 79.000
40.79811 76.000
40.81806 84.000
40.83800 95.000
40.85795 86.000
40.87790 92.000
40.89784 92.000
40.91779 75.000
40.93774 75.000
40.95768 73.000
40.97763 81.000
40.99758 82.000
41.01753 103.000
41.03747 93.000
41.05742 75.000
41.07737 92.000
41.09731 81.000
41.11726 84.000
41.13721 85.000
41.15715 79.000
41.17710 74.000
41.19705 68.000
41.21700 91.000
41.23694 108.000
41.25689 95.000
41.27684 102.000
41.29678 70.000
41.31673 80.000
41.33668 69.000
41.35662 86.000
41.37657 89.000
41.39652 70.000
41.41646 90.000
41.43641 104.000
41.45636 98.000
41.47631 81.000
41.49625 71.000
41.51620 97.000
41.53615 96.000
41.55609 84.000
41.57604 97.000
41.59599 83.000
41.61593 69.000
41.63588 101.000
41.65583 96.000
41.67578 78.000
41.69572 69.000
41.71567 83.000
41.73562 73.000
41.75556 89.000
41.77551 75.000
41.79546 97.000
41.81540 86.000
41.83535 72.000
41.85530 99.000
41.87524 72.000
41.89519 87.000
41.91514 82.000
41.93509 97.000
41.95503 69.000
41.97498 78.000
41.99493 81.000
42.01487 82.000
42.03482 87.000
42.05477 88.000
42.07471 92.000
42.09466 71.000
42.11461 85.000
42.13456 92.000
42.15450 90.000
42.17445 101.000
42.19440 86.000
42.21434 83.000
42.23429 99.000
42.25424 74.000
42.27418 75.000
42.29413 73.000
42.31408 71.000
42.33403 97.000
42.35397 108.000
42.37392 73.000
42.39387 84.000
42.41381 87.000
42.43376 87.000
42.45371 99.000
42.47365 82.000
42.49360 89.000
42.51355 84.000
42.53349 104.000
42.55344 86.000
42.57339 117.000
42.59334 79.000
42.61328 93.000
42.63323 96.000
42.65318 97.000
42.67312 87.000
42.69307 95.000
42.71302 88.000
42.73296 100.000
42.75291 79.000
42.77286 95.000
42.79281 101.000
42.81275 116.000
42.83270 87.000
42.85265 91.000
42.87259 93.000
42.89254 111.000
42.91249 100.000
42.93243 136.000
42.95238 108.000
42.97233 93.000
42.99227 98.000
43.01222 145.000
43.03217 138.000
43.05212 144.000
43.07206 110.000
43.09201 146.000
43.11196 157.000
43.13190 185.000
43.15185 184.000
43.17180 257.000
43.19174 262.000
43.21169 335.000
43.23164 470.000
43.25159 574.000
43.27153 724.000
43.29148 756.000
43.31143 771.000
43.33137 893.000
43.35132 1055.000
43.37127 1222.000
43.39121 1167.000
43.41116 1106.000
43.43111 1038.000
43.45105 888.000
43.47100 907.000
43.49095 907.000
43.51090 819.000
43.53084 597.000
43.55079 541.000
43.57074 514.000
43.59068 400.000
43.61063 376.000
43.63058 299.000
43.65052 290.000
43.67047 228.000
43.69042 181.000
43.71037 199.000
43.73031 169.000
43.75026 171.000
43.77021 134.000
43.79015 134.000
43.81010 143.000
43.83005 134.000
43.84999 111.000
43.86994 108.000
43.88989 104.000
43.90984 114.000
43.92978 83.000
43.94973 103.000
43.96968 96.000
43.98962 109.000
44.00957 94.000
44.02952 91.000
44.04946 94.000
44.06941 102.000
44.08936 106.000
44.10930 103.000
44.12925 98.000
44.14920 88.000
44.16915 93.000
44.18909 86.000
44.20904 96.000
44.22899 98.000
44.24893 111.000
44.26888 107.000
44.28883 86.000
44.30877 94.000
44.32872 94.000
44.34867 99.000
44.36862 72.000
44.38856 108.000
44.40851 81.000
44.42846 71.000
44.44840 81.000
44.46835 96.000
44.48830 91.000
44.50824 96.000
44.52819 105.000
44.54814 90.000
44.56808 86.000
44.58803 83.000
44.60798 86.000
44.62793 76.000
44.64787 67.000
44.66782 97.000
44.68777 67.000
44.70771 101.000
44.72766 104.000
44.74761 85.000
44.76755 99.000
44.78750 81.000
44.80745 88.000
44.82740 86.000
44.84734 104.000
44.86729 77.000
44.88724 86.000
44.90718 87.000
44.92713 84.000
44.94708 78.000
44.96702 83.000
44.98697 79.000
45.00692 74.000
45.02686 101.000
45.04681 76.000
45.06676 86.000
45.08671 94.000
45.10665 74.000
45.12660 90.000
45.14655 77.000
45.16649 91.000
45.18644 74.000
45.20639 85.000
45.22633 91.000
45.24628 85.000
45.26623 81.000
45.28618 97.000
45.30612 86.000
45.32607 92.000
45.34602 69.000
45.36596 71.000
45.38591 94.000
45.40586 87.000
45.42580 71.000
45.44575 80.000
45.46570 94.000
45.48565 84.000
45.50559 73.000
45.52554 70.000
45.54549 83.000
45.56543 80.000
45.58538 84.000
45.60533 93.000
45.62527 75.000
45.64522 88.000
45.66517 95.000
45.68511 61.000
45.70506 79.000
45.72501 77.000
45.74496 82.000
45.76490 84.000
45.78485 84.000
45.80480 85.000
45.82474 85.000
45.84469 66.000
45.86464 82.000
45.88458 79.000
45.90453 82.000
45.92448 95.000
45.94443 83.000
45.96437 69.000
45.98432 76.000
46.00427 83.000
46.02421 76.000
46.04416 69.000
46.06411 84.000
46.08405 83.000
46.10400 95.000
46.12395 72.000
46.14389 74.000
46.16384 83.000
46.18379 78.000
46.20374 80.000
46.22368 88.000
46.24363 72.000
46.26358 104.000
46.28352 82.000
46.30347 78.000
46.32342 72.000
46.34336 73.000
46.36331 70.000
46.38326 75.000
46.40321 70.000
46.42315 92.000
46.44310 89.000
46.46305 74.000
46.48299 88.000
46.50294 67.000
46.52289 73.000
46.54283 90.000
46.56278 76.000
46.58273 84.000
46.60267 87.000
46.62262 75.000
46.64257 67.000
46.66252 84.000
46.68246 98.000
46.70241 73.000
46.72236 80.000
46.74230 82.000
46.76225 95.000
46.78220 96.000
46.80214 80.000
46.82209 71.000
46.84204 92.000
46.86199 72.000
46.88193 91.000
46.90188 77.000
46.92183 80.000
46.94177 78.000
46.96172 75.000
46.98167 84.000
47.00161 78.000
47.02156 89.000
47.04151 86.000
47.06146 81.000
47.08140 92.000
47.10135 66.000
47.12130 90.000
47.14124 87.000
47.16119 87.000
47.18114 83.000
47.20108 89.000
47.22103 78.000
47.24098 61.000
47.26092 78.000
47.28087 91.000
47.30082 84.000
47.32077 90.000
47.34071 78.000
47.36066 92.000
47.38061 84.000
47.40055 74.000
47.42050 89.000
47.44045 93.000
47.46039 93.000
47.48034 94.000
47.50029 112.000
47.52024 88.000
47.54018 91.000
47.56013 114.000
47.58008 87.000
47.60002 87.000
47.61997 95.000
47.63992 93.000
47.65986 96.000
47.67981 104.000
47.69976 108.000
47.71970 86.000
47.73965 80.000
47.75960 85.000
47.77955 82.000
47.79949 79.000
47.81944 97.000
47.83939 88.000
47.85933 99.000
47.87928 103.000
47.89923 98.000
47.91917 83.000
47.93912 93.000
47.95907 99.000
47.97902 87.000
47.99896 112.000
48.01891 87.000
48.03886 108.000
48.05880 93.000
48.07875 118.000
48.09870 104.000
48.11864 81.000
48.13859 112.000
48.15854 101.000
48.17848 99.000
48.19843 118.000
48.21838 111.000
48.23833 113.000
48.25827 97.000
48.27822 123.000
48.29817 108.000
48.31811 107.000
48.33806 132.000
48.35801 126.000
48.37795 127.000
48.39790 152.000
48.41785 156.000
48.43780 169.000
48.45774 151.000
48.47769 183.000
48.49764 186.000
48.51758 194.000
48.53753 214.000
48.55748 242.000
48.57742 246.000
48.59737 266.000
48.61732 300.000
48.63726 362.000
48.65721 419.000
48.67716 488.000
48.69711 624.000
48.71705 682.000
48.73700 730.000
48.75695 790.000
48.77689 748.000
48.79684 711.000
48.81679 690.000
48.83673 635.000
48.85668 578.000
48.87663 609.000
48.89658 544.000
48.91652 445.000
48.93647 433.000
48.95642 359.000
48.97636 305.000
48.99631 257.000
49.01626 246.000
49.03620 243.000
49.05615 210.000
49.07610 167.000
49.09605 164.000
49.11599 157.000
49.13594 149.000
49.15589 132.000
49.17583 141.000
49.19578 129.000
49.21573 124.000
49.23567 115.000
49.25562 102.000
49.27557 131.000
49.29551 122.000
49.31546 124.000
49.33541 116.000
49.35536 107.000
49.37530 88.000
49.39525 98.000
49.41520 105.000
49.43514 83.000
49.45509 83.000
49.47504 100.000
49.49498 79.000
49.51493 101.000
49.53488 104.000
49.55483 102.000
49.57477 83.000
49.59472 98.000
49.61467 88.000
49.63461 87.000
49.65456 90.000
49.67451 98.000
49.69445 72.000
49.71440 84.000
49.73435 88.000
49.75429 91.000
49.77424 88.000
49.79419 84.000
49.81414 87.000
49.83408 82.000
49.85403 86.000
49.87398 92.000
49.89392 89.000
49.91387 70.000
49.93382 77.000
49.95376 76.000
49.97371 97.000
49.99366 80.000
50.01361 76.000
50.03355 72.000
50.05350 88.000
50.07345 94.000
50.09339 102.000
50.11334 75.000
50.13329 75.000
50.15323 84.000
50.17318 86.000
50.19313 114.000
50.21307 66.000
50.23302 76.000
50.25297 88.000
50.27292 85.000
50.29286 88.000
50.31281 76.000
50.33276 83.000
50.35270 87.000
50.37265 91.000
50.39260 82.000
50.41254 92.000
50.43249 71.000
50.45244 79.000
50.47239 70.000
50.49233 63.000
50.51228 91.000
50.53223 88.000
50.55217 78.000
50.57212 92.000
50.59207 75.000
50.61201 80.000
50.63196 95.000
50.65191 79.000
50.67186 89.000
50.69180 84.000
50.71175 87.000
50.73170 94.000
50.75164 92.000
50.77159 89.000
50.79154 71.000
50.81148 76.000
50.83143 77.000
50.85138 68.000
50.87132 72.000
50.89127 65.000
50.91122 77.000
50.93117 72.000
50.95111 67.000
50.97106 71.000
50.99101 79.000
51.01095 76.000
51.03090 76.000
51.05085 73.000
51.07079 96.000
51.09074 93.000
51.11069 66.000
51.13064 86.000
51.15058 79.000
51.17053 77.000
51.19048 90.000
51.21042 75.000
51.23037 65.000
51.25032 91.000
51.27026 64.000
51.29021 80.000
51.31016 80.000
51.33010 92.000
51.35005 64.000
51.37000 87.000
51.38995 77.000
51.40989 83.000
51.42984 76.000
51.44979 89.000
51.46973 70.000
51.48968 76.000
51.50963 69.000
51.52957 67.000
51.54952 67.000
51.56947 91.000
51.58942 77.000
51.60936 77.000
51.62931 85.000
51.64926 88.000
51.66920 78.000
51.68915 67.000
51.70910 71.000
51.72904 86.000
51.74899 66.000
51.76894 88.000
51.78888 80.000
51.80883 73.000
51.82878 72.000
51.84873 73.000
51.86867 68.000
51.88862 70.000
51.90857 88.000
51.92851 80.000
51.94846 72.000
51.96841 85.000
51.98835 76.000
52.00830 74.000
52.02825 84.000
52.04820 74.000
52.06814 86.000
52.08809 94.000
52.10804 75.000
52.12798 83.000
52.14793 71.000
52.16788 74.000
52.18782 93.000
52.20777 70.000
52.22772 68.000
52.24767 71.000
52.26761 64.000
52.28756 69.000
52.30751 87.000
52.32745 83.000
52.34740 88.000
52.36735 72.000
52.38729 82.000
52.40724 58.000
52.42719 80.000
52.44713 97.000
52.46708 83.000
52.48703 76.000
52.50698 60.000
52.52692 68.000
52.54687 72.000
52.56682 74.000
52.58676 68.000
52.60671 71.000
52.62666 88.000
52.64660 68.000
52.66655 77.000
52.68650 60.000
52.70645 63.000
52.72639 76.000
52.74634 71.000
52.76629 72.000
52.78623 74.000
52.80618 81.000
52.82613 74.000
52.84607 96.000
52.86602 82.000
52.88597 79.000
52.90591 75.000
52.92586 62.000
52.94581 80.000
52.96576 93.000
52.98570 69.000
53.00565 80.000
53.02560 81.000
53.04554 78.000
53.06549 77.000
53.08544 95.000
53.10538 68.000
53.12533 69.000
53.14528 62.000
53.16523 68.000
53.18517 68.000
53.20512 74.000
53.22507 63.000
53.24501 81.000
53.26496 86.000
53.28491 71.000
53.30485 81.000
53.32480 68.000
53.34475 65.000
53.36469 78.000
53.38464 77.000
53.40459 86.000
53.42454 91.000
53.44448 104.000
53.46443 90.000
53.48438 79.000
53.50432 91.000
53.52427 75.000
53.54422 77.000
53.56416 99.000
53.58411 87.000
53.60406 116.000
53.62401 84.000
53.64395 86.000
53.66390 118.000
53.68385 128.000
53.70379 138.000
53.72374 155.000
53.74369 179.000
53.76363 213.000
53.78358 266.000
53.80353 337.000
53.82348 363.000
53.84342 345.000
53.86337 302.000
53.88332 282.000
53.90326 238.000
53.92321 227.000
53.94316 261.000
53.96310 241.000
53.98305 211.000
54.00300 210.000
54.02294 191.000
54.04289 140.000
54.06284 122.000
54.08279 116.000
54.10273 117.000
54.12268 88.000
54.14263 89.000
54.16257 89.000
54.18252 79.000
54.20247 78.000
54.22241 92.000
54.24236 88.000
54.26231 74.000
54.28226 71.000
54.30220 90.000
54.32215 82.000
54.34210 78.000
54.36204 79.000
54.38199 83.000
54.40194 85.000
54.42188 76.000
54.44183 92.000
54.46178 84.000
54.48172 66.000
54.50167 62.000
54.52162 69.000
54.54157 74.000
54.56151 67.000
54.58146 85.000
54.60141 77.000
54.62135 67.000
54.64130 78.000
54.66125 84.000
54.68119 83.000
54.70114 76.000
54.72109 69.000
54.74104 82.000
54.76098 74.000
54.78093 94.000
54.80088 70.000
54.82082 85.000
54.84077 71.000
54.86072 83.000
54.88066 69.000
54.90061 88.000
54.92056 67.000
54.94050 81.000
54.96045 91.000
54.98040 69.000
55.00035 83.000
55.02029 89.000
55.04024 71.000
55.06019 52.000
55.08013 74.000
55.10008 69.000
55.12003 61.000
55.13997 97.000
55.15992 78.000
55.17987 71.000
55.19982 78.000
55.21976 82.000
55.23971 76.000
55.25966 83.000
55.27960 82.000
55.29955 77.000
55.31950 68.000
55.33944 77.000
55.35939 78.000
55.37934 82.000
55.39929 76.000
55.41923 87.000
55.43918 72.000
55.45913 78.000
55.47907 64.000
55.49902 68.000
55.51897 71.000
55.53891 82.000
55.55886 84.000
55.57881 73.000
55.59875 73.000
55.61870 68.000
55.63865 86.000
55.65860 86.000
55.67854 73.000
55.69849 74.000
55.71844 77.000
55.73838 72.000
55.75833 80.000
55.77828 66.000
55.79822 86.000
55.81817 77.000
55.83812 80.000
55.85807 69.000
55.87801 84.000
55.89796 74.000
55.91791 69.000
55.93785 79.000
55.95780 73.000
55.97775 61.000
55.99769 73.000
56.01764 86.000
56.03759 89.000
56.05753 78.000
56.07748 71.000
56.09743 69.000
56.11738 79.000
56.13732 84.000
56.15727 83.000
56.17722 70.000
56.19716 86.000
56.21711 78.000
56.23706 72.000
56.25700 89.000
56.27695 70.000
56.29690 76.000
56.31685 88.000
56.33679 77.000
56.35674 66.000
56.37669 88.000
56.39663 87.000
56.41658 68.000
56.43653 82.000
56.45647 88.000
56.47642 86.000
56.49637 72.000
56.51631 79.000
56.53626 92.000
56.55621 84.000
56.57616 78.000
56.59610 87.000
56.61605 93.000
56.63600 87.000
56.65594 96.000
56.67589 99.000
56.69584 85.000
56.71578 89.000
56.73573 103.000
56.75568 80.000
56.77563 75.000
56.79557 86.000
56.81552 72.000
56.83547 92.000
56.85541 94.000
56.87536 112.000
56.89531 100.000
56.91525 70.000
56.93520 87.000
56.95515 106.000
56.97510 93.000
56.99504 88.000
57.01499 108.000
57.03494 130.000
57.05488 90.000
57.07483 103.000
57.09478 113.000
57.11472 116.000
57.13467 171.000
57.15462 136.000
57.17456 136.000
57.19451 144.000
57.21446 180.000
57.23441 213.000
57.25435 251.000
57.27430 319.000
57.29425 391.000
57.31419 520.000
57.33414 611.000
57.35409 766.000
57.37403 871.000
57.39398 861.000
57.41393 812.000
57.43388 689.000
57.45382 574.000
57.47377 579.000
57.49372 582.000
57.51366 571.000
57.53361 615.000
57.55356 541.000
57.57350 460.000
57.59345 358.000
57.61340 299.000
57.63334 259.000
57.65329 229.000
57.67324 163.000
57.69319 143.000
57.71313 157.000
57.73308 149.000
57.75303 124.000
57.77297 117.000
57.79292 125.000
57.81287 93.000
57.83281 112.000
57.85276 102.000
57.87271 99.000
57.89266 84.000
57.91260 88.000
57.93255 89.000
57.95250 89.000
57.97244 80.000
57.99239 80.000
58.01234 72.000
58.03228 79.000
58.05223 85.000
58.07218 93.000
58.09212 77.000
58.11207 79.000
58.13202 81.000
58.15197 82.000
58.17191 87.000
58.19186 63.000
58.21181 101.000
58.23175 83.000
58.25170 99.000
58.27165 77.000
58.29159 84.000
58.31154 87.000
58.33149 85.000
58.35144 86.000
58.37138 87.000
58.39133 71.000
58.41128 56.000
58.43122 83.000
58.45117 73.000
58.47112 74.000
58.49106 84.000
58.51101 90.000
58.53096 84.000
58.55090 65.000
58.57085 77.000
58.59080 84.000
58.61075 86.000
58.63069 82.000
58.65064 80.000
58.67059 84.000
58.69053 89.000
58.71048 81.000
58.73043 70.000
58.75037 86.000
58.77032 74.000
58.79027 94.000
58.81022 85.000
58.83016 78.000
58.85011 74.000
58.87006 64.000
58.89000 78.000
58.90995 70.000
58.92990 87.000
58.94984 95.000
58.96979 83.000
58.98974 79.000
59.00969 73.000
59.02963 82.000
59.04958 65.000
59.06953 77.000
59.08947 83.000
59.10942 91.000
59.12937 76.000
59.14931 81.000
59.16926 88.000
59.18921 86.000
59.20915 70.000
59.22910 87.000
59.24905 93.000
59.26900 71.000
59.28894 81.000
59.30889 83.000
59.32884 73.000
59.34878 73.000
59.36873 89.000
59.38868 77.000
59.40862 80.000
59.42857 84.000
59.44852 76.000
59.46847 89.000
59.48841 89.000
59.50836 74.000
59.52831 75.000
59.54825 106.000
59.56820 68.000
59.58815 67.000
59.60809 61.000
59.62804 74.000
59.64799 93.000
59.66793 81.000
59.68788 81.000
59.70783 77.000
59.72778 71.000
59.74772 63.000
59.76767 68.000
59.78762 77.000
59.80756 88.000
59.82751 75.000
59.84746 86.000
59.86740 93.000
59.88735 72.000
59.90730 80.000
59.92725 61.000
59.94719 73.000
59.96714 92.000
59.98709 84.000
60.00703 72.000
60.02698 80.000
60.04693 66.000
60.06687 71.000
60.08682 71.000
60.10677 92.000
60.12671 89.000
60.14666 85.000
60.16661 79.000
60.18656 80.000
60.20650 76.000
60.22645 82.000
60.24640 75.000
60.26634 91.000
60.28629 71.000
60.30624 60.000
60.32618 94.000
60.34613 87.000
60.36608 93.000
60.38603 85.000
60.40597 86.000
60.42592 83.000
60.44587 78.000
60.46581 88.000
60.48576 91.000
60.50571 90.000
60.52565 66.000
60.54560 63.000
60.56555 66.000
60.58550 82.000
60.60544 87.000
60.62539 71.000
60.64534 72.000
60.66528 75.000
60.68523 68.000
60.70518 84.000
60.72512 100.000
60.74507 71.000
60.76502 76.000
60.78496 78.000
60.80491 84.000
60.82486 82.000
60.84481 76.000
60.86475 79.000
60.88470 88.000
60.90465 76.000
60.92459 83.000
60.94454 91.000
60.96449 78.000
60.98443 70.000
61.00438 89.000
61.02433 68.000
61.04428 81.000
61.06422 69.000
61.08417 93.000
61.10412 91.000
61.12406 85.000
61.14401 96.000
61.16396 91.000
61.18390 101.000
61.20385 81.000
61.22380 76.000
61.24374 96.000
61.26369 82.000
61.28364 72.000
61.30359 90.000
61.32353 95.000
61.34348 99.000
61.36343 107.000
61.38337 91.000
61.40332 89.000
61.42327 88.000
61.44321 105.000
61.46316 115.000
61.48311 101.000
61.50306 94.000
61.52300 91.000
61.54295 101.000
61.56290 108.000
61.58284 111.000
61.60279 103.000
61.62274 115.000
61.64268 129.000
61.66263 126.000
61.68258 105.000
61.70252 114.000
61.72247 157.000
61.74242 120.000
61.76237 133.000
61.78231 165.000
61.80226 158.000
61.82221 148.000
61.84215 191.000
61.86210 215.000
61.88205 210.000
61.90199 262.000
61.92194 249.000
61.94189 272.000
61.96184 338.000
61.98178 298.000
62.00173 349.000
62.02168 304.000
62.04162 346.000
62.06157 314.000
62.08152 293.000
62.10146 280.000
62.12141 292.000
62.14136 267.000
62.16131 276.000
62.18125 283.000
62.20120 261.000
62.22115 230.000
62.24109 191.000
62.26104 205.000
62.28099 154.000
62.30093 153.000
62.32088 168.000
62.34083 128.000
62.36077 137.000
62.38072 133.000
62.40067 120.000
62.42062 121.000
62.44056 125.000
62.46051 128.000
62.48046 140.000
62.50040 128.000
62.52035 141.000
62.54030 108.000
62.56024 126.000
62.58019 143.000
62.60014 125.000
62.62009 163.000
62.64003 143.000
62.65998 121.000
62.67993 141.000
62.69987 156.000
62.71982 171.000
62.73977 195.000
62.75971 205.000
62.77966 220.000
62.79961 249.000
62.81955 296.000
62.83950 318.000
62.85945 377.000
62.87940 401.000
62.89934 470.000
62.91929 501.000
62.93924 639.000
62.95918 800.000
62.97913 919.000
62.99908 1101.000
63.01902 1241.000
63.03897 1254.000
63.05892 1012.000
63.07887 878.000
63.09881 776.000
63.11876 698.000
63.13871 671.000
63.15865 678.000
63.17860 672.000
63.19855 733.000
63.21849 681.000
63.23844 579.000
63.25839 450.000
63.27833 340.000
63.29828 285.000
63.31823 242.000
63.33818 221.000
63.35812 185.000
63.37807 158.000
63.39802 161.000
63.41796 141.000
63.43791 140.000
63.45786 137.000
63.47780 138.000
63.49775 120.000
63.51770 128.000
63.53765 111.000
63.55759 112.000
63.57754 116.000
63.59749 96.000
63.61743 102.000
63.63738 94.000
63.65733 91.000
63.67727 89.000
63.69722 102.000
63.71717 89.000
63.73712 93.000
63.75706 104.000
63.77701 84.000
63.79696 95.000
63.81690 98.000
63.83685 103.000
63.85680 111.000
63.87674 111.000
63.89669 113.000
63.91664 93.000
63.93658 122.000
63.95653 85.000
63.97648 108.000
63.99643 108.000
64.01637 111.000
64.03632 122.000
64.05627 120.000
64.07621 111.000
64.09616 125.000
64.11611 131.000
64.13605 156.000
64.15600 180.000
64.17595 236.000
64.19590 250.000
64.21584 261.000
64.23579 236.000
64.25574 260.000
64.27568 288.000
64.29563 276.000
64.31558 256.000
64.33552 247.000
64.35547 236.000
64.37542 241.000
64.39536 259.000
64.41531 285.000
64.43526 238.000
64.45521 271.000
64.47515 207.000
64.49510 218.000
64.51505 212.000
64.53499 218.000
64.55494 206.000
64.57489 179.000
64.59483 136.000
64.61478 147.000
64.63473 135.000
64.65468 125.000
64.67462 160.000
64.69457 133.000
64.71452 132.000
64.73446 130.000
64.75441 127.000
64.77436 125.000
64.79430 105.000
64.81425 113.000
64.83420 123.000
64.85414 124.000
64.87409 120.000
64.89404 96.000
64.91399 81.000
64.93393 80.000
64.95388 94.000
64.97383 98.000
64.99377 73.000
65.01372 106.000
65.03367 87.000
65.05361 78.000
65.07356 90.000
65.09351 84.000
65.11346 86.000
65.13340 95.000
65.15335 85.000
65.17330 71.000
65.19324 98.000
65.21319 80.000
65.23314 84.000
65.25308 98.000
65.27303 90.000
65.29298 80.000
65.31293 71.000
65.33287 82.000
65.35282 65.000
65.37277 84.000
65.39271 77.000
65.41266 78.000
65.43261 88.000
65.45255 86.000
65.47250 92.000
65.49245 88.000
65.51239 83.000
65.53234 96.000
65.55229 79.000
65.57224 95.000
65.59218 62.000
65.61213 76.000
65.63208 107.000
65.65202 80.000
65.67197 75.000
65.69192 83.000
65.71186 86.000
65.73181 80.000
65.75176 80.000
65.77171 70.000
65.79165 82.000
65.81160 75.000
65.83155 79.000
65.85149 84.000
65.87144 91.000
65.89139 95.000
65.91133 81.000
65.93128 84.000
65.95123 94.000
65.97117 91.000
65.99112 82.000
66.01107 87.000
66.03102 84.000
66.05096 73.000
66.07091 86.000
66.09086 75.000
66.11080 76.000
66.13075 81.000
66.15070 91.000
66.17064 109.000
66.19059 96.000
66.21054 92.000
66.23049 119.000
66.25043 100.000
66.27038 114.000
66.29033 108.000
66.31027 122.000
66.33022 108.000
66.35017 110.000
66.37011 94.000
66.39006 133.000
66.41001 134.000
66.42995 113.000
66.44990 119.000
66.46985 125.000
66.48980 143.000
66.50974 126.000
66.52969 137.000
66.54964 166.000
66.56958 175.000
66.58953 163.000
66.60948 213.000
66.62942 195.000
66.64937 195.000
66.66932 224.000
66.68927 215.000
66.70921 212.000
66.72916 194.000
66.74911 187.000
66.76905 194.000
66.78900 237.000
66.80895 220.000
66.82889 232.000
66.84884 203.000
66.86879 198.000
66.88874 195.000
66.90868 199.000
66.92863 172.000
66.94858 189.000
66.96852 151.000
66.98847 173.000
67.00842 158.000
67.02836 140.000
67.04831 129.000
67.06826 140.000
67.08820 141.000
67.10815 103.000
67.12810 140.000
67.14805 117.000
67.16799 108.000
67.18794 94.000
67.20789 108.000
67.22783 102.000
67.24778 92.000
67.26773 109.000
67.28767 101.000
67.30762 81.000
67.32757 99.000
67.34752 99.000
67.36746 80.000
67.38741 81.000
67.40736 78.000
67.42730 92.000
67.44725 96.000
67.46720 92.000
67.48714 75.000
67.50709 95.000
67.52704 94.000
67.54698 77.000
67.56693 72.000
67.58688 77.000
67.60683 76.000
67.62677 71.000
67.64672 80.000
67.66667 88.000
67.68661 76.000
67.70656 79.000
67.72651 80.000
67.74645 80.000
67.76640 68.000
67.78635 79.000
67.80630 77.000
67.82624 70.000
67.84619 68.000
67.86614 84.000
67.88608 64.000
67.90603 61.000
67.92598 76.000
67.94592 75.000
67.96587 74.000
67.98582 76.000
68.00576 78.000
68.02571 67.000
68.04566 69.000
68.06561 89.000
68.08555 100.000
68.10550 82.000
68.12545 68.000
68.14539 70.000
68.16534 64.000
68.18529 59.000
68.20523 80.000
68.22518 72.000
68.24513 82.000
68.26508 78.000
68.28502 77.000
68.30497 71.000
68.32492 76.000
68.34486 65.000
68.36481 90.000
68.38476 75.000
68.40470 77.000
68.42465 78.000
68.44460 96.000
68.46455 73.000
68.48449 70.000
68.50444 76.000
68.52439 88.000
68.54433 85.000
68.56428 65.000
68.58423 68.000
68.60417 69.000
68.62412 91.000
68.64407 66.000
68.66401 77.000
68.68396 88.000
68.70391 79.000
68.72386 85.000
68.74380 69.000
68.76375 68.000
68.78370 55.000
68.80364 55.000
68.82359 70.000
68.84354 72.000
68.86348 75.000
68.88343 75.000
68.90338 88.000
68.92333 70.000
68.94327 69.000
68.96322 75.000
68.98317 77.000
69.00311 65.000
69.02306 81.000
69.04301 68.000
69.06295 64.000
69.08290 87.000
69.10285 56.000
69.12279 71.000
69.14274 83.000
69.16269 82.000
69.18264 80.000
69.20258 80.000
69.22253 74.000
69.24248 67.000
69.26242 78.000
69.28237 84.000
69.30232 64.000
69.32226 75.000
69.34221 79.000
69.36216 62.000
69.38211 101.000
69.40205 71.000
69.42200 66.000
69.44195 74.000
69.46189 68.000
69.48184 76.000
69.50179 70.000
69.52173 85.000
69.54168 59.000
69.56163 78.000
69.58157 75.000
69.60152 72.000
69.62147 78.000
69.64142 77.000
69.66136 91.000
69.68131 74.000
69.70126 79.000
69.72120 54.000
69.74115 58.000
69.76110 80.000
69.78104 76.000
69.80099 77.000
69.82094 91.000
69.84089 65.000
69.86083 67.000
69.88078 73.000
69.90073 78.000
69.92067 85.000
69.94062 76.000
69.96057 75.000
69.98051 84.000
70.00046 85.000
70.02041 74.000
70.04035 72.000
70.06030 85.000
70.08025 67.000
70.10020 87.000
70.12014 76.000
70.14009 75.000
70.16004 78.000
70.17998 76.000
70.19993 80.000
70.21988 74.000
70.23982 70.000
70.25977 64.000
70.27972 66.000
70.29967 67.000
70.31961 54.000
70.33956 59.000
70.35951 80.000
70.37945 99.000
70.39940 61.000
70.41935 74.000
70.43929 60.000
70.45924 82.000
70.47919 78.000
70.49914 68.000
70.51908 88.000
70.53903 77.000
70.55898 80.000
70.57892 72.000
70.59887 81.000
70.61882 82.000
70.63876 94.000
70.65871 92.000
70.67866 74.000
70.69860 72.000
70.71855 62.000
70.73850 77.000
70.75845 89.000
70.77839 76.000
70.79834 59.000
70.81829 59.000
70.83823 75.000
70.85818 82.000
70.87813 94.000
70.89807 74.000
70.91802 69.000
70.93797 69.000
70.95792 71.000
70.97786 65.000
70.99781 84.000
71.01776 70.000
71.03770 64.000
71.05765 84.000
71.07760 81.000
71.09754 54.000
71.11749 79.000
71.13744 79.000
71.15738 69.000
71.17733 74.000
71.19728 84.000
71.21723 80.000
71.23717 66.000
71.25712 73.000
71.27707 83.000
71.29701 99.000
71.31696 84.000
71.33691 81.000
71.35685 108.000
71.37680 91.000
71.39675 102.000
71.41670 105.000
71.43664 123.000
71.45659 118.000
71.47654 137.000
71.49648 126.000
71.51643 133.000
71.53638 140.000
71.55632 137.000
71.57627 142.000
71.59622 117.000
71.61616 135.000
71.63611 117.000
71.65606 115.000
71.67601 118.000
71.69595 104.000
71.71590 113.000
71.73585 99.000
71.75579 113.000
71.77574 105.000
71.79569 88.000
71.81563 107.000
71.83558 103.000
71.85553 76.000
71.87548 85.000
71.89542 84.000
71.91537 104.000
71.93532 80.000
71.95526 94.000
71.97521 84.000
71.99516 74.000
72.01510 84.000
72.03505 72.000
72.05500 72.000
72.07495 71.000
72.09489 78.000
72.11484 74.000
72.13479 68.000
72.15473 58.000
72.17468 69.000
72.19463 75.000
72.21457 68.000
72.23452 65.000
72.25447 72.000
72.27441 90.000
72.29436 64.000
72.31431 87.000
72.33426 87.000
72.35420 65.000
72.37415 74.000
72.39410 80.000
72.41404 75.000
72.43399 63.000
72.45394 71.000
72.47388 68.000
72.49383 83.000
72.51378 73.000
72.53373 83.000
72.55367 73.000
72.57362 68.000
72.59357 74.000
72.61351 81.000
72.63346 65.000
72.65341 65.000
72.67335 61.000
72.69330 77.000
72.71325 91.000
72.73319 65.000
72.75314 64.000
72.77309 68.000
72.79304 58.000
72.81298 73.000
72.83293 70.000
72.85288 68.000
72.87282 76.000
72.89277 82.000
72.91272 70.000
72.93266 77.000
72.95261 79.000
72.97256 87.000
72.99251 71.000
73.01245 69.000
73.03240 81.000
73.05235 77.000
73.07229 91.000
73.09224 57.000
73.11219 86.000
73.13213 83.000
73.15208 77.000
73.17203 83.000
73.19197 78.000
73.21192 81.000
73.23187 71.000
73.25182 95.000
73.27176 97.000
73.29171 78.000
73.31166 81.000
73.33160 82.000
73.35155 95.000
73.37150 85.000
73.39144 105.000
73.41139 94.000
73.43134 104.000
73.45129 100.000
73.47123 100.000
73.49118 100.000
73.51113 120.000
73.53107 125.000
73.55102 138.000
73.57097 121.000
73.59091 124.000
73.61086 114.000
73.63081 138.000
73.65076 116.000
73.67070 135.000
73.69065 128.000
73.71060 102.000
73.73054 122.000
73.75049 117.000
73.77044 128.000
73.79038 143.000
73.81033 123.000
73.83028 99.000
73.85022 127.000
73.87017 102.000
73.89012 105.000
73.91007 101.000
73.93001 116.000
73.94996 79.000
73.96991 99.000
73.98985 91.000
74.00980 93.000
74.02975 116.000
74.04969 77.000
74.06964 88.000
74.08959 83.000
74.10954 97.000
74.12948 82.000
74.14943 90.000
74.16938 101.000
74.18932 91.000
74.20927 74.000
74.22922 76.000
74.24916 86.000
74.26911 69.000
74.28906 83.000
74.30900 94.000
74.32895 90.000
74.34890 96.000
74.36885 93.000
74.38879 117.000
74.40874 106.000
74.42869 105.000
74.44863 130.000
74.46858 171.000
74.48853 148.000
74.50847 193.000
74.52842 200.000
74.54837 206.000
74.56832 228.000
74.58826 254.000
74.60821 252.000
74.62816 225.000
74.64810 201.000
74.66805 200.000
74.68800 190.000
74.70794 163.000
74.72789 181.000
74.74784 187.000
74.76778 188.000
74.78773 199.000
74.80768 183.000
74.82763 163.000
74.84757 167.000
74.86752 147.000
74.88747 140.000
74.90741 121.000
74.92736 103.000
74.94731 95.000
74.96725 96.000
74.98720 88.000
75.00715 88.000
75.02710 90.000
75.04704 117.000
75.06699 81.000
75.08694 82.000
75.10688 71.000
75.12683 84.000
75.14678 79.000
75.16672 91.000
75.18667 73.000
75.20662 98.000
75.22657 84.000
75.24651 104.000
75.26646 80.000
75.28641 83.000
75.30635 102.000
75.32630 130.000
75.34625 120.000
75.36619 124.000
75.38614 139.000
75.40609 118.000
75.42603 143.000
75.44598 110.000
75.46593 139.000
75.48588 130.000
75.50582 124.000
75.52577 147.000
75.54572 160.000
75.56566 166.000
75.58561 171.000
75.60556 172.000
75.62550 160.000
75.64545 158.000
75.66540 143.000
75.68535 156.000
75.70529 138.000
75.72524 167.000
75.74519 169.000
75.76513 130.000
75.78508 142.000
75.80503 136.000
75.82497 145.000
75.84492 140.000
75.86487 129.000
75.88481 118.000
75.90476 112.000
75.92471 101.000
75.94466 127.000
75.96460 96.000
75.98455 110.000
76.00450 101.000
76.02444 97.000
76.04439 109.000
76.06434 106.000
76.08428 94.000
76.10423 82.000
76.12418 107.000
76.14413 95.000
76.16407 76.000
76.18402 105.000
76.20397 85.000
76.22391 83.000
76.24386 79.000
76.26381 76.000
76.28375 90.000
76.30370 82.000
76.32365 75.000
76.34359 84.000
76.36354 81.000
76.38349 78.000
76.40344 83.000
76.42338 82.000
76.44333 78.000
76.46328 69.000
76.48322 81.000
76.50317 73.000
76.52312 81.000
76.54306 72.000
76.56301 55.000
76.58296 81.000
76.60291 77.000
76.62285 70.000
76.64280 80.000
76.66275 84.000
76.68269 84.000
76.70264 71.000
76.72259 70.000
76.74253 73.000
76.76248 90.000
76.78243 74.000
76.80238 86.000
76.82232 77.000
76.84227 67.000
76.86222 95.000
76.88216 79.000
76.90211 80.000
76.92206 91.000
76.94200 79.000
76.96195 63.000
76.98190 69.000
77.00184 93.000
77.02179 80.000
77.04174 65.000
77.06169 74.000
77.08163 76.000
77.10158 75.000
77.12153 76.000
77.14147 62.000
77.16142 68.000
77.18137 68.000
77.20131 73.000
77.22126 83.000
77.24121 68.000
77.26116 63.000
77.28110 84.000
77.30105 80.000
77.32100 74.000
77.34094 78.000
77.36089 76.000
77.38084 71.000
77.40078 80.000
77.42073 79.000
77.44068 69.000
77.46062 70.000
77.48057 90.000
77.50052 77.000
77.52047 89.000
77.54041 84.000
77.56036 91.000
77.58031 65.000
77.60025 89.000
77.62020 85.000
77.64015 91.000
77.66009 89.000
77.68004 81.000
77.69999 89.000
77.71994 87.000
77.73988 97.000
77.75983 96.000
77.77978 103.000
77.79972 91.000
77.81967 100.000
77.83962 108.000
77.85956 106.000
77.87951 96.000
77.89946 141.000
77.91940 120.000
77.93935 104.000
77.95930 137.000
77.97925 136.000
77.99919 119.000
78.01914 132.000
78.03909 151.000
78.05903 149.000
78.07898 153.000
78.09893 157.000
78.11887 146.000
78.13882 159.000
78.15877 157.000
78.17872 165.000
78.19866 167.000
78.21861 194.000
78.23856 174.000
78.25850 150.000
78.27845 154.000
78.29840 134.000
78.31834 171.000
78.33829 176.000
78.35824 163.000
78.37819 127.000
78.39813 145.000
78.41808 132.000
78.43803 148.000
78.45797 135.000
78.47792 137.000
78.49787 122.000
78.51781 115.000
78.53776 122.000
78.55771 133.000
78.57765 108.000
78.59760 123.000
78.61755 106.000
78.63750 95.000
78.65744 101.000
78.67739 93.000
78.69734 109.000
78.71728 93.000
78.73723 80.000
78.75718 98.000
78.77712 95.000
78.79707 104.000
78.81702 80.000
78.83697 66.000
78.85691 76.000
78.87686 72.000
78.89681 78.000
78.91675 95.000
78.93670 83.000
78.95665 84.000
78.97659 101.000
78.99654 98.000
79.01649 62.000
79.03643 90.000
79.05638 79.000
79.07633 84.000
79.09628 78.000
79.11622 87.000
79.13617 70.000
79.15612 88.000
79.17606 87.000
79.19601 85.000
79.21596 81.000
79.23590 92.000
79.25585 104.000
79.27580 82.000
79.29575 91.000
79.31569 89.000
79.33564 85.000
79.35559 117.000
79.37553 112.000
79.39548 115.000
79.41543 118.000
79.43537 117.000
79.45532 114.000
79.47527 127.000
79.49521 132.000
79.51516 129.000
79.53511 121.000
79.55506 114.000
79.57500 121.000
79.59495 165.000
79.61490 131.000
79.63484 124.000
79.65479 146.000
79.67474 120.000
79.69468 116.000
79.71463 104.000
79.73458 124.000
79.75453 113.000
79.77447 123.000
79.79442 104.000
79.81437 115.000
79.83431 103.000
79.85426 94.000
79.87421 96.000
79.89415 117.000
79.91410 109.000
79.93405 82.000
79.95399 93.000
79.97394 82.000
79.99389 96.000
80.01384 76.000
80.03378 84.000
80.05373 76.000
80.07368 83.000
80.09362 68.000
80.11357 69.000
80.13352 67.000
80.15346 81.000
80.17341 71.000
80.19336 69.000
80.21331 82.000
80.23325 82.000
80.25320 77.000
80.27315 70.000
80.29309 68.000
80.31304 56.000
80.33299 71.000
80.35293 80.000
80.37288 78.000
80.39283 71.000
80.41278 62.000
80.43272 68.000
80.45267 64.000
80.47262 83.000
80.49256 69.000
80.51251 69.000
80.53246 84.000
80.55240 67.000
80.57235 69.000
80.59230 73.000
80.61224 78.000
80.63219 56.000
80.65214 62.000
80.67209 68.000
80.69203 67.000
80.71198 80.000
80.73193 94.000
80.75187 82.000
80.77182 77.000
80.79177 74.000
80.81171 79.000
80.83166 84.000
80.85161 97.000
80.87156 84.000
80.89150 64.000
80.91145 63.000
80.93140 101.000
80.95134 85.000
80.97129 86.000
80.99124 82.000
81.01118 70.000
81.03113 90.000
81.05108 75.000
81.07102 77.000
81.09097 80.000
81.11092 70.000
81.13087 75.000
81.15081 81.000
81.17076 75.000
81.19071 83.000
81.21065 80.000
81.23060 78.000
81.25055 78.000
81.27049 69.000
81.29044 75.000
81.31039 80.000
81.33034 76.000
81.35028 78.000
81.37023 75.000
81.39018 84.000
81.41012 63.000
81.43007 68.000
81.45002 76.000
81.46996 54.000
81.48991 73.000
81.50986 60.000
81.52980 71.000
81.54975 80.000
81.56970 62.000
81.58965 76.000
81.60959 60.000
81.62954 61.000
81.64949 70.000
81.66943 74.000
81.68938 65.000
81.70933 75.000
81.72927 56.000
81.74922 79.000
81.76917 64.000
81.78912 61.000
81.80906 71.000
81.82901 82.000
81.84896 77.000
81.86890 102.000
81.88885 57.000
81.90880 68.000
81.92874 71.000
81.94869 88.000
81.96864 73.000
81.98859 61.000
82.00853 64.000
82.02848 70.000
82.04843 75.000
82.06837 83.000
82.08832 70.000
82.10827 78.000
82.12821 74.000
82.14816 65.000
82.16811 61.000
82.18805 76.000
82.20800 64.000
82.22795 79.000
82.24790 66.000
82.26784 76.000
82.28779 73.000
82.30774 67.000
82.32768 74.000
82.34763 80.000
82.36758 86.000
82.38752 77.000
82.40747 57.000
82.42742 67.000
82.44737 78.000
82.46731 75.000
82.48726 89.000
82.50721 74.000
82.52715 67.000
82.54710 67.000
82.56705 81.000
82.58699 89.000
82.60694 87.000
82.62689 101.000
82.64683 92.000
82.66678 66.000
82.68673 79.000
82.70668 83.000
82.72662 65.000
82.74657 66.000
82.76652 88.000
82.78646 73.000
82.80641 78.000
82.82636 81.000
82.84630 71.000
82.86625 63.000
82.88620 88.000
82.90615 67.000
82.92609 59.000
82.94604 58.000
82.96599 76.000
82.98593 60.000
83.00588 80.000
83.02583 73.000
83.04577 56.000
83.06572 80.000
83.08567 69.000
83.10561 67.000
83.12556 81.000
83.14551 78.000
83.16546 64.000
83.18540 66.000
83.20535 71.000
83.22530 73.000
83.24524 80.000
83.26519 93.000
83.28514 68.000
83.30508 77.000
83.32503 67.000
83.34498 73.000
83.36493 52.000
83.38487 80.000
83.40482 76.000
83.42477 79.000
83.44471 54.000
83.46466 80.000
83.48461 62.000
83.50455 74.000
83.52450 75.000
83.54445 86.000
83.56440 80.000
83.58434 78.000
83.60429 74.000
83.62424 64.000
83.64418 62.000
83.66413 75.000
83.68408 77.000
83.70402 70.000
83.72397 60.000
83.74392 88.000
83.76386 73.000
83.78381 70.000
83.80376 76.000
83.82371 78.000
83.84365 76.000
83.86360 73.000
83.88355 82.000
83.90349 54.000
83.92344 63.000
83.94339 83.000
83.96333 72.000
83.98328 72.000
84.00323 71.000
84.02318 80.000
84.04312 71.000
84.06307 71.000
84.08302 77.000
84.10296 75.000
84.12291 76.000
84.14286 62.000
84.16280 88.000
84.18275 73.000
84.20270 88.000
84.22264 72.000
84.24259 81.000
84.26254 92.000
84.28249 90.000
84.30243 98.000
84.32238 75.000
84.34233 84.000
84.36227 86.000
84.38222 84.000
84.40217 77.000
84.42211 92.000
84.44206 92.000
84.46201 92.000
84.48196 95.000
84.50190 110.000
84.52185 103.000
84.54180 118.000
84.56174 146.000
84.58169 114.000
84.60164 114.000
84.62158 109.000
84.64153 132.000
84.66148 129.000
84.68142 115.000
84.70137 136.000
84.72132 91.000
84.74127 126.000
84.76121 126.000
84.78116 143.000
84.80111 114.000
84.82105 119.000
84.84100 124.000
84.86095 129.000
84.88089 125.000
84.90084 121.000
84.92079 117.000
84.94074 103.000
84.96068 114.000
84.98063 126.000
85.00058 96.000
85.02052 100.000
85.04047 98.000
85.06042 96.000
85.08036 94.000
85.10031 94.000
85.12026 102.000
85.14021 77.000
85.16015 109.000
85.18010 75.000
85.20005 85.000
85.21999 82.000
85.23994 94.000
85.25989 71.000
85.27983 70.000
85.29978 71.000
85.31973 74.000
85.33967 85.000
85.35962 79.000
85.37957 68.000
85.39952 84.000
85.41946 64.000
85.43941 76.000
85.45936 87.000
85.47930 74.000
85.49925 76.000
85.51920 77.000
85.53914 75.000
85.55909 75.000
85.57904 64.000
85.59899 92.000
85.61893 68.000
85.63888 69.000
85.65883 82.000
85.67877 70.000
85.69872 92.000
85.71867 62.000
85.73861 87.000
85.75856 63.000
85.77851 79.000
85.79845 74.000
85.81840 78.000
85.83835 77.000
85.85830 87.000
85.87824 56.000
85.89819 70.000
85.91814 85.000
85.93808 81.000
85.95803 82.000
85.97798 64.000
85.99792 59.000
86.01787 64.000
86.03782 80.000
86.05777 76.000
86.07771 74.000
86.09766 68.000
86.11761 77.000
86.13755 74.000
86.15750 85.000
86.17745 60.000
86.19739 71.000
86.21734 84.000
86.23729 81.000
86.25723 69.000
86.27718 71.000
86.29713 72.000
86.31708 83.000
86.33702 77.000
86.35697 67.000
86.37692 87.000
86.39686 82.000
86.41681 66.000
86.43676 57.000
86.45670 57.000
86.47665 73.000
86.49660 86.000
86.51655 63.000
86.53649 75.000
86.55644 70.000
86.57639 88.000
86.59633 68.000
86.61628 79.000
86.63623 85.000
86.65617 62.000
86.67612 70.000
86.69607 82.000
86.71602 71.000
86.73596 72.000
86.75591 83.000
86.77586 72.000
86.79580 90.000
86.81575 82.000
86.83570 77.000
86.85564 71.000
86.87559 82.000
86.89554 86.000
86.91548 63.000
86.93543 85.000
86.95538 78.000
86.97533 87.000
86.99527 66.000
87.01522 84.000
87.03517 82.000
87.05511 70.000
87.07506 73.000
87.09501 83.000
87.11495 90.000
87.13490 90.000
87.15485 77.000
87.17480 107.000
87.19474 94.000
87.21469 91.000
87.23464 94.000
87.25458 94.000
87.27453 76.000
87.29448 93.000
87.31442 92.000
87.33437 125.000
87.35432 102.000
87.37426 129.000
87.39421 118.000
87.41416 115.000
87.43411 129.000
87.45405 132.000
87.47400 189.000
87.49395 134.000
87.51389 170.000
87.53384 142.000
87.55379 145.000
87.57373 117.000
87.59368 125.000
87.61363 110.000
87.63358 97.000
87.65352 121.000
87.67347 101.000
87.69342 120.000
87.71336 108.000
87.73331 123.000
87.75326 119.000
87.77320 119.000
87.79315 114.000
87.81310 117.000
87.83304 110.000
87.85299 101.000
87.87294 91.000
87.89289 83.000
87.91283 95.000
87.93278 75.000
87.95273 76.000
87.97267 77.000
87.99262 81.000
88.01257 75.000
88.03251 80.000
88.05246 91.000
88.07241 78.000
88.09236 84.000
88.11230 78.000
88.13225 63.000
88.15220 79.000
88.17214 91.000
88.19209 71.000
88.21204 69.000
88.23198 73.000
88.25193 74.000
88.27188 68.000
88.29183 75.000
88.31177 68.000
88.33172 73.000
88.35167 83.000
88.37161 60.000
88.39156 67.000
88.41151 81.000
88.43145 70.000
88.45140 72.000
88.47135 66.000
88.49129 71.000
88.51124 72.000
88.53119 77.000
88.55114 63.000
88.57108 62.000
88.59103 64.000
88.61098 79.000
88.63092 70.000
88.65087 59.000
88.67082 69.000
88.69076 62.000
88.71071 89.000
88.73066 70.000
88.75061 81.000
88.77055 74.000
88.79050 63.000
88.81045 78.000
88.83039 86.000
88.85034 82.000
88.87029 71.000
88.89023 70.000
88.91018 74.000
88.93013 85.000
88.95007 80.000
88.97002 86.000
88.98997 76.000
89.00992 66.000
89.02986 68.000
89.04981 84.000
89.06976 76.000
89.08970 71.000
89.10965 67.000
89.12960 73.000
89.14954 73.000
89.16949 65.000
89.18944 83.000
89.20939 52.000
89.22933 68.000
89.24928 74.000
89.26923 60.000
89.28917 95.000
89.30912 84.000
89.32907 60.000
89.34901 66.000
89.36896 73.000
89.38891 71.000
89.40885 57.000
89.42880 69.000
89.44875 87.000
89.46870 87.000
89.48864 68.000
89.50859 86.000
89.52854 75.000
89.54848 61.000
89.56843 82.000
89.58838 80.000
89.60832 73.000
89.62827 67.000
89.64822 69.000
89.66817 79.000
89.68811 70.000
89.70806 67.000
89.72801 82.000
89.74795 68.000
89.76790 65.000
89.78785 74.000
89.80779 78.000
89.82774 72.000
89.84769 76.000
89.86764 77.000
89.88758 87.000
89.90753 83.000
89.92748 85.000
89.94742 96.000
89.96737 85.000
89.98732 91.000
90.00726 78.000
