10.00000 277.000
10.01995 280.000
10.03989 266.000
10.05984 255.000
10.07979 270.000
10.09973 258.000
10.11968 281.000
10.13963 266.000
10.15958 242.000
10.17952 271.000
10.19947 253.000
10.21942 299.000
10.23936 273.000
10.25931 261.000
10.27926 263.000
10.29920 268.000
10.31915 260.000
10.33910 264.000
10.35905 238.000
10.37899 253.000
10.39894 252.000
10.41889 263.000
10.43883 291.000
10.45878 272.000
10.47873 252.000
10.49867 267.000
10.51862 281.000
10.53857 240.000
10.55851 305.000
10.57846 238.000
10.59841 274.000
10.61836 274.000
10.63830 282.000
10.65825 255.000
10.67820 264.000
10.69814 282.000
10.71809 273.000
10.73804 271.000
10.75798 266.000
10.77793 292.000
10.79788 285.000
10.81783 287.000
10.83777 285.000
10.85772 287.000
10.87767 275.000
10.89761 211.000
10.91756 280.000
10.93751 240.000
10.95745 282.000
10.97740 245.000
10.99735 251.000
11.01730 255.000
11.03724 236.000
11.05719 281.000
11.07714 266.000
11.09708 270.000
11.11703 262.000
11.13698 264.000
11.15692 266.000
11.17687 268.000
11.19682 275.000
11.21676 259.000
11.23671 260.000
11.25666 257.000
11.27661 269.000
11.29655 257.000
11.31650 262.000
11.33645 263.000
11.35639 278.000
11.37634 296.000
11.39629 254.000
11.41623 266.000
11.43618 276.000
11.45613 239.000
11.47608 263.000
11.49602 257.000
11.51597 264.000
11.53592 263.000
11.55586 276.000
11.57581 249.000
11.59576 254.000
11.61570 262.000
11.63565 258.000
11.65560 278.000
11.67554 293.000
11.69549 262.000
11.71544 261.000
11.73539 269.000
11.75533 247.000
11.77528 267.000
11.79523 269.000
11.81517 285.000
11.83512 278.000
11.85507 281.000
11.87501 263.000
11.89496 272.000
11.91491 277.000
11.93486 301.000
11.95480 253.000
11.97475 274.000
11.99470 271.000
12.01464 256.000
12.03459 281.000
12.05454 273.000
12.07448 251.000
12.09443 271.000
12.11438 284.000
12.13432 304.000
12.15427 285.000
12.17422 294.000
12.19417 279.000
12.21411 280.000
12.23406 266.000
12.25401 288.000
12.27395 273.000
12.29390 278.000
12.31385 284.000
12.33379 269.000
12.35374 280.000
12.37369 258.000
12.39364 301.000
12.41358 327.000
12.43353 287.000
12.45348 292.000
12.47342 263.000
12.49337 238.000
12.51332 268.000
12.53326 281.000
12.55321 259.000
12.57316 262.000
12.59311 253.000
12.61305 251.000
12.63300 279.000
12.65295 279.000
12.67289 249.000
12.69284 270.000
12.71279 271.000
12.73273 306.000
12.75268 304.000
12.77263 262.000
12.79257 296.000
12.81252 231.000
12.83247 305.000
12.85242 244.000
12.87236 308.000
12.89231 264.000
12.91226 259.000
12.93220 243.000
12.95215 265.000
12.97210 278.000
12.99204 294.000
13.01199 282.000
13.03194 254.000
13.05189 250.000
13.07183 240.000
13.09178 261.000
13.11173 266.000
13.13167 274.000
13.15162 257.000
13.17157 290.000
13.19151 282.000
13.21146 266.000
13.23141 288.000
13.25135 295.000
13.27130 239.000
13.29125 281.000
13.31120 289.000
13.33114 253.000
13.35109 307.000
13.37104 280.000
13.39098 260.000
13.41093 310.000
13.43088 268.000
13.45082 276.000
13.47077 225.000
13.49072 284.000
13.51067 276.000
13.53061 281.000
13.55056 280.000
13.57051 280.000
13.59045 258.000
13.61040 263.000
13.63035 267.000
13.65029 285.000
13.67024 291.000
13.69019 259.000
13.71013 253.000
13.73008 263.000
13.75003 268.000
13.76998 264.000
13.78992 299.000
13.80987 266.000
13.82982 266.000
13.84976 281.000
13.86971 278.000
13.88966 278.000
13.90960 289.000
13.92955 316.000
13.94950 297.000
13.96945 270.000
13.98939 263.000
14.00934 260.000
14.02929 286.000
14.04923 275.000
14.06918 277.000
14.08913 276.000
14.10907 276.000
14.12902 262.000
14.14897 272.000
14.16892 290.000
14.18886 240.000
14.20881 270.000
14.22876 260.000
14.24870 280.000
14.26865 249.000
14.28860 276.000
14.30854 292.000
14.32849 281.000
14.34844 242.000
14.36838 272.000
14.38833 260.000
14.40828 289.000
14.42823 264.000
14.44817 310.000
14.46812 274.000
14.48807 287.000
14.50801 276.000
14.52796 273.000
14.54791 284.000
14.56785 257.000
14.58780 303.000
14.60775 274.000
14.62770 247.000
14.64764 304.000
14.66759 281.000
14.68754 256.000
14.70748 304.000
14.72743 263.000
14.74738 282.000
14.76732 296.000
14.78727 272.000
14.80722 307.000
14.82716 268.000
14.84711 283.000
14.86706 282.000
14.88701 303.000
14.90695 294.000
14.92690 287.000
14.94685 281.000
14.96679 276.000
14.98674 277.000
15.00669 295.000
15.02663 255.000
15.04658 288.000
15.06653 318.000
15.08648 275.000
15.10642 281.000
15.12637 292.000
15.14632 314.000
15.16626 335.000
15.18621 337.000
15.20616 331.000
15.22610 312.000
15.24605 289.000
15.26600 329.000
15.28594 307.000
15.30589 320.000
15.32584 320.000
15.34579 329.000
15.36573 341.000
15.38568 331.000
15.40563 355.000
15.42557 349.000
15.44552 364.000
15.46547 374.000
15.48541 386.000
15.50536 416.000
15.52531 369.000
15.54526 423.000
15.56520 384.000
15.58515 418.000
15.60510 475.000
15.62504 454.000
15.64499 538.000
15.66494 618.000
15.68488 689.000
15.70483 838.000
15.72478 1083.000
15.74472 1519.000
15.76467 2116.000
15.78462 3305.000
15.80457 4996.000
15.82451 7506.000
15.84446 9933.000
15.86441 10931.000
15.88435 9028.000
15.90430 6045.000
15.92425 3490.000
15.94419 1587.000
15.96414 994.000
15.98409 749.000
16.00404 599.000
16.02398 546.000
16.04393 468.000
16.06388 443.000
16.08382 459.000
16.10377 430.000
16.12372 393.000
16.14366 379.000
16.16361 387.000
16.18356 374.000
16.20351 353.000
16.22345 341.000
16.24340 352.000
16.26335 328.000
16.28329 344.000
16.30324 369.000
16.32319 324.000
16.34313 311.000
16.36308 346.000
16.38303 316.000
16.40297 345.000
16.42292 330.000
16.44287 271.000
16.46282 329.000
16.48276 330.000
16.50271 272.000
16.52266 321.000
16.54260 331.000
16.56255 305.000
16.58250 284.000
16.60244 336.000
16.62239 311.000
16.64234 302.000
16.66229 294.000
16.68223 308.000
16.70218 288.000
16.72213 303.000
16.74207 308.000
16.76202 303.000
16.78197 277.000
16.80191 285.000
16.82186 294.000
16.84181 265.000
16.86175 298.000
16.88170 302.000
16.90165 266.000
16.92160 306.000
16.94154 325.000
16.96149 295.000
16.98144 288.000
17.00138 310.000
17.02133 309.000
17.04128 308.000
17.06122 281.000
17.08117 245.000
17.10112 277.000
17.12107 298.000
17.14101 253.000
17.16096 284.000
17.18091 278.000
17.20085 294.000
17.22080 278.000
17.24075 288.000
17.26069 263.000
17.28064 261.000
17.30059 275.000
17.32053 299.000
17.34048 298.000
17.36043 259.000
17.38038 293.000
17.40032 281.000
17.42027 276.000
17.44022 276.000
17.46016 292.000
17.48011 285.000
17.50006 261.000
17.52000 270.000
17.53995 303.000
17.55990 288.000
17.57985 262.000
17.59979 299.000
17.61974 305.000
17.63969 301.000
17.65963 282.000
17.67958 273.000
17.69953 263.000
17.71947 287.000
17.73942 291.000
17.75937 311.000
17.77932 315.000
17.79926 296.000
17.81921 263.000
17.83916 268.000
17.85910 284.000
17.87905 274.000
17.89900 258.000
17.91894 290.000
17.93889 303.000
17.95884 261.000
17.97878 308.000
17.99873 267.000
18.01868 284.000
18.03863 288.000
18.05857 289.000
18.07852 277.000
18.09847 268.000
18.11841 281.000
18.13836 274.000
18.15831 305.000
18.17825 308.000
18.19820 263.000
18.21815 288.000
18.23810 287.000
18.25804 290.000
18.27799 265.000
18.29794 283.000
18.31788 298.000
18.33783 299.000
18.35778 302.000
18.37772 309.000
18.39767 268.000
18.41762 290.000
18.43756 293.000
18.45751 281.000
18.47746 261.000
18.49741 338.000
18.51735 297.000
18.53730 326.000
18.55725 321.000
18.57719 306.000
18.59714 290.000
18.61709 269.000
18.63703 293.000
18.65698 279.000
18.67693 296.000
18.69688 265.000
18.71682 290.000
18.73677 272.000
18.75672 266.000
18.77666 290.000
18.79661 264.000
18.81656 280.000
18.83650 271.000
18.85645 285.000
18.87640 292.000
18.89634 279.000
18.91629 261.000
18.93624 273.000
18.95619 247.000
18.97613 286.000
18.99608 261.000
19.01603 296.000
19.03597 295.000
19.05592 299.000
19.07587 289.000
19.09581 244.000
19.11576 304.000
19.13571 288.000
19.15566 274.000
19.17560 256.000
19.19555 280.000
19.21550 246.000
19.23544 275.000
19.25539 282.000
19.27534 297.000
19.29528 286.000
19.31523 301.000
19.33518 267.000
19.35513 252.000
19.37507 303.000
19.39502 303.000
19.41497 255.000
19.43491 293.000
19.45486 297.000
19.47481 297.000
19.49475 255.000
19.51470 296.000
19.53465 264.000
19.55459 284.000
19.57454 288.000
19.59449 301.000
19.61444 284.000
19.63438 263.000
19.65433 274.000
19.67428 284.000
19.69422 275.000
19.71417 259.000
19.73412 307.000
19.75406 263.000
19.77401 280.000
19.79396 297.000
19.81391 276.000
19.83385 290.000
19.85380 281.000
19.87375 279.000
19.89369 265.000
19.91364 261.000
19.93359 298.000
19.95353 260.000
19.97348 277.000
19.99343 318.000
20.01337 279.000
20.03332 290.000
20.05327 293.000
20.07322 294.000
20.09316 279.000
20.11311 262.000
20.13306 285.000
20.15300 272.000
20.17295 289.000
20.19290 297.000
20.21284 283.000
20.23279 283.000
20.25274 317.000
20.27269 289.000
20.29263 288.000
20.31258 290.000
20.33253 295.000
20.35247 321.000
20.37242 285.000
20.39237 281.000
20.41231 317.000
20.43226 278.000
20.45221 272.000
20.47215 273.000
20.49210 314.000
20.51205 300.000
20.53200 303.000
20.55194 313.000
20.57189 306.000
20.59184 264.000
20.61178 304.000
20.63173 280.000
20.65168 303.000
20.67162 275.000
20.69157 274.000
20.71152 298.000
20.73147 305.000
20.75141 294.000
20.77136 274.000
20.79131 274.000
20.81125 280.000
20.83120 291.000
20.85115 283.000
20.87109 274.000
20.89104 294.000
20.91099 306.000
20.93094 279.000
20.95088 291.000
20.97083 304.000
20.99078 311.000
21.01072 316.000
21.03067 323.000
21.05062 315.000
21.07056 339.000
21.09051 350.000
21.11046 383.000
21.13040 433.000
21.15035 461.000
21.17030 417.000
21.19025 387.000
21.21019 381.000
21.23014 339.000
21.25009 331.000
21.27003 303.000
21.28998 275.000
21.30993 302.000
21.32987 317.000
21.34982 305.000
21.36977 306.000
21.38972 306.000
21.40966 282.000
21.42961 296.000
21.44956 271.000
21.46950 336.000
21.48945 308.000
21.50940 304.000
21.52934 280.000
21.54929 299.000
21.56924 263.000
21.58918 309.000
21.60913 275.000
21.62908 261.000
21.64903 286.000
21.66897 278.000
21.68892 284.000
21.70887 314.000
21.72881 279.000
21.74876 287.000
21.76871 308.000
21.78865 280.000
21.80860 304.000
21.82855 299.000
21.84850 303.000
21.86844 311.000
21.88839 303.000
21.90834 278.000
21.92828 292.000
21.94823 279.000
21.96818 315.000
21.98812 317.000
22.00807 279.000
22.02802 306.000
22.04796 309.000
22.06791 303.000
22.08786 278.000
22.10781 290.000
22.12775 307.000
22.14770 278.000
22.16765 286.000
22.18759 307.000
22.20754 277.000
22.22749 275.000
22.24743 269.000
22.26738 276.000
22.28733 283.000
22.30728 290.000
22.32722 281.000
22.34717 320.000
22.36712 317.000
22.38706 276.000
22.40701 305.000
22.42696 301.000
22.44690 316.000
22.46685 306.000
22.48680 294.000
22.50675 287.000
22.52669 292.000
22.54664 293.000
22.56659 278.000
22.58653 279.000
22.60648 310.000
22.62643 304.000
22.64637 329.000
22.66632 281.000
22.68627 292.000
22.70621 296.000
22.72616 276.000
22.74611 279.000
22.76606 308.000
22.78600 315.000
22.80595 291.000
22.82590 305.000
22.84584 281.000
22.86579 273.000
22.88574 291.000
22.90568 285.000
22.92563 288.000
22.94558 254.000
22.96553 288.000
22.98547 280.000
23.00542 312.000
23.02537 286.000
23.04531 277.000
23.06526 262.000
23.08521 338.000
23.10515 295.000
23.12510 299.000
23.14505 288.000
23.16499 294.000
23.18494 296.000
23.20489 276.000
23.22484 277.000
23.24478 279.000
23.26473 295.000
23.28468 320.000
23.30462 273.000
23.32457 302.000
23.34452 316.000
23.36446 278.000
23.38441 299.000
23.40436 288.000
23.42431 282.000
23.44425 304.000
23.46420 322.000
23.48415 283.000
23.50409 310.000
23.52404 296.000
23.54399 283.000
23.56393 284.000
23.58388 310.000
23.60383 327.000
23.62377 301.000
23.64372 310.000
23.66367 283.000
23.68362 288.000
23.70356 298.000
23.72351 309.000
23.74346 257.000
23.76340 317.000
23.78335 311.000
23.80330 348.000
23.82324 304.000
23.84319 283.000
23.86314 290.000
23.88309 295.000
23.90303 316.000
23.92298 285.000
23.94293 306.000
23.96287 342.000
23.98282 325.000
24.00277 304.000
24.02271 304.000
24.04266 302.000
24.06261 295.000
24.08256 307.000
24.10250 312.000
24.12245 288.000
24.14240 310.000
24.16234 289.000
24.18229 312.000
24.20224 289.000
24.22218 308.000
24.24213 265.000
24.26208 262.000
24.28202 278.000
24.30197 291.000
24.32192 292.000
24.34187 291.000
24.36181 318.000
24.38176 299.000
24.40171 300.000
24.42165 252.000
24.44160 312.000
24.46155 306.000
24.48149 310.000
24.50144 330.000
24.52139 267.000
24.54134 317.000
24.56128 287.000
24.58123 296.000
24.60118 284.000
24.62112 293.000
24.64107 310.000
24.66102 271.000
24.68096 270.000
24.70091 299.000
24.72086 317.000
24.74080 328.000
24.76075 310.000
24.78070 283.000
24.80065 313.000
24.82059 300.000
24.84054 312.000
24.86049 313.000
24.88043 322.000
24.90038 311.000
24.92033 324.000
24.94027 308.000
24.96022 287.000
24.98017 284.000
25.00012 297.000
25.02006 315.000
25.04001 295.000
25.05996 300.000
25.07990 302.000
25.09985 274.000
25.11980 334.000
25.13974 313.000
25.15969 287.000
25.17964 315.000
25.19958 286.000
25.21953 286.000
25.23948 293.000
25.25943 300.000
25.27937 281.000
25.29932 326.000
25.31927 314.000
25.33921 318.000
25.35916 295.000
25.37911 298.000
25.39905 293.000
25.41900 298.000
25.43895 303.000
25.45890 336.000
25.47884 298.000
25.49879 326.000
25.51874 294.000
25.53868 300.000
25.55863 327.000
25.57858 306.000
25.59852 328.000
25.61847 299.000
25.63842 319.000
25.65837 309.000
25.67831 327.000
25.69826 306.000
25.71821 317.000
25.73815 280.000
25.75810 284.000
25.77805 292.000
25.79799 276.000
25.81794 292.000
25.83789 322.000
25.85783 299.000
25.87778 308.000
25.89773 327.000
25.91768 285.000
25.93762 281.000
25.95757 292.000
25.97752 305.000
25.99746 329.000
26.01741 333.000
26.03736 320.000
26.05730 293.000
26.07725 314.000
26.09720 321.000
26.11715 302.000
26.13709 301.000
26.15704 323.000
26.17699 276.000
26.19693 302.000
26.21688 348.000
26.23683 303.000
26.25677 300.000
26.27672 339.000
26.29667 319.000
26.31661 288.000
26.33656 308.000
26.35651 304.000
26.37646 322.000
26.39640 325.000
26.41635 309.000
26.43630 319.000
26.45624 317.000
26.47619 305.000
26.49614 336.000
26.51608 275.000
26.53603 293.000
26.55598 320.000
26.57593 301.000
26.59587 318.000
26.61582 338.000
26.63577 310.000
26.65571 320.000
26.67566 320.000
26.69561 340.000
26.71555 326.000
26.73550 333.000
26.75545 306.000
26.77539 327.000
26.79534 296.000
26.81529 301.000
26.83524 307.000
26.85518 337.000
26.87513 278.000
26.89508 316.000
26.91502 284.000
26.93497 294.000
26.95492 333.000
26.97486 320.000
26.99481 304.000
27.01476 306.000
27.03471 331.000
27.05465 297.000
27.07460 333.000
27.09455 331.000
27.11449 299.000
27.13444 319.000
27.15439 337.000
27.17433 327.000
27.19428 317.000
27.21423 351.000
27.23417 317.000
27.25412 338.000
27.27407 337.000
27.29402 316.000
27.31396 295.000
27.33391 333.000
27.35386 323.000
27.37380 323.000
27.39375 328.000
27.41370 271.000
27.43364 371.000
27.45359 286.000
27.47354 342.000
27.49349 327.000
27.51343 316.000
27.53338 338.000
27.55333 294.000
27.57327 320.000
27.59322 312.000
27.61317 308.000
27.63311 313.000
27.65306 307.000
27.67301 328.000
27.69296 283.000
27.71290 310.000
27.73285 327.000
27.75280 337.000
27.77274 321.000
27.79269 306.000
27.81264 336.000
27.83258 339.000
27.85253 344.000
27.87248 344.000
27.89242 331.000
27.91237 321.000
27.93232 343.000
27.95227 305.000
27.97221 360.000
27.99216 309.000
28.01211 358.000
28.03205 315.000
28.05200 284.000
28.07195 343.000
28.09189 327.000
28.11184 317.000
28.13179 352.000
28.15174 343.000
28.17168 295.000
28.19163 301.000
28.21158 324.000
28.23152 333.000
28.25147 318.000
28.27142 324.000
28.29136 326.000
28.31131 400.000
28.33126 352.000
28.35120 317.000
28.37115 324.000
28.39110 339.000
28.41105 308.000
28.43099 316.000
28.45094 329.000
28.47089 331.000
28.49083 362.000
28.51078 334.000
28.53073 365.000
28.55067 343.000
28.57062 345.000
28.59057 331.000
28.61052 315.000
28.63046 345.000
28.65041 354.000
28.67036 340.000
28.69030 320.000
28.71025 339.000
28.73020 314.000
28.75014 329.000
28.77009 330.000
28.79004 355.000
28.80998 339.000
28.82993 353.000
28.84988 340.000
28.86983 329.000
28.88977 288.000
28.90972 359.000
28.92967 368.000
28.94961 331.000
28.96956 330.000
28.98951 336.000
29.00945 316.000
29.02940 327.000
29.04935 332.000
29.06930 325.000
29.08924 312.000
29.10919 320.000
29.12914 323.000
29.14908 326.000
29.16903 356.000
29.18898 326.000
29.20892 330.000
29.22887 333.000
29.24882 346.000
29.26877 317.000
29.28871 360.000
29.30866 362.000
29.32861 362.000
29.34855 311.000
29.36850 337.000
29.38845 340.000
29.40839 349.000
29.42834 339.000
29.44829 349.000
29.46823 323.000
29.48818 349.000
29.50813 315.000
29.52808 352.000
29.54802 358.000
29.56797 330.000
29.58792 351.000
29.60786 337.000
29.62781 341.000
29.64776 321.000
29.66770 330.000
29.68765 347.000
29.70760 364.000
29.72755 347.000
29.74749 339.000
29.76744 334.000
29.78739 313.000
29.80733 307.000
29.82728 355.000
29.84723 340.000
29.86717 328.000
29.88712 326.000
29.90707 325.000
29.92701 354.000
29.94696 337.000
29.96691 350.000
29.98686 349.000
30.00680 317.000
30.02675 322.000
30.04670 326.000
30.06664 346.000
30.08659 384.000
30.10654 383.000
30.12648 369.000
30.14643 380.000
30.16638 357.000
30.18633 349.000
30.20627 339.000
30.22622 355.000
30.24617 365.000
30.26611 346.000
30.28606 362.000
30.30601 353.000
30.32595 339.000
30.34590 328.000
30.36585 346.000
30.38579 340.000
30.40574 329.000
30.42569 366.000
30.44564 366.000
30.46558 375.000
30.48553 349.000
30.50548 357.000
30.52542 372.000
30.54537 351.000
30.56532 402.000
30.58526 373.000
30.60521 353.000
30.62516 361.000
30.64511 375.000
30.66505 356.000
30.68500 358.000
30.70495 337.000
30.72489 310.000
30.74484 352.000
30.76479 342.000
30.78473 345.000
30.80468 342.000
30.82463 325.000
30.84458 384.000
30.86452 331.000
30.88447 316.000
30.90442 354.000
30.92436 321.000
30.94431 337.000
30.96426 336.000
30.98420 325.000
31.00415 332.000
31.02410 378.000
31.04404 337.000
31.06399 345.000
31.08394 340.000
31.10389 354.000
31.12383 317.000
31.14378 331.000
31.16373 345.000
31.18367 356.000
31.20362 350.000
31.22357 351.000
31.24351 333.000
31.26346 336.000
31.28341 319.000
31.30336 341.000
31.32330 358.000
31.34325 351.000
31.36320 338.000
31.38314 333.000
31.40309 359.000
31.42304 335.000
31.44298 341.000
31.46293 371.000
31.48288 358.000
31.50282 375.000
31.52277 364.000
31.54272 363.000
31.56267 329.000
31.58261 378.000
31.60256 364.000
31.62251 369.000
31.64245 343.000
31.66240 371.000
31.68235 341.000
31.70229 369.000
31.72224 361.000
31.74219 383.000
31.76214 374.000
31.78208 394.000
31.80203 386.000
31.82198 397.000
31.84192 379.000
31.86187 445.000
31.88182 476.000
31.90176 483.000
31.92171 568.000
31.94166 680.000
31.96160 847.000
31.98155 927.000
32.00150 1039.000
32.02145 1155.000
32.04139 1048.000
32.06134 896.000
32.08129 779.000
32.10123 732.000
32.12118 625.000
32.14113 570.000
32.16107 470.000
32.18102 398.000
32.20097 371.000
32.22092 386.000
32.24086 396.000
32.26081 434.000
32.28076 356.000
32.30070 378.000
32.32065 352.000
32.34060 352.000
32.36054 370.000
32.38049 361.000
32.40044 387.000
32.42039 399.000
32.44033 431.000
32.46028 442.000
32.48023 470.000
32.50017 506.000
32.52012 465.000
32.54007 452.000
32.56001 459.000
32.57996 417.000
32.59991 441.000
32.61985 378.000
32.63980 369.000
32.65975 380.000
32.67970 350.000
32.69964 353.000
32.71959 368.000
32.73954 323.000
32.75948 380.000
32.77943 370.000
32.79938 361.000
32.81932 336.000
32.83927 360.000
32.85922 316.000
32.87917 353.000
32.89911 372.000
32.91906 353.000
32.93901 334.000
32.95895 380.000
32.97890 345.000
32.99885 350.000
33.01879 336.000
33.03874 340.000
33.05869 365.000
33.07863 329.000
33.09858 358.000
33.11853 328.000
33.13848 320.000
33.15842 331.000
33.17837 337.000
33.19832 340.000
33.21826 326.000
33.23821 353.000
33.25816 370.000
33.27810 358.000
33.29805 306.000
33.31800 327.000
33.33795 370.000
33.35789 353.000
33.37784 330.000
33.39779 313.000
33.41773 333.000
33.43768 346.000
33.45763 341.000
33.47757 328.000
33.49752 332.000
33.51747 347.000
33.53741 345.000
33.55736 301.000
33.57731 350.000
33.59726 297.000
33.61720 318.000
33.63715 338.000
33.65710 352.000
33.67704 323.000
33.69699 359.000
33.71694 368.000
33.73688 354.000
33.75683 354.000
33.77678 357.000
33.79673 344.000
33.81667 329.000
33.83662 355.000
33.85657 342.000
33.87651 319.000
33.89646 334.000
33.91641 318.000
33.93635 345.000
33.95630 314.000
33.97625 324.000
33.99620 367.000
34.01614 329.000
34.03609 329.000
34.05604 347.000
34.07598 319.000
34.09593 337.000
34.11588 324.000
34.13582 331.000
34.15577 331.000
34.17572 360.000
34.19566 332.000
34.21561 328.000
34.23556 337.000
34.25551 315.000
34.27545 351.000
34.29540 367.000
34.31535 352.000
34.33529 339.000
34.35524 351.000
34.37519 385.000
34.39513 323.000
34.41508 370.000
34.43503 308.000
34.45498 333.000
34.47492 349.000
34.49487 345.000
34.51482 403.000
34.53476 368.000
34.55471 338.000
34.57466 347.000
34.59460 354.000
34.61455 362.000
34.63450 320.000
34.65444 337.000
34.67439 358.000
34.69434 386.000
34.71429 393.000
34.73423 393.000
34.75418 389.000
34.77413 406.000
34.79407 421.000
34.81402 425.000
34.83397 424.000
34.85391 418.000
34.87386 464.000
34.89381 438.000
34.91376 442.000
34.93370 420.000
34.95365 380.000
34.97360 354.000
34.99354 382.000
35.01349 383.000
35.03344 369.000
35.05338 381.000
35.07333 358.000
35.09328 371.000
35.11322 401.000
35.13317 407.000
35.15312 389.000
35.17307 364.000
35.19301 414.000
35.21296 440.000
35.23291 441.000
35.25285 472.000
35.27280 471.000
35.29275 447.000
35.31269 508.000
35.33264 542.000
35.35259 599.000
35.37254 689.000
35.39248 797.000
35.41243 877.000
35.43238 1064.000
35.45232 1125.000
35.47227 1203.000
35.49222 1271.000
35.51216 1480.000
35.53211 1636.000
35.55206 1756.000
35.57201 1744.000
35.59195 1726.000
35.61190 1515.000
35.63185 1414.000
35.65179 1252.000
35.67174 1091.000
35.69169 942.000
35.71163 842.000
35.73158 789.000
35.75153 656.000
35.77147 609.000
35.79142 596.000
35.81137 610.000
35.83132 661.000
35.85126 671.000
35.87121 883.000
35.89116 976.000
35.91110 1255.000
35.93105 1381.000
35.95100 1432.000
35.97094 1213.000
35.99089 1146.000
36.01084 1036.000
36.03079 1043.000
36.05073 907.000
36.07068 774.000
36.09063 624.000
36.11057 545.000
36.13052 475.000
36.15047 457.000
36.17041 404.000
36.19036 409.000
36.21031 364.000
36.23025 403.000
36.25020 396.000
36.27015 397.000
36.29010 386.000
36.31004 402.000
36.32999 394.000
36.34994 354.000
36.36988 389.000
36.38983 388.000
36.40978 433.000
36.42972 387.000
36.44967 368.000
36.46962 404.000
36.48957 417.000
36.50951 388.000
36.52946 376.000
36.54941 394.000
36.56935 394.000
36.58930 360.000
36.60925 384.000
36.62919 344.000
36.64914 382.000
36.66909 420.000
36.68903 366.000
36.70898 369.000
36.72893 388.000
36.74888 370.000
36.76882 397.000
36.78877 413.000
36.80872 393.000
36.82866 425.000
36.84861 442.000
36.86856 469.000
36.88850 499.000
36.90845 494.000
36.92840 451.000
36.94835 475.000
36.96829 449.000
36.98824 509.000
37.00819 483.000
37.02813 546.000
37.04808 564.000
37.06803 648.000
37.08797 876.000
37.10792 1177.000
37.12787 1551.000
37.14781 2011.000
37.16776 1990.000
37.18771 1720.000
37.20766 1432.000
37.22760 1378.000
37.24755 1384.000
37.26750 1256.000
37.28744 1023.000
37.30739 815.000
37.32734 666.000
37.34728 561.000
37.36723 505.000
37.38718 477.000
37.40713 429.000
37.42707 416.000
37.44702 429.000
37.46697 395.000
37.48691 386.000
37.50686 389.000
37.52681 385.000
37.54675 391.000
37.56670 383.000
37.58665 377.000
37.60660 344.000
37.62654 392.000
37.64649 392.000
37.66644 354.000
37.68638 381.000
37.70633 347.000
37.72628 333.000
37.74622 409.000
37.76617 369.000
37.78612 349.000
37.80606 350.000
37.82601 346.000
37.84596 358.000
37.86591 337.000
37.88585 341.000
37.90580 379.000
37.92575 372.000
37.94569 372.000
37.96564 378.000
37.98559 409.000
38.00553 396.000
38.02548 380.000
38.04543 364.000
38.06538 369.000
38.08532 366.000
38.10527 395.000
38.12522 384.000
38.14516 337.000
38.16511 356.000
38.18506 356.000
38.20500 384.000
38.22495 398.000
38.24490 404.000
38.26484 376.000
38.28479 440.000
38.30474 428.000
38.32469 393.000
38.34463 400.000
38.36458 414.000
38.38453 403.000
38.40447 431.000
38.42442 477.000
38.44437 483.000
38.46431 491.000
38.48426 522.000
38.50421 572.000
38.52416 645.000
38.54410 680.000
38.56405 734.000
38.58400 841.000
38.60394 1041.000
38.62389 1197.000
38.64384 1312.000
38.66378 1499.000
38.68373 1515.000
38.70368 1547.000
38.72362 1522.000
38.74357 1441.000
38.76352 1476.000
38.78347 1297.000
38.80341 1237.000
38.82336 1122.000
38.84331 1077.000
38.86325 855.000
38.88320 857.000
38.90315 771.000
38.92309 751.000
38.94304 743.000
38.96299 753.000
38.98294 743.000
39.00288 758.000
39.02283 747.000
39.04278 682.000
39.06272 665.000
39.08267 695.000
39.10262 605.000
39.12256 603.000
39.14251 566.000
39.16246 539.000
39.18241 506.000
39.20235 471.000
39.22230 521.000
39.24225 473.000
39.26219 536.000
39.28214 508.000
39.30209 584.000
39.32203 555.000
39.34198 589.000
39.36193 675.000
39.38187 768.000
39.40182 856.000
39.42177 1031.000
39.44172 1359.000
39.46166 1789.000
39.48161 2134.000
39.50156 2312.000
39.52150 2212.000
39.54145 1805.000
39.56140 1568.000
39.58134 1590.000
39.60129 1510.000
39.62124 1288.000
39.64119 1008.000
39.66113 790.000
39.68108 651.000
39.70103 547.000
39.72097 522.000
39.74092 461.000
39.76087 445.000
39.78081 416.000
39.80076 423.000
39.82071 374.000
39.84065 422.000
39.86060 382.000
39.88055 373.000
39.90050 403.000
39.92044 377.000
39.94039 364.000
39.96034 385.000
39.98028 405.000
40.00023 354.000
40.02018 381.000
40.04012 371.000
40.06007 344.000
40.08002 359.000
40.09997 343.000
40.11991 371.000
40.13986 334.000
40.15981 385.000
40.17975 349.000
40.19970 336.000
40.21965 345.000
40.23959 309.000
40.25954 330.000
40.27949 340.000
40.29943 336.000
40.31938 336.000
40.33933 348.000
40.35928 347.000
40.37922 333.000
40.39917 309.000
40.41912 335.000
40.43906 327.000
40.45901 344.000
40.47896 329.000
40.49890 295.000
40.51885 340.000
40.53880 372.000
40.55875 334.000
40.57869 324.000
40.59864 313.000
40.61859 337.000
40.63853 329.000
40.65848 329.000
40.67843 320.000
40.69837 318.000
40.71832 334.000
40.73827 329.000
40.75822 314.000
40.77816 328.000
40.79811 328.000
40.81806 344.000
40.83800 327.000
40.85795 335.000
40.87790 329.000
40.89784 342.000
40.91779 320.000
40.93774 346.000
40.95768 348.000
40.97763 337.000
40.99758 344.000
41.01753 323.000
41.03747 310.000
41.05742 339.000
41.07737 333.000
41.09731 358.000
41.11726 326.000
41.13721 327.000
41.15715 318.000
41.17710 312.000
41.19705 318.000
41.21700 339.000
41.23694 317.000
41.25689 320.000
41.27684 320.000
41.29678 297.000
41.31673 322.000
41.33668 314.000
41.35662 317.000
41.37657 322.000
41.39652 340.000
41.41646 330.000
41.43641 337.000
41.45636 310.000
41.47631 317.000
41.49625 323.000
41.51620 324.000
41.53615 349.000
41.55609 343.000
41.57604 337.000
41.59599 319.000
41.61593 330.000
41.63588 318.000
41.65583 324.000
41.67578 328.000
41.69572 342.000
41.71567 319.000
41.73562 366.000
41.75556 331.000
41.77551 344.000
41.79546 320.000
41.81540 333.000
41.83535 319.000
41.85530 344.000
41.87524 336.000
41.89519 324.000
41.91514 333.000
41.93509 333.000
41.95503 310.000
41.97498 321.000
41.99493 336.000
42.01487 369.000
42.03482 325.000
42.05477 339.000
42.07471 348.000
42.09466 346.000
42.11461 341.000
42.13456 315.000
42.15450 344.000
42.17445 343.000
42.19440 347.000
42.21434 314.000
42.23429 355.000
42.25424 313.000
42.27418 350.000
42.29413 343.000
42.31408 346.000
42.33403 344.000
42.35397 326.000
42.37392 357.000
42.39387 361.000
42.41381 349.000
42.43376 336.000
42.45371 357.000
42.47365 359.000
42.49360 380.000
42.51355 357.000
42.53349 352.000
42.55344 355.000
42.57339 358.000
42.59334 407.000
42.61328 364.000
42.63323 348.000
42.65318 362.000
42.67312 368.000
42.69307 375.000
42.71302 363.000
42.73296 381.000
42.75291 378.000
42.77286 416.000
42.79281 431.000
42.81275 443.000
42.83270 435.000
42.85265 386.000
42.87259 440.000
42.89254 452.000
42.91249 436.000
42.93243 514.000
42.95238 577.000
42.97233 583.000
42.99227 681.000
43.01222 723.000
43.03217 845.000
43.05212 938.000
43.07206 1029.000
43.09201 1227.000
43.11196 1427.000
43.13190 1680.000
43.15185 1749.000
43.17180 2005.000
43.19174 1974.000
43.21169 1904.000
43.23164 1867.000
43.25159 1860.000
43.27153 1656.000
43.29148 1626.000
43.31143 1396.000
43.33137 1309.000
43.35132 1159.000
43.37127 961.000
43.39121 892.000
43.41116 808.000
43.43111 736.000
43.45105 658.000
43.47100 654.000
43.49095 633.000
43.51090 699.000
43.53084 765.000
43.55079 922.000
43.57074 1012.000
43.59068 1132.000
43.61063 1075.000
43.63058 917.000
43.65052 882.000
43.67047 804.000
43.69042 795.000
43.71037 785.000
43.73031 715.000
43.75026 598.000
43.77021 540.000
43.79015 495.000
43.81010 451.000
43.83005 385.000
43.84999 396.000
43.86994 404.000
43.88989 391.000
43.90984 369.000
43.92978 380.000
43.94973 344.000
43.96968 341.000
43.98962 354.000
44.00957 362.000
44.02952 330.000
44.04946 339.000
44.06941 347.000
44.08936 328.000
44.10930 352.000
44.12925 336.000
44.14920 350.000
44.16915 391.000
44.18909 333.000
44.20904 334.000
44.22899 306.000
44.24893 293.000
44.26888 297.000
44.28883 331.000
44.30877 323.000
44.32872 322.000
44.34867 315.000
44.36862 300.000
44.38856 321.000
44.40851 314.000
44.42846 340.000
44.44840 320.000
44.46835 340.000
44.48830 330.000
44.50824 331.000
44.52819 313.000
44.54814 316.000
44.56808 314.000
44.58803 343.000
44.60798 334.000
44.62793 334.000
44.64787 335.000
44.66782 301.000
44.68777 323.000
44.70771 324.000
44.72766 345.000
44.74761 357.000
44.76755 313.000
44.78750 307.000
44.80745 346.000
44.82740 340.000
44.84734 328.000
44.86729 342.000
44.88724 351.000
44.90718 332.000
44.92713 319.000
44.94708 331.000
44.96702 321.000
44.98697 362.000
45.00692 366.000
45.02686 348.000
45.04681 329.000
45.06676 334.000
45.08671 335.000
45.10665 308.000
45.12660 346.000
45.14655 319.000
45.16649 340.000
45.18644 326.000
45.20639 330.000
45.22633 330.000
45.24628 310.000
45.26623 336.000
45.28618 339.000
45.30612 378.000
45.32607 321.000
45.34602 321.000
45.36596 331.000
45.38591 343.000
45.40586 324.000
45.42580 295.000
45.44575 330.000
45.46570 301.000
45.48565 303.000
45.50559 309.000
45.52554 301.000
45.54549 295.000
45.56543 288.000
45.58538 328.000
45.60533 325.000
45.62527 277.000
45.64522 316.000
45.66517 312.000
45.68511 314.000
45.70506 328.000
45.72501 354.000
45.74496 305.000
45.76490 315.000
45.78485 333.000
45.80480 303.000
45.82474 342.000
45.84469 304.000
45.86464 300.000
45.88458 299.000
45.90453 334.000
45.92448 341.000
45.94443 330.000
45.96437 311.000
45.98432 361.000
46.00427 281.000
46.02421 298.000
46.04416 323.000
46.06411 308.000
46.08405 317.000
46.10400 369.000
46.12395 325.000
46.14389 321.000
46.16384 328.000
46.18379 341.000
46.20374 332.000
46.22368 349.000
46.24363 321.000
46.26358 326.000
46.28352 325.000
46.30347 318.000
46.32342 367.000
46.34336 349.000
46.36331 337.000
46.38326 324.000
46.40321 323.000
46.42315 321.000
46.44310 322.000
46.46305 333.000
46.48299 340.000
46.50294 339.000
46.52289 333.000
46.54283 311.000
46.56278 314.000
46.58273 330.000
46.60267 301.000
46.62262 302.000
46.64257 319.000
46.66252 301.000
46.68246 312.000
46.70241 318.000
46.72236 351.000
46.74230 331.000
46.76225 297.000
46.78220 317.000
46.80214 308.000
46.82209 331.000
46.84204 285.000
46.86199 344.000
46.88193 308.000
46.90188 299.000
46.92183 289.000
46.94177 321.000
46.96172 323.000
46.98167 301.000
47.00161 270.000
47.02156 291.000
47.04151 317.000
47.06146 331.000
47.08140 288.000
47.10135 290.000
47.12130 331.000
47.14124 314.000
47.16119 325.000
47.18114 317.000
47.20108 340.000
47.22103 283.000
47.24098 300.000
47.26092 283.000
47.28087 341.000
47.30082 292.000
47.32077 318.000
47.34071 291.000
47.36066 307.000
47.38061 293.000
47.40055 311.000
47.42050 327.000
47.44045 344.000
47.46039 310.000
47.48034 311.000
47.50029 342.000
47.52024 346.000
47.54018 357.000
47.56013 317.000
47.58008 296.000
47.60002 323.000
47.61997 318.000
47.63992 323.000
47.65986 340.000
47.67981 321.000
47.69976 321.000
47.71970 301.000
47.73965 329.000
47.75960 336.000
47.77955 344.000
47.79949 338.000
47.81944 340.000
47.83939 309.000
47.85933 316.000
47.87928 322.000
47.89923 329.000
47.91917 290.000
47.93912 359.000
47.95907 333.000
47.97902 367.000
47.99896 332.000
48.01891 305.000
48.03886 331.000
48.05880 311.000
48.07875 336.000
48.09870 340.000
48.11864 316.000
48.13859 346.000
48.15854 311.000
48.17848 365.000
48.19843 343.000
48.21838 361.000
48.23833 371.000
48.25827 388.000
48.27822 324.000
48.29817 387.000
48.31811 392.000
48.33806 339.000
48.35801 363.000
48.37795 422.000
48.39790 351.000
48.41785 423.000
48.43780 417.000
48.45774 395.000
48.47769 424.000
48.49764 381.000
48.51758 397.000
48.53753 440.000
48.55748 432.000
48.57742 427.000
48.59737 470.000
48.61732 489.000
48.63726 546.000
48.65721 556.000
48.67716 574.000
48.69711 605.000
48.71705 717.000
48.73700 751.000
48.75695 862.000
48.77689 1034.000
48.79684 1230.000
48.81679 1646.000
48.83673 1914.000
48.85668 2148.000
48.87663 2179.000
48.89658 2002.000
48.91652 1776.000
48.93647 1563.000
48.95642 1478.000
48.97636 1542.000
48.99631 1432.000
49.01626 1337.000
49.03620 1151.000
49.05615 947.000
49.07610 751.000
49.09605 709.000
49.11599 592.000
49.13594 569.000
49.15589 532.000
49.17583 475.000
49.19578 434.000
49.21573 420.000
49.23567 447.000
49.25562 391.000
49.27557 399.000
49.29551 380.000
49.31546 388.000
49.33541 368.000
49.35536 358.000
49.37530 355.000
49.39525 369.000
49.41520 345.000
49.43514 352.000
49.45509 336.000
49.47504 350.000
49.49498 364.000
49.51493 362.000
49.53488 347.000
49.55483 330.000
49.57477 314.000
49.59472 308.000
49.61467 345.000
49.63461 330.000
49.65456 319.000
49.67451 379.000
49.69445 320.000
49.71440 323.000
49.73435 322.000
49.75429 304.000
49.77424 307.000
49.79419 364.000
49.81414 338.000
49.83408 304.000
49.85403 325.000
49.87398 307.000
49.89392 336.000
49.91387 301.000
49.93382 298.000
49.95376 325.000
49.97371 302.000
49.99366 341.000
50.01361 321.000
50.03355 337.000
50.05350 321.000
50.07345 352.000
50.09339 316.000
50.11334 304.000
50.13329 329.000
50.15323 316.000
50.17318 314.000
50.19313 337.000
50.21307 319.000
50.23302 320.000
50.25297 314.000
50.27292 333.000
50.29286 335.000
50.31281 312.000
50.33276 312.000
50.35270 302.000
50.37265 301.000
50.39260 311.000
50.41254 316.000
50.43249 330.000
50.45244 291.000
50.47239 318.000
50.49233 318.000
50.51228 306.000
50.53223 337.000
50.55217 314.000
50.57212 310.000
50.59207 320.000
50.61201 328.000
50.63196 320.000
50.65191 299.000
50.67186 317.000
50.69180 285.000
50.71175 301.000
50.73170 321.000
50.75164 328.000
50.77159 344.000
50.79154 295.000
50.81148 315.000
50.83143 323.000
50.85138 305.000
50.87132 316.000
50.89127 318.000
50.91122 318.000
50.93117 302.000
50.95111 324.000
50.97106 293.000
50.99101 311.000
51.01095 322.000
51.03090 323.000
51.05085 315.000
51.07079 317.000
51.09074 312.000
51.11069 303.000
51.13064 305.000
51.15058 315.000
51.17053 337.000
51.19048 346.000
51.21042 332.000
51.23037 296.000
51.25032 342.000
51.27026 337.000
51.29021 335.000
51.31016 283.000
51.33010 296.000
51.35005 326.000
51.37000 297.000
51.38995 333.000
51.40989 325.000
51.42984 309.000
51.44979 322.000
51.46973 334.000
51.48968 318.000
51.50963 322.000
51.52957 305.000
51.54952 276.000
51.56947 324.000
51.58942 317.000
51.60936 300.000
51.62931 326.000
51.64926 323.000
51.66920 318.000
51.68915 314.000
51.70910 301.000
51.72904 324.000
51.74899 313.000
51.76894 334.000
51.78888 308.000
51.80883 327.000
51.82878 286.000
51.84873 305.000
51.86867 276.000
51.88862 284.000
51.90857 292.000
51.92851 303.000
51.94846 321.000
51.96841 299.000
51.98835 292.000
52.00830 306.000
52.02825 306.000
52.04820 317.000
52.06814 285.000
52.08809 292.000
52.10804 307.000
52.12798 320.000
52.14793 324.000
52.16788 300.000
52.18782 301.000
52.20777 306.000
52.22772 295.000
52.24767 330.000
52.26761 293.000
52.28756 285.000
52.30751 294.000
52.32745 290.000
52.34740 334.000
52.36735 313.000
52.38729 299.000
52.40724 314.000
52.42719 328.000
52.44713 263.000
52.46708 295.000
52.48703 345.000
52.50698 281.000
52.52692 301.000
52.54687 320.000
52.56682 318.000
52.58676 307.000
52.60671 305.000
52.62666 317.000
52.64660 262.000
52.66655 313.000
52.68650 272.000
52.70645 268.000
52.72639 310.000
52.74634 320.000
52.76629 291.000
52.78623 288.000
52.80618 303.000
52.82613 290.000
52.84607 301.000
52.86602 321.000
52.88597 312.000
52.90591 308.000
52.92586 302.000
52.94581 264.000
52.96576 324.000
52.98570 302.000
53.00565 316.000
53.02560 296.000
53.04554 316.000
53.06549 287.000
53.08544 322.000
53.10538 323.000
53.12533 313.000
53.14528 339.000
53.16523 306.000
53.18517 327.000
53.20512 336.000
53.22507 362.000
53.24501 361.000
53.26496 377.000
53.28491 360.000
53.30485 355.000
53.32480 342.000
53.34475 395.000
53.36469 351.000
53.38464 382.000
53.40459 350.000
53.42454 405.000
53.44448 376.000
53.46443 373.000
53.48438 361.000
53.50432 415.000
53.52427 358.000
53.54422 414.000
53.56416 360.000
53.58411 358.000
53.60406 360.000
53.62401 361.000
53.64395 358.000
53.66390 329.000
53.68385 339.000
53.70379 350.000
53.72374 339.000
53.74369 307.000
53.76363 320.000
53.78358 331.000
53.80353 346.000
53.82348 326.000
53.84342 315.000
53.86337 310.000
53.88332 309.000
53.90326 289.000
53.92321 324.000
53.94316 318.000
53.96310 320.000
53.98305 308.000
54.00300 313.000
54.02294 323.000
54.04289 326.000
54.06284 295.000
54.08279 337.000
54.10273 304.000
54.12268 321.000
54.14263 296.000
54.16257 296.000
54.18252 312.000
54.20247 347.000
54.22241 325.000
54.24236 288.000
54.26231 334.000
54.28226 308.000
54.30220 309.000
54.32215 340.000
54.34210 344.000
54.36204 292.000
54.38199 303.000
54.40194 326.000
54.42188 305.000
54.44183 269.000
54.46178 331.000
54.48172 293.000
54.50167 330.000
54.52162 310.000
54.54157 335.000
54.56151 301.000
54.58146 305.000
54.60141 286.000
54.62135 307.000
54.64130 319.000
54.66125 292.000
54.68119 304.000
54.70114 303.000
54.72109 316.000
54.74104 298.000
54.76098 296.000
54.78093 308.000
54.80088 331.000
54.82082 307.000
54.84077 298.000
54.86072 303.000
54.88066 301.000
54.90061 267.000
54.92056 332.000
54.94050 289.000
54.96045 329.000
54.98040 311.000
55.00035 310.000
55.02029 308.000
55.04024 295.000
55.06019 319.000
55.08013 307.000
55.10008 312.000
55.12003 287.000
55.13997 287.000
55.15992 338.000
55.17987 305.000
55.19982 270.000
55.21976 307.000
55.23971 284.000
55.25966 349.000
55.27960 301.000
55.29955 280.000
55.31950 299.000
55.33944 309.000
55.35939 284.000
55.37934 306.000
55.39929 315.000
55.41923 275.000
55.43918 298.000
55.45913 291.000
55.47907 267.000
55.49902 289.000
55.51897 327.000
55.53891 309.000
55.55886 301.000
55.57881 306.000
55.59875 327.000
55.61870 265.000
55.63865 310.000
55.65860 310.000
55.67854 316.000
55.69849 288.000
55.71844 275.000
55.73838 308.000
55.75833 319.000
55.77828 321.000
55.79822 292.000
55.81817 328.000
55.83812 306.000
55.85807 314.000
55.87801 297.000
55.89796 283.000
55.91791 298.000
55.93785 301.000
55.95780 323.000
55.97775 297.000
55.99769 308.000
56.01764 301.000
56.03759 313.000
56.05753 332.000
56.07748 296.000
56.09743 338.000
56.11738 291.000
56.13732 325.000
56.15727 330.000
56.17722 322.000
56.19716 344.000
56.21711 290.000
56.23706 318.000
56.25700 346.000
56.27695 305.000
56.29690 310.000
56.31685 303.000
56.33679 316.000
56.35674 298.000
56.37669 327.000
56.39663 313.000
56.41658 305.000
56.43653 286.000
56.45647 289.000
56.47642 303.000
56.49637 304.000
56.51631 311.000
56.53626 318.000
56.55621 292.000
56.57616 316.000
56.59610 294.000
56.61605 297.000
56.63600 311.000
56.65594 318.000
56.67589 294.000
56.69584 304.000
56.71578 325.000
56.73573 357.000
56.75568 329.000
56.77563 300.000
56.79557 306.000
56.81552 339.000
56.83547 326.000
56.85541 319.000
56.87536 318.000
56.89531 296.000
56.91525 298.000
56.93520 312.000
56.95515 298.000
56.97510 321.000
56.99504 294.000
57.01499 340.000
57.03494 304.000
57.05488 309.000
57.07483 334.000
57.09478 309.000
57.11472 300.000
57.13467 306.000
57.15462 332.000
57.17456 286.000
57.19451 314.000
57.21446 297.000
57.23441 325.000
57.25435 278.000
57.27430 322.000
57.29425 332.000
57.31419 296.000
57.33414 369.000
57.35409 322.000
57.37403 315.000
57.39398 346.000
57.41393 327.000
57.43388 315.000
57.45382 288.000
57.47377 306.000
57.49372 310.000
57.51366 307.000
57.53361 331.000
57.55356 349.000
57.57350 304.000
57.59345 370.000
57.61340 326.000
57.63334 343.000
57.65329 317.000
57.67324 296.000
57.69319 343.000
57.71313 326.000
57.73308 338.000
57.75303 341.000
57.77297 345.000
57.79292 345.000
57.81287 329.000
57.83281 337.000
57.85276 343.000
57.87271 356.000
57.89266 340.000
57.91260 330.000
57.93255 343.000
57.95250 310.000
57.97244 336.000
57.99239 343.000
58.01234 337.000
58.03228 381.000
58.05223 319.000
58.07218 372.000
58.09212 363.000
58.11207 350.000
58.13202 332.000
58.15197 393.000
58.17191 397.000
58.19186 443.000
58.21181 392.000
58.23175 446.000
58.25170 443.000
58.27165 459.000
58.29159 391.000
58.31154 428.000
58.33149 424.000
58.35144 434.000
58.37138 378.000
58.39133 389.000
58.41128 401.000
58.43122 394.000
58.45117 378.000
58.47112 392.000
58.49106 378.000
58.51101 371.000
58.53096 345.000
58.55090 333.000
58.57085 334.000
58.59080 311.000
58.61075 304.000
58.63069 322.000
58.65064 321.000
58.67059 314.000
58.69053 326.000
58.71048 312.000
58.73043 365.000
58.75037 349.000
58.77032 333.000
58.79027 333.000
58.81022 315.000
58.83016 337.000
58.85011 302.000
58.87006 300.000
58.89000 311.000
58.90995 298.000
58.92990 284.000
58.94984 328.000
58.96979 322.000
58.98974 298.000
59.00969 314.000
59.02963 321.000
59.04958 331.000
59.06953 334.000
59.08947 294.000
59.10942 304.000
59.12937 306.000
59.14931 293.000
59.16926 266.000
59.18921 331.000
59.20915 291.000
59.22910 279.000
59.24905 323.000
59.26900 331.000
59.28894 313.000
59.30889 352.000
59.32884 282.000
59.34878 332.000
59.36873 313.000
59.38868 312.000
59.40862 273.000
59.42857 337.000
59.44852 308.000
59.46847 304.000
59.48841 310.000
59.50836 308.000
59.52831 323.000
59.54825 328.000
59.56820 329.000
59.58815 289.000
59.60809 306.000
59.62804 318.000
59.64799 299.000
59.66793 302.000
59.68788 300.000
59.70783 286.000
59.72778 304.000
59.74772 333.000
59.76767 291.000
59.78762 315.000
59.80756 309.000
59.82751 313.000
59.84746 314.000
59.86740 324.000
59.88735 288.000
59.90730 295.000
59.92725 338.000
59.94719 308.000
59.96714 286.000
59.98709 287.000
60.00703 324.000
60.02698 305.000
60.04693 313.000
60.06687 347.000
60.08682 325.000
60.10677 304.000
60.12671 318.000
60.14666 315.000
60.16661 299.000
60.18656 301.000
60.20650 323.000
60.22645 282.000
60.24640 326.000
60.26634 310.000
60.28629 298.000
60.30624 291.000
60.32618 326.000
60.34613 327.000
60.36608 306.000
60.38603 294.000
60.40597 321.000
60.42592 315.000
60.44587 334.000
60.46581 313.000
60.48576 310.000
60.50571 307.000
60.52565 312.000
60.54560 338.000
60.56555 318.000
60.58550 312.000
60.60544 310.000
60.62539 302.000
60.64534 343.000
60.66528 321.000
60.68523 362.000
60.70518 295.000
60.72512 343.000
60.74507 355.000
60.76502 294.000
60.78496 311.000
60.80491 313.000
60.82486 316.000
60.84481 290.000
60.86475 318.000
60.88470 343.000
60.90465 330.000
60.92459 337.000
60.94454 313.000
60.96449 324.000
60.98443 331.000
61.00438 344.000
61.02433 318.000
61.04428 307.000
61.06422 315.000
61.08417 338.000
61.10412 300.000
61.12406 305.000
61.14401 363.000
61.16396 335.000
61.18390 361.000
61.20385 327.000
61.22380 318.000
61.24374 327.000
61.26369 355.000
61.28364 360.000
61.30359 328.000
61.32353 371.000
61.34348 363.000
61.36343 365.000
61.38337 370.000
61.40332 362.000
61.42327 400.000
61.44321 412.000
61.46316 416.000
61.48311 437.000
61.50306 473.000
61.52300 518.000
61.54295 571.000
61.56290 498.000
61.58284 493.000
61.60279 472.000
61.62274 530.000
61.64268 491.000
61.66263 479.000
61.68258 505.000
61.70252 493.000
61.72247 499.000
61.74242 475.000
61.76237 532.000
61.78231 444.000
61.80226 475.000
61.82221 469.000
61.84215 468.000
61.86210 497.000
61.88205 426.000
61.90199 444.000
61.92194 444.000
61.94189 504.000
61.96184 535.000
61.98178 541.000
62.00173 597.000
62.02168 695.000
62.04162 737.000
62.06157 825.000
62.08152 845.000
62.10146 883.000
62.12141 886.000
62.14136 843.000
62.16131 767.000
62.18125 687.000
62.20120 664.000
62.22115 653.000
62.24109 725.000
62.26104 667.000
62.28099 686.000
62.30093 632.000
62.32088 618.000
62.34083 536.000
62.36077 477.000
62.38072 492.000
62.40067 449.000
62.42062 486.000
62.44056 439.000
62.46051 512.000
62.48046 481.000
62.50040 522.000
62.52035 559.000
62.54030 559.000
62.56024 623.000
62.58019 710.000
62.60014 720.000
62.62009 803.000
62.64003 935.000
62.65998 1039.000
62.67993 1032.000
62.69987 1124.000
62.71982 1080.000
62.73977 1013.000
62.75971 923.000
62.77966 882.000
62.79961 881.000
62.81955 839.000
62.83950 807.000
62.85945 848.000
62.87940 806.000
62.89934 760.000
62.91929 706.000
62.93924 615.000
62.95918 541.000
62.97913 515.000
62.99908 525.000
63.01902 488.000
63.03897 446.000
63.05892 434.000
63.07887 417.000
63.09881 358.000
63.11876 401.000
63.13871 354.000
63.15865 339.000
63.17860 360.000
63.19855 330.000
63.21849 347.000
63.23844 357.000
63.25839 369.000
63.27833 369.000
63.29828 347.000
63.31823 334.000
63.33818 349.000
63.35812 349.000
63.37807 398.000
63.39802 340.000
63.41796 340.000
63.43791 363.000
63.45786 337.000
63.47780 348.000
63.49775 355.000
63.51770 347.000
63.53765 345.000
63.55759 341.000
63.57754 358.000
63.59749 341.000
63.61743 358.000
63.63738 368.000
63.65733 351.000
63.67727 362.000
63.69722 329.000
63.71717 376.000
63.73712 326.000
63.75706 343.000
63.77701 325.000
63.79696 370.000
63.81690 343.000
63.83685 356.000
63.85680 352.000
63.87674 359.000
63.89669 337.000
63.91664 330.000
63.93658 347.000
63.95653 320.000
63.97648 323.000
63.99643 344.000
64.01637 331.000
64.03632 310.000
64.05627 336.000
64.07621 310.000
64.09616 322.000
64.11611 350.000
64.13605 345.000
64.15600 363.000
64.17595 344.000
64.19590 358.000
64.21584 374.000
64.23579 325.000
64.25574 352.000
64.27568 342.000
64.29563 368.000
64.31558 353.000
64.33552 338.000
64.35547 379.000
64.37542 371.000
64.39536 396.000
64.41531 434.000
64.43526 439.000
64.45521 443.000
64.47515 497.000
64.49510 588.000
64.51505 604.000
64.53499 685.000
64.55494 729.000
64.57489 714.000
64.59483 716.000
64.61478 819.000
64.63473 687.000
64.65468 648.000
64.67462 616.000
64.69457 593.000
64.71452 565.000
64.73446 558.000
64.75441 583.000
64.77436 567.000
64.79430 523.000
64.81425 534.000
64.83420 417.000
64.85414 447.000
64.87409 419.000
64.89404 393.000
64.91399 381.000
64.93393 352.000
64.95388 393.000
64.97383 352.000
64.99377 342.000
65.01372 358.000
65.03367 336.000
65.05361 305.000
65.07356 334.000
65.09351 336.000
65.11346 312.000
65.13340 341.000
65.15335 303.000
65.17330 329.000
65.19324 325.000
65.21319 326.000
65.23314 347.000
65.25308 345.000
65.27303 338.000
65.29298 358.000
65.31293 360.000
65.33287 336.000
65.35282 342.000
65.37277 335.000
65.39271 387.000
65.41266 350.000
65.43261 353.000
65.45255 336.000
65.47250 362.000
65.49245 366.000
65.51239 368.000
65.53234 399.000
65.55229 339.000
65.57224 362.000
65.59218 377.000
65.61213 449.000
65.63208 399.000
65.65202 395.000
65.67197 400.000
65.69192 414.000
65.71186 417.000
65.73181 348.000
65.75176 371.000
65.77171 427.000
65.79165 426.000
65.81160 379.000
65.83155 357.000
65.85149 384.000
65.87144 414.000
65.89139 382.000
65.91133 394.000
65.93128 380.000
65.95123 391.000
65.97117 406.000
65.99112 394.000
66.01107 363.000
66.03102 403.000
66.05096 392.000
66.07091 361.000
66.09086 383.000
66.11080 379.000
66.13075 401.000
66.15070 381.000
66.17064 369.000
66.19059 403.000
66.21054 420.000
66.23049 439.000
66.25043 418.000
66.27038 443.000
66.29033 419.000
66.31027 510.000
66.33022 448.000
66.35017 432.000
66.37011 489.000
66.39006 491.000
66.41001 439.000
66.42995 478.000
66.44990 421.000
66.46985 492.000
66.48980 428.000
66.50974 427.000
66.52969 436.000
66.54964 424.000
66.56958 424.000
66.58953 425.000
66.60948 428.000
66.62942 394.000
66.64937 389.000
66.66932 393.000
66.68927 395.000
66.70921 424.000
66.72916 393.000
66.74911 387.000
66.76905 446.000
66.78900 444.000
66.80895 415.000
66.82889 444.000
66.84884 527.000
66.86879 522.000
66.88874 571.000
66.90868 600.000
66.92863 647.000
66.94858 671.000
66.96852 691.000
66.98847 694.000
67.00842 670.000
67.02836 585.000
67.04831 548.000
67.06826 589.000
67.08820 568.000
67.10815 548.000
67.12810 546.000
67.14805 556.000
67.16799 550.000
67.18794 479.000
67.20789 451.000
67.22783 431.000
67.24778 392.000
67.26773 375.000
67.28767 374.000
67.30762 392.000
67.32757 367.000
67.34752 337.000
67.36746 349.000
67.38741 314.000
67.40736 333.000
67.42730 340.000
67.44725 326.000
67.46720 351.000
67.48714 338.000
67.50709 332.000
67.52704 366.000
67.54698 350.000
67.56693 330.000
67.58688 331.000
67.60683 311.000
67.62677 360.000
67.64672 374.000
67.66667 359.000
67.68661 330.000
67.70656 370.000
67.72651 383.000
67.74645 359.000
67.76640 365.000
67.78635 391.000
67.80630 407.000
67.82624 418.000
67.84619 444.000
67.86614 426.000
67.88608 415.000
67.90603 436.000
67.92598 441.000
67.94592 428.000
67.96587 423.000
67.98582 502.000
68.00576 445.000
68.02571 438.000
68.04566 463.000
68.06561 456.000
68.08555 434.000
68.10550 444.000
68.12545 460.000
68.14539 430.000
68.16534 436.000
68.18529 448.000
68.20523 409.000
68.22518 402.000
68.24513 391.000
68.26508 373.000
68.28502 352.000
68.30497 368.000
68.32492 359.000
68.34486 381.000
68.36481 359.000
68.38476 369.000
68.40470 324.000
68.42465 360.000
68.44460 368.000
68.46455 343.000
68.48449 295.000
68.50444 334.000
68.52439 347.000
68.54433 310.000
68.56428 318.000
68.58423 294.000
68.60417 321.000
68.62412 333.000
68.64407 346.000
68.66401 316.000
68.68396 291.000
68.70391 307.000
68.72386 293.000
68.74380 327.000
68.76375 302.000
68.78370 315.000
68.80364 292.000
68.82359 331.000
68.84354 328.000
68.86348 305.000
68.88343 324.000
68.90338 304.000
68.92333 319.000
68.94327 313.000
68.96322 321.000
68.98317 320.000
69.00311 286.000
69.02306 312.000
69.04301 291.000
69.06295 348.000
69.08290 320.000
69.10285 309.000
69.12279 281.000
69.14274 289.000
69.16269 308.000
69.18264 320.000
69.20258 322.000
69.22253 304.000
69.24248 307.000
69.26242 330.000
69.28237 284.000
69.30232 316.000
69.32226 320.000
69.34221 299.000
69.36216 318.000
69.38211 318.000
69.40205 293.000
69.42200 307.000
69.44195 307.000
69.46189 296.000
69.48184 295.000
69.50179 302.000
69.52173 334.000
69.54168 300.000
69.56163 326.000
69.58157 322.000
69.60152 317.000
69.62147 271.000
69.64142 274.000
69.66136 321.000
69.68131 274.000
69.70126 346.000
69.72120 291.000
69.74115 288.000
69.76110 316.000
69.78104 293.000
69.80099 331.000
69.82094 313.000
69.84089 340.000
69.86083 292.000
69.88078 254.000
69.90073 317.000
69.92067 308.000
69.94062 281.000
69.96057 315.000
69.98051 323.000
70.00046 296.000
70.02041 290.000
70.04035 271.000
70.06030 307.000
70.08025 297.000
70.10020 279.000
70.12014 283.000
70.14009 307.000
70.16004 319.000
70.17998 309.000
70.19993 328.000
70.21988 327.000
70.23982 299.000
70.25977 275.000
70.27972 296.000
70.29967 307.000
70.31961 288.000
70.33956 320.000
70.35951 278.000
70.37945 301.000
70.39940 306.000
70.41935 316.000
70.43929 306.000
70.45924 313.000
70.47919 321.000
70.49914 325.000
70.51908 310.000
70.53903 279.000
70.55898 319.000
70.57892 288.000
70.59887 301.000
70.61882 303.000
70.63876 276.000
70.65871 318.000
70.67866 303.000
70.69860 311.000
70.71855 300.000
70.73850 286.000
70.75845 314.000
70.77839 306.000
70.79834 336.000
70.81829 279.000
70.83823 279.000
70.85818 315.000
70.87813 334.000
70.89807 306.000
70.91802 324.000
70.93797 290.000
70.95792 311.000
70.97786 278.000
70.99781 299.000
71.01776 325.000
71.03770 315.000
71.05765 316.000
71.07760 315.000
71.09754 292.000
71.11749 287.000
71.13744 317.000
71.15738 296.000
71.17733 268.000
71.19728 291.000
71.21723 294.000
71.23717 284.000
71.25712 302.000
71.27707 323.000
71.29701 286.000
71.31696 309.000
71.33691 329.000
71.35685 295.000
71.37680 320.000
71.39675 306.000
71.41670 296.000
71.43664 296.000
71.45659 299.000
71.47654 273.000
71.49648 307.000
71.51643 323.000
71.53638 279.000
71.55632 334.000
71.57627 303.000
71.59622 286.000
71.61616 302.000
71.63611 295.000
71.65606 316.000
71.67601 316.000
71.69595 311.000
71.71590 294.000
71.73585 281.000
71.75579 339.000
71.77574 339.000
71.79569 263.000
71.81563 308.000
71.83558 348.000
71.85553 301.000
71.87548 325.000
71.89542 291.000
71.91537 312.000
71.93532 311.000
71.95526 343.000
71.97521 265.000
71.99516 332.000
72.01510 299.000
72.03505 334.000
72.05500 320.000
72.07495 325.000
72.09489 310.000
72.11484 316.000
72.13479 326.000
72.15473 309.000
72.17468 322.000
72.19463 333.000
72.21457 279.000
72.23452 311.000
72.25447 320.000
72.27441 349.000
72.29436 350.000
72.31431 327.000
72.33426 355.000
72.35420 373.000
72.37415 355.000
72.39410 367.000
72.41404 383.000
72.43399 358.000
72.45394 356.000
72.47388 351.000
72.49383 352.000
72.51378 352.000
72.53373 358.000
72.55367 374.000
72.57362 351.000
72.59357 353.000
72.61351 328.000
72.63346 320.000
72.65341 346.000
72.67335 334.000
72.69330 343.000
72.71325 309.000
72.73319 300.000
72.75314 329.000
72.77309 285.000
72.79304 307.000
72.81298 306.000
72.83293 346.000
72.85288 305.000
72.87282 303.000
72.89277 333.000
72.91272 310.000
72.93266 298.000
72.95261 333.000
72.97256 291.000
72.99251 318.000
73.01245 311.000
73.03240 298.000
73.05235 303.000
73.07229 325.000
73.09224 328.000
73.11219 288.000
73.13213 308.000
73.15208 298.000
73.17203 284.000
73.19197 291.000
73.21192 313.000
73.23187 312.000
73.25182 310.000
73.27176 293.000
73.29171 296.000
73.31166 316.000
73.33160 290.000
73.35155 287.000
73.37150 325.000
73.39144 308.000
73.41139 317.000
73.43134 337.000
73.45129 308.000
73.47123 308.000
73.49118 302.000
73.51113 342.000
73.53107 294.000
73.55102 325.000
73.57097 309.000
73.59091 320.000
73.61086 321.000
73.63081 311.000
73.65076 363.000
73.67070 356.000
73.69065 353.000
73.71060 349.000
73.73054 344.000
73.75049 369.000
73.77044 313.000
73.79038 357.000
73.81033 388.000
73.83028 400.000
73.85022 417.000
73.87017 471.000
73.89012 463.000
73.91007 423.000
73.93001 418.000
73.94996 430.000
73.96991 414.000
73.98985 370.000
74.00980 389.000
74.02975 392.000
74.04969 354.000
74.06964 407.000
74.08959 354.000
74.10954 360.000
74.12948 405.000
74.14943 398.000
74.16938 355.000
74.18932 365.000
74.20927 332.000
74.22922 340.000
74.24916 360.000
74.26911 325.000
74.28906 303.000
74.30900 318.000
74.32895 312.000
74.34890 329.000
74.36885 330.000
74.38879 295.000
74.40874 341.000
74.42869 325.000
74.44863 299.000
74.46858 343.000
74.48853 313.000
74.50847 299.000
74.52842 328.000
74.54837 318.000
74.56832 350.000
74.58826 334.000
74.60821 316.000
74.62816 338.000
74.64810 300.000
74.66805 336.000
74.68800 306.000
74.70794 319.000
74.72789 344.000
74.74784 308.000
74.76778 360.000
74.78773 322.000
74.80768 355.000
74.82763 341.000
74.84757 379.000
74.86752 368.000
74.88747 363.000
74.90741 391.000
74.92736 371.000
74.94731 427.000
74.96725 450.000
74.98720 461.000
75.00715 422.000
75.02710 448.000
75.04704 479.000
75.06699 510.000
75.08694 503.000
75.10688 494.000
75.12683 540.000
75.14678 586.000
75.16672 605.000
75.18667 616.000
75.20662 586.000
75.22657 547.000
75.24651 538.000
75.26646 577.000
75.28641 540.000
75.30635 534.000
75.32630 516.000
75.34625 514.000
75.36619 502.000
75.38614 468.000
75.40609 474.000
75.42603 497.000
75.44598 468.000
75.46593 450.000
75.48588 455.000
75.50582 461.000
75.52577 432.000
75.54572 380.000
75.56566 396.000
75.58561 335.000
75.60556 359.000
75.62550 370.000
75.64545 366.000
75.66540 349.000
75.68535 311.000
75.70529 331.000
75.72524 340.000
75.74519 350.000
75.76513 334.000
75.78508 334.000
75.80503 339.000
75.82497 339.000
75.84492 304.000
75.86487 306.000
75.88481 283.000
75.90476 340.000
75.92471 324.000
75.94466 319.000
75.96460 314.000
75.98455 324.000
76.00450 337.000
76.02444 299.000
76.04439 333.000
76.06434 330.000
76.08428 355.000
76.10423 357.000
76.12418 342.000
76.14413 388.000
76.16407 351.000
76.18402 374.000
76.20397 368.000
76.22391 380.000
76.24386 351.000
76.26381 343.000
76.28375 325.000
76.30370 329.000
76.32365 367.000
76.34359 340.000
76.36354 348.000
76.38349 371.000
76.40344 360.000
76.42338 361.000
76.44333 287.000
76.46328 326.000
76.48322 302.000
76.50317 334.000
76.52312 327.000
76.54306 331.000
76.56301 307.000
76.58296 319.000
76.60291 277.000
76.62285 323.000
76.64280 308.000
76.66275 314.000
76.68269 275.000
76.70264 296.000
76.72259 302.000
76.74253 314.000
76.76248 317.000
76.78243 325.000
76.80238 321.000
76.82232 295.000
76.84227 301.000
76.86222 320.000
76.88216 324.000
76.90211 261.000
76.92206 297.000
76.94200 296.000
76.96195 302.000
76.98190 283.000
77.00184 288.000
77.02179 306.000
77.04174 300.000
77.06169 321.000
77.08163 292.000
77.10158 274.000
77.12153 323.000
77.14147 305.000
77.16142 299.000
77.18137 299.000
77.20131 301.000
77.22126 339.000
77.24121 306.000
77.26116 310.000
77.28110 322.000
77.30105 271.000
77.32100 317.000
77.34094 297.000
77.36089 311.000
77.38084 328.000
77.40078 324.000
77.42073 330.000
77.44068 300.000
77.46062 300.000
77.48057 295.000
77.50052 294.000
77.52047 320.000
77.54041 298.000
77.56036 256.000
77.58031 280.000
77.60025 305.000
77.62020 274.000
77.64015 320.000
77.66009 304.000
77.68004 314.000
77.69999 323.000
77.71994 302.000
77.73988 291.000
77.75983 266.000
77.77978 322.000
77.79972 365.000
77.81967 302.000
77.83962 330.000
77.85956 350.000
77.87951 318.000
77.89946 366.000
77.91940 330.000
77.93935 345.000
77.95930 309.000
77.97925 327.000
77.99919 341.000
78.01914 357.000
78.03909 344.000
78.05903 324.000
78.07898 351.000
78.09893 373.000
78.11887 378.000
78.13882 381.000
78.15877 370.000
78.17872 375.000
78.19866 383.000
78.21861 423.000
78.23856 399.000
78.25850 443.000
78.27845 447.000
78.29840 488.000
78.31834 485.000
78.33829 514.000
78.35824 518.000
78.37819 560.000
78.39813 553.000
78.41808 527.000
78.43803 528.000
78.45797 518.000
78.47792 504.000
78.49787 467.000
78.51781 471.000
78.53776 483.000
78.55771 467.000
78.57765 391.000
78.59760 437.000
78.61755 429.000
78.63750 443.000
78.65744 453.000
78.67739 425.000
78.69734 366.000
78.71728 360.000
78.73723 399.000
78.75718 364.000
78.77712 363.000
78.79707 343.000
78.81702 383.000
78.83697 303.000
78.85691 345.000
78.87686 336.000
78.89681 320.000
78.91675 324.000
78.93670 350.000
78.95665 328.000
78.97659 395.000
78.99654 358.000
79.01649 399.000
79.03643 399.000
79.05638 441.000
79.07633 457.000
79.09628 539.000
79.11622 446.000
79.13617 473.000
79.15612 504.000
79.17606 509.000
79.19601 436.000
79.21596 438.000
79.23590 417.000
79.25585 437.000
79.27580 397.000
79.29575 417.000
79.31569 394.000
79.33564 429.000
79.35559 417.000
79.37553 412.000
79.39548 422.000
79.41543 374.000
79.43537 388.000
79.45532 383.000
79.47527 409.000
79.49521 351.000
79.51516 332.000
79.53511 315.000
79.55506 334.000
79.57500 304.000
79.59495 332.000
79.61490 318.000
79.63484 351.000
79.65479 342.000
79.67474 340.000
79.69468 331.000
79.71463 341.000
79.73458 298.000
79.75453 280.000
79.77447 295.000
79.79442 280.000
79.81437 323.000
79.83431 278.000
79.85426 322.000
79.87421 327.000
79.89415 276.000
79.91410 279.000
79.93405 308.000
79.95399 312.000
79.97394 309.000
79.99389 329.000
80.01384 312.000
80.03378 333.000
80.05373 280.000
80.07368 301.000
80.09362 319.000
80.11357 305.000
80.13352 293.000
80.15346 323.000
80.17341 333.000
80.19336 324.000
80.21331 328.000
80.23325 273.000
80.25320 311.000
80.27315 341.000
80.29309 300.000
80.31304 340.000
80.33299 293.000
80.35293 310.000
80.37288 301.000
80.39283 293.000
80.41278 319.000
80.43272 289.000
80.45267 289.000
80.47262 312.000
80.49256 332.000
80.51251 331.000
80.53246 314.000
80.55240 297.000
80.57235 283.000
80.59230 315.000
80.61224 278.000
80.63219 311.000
80.65214 332.000
80.67209 320.000
80.69203 294.000
80.71198 292.000
80.73193 306.000
80.75187 282.000
80.77182 315.000
80.79177 309.000
80.81171 345.000
80.83166 303.000
80.85161 321.000
80.87156 296.000
80.89150 287.000
80.91145 312.000
80.93140 339.000
80.95134 310.000
80.97129 261.000
80.99124 306.000
81.01118 305.000
81.03113 303.000
81.05108 286.000
81.07102 308.000
81.09097 305.000
81.11092 342.000
81.13087 286.000
81.15081 297.000
81.17076 330.000
81.19071 321.000
81.21065 315.000
81.23060 313.000
81.25055 293.000
81.27049 335.000
81.29044 310.000
81.31039 304.000
81.33034 279.000
81.35028 304.000
81.37023 318.000
81.39018 297.000
81.41012 306.000
81.43007 324.000
81.45002 327.000
81.46996 302.000
81.48991 293.000
81.50986 296.000
81.52980 314.000
81.54975 280.000
81.56970 328.000
81.58965 287.000
81.60959 306.000
81.62954 272.000
81.64949 286.000
81.66943 309.000
81.68938 287.000
81.70933 323.000
81.72927 332.000
81.74922 292.000
81.76917 335.000
81.78912 348.000
81.80906 319.000
81.82901 288.000
81.84896 324.000
81.86890 293.000
81.88885 285.000
81.90880 307.000
81.92874 321.000
81.94869 310.000
81.96864 296.000
81.98859 304.000
82.00853 333.000
82.02848 362.000
82.04843 303.000
82.06837 317.000
82.08832 275.000
82.10827 309.000
82.12821 297.000
82.14816 294.000
82.16811 320.000
82.18805 293.000
82.20800 294.000
82.22795 324.000
82.24790 296.000
82.26784 302.000
82.28779 320.000
82.30774 330.000
82.32768 309.000
82.34763 311.000
82.36758 305.000
82.38752 315.000
82.40747 323.000
82.42742 332.000
82.44737 348.000
82.46731 326.000
82.48726 351.000
82.50721 304.000
82.52715 323.000
82.54710 305.000
82.56705 336.000
82.58699 341.000
82.60694 329.000
82.62689 330.000
82.64683 311.000
82.66678 329.000
82.68673 341.000
82.70668 327.000
82.72662 342.000
82.74657 362.000
82.76652 337.000
82.78646 332.000
82.80641 348.000
82.82636 309.000
82.84630 337.000
82.86625 350.000
82.88620 330.000
82.90615 353.000
82.92609 343.000
82.94604 328.000
82.96599 347.000
82.98593 367.000
83.00588 333.000
83.02583 345.000
83.04577 308.000
83.06572 332.000
83.08567 346.000
83.10561 327.000
83.12556 325.000
83.14551 339.000
83.16546 326.000
83.18540 313.000
83.20535 293.000
83.22530 288.000
83.24524 331.000
83.26519 306.000
83.28514 303.000
83.30508 320.000
83.32503 311.000
83.34498 322.000
83.36493 336.000
83.38487 325.000
83.40482 310.000
83.42477 325.000
83.44471 317.000
83.46466 311.000
83.48461 310.000
83.50455 330.000
83.52450 330.000
83.54445 319.000
83.56440 323.000
83.58434 313.000
83.60429 307.000
83.62424 320.000
83.64418 347.000
83.66413 335.000
83.68408 299.000
83.70402 277.000
83.72397 339.000
83.74392 350.000
83.76386 336.000
83.78381 297.000
83.80376 328.000
83.82371 327.000
83.84365 305.000
83.86360 333.000
83.88355 315.000
83.90349 339.000
83.92344 309.000
83.94339 337.000
83.96333 339.000
83.98328 287.000
84.00323 303.000
84.02318 307.000
84.04312 322.000
84.06307 311.000
84.08302 312.000
84.10296 255.000
84.12291 294.000
84.14286 317.000
84.16280 317.000
84.18275 315.000
84.20270 285.000
84.22264 279.000
84.24259 311.000
84.26254 306.000
84.28249 285.000
84.30243 329.000
84.32238 291.000
84.34233 319.000
84.36227 292.000
84.38222 297.000
84.40217 290.000
84.42211 324.000
84.44206 322.000
84.46201 323.000
84.48196 344.000
84.50190 302.000
84.52185 325.000
84.54180 293.000
84.56174 318.000
84.58169 299.000
84.60164 348.000
84.62158 310.000
84.64153 300.000
84.66148 338.000
84.68142 338.000
84.70137 330.000
84.72132 329.000
84.74127 312.000
84.76121 333.000
84.78116 350.000
84.80111 325.000
84.82105 310.000
84.84100 340.000
84.86095 385.000
84.88089 407.000
84.90084 384.000
84.92079 382.000
84.94074 433.000
84.96068 444.000
84.98063 433.000
85.00058 426.000
85.02052 427.000
85.04047 472.000
85.06042 430.000
85.08036 394.000
85.10031 398.000
85.12026 378.000
85.14021 384.000
85.16015 362.000
85.18010 368.000
85.20005 351.000
85.21999 380.000
85.23994 400.000
85.25989 406.000
85.27983 411.000
85.29978 378.000
85.31973 370.000
85.33967 347.000
85.35962 314.000
85.37957 315.000
85.39952 303.000
85.41946 335.000
85.43941 294.000
85.45936 308.000
85.47930 295.000
85.49925 331.000
85.51920 306.000
85.53914 331.000
85.55909 266.000
85.57904 293.000
85.59899 307.000
85.61893 310.000
85.63888 303.000
85.65883 275.000
85.67877 292.000
85.69872 301.000
85.71867 298.000
85.73861 295.000
85.75856 277.000
85.77851 299.000
85.79845 308.000
85.81840 291.000
85.83835 352.000
85.85830 286.000
85.87824 298.000
85.89819 299.000
85.91814 287.000
85.93808 315.000
85.95803 305.000
85.97798 301.000
85.99792 303.000
86.01787 314.000
86.03782 309.000
86.05777 302.000
86.07771 316.000
86.09766 280.000
86.11761 308.000
86.13755 335.000
86.15750 293.000
86.17745 287.000
86.19739 342.000
86.21734 301.000
86.23729 292.000
86.25723 317.000
86.27718 272.000
86.29713 295.000
86.31708 280.000
86.33702 282.000
86.35697 294.000
86.37692 342.000
86.39686 336.000
86.41681 311.000
86.43676 313.000
86.45670 283.000
86.47665 305.000
86.49660 304.000
86.51655 277.000
86.53649 279.000
86.55644 273.000
86.57639 290.000
86.59633 331.000
86.61628 317.000
86.63623 300.000
86.65617 289.000
86.67612 294.000
86.69607 319.000
86.71602 315.000
86.73596 330.000
86.75591 307.000
86.77586 293.000
86.79580 333.000
86.81575 305.000
86.83570 298.000
86.85564 315.000
86.87559 330.000
86.89554 285.000
86.91548 353.000
86.93543 330.000
86.95538 298.000
86.97533 335.000
86.99527 300.000
87.01522 298.000
87.03517 336.000
87.05511 320.000
87.07506 321.000
87.09501 331.000
87.11495 338.000
87.13490 319.000
87.15485 320.000
87.17480 329.000
87.19474 299.000
87.21469 346.000
87.23464 312.000
87.25458 309.000
87.27453 311.000
87.29448 292.000
87.31442 294.000
87.33437 304.000
87.35432 319.000
87.37426 318.000
87.39421 307.000
87.41416 299.000
87.43411 325.000
87.45405 334.000
87.47400 320.000
87.49395 310.000
87.51389 302.000
87.53384 300.000
87.55379 338.000
87.57373 320.000
87.59368 322.000
87.61363 311.000
87.63358 326.000
87.65352 315.000
87.67347 275.000
87.69342 312.000
87.71336 323.000
87.73331 320.000
87.75326 322.000
87.77320 306.000
87.79315 294.000
87.81310 311.000
87.83304 299.000
87.85299 312.000
87.87294 300.000
87.89289 331.000
87.91283 281.000
87.93278 318.000
87.95273 272.000
87.97267 282.000
87.99262 302.000
88.01257 309.000
88.03251 311.000
88.05246 330.000
88.07241 319.000
88.09236 285.000
88.11230 305.000
88.13225 314.000
88.15220 319.000
88.17214 284.000
88.19209 301.000
88.21204 295.000
88.23198 285.000
88.25193 279.000
88.27188 310.000
88.29183 288.000
88.31177 300.000
88.33172 289.000
88.35167 304.000
88.37161 304.000
88.39156 326.000
88.41151 307.000
88.43145 301.000
88.45140 325.000
88.47135 286.000
88.49129 307.000
88.51124 289.000
88.53119 272.000
88.55114 283.000
88.57108 312.000
88.59103 321.000
88.61098 294.000
88.63092 317.000
88.65087 281.000
88.67082 300.000
88.69076 287.000
88.71071 289.000
88.73066 321.000
88.75061 272.000
88.77055 289.000
88.79050 278.000
88.81045 304.000
88.83039 284.000
88.85034 309.000
88.87029 310.000
88.89023 329.000
88.91018 303.000
88.93013 297.000
88.95007 318.000
88.97002 303.000
88.98997 290.000
89.00992 298.000
89.02986 280.000
89.04981 297.000
89.06976 321.000
89.08970 306.000
89.10965 312.000
89.12960 287.000
89.14954 333.000
89.16949 286.000
89.18944 295.000
89.20939 290.000
89.22933 317.000
89.24928 292.000
89.26923 306.000
89.28917 320.000
89.30912 344.000
89.32907 283.000
89.34901 339.000
89.36896 335.000
89.38891 314.000
89.40885 337.000
89.42880 315.000
89.44875 314.000
89.46870 323.000
89.48864 292.000
89.50859 301.000
89.52854 314.000
89.54848 339.000
89.56843 304.000
89.58838 319.000
89.60832 306.000
89.62827 345.000
89.64822 327.000
89.66817 303.000
89.68811 313.000
89.70806 341.000
89.72801 335.000
89.74795 316.000
89.76790 321.000
89.78785 312.000
89.80779 289.000
89.82774 312.000
89.84769 294.000
89.86764 340.000
89.88758 328.000
89.90753 310.000
89.92748 286.000
89.94742 277.000
89.96737 318.000
89.98732 283.000
90.00726 328.000
