10.00000 19.000
10.01995 31.000
10.03989 28.000
10.05984 32.000
10.07979 23.000
10.09973 22.000
10.11968 22.000
10.13963 24.000
10.15958 32.000
10.17952 29.000
10.19947 33.000
10.21942 22.000
10.23936 30.000
10.25931 25.000
10.27926 18.000
10.29920 28.000
10.31915 30.000
10.33910 22.000
10.35905 19.000
10.37899 24.000
10.39894 40.000
10.41889 39.000
10.43883 20.000
10.45878 24.000
10.47873 17.000
10.49867 28.000
10.51862 27.000
10.53857 27.000
10.55851 24.000
10.57846 28.000
10.59841 24.000
10.61836 20.000
10.63830 29.000
10.65825 38.000
10.67820 24.000
10.69814 23.000
10.71809 25.000
10.73804 30.000
10.75798 32.000
10.77793 21.000
10.79788 26.000
10.81783 29.000
10.83777 23.000
10.85772 36.000
10.87767 21.000
10.89761 28.000
10.91756 39.000
10.93751 25.000
10.95745 23.000
10.97740 33.000
10.99735 24.000
11.01730 29.000
11.03724 28.000
11.05719 21.000
11.07714 27.000
11.09708 19.000
11.11703 25.000
11.13698 33.000
11.15692 31.000
11.17687 25.000
11.19682 35.000
11.21676 25.000
11.23671 26.000
11.25666 20.000
11.27661 22.000
11.29655 27.000
11.31650 22.000
11.33645 25.000
11.35639 19.000
11.37634 33.000
11.39629 24.000
11.41623 31.000
11.43618 22.000
11.45613 26.000
11.47608 26.000
11.49602 32.000
11.51597 27.000
11.53592 31.000
11.55586 25.000
11.57581 23.000
11.59576 32.000
11.61570 21.000
11.63565 33.000
11.65560 30.000
11.67554 25.000
11.69549 28.000
11.71544 20.000
11.73539 34.000
11.75533 19.000
11.77528 24.000
11.79523 35.000
11.81517 34.000
11.83512 35.000
11.85507 29.000
11.87501 30.000
11.89496 37.000
11.91491 34.000
11.93486 27.000
11.95480 29.000
11.97475 35.000
11.99470 34.000
12.01464 25.000
12.03459 38.000
12.05454 37.000
12.07448 31.000
12.09443 21.000
12.11438 16.000
12.13432 23.000
12.15427 24.000
12.17422 35.000
12.19417 45.000
12.21411 28.000
12.23406 34.000
12.25401 19.000
12.27395 40.000
12.29390 26.000
12.31385 25.000
12.33379 34.000
12.35374 32.000
12.37369 35.000
12.39364 29.000
12.41358 28.000
12.43353 40.000
12.45348 34.000
12.47342 26.000
12.49337 36.000
12.51332 34.000
12.53326 41.000
12.55321 44.000
12.57316 37.000
12.59311 40.000
12.61305 40.000
12.63300 44.000
12.65295 33.000
12.67289 34.000
12.69284 41.000
12.71279 40.000
12.73273 38.000
12.75268 43.000
12.77263 44.000
12.79257 34.000
12.81252 32.000
12.83247 45.000
12.85242 39.000
12.87236 33.000
12.89231 30.000
12.91226 37.000
12.93220 37.000
12.95215 49.000
12.97210 45.000
12.99204 28.000
13.01199 37.000
13.03194 29.000
13.05189 38.000
13.07183 36.000
13.09178 37.000
13.11173 28.000
13.13167 31.000
13.15162 37.000
13.17157 39.000
13.19151 41.000
13.21146 28.000
13.23141 34.000
13.25135 38.000
13.27130 36.000
13.29125 28.000
13.31120 35.000
13.33114 46.000
13.35109 30.000
13.37104 33.000
13.39098 43.000
13.41093 43.000
13.43088 30.000
13.45082 34.000
13.47077 42.000
13.49072 46.000
13.51067 36.000
13.53061 35.000
13.55056 33.000
13.57051 32.000
13.59045 39.000
13.61040 39.000
13.63035 43.000
13.65029 37.000
13.67024 34.000
13.69019 41.000
13.71013 31.000
13.73008 39.000
13.75003 36.000
13.76998 39.000
13.78992 39.000
13.80987 35.000
13.82982 44.000
13.84976 40.000
13.86971 38.000
13.88966 46.000
13.90960 39.000
13.92955 46.000
13.94950 46.000
13.96945 40.000
13.98939 39.000
14.00934 36.000
14.02929 50.000
14.04923 47.000
14.06918 55.000
14.08913 54.000
14.10907 42.000
14.12902 54.000
14.14897 46.000
14.16892 49.000
14.18886 59.000
14.20881 55.000
14.22876 46.000
14.24870 66.000
14.26865 43.000
14.28860 46.000
14.30854 49.000
14.32849 44.000
14.34844 43.000
14.36838 53.000
14.38833 51.000
14.40828 63.000
14.42823 61.000
14.44817 49.000
14.46812 64.000
14.48807 50.000
14.50801 63.000
14.52796 53.000
14.54791 47.000
14.56785 43.000
14.58780 58.000
14.60775 63.000
14.62770 81.000
14.64764 74.000
14.66759 69.000
14.68754 77.000
14.70748 67.000
14.72743 76.000
14.74738 75.000
14.76732 67.000
14.78727 87.000
14.80722 61.000
14.82716 74.000
14.84711 65.000
14.86706 79.000
14.88701 96.000
14.90695 77.000
14.92690 75.000
14.94685 84.000
14.96679 81.000
14.98674 104.000
15.00669 111.000
15.02663 136.000
15.04658 132.000
15.06653 136.000
15.08648 122.000
15.10642 142.000
15.12637 124.000
15.14632 108.000
15.16626 134.000
15.18621 148.000
15.20616 130.000
15.22610 130.000
15.24605 146.000
15.26600 133.000
15.28594 145.000
15.30589 169.000
15.32584 196.000
15.34579 181.000
15.36573 201.000
15.38568 211.000
15.40563 194.000
15.42557 218.000
15.44552 238.000
15.46547 256.000
15.48541 352.000
15.50536 354.000
15.52531 398.000
15.54526 463.000
15.56520 654.000
15.58515 877.000
15.60510 1227.000
15.62504 1778.000
15.64499 2868.000
15.66494 4734.000
15.68488 7085.000
15.70483 9835.000
15.72478 11167.000
15.74472 10095.000
15.76467 7565.000
15.78462 4649.000
15.80457 2470.000
15.82451 1248.000
15.84446 687.000
15.86441 416.000
15.88435 326.000
15.90430 263.000
15.92425 236.000
15.94419 217.000
15.96414 194.000
15.98409 158.000
16.00404 150.000
16.02398 138.000
16.04393 161.000
16.06388 123.000
16.08382 96.000
16.10377 115.000
16.12372 98.000
16.14366 102.000
16.16361 88.000
16.18356 89.000
16.20351 86.000
16.22345 80.000
16.24340 76.000
16.26335 92.000
16.28329 74.000
16.30324 86.000
16.32319 66.000
16.34313 69.000
16.36308 67.000
16.38303 55.000
16.40297 62.000
16.42292 72.000
16.44287 72.000
16.46282 49.000
16.48276 50.000
16.50271 49.000
16.52266 44.000
16.54260 63.000
16.56255 55.000
16.58250 59.000
16.60244 49.000
16.62239 47.000
16.64234 51.000
16.66229 47.000
16.68223 44.000
16.70218 38.000
16.72213 46.000
16.74207 52.000
16.76202 42.000
16.78197 31.000
16.80191 33.000
16.82186 37.000
16.84181 43.000
16.86175 38.000
16.88170 32.000
16.90165 32.000
16.92160 37.000
16.94154 38.000
16.96149 40.000
16.98144 31.000
17.00138 32.000
17.02133 41.000
17.04128 32.000
17.06122 30.000
17.08117 41.000
17.10112 25.000
17.12107 26.000
17.14101 38.000
17.16096 41.000
17.18091 35.000
17.20085 39.000
17.22080 32.000
17.24075 25.000
17.26069 43.000
17.28064 43.000
17.30059 33.000
17.32053 26.000
17.34048 40.000
17.36043 33.000
17.38038 38.000
17.40032 34.000
17.42027 33.000
17.44022 38.000
17.46016 28.000
17.48011 28.000
17.50006 35.000
17.52000 28.000
17.53995 26.000
17.55990 22.000
17.57985 29.000
17.59979 35.000
17.61974 31.000
17.63969 28.000
17.65963 34.000
17.67958 29.000
17.69953 33.000
17.71947 37.000
17.73942 23.000
17.75937 34.000
17.77932 34.000
17.79926 30.000
17.81921 26.000
17.83916 40.000
17.85910 36.000
17.87905 33.000
17.89900 31.000
17.91894 32.000
17.93889 27.000
17.95884 27.000
17.97878 47.000
17.99873 58.000
18.01868 68.000
18.03863 82.000
18.05857 80.000
18.07852 135.000
18.09847 136.000
18.11841 110.000
18.13836 96.000
18.15831 70.000
18.17825 64.000
18.19820 44.000
18.21815 36.000
18.23810 30.000
18.25804 40.000
18.27799 40.000
18.29794 36.000
18.31788 26.000
18.33783 20.000
18.35778 21.000
18.37772 28.000
18.39767 27.000
18.41762 36.000
18.43756 31.000
18.45751 30.000
18.47746 20.000
18.49741 29.000
18.51735 30.000
18.53730 28.000
18.55725 38.000
18.57719 27.000
18.59714 31.000
18.61709 42.000
18.63703 23.000
18.65698 27.000
18.67693 31.000
18.69688 40.000
18.71682 32.000
18.73677 39.000
18.75672 31.000
18.77666 29.000
18.79661 18.000
18.81656 32.000
18.83650 26.000
18.85645 38.000
18.87640 31.000
18.89634 20.000
18.91629 20.000
18.93624 34.000
18.95619 31.000
18.97613 21.000
18.99608 31.000
19.01603 28.000
19.03597 34.000
19.05592 31.000
19.07587 30.000
19.09581 19.000
19.11576 27.000
19.13571 31.000
19.15566 22.000
19.17560 25.000
19.19555 25.000
19.21550 25.000
19.23544 25.000
19.25539 21.000
19.27534 39.000
19.29528 17.000
19.31523 29.000
19.33518 23.000
19.35513 24.000
19.37507 34.000
19.39502 27.000
19.41497 36.000
19.43491 26.000
19.45486 23.000
19.47481 29.000
19.49475 30.000
19.51470 23.000
19.53465 25.000
19.55459 25.000
19.57454 25.000
19.59449 26.000
19.61444 26.000
19.63438 27.000
19.65433 29.000
19.67428 26.000
19.69422 38.000
19.71417 29.000
19.73412 27.000
19.75406 34.000
19.77401 29.000
19.79396 24.000
19.81391 23.000
19.83385 37.000
19.85380 30.000
19.87375 27.000
19.89369 28.000
19.91364 32.000
19.93359 30.000
19.95353 32.000
19.97348 33.000
19.99343 20.000
20.01337 26.000
20.03332 32.000
20.05327 20.000
20.07322 27.000
20.09316 23.000
20.11311 23.000
20.13306 26.000
20.15300 31.000
20.17295 28.000
20.19290 25.000
20.21284 26.000
20.23279 21.000
20.25274 36.000
20.27269 28.000
20.29263 25.000
20.31258 34.000
20.33253 37.000
20.35247 33.000
20.37242 34.000
20.39237 34.000
20.41231 20.000
20.43226 26.000
20.45221 28.000
20.47215 36.000
20.49210 38.000
20.51205 28.000
20.53200 29.000
20.55194 37.000
20.57189 33.000
20.59184 34.000
20.61178 30.000
20.63173 24.000
20.65168 45.000
20.67162 43.000
20.69157 36.000
20.71152 43.000
20.73147 48.000
20.75141 35.000
20.77136 30.000
20.79131 50.000
20.81125 63.000
20.83120 62.000
20.85115 86.000
20.87109 74.000
20.89104 76.000
20.91099 75.000
20.93094 64.000
20.95088 73.000
20.97083 75.000
20.99078 61.000
21.01072 73.000
21.03067 60.000
21.05062 67.000
21.07056 64.000
21.09051 46.000
21.11046 46.000
21.13040 43.000
21.15035 37.000
21.17030 34.000
21.19025 38.000
21.21019 31.000
21.23014 32.000
21.25009 36.000
21.27003 30.000
21.28998 26.000
21.30993 30.000
21.32987 31.000
21.34982 38.000
21.36977 31.000
21.38972 23.000
21.40966 21.000
21.42961 26.000
21.44956 26.000
21.46950 32.000
21.48945 38.000
21.50940 20.000
21.52934 23.000
21.54929 24.000
21.56924 39.000
21.58918 23.000
21.60913 35.000
21.62908 30.000
21.64903 28.000
21.66897 15.000
21.68892 30.000
21.70887 26.000
21.72881 31.000
21.74876 32.000
21.76871 33.000
21.78865 24.000
21.80860 29.000
21.82855 24.000
21.84850 37.000
21.86844 29.000
21.88839 38.000
21.90834 33.000
21.92828 42.000
21.94823 27.000
21.96818 25.000
21.98812 27.000
22.00807 29.000
22.02802 39.000
22.04796 28.000
22.06791 26.000
22.08786 27.000
22.10781 27.000
22.12775 28.000
22.14770 29.000
22.16765 21.000
22.18759 22.000
22.20754 25.000
22.22749 31.000
22.24743 28.000
22.26738 41.000
22.28733 35.000
22.30728 37.000
22.32722 38.000
22.34717 31.000
22.36712 31.000
22.38706 33.000
22.40701 24.000
22.42696 29.000
22.44690 33.000
22.46685 30.000
22.48680 33.000
22.50675 31.000
22.52669 39.000
22.54664 36.000
22.56659 21.000
22.58653 26.000
22.60648 24.000
22.62643 35.000
22.64637 28.000
22.66632 40.000
22.68627 31.000
22.70621 31.000
22.72616 27.000
22.74611 27.000
22.76606 34.000
22.78600 30.000
22.80595 30.000
22.82590 30.000
22.84584 25.000
22.86579 27.000
22.88574 31.000
22.90568 31.000
22.92563 21.000
22.94558 29.000
22.96553 37.000
22.98547 22.000
23.00542 39.000
23.02537 42.000
23.04531 30.000
23.06526 26.000
23.08521 34.000
23.10515 30.000
23.12510 26.000
23.14505 28.000
23.16499 25.000
23.18494 30.000
23.20489 32.000
23.22484 26.000
23.24478 30.000
23.26473 30.000
23.28468 40.000
23.30462 32.000
23.32457 38.000
23.34452 31.000
23.36446 23.000
23.38441 27.000
23.40436 30.000
23.42431 34.000
23.44425 30.000
23.46420 36.000
23.48415 29.000
23.50409 32.000
23.52404 31.000
23.54399 48.000
23.56393 32.000
23.58388 23.000
23.60383 30.000
23.62377 29.000
23.64372 36.000
23.66367 27.000
23.68362 28.000
23.70356 26.000
23.72351 37.000
23.74346 30.000
23.76340 38.000
23.78335 27.000
23.80330 18.000
23.82324 32.000
23.84319 30.000
23.86314 38.000
23.88309 30.000
23.90303 29.000
23.92298 36.000
23.94293 31.000
23.96287 26.000
23.98282 26.000
24.00277 34.000
24.02271 36.000
24.04266 26.000
24.06261 27.000
24.08256 35.000
24.10250 41.000
24.12245 27.000
24.14240 32.000
24.16234 39.000
24.18229 36.000
24.20224 35.000
24.22218 34.000
24.24213 30.000
24.26208 38.000
24.28202 30.000
24.30197 31.000
24.32192 32.000
24.34187 27.000
24.36181 35.000
24.38176 28.000
24.40171 28.000
24.42165 35.000
24.44160 37.000
24.46155 30.000
24.48149 29.000
24.50144 26.000
24.52139 33.000
24.54134 36.000
24.56128 36.000
24.58123 29.000
24.60118 27.000
24.62112 34.000
24.64107 25.000
24.66102 34.000
24.68096 28.000
24.70091 36.000
24.72086 39.000
24.74080 25.000
24.76075 51.000
24.78070 49.000
24.80065 33.000
24.82059 35.000
24.84054 24.000
24.86049 29.000
24.88043 29.000
24.90038 35.000
24.92033 34.000
24.94027 28.000
24.96022 24.000
24.98017 45.000
25.00012 33.000
25.02006 34.000
25.04001 31.000
25.05996 44.000
25.07990 42.000
25.09985 36.000
25.11980 34.000
25.13974 31.000
25.15969 30.000
25.17964 25.000
25.19958 32.000
25.21953 52.000
25.23948 38.000
25.25943 33.000
25.27937 36.000
25.29932 28.000
25.31927 39.000
25.33921 40.000
25.35916 36.000
25.37911 35.000
25.39905 48.000
25.41900 43.000
25.43895 34.000
25.45890 36.000
25.47884 38.000
25.49879 36.000
25.51874 35.000
25.53868 36.000
25.55863 28.000
25.57858 30.000
25.59852 27.000
25.61847 47.000
25.63842 22.000
25.65837 40.000
25.67831 44.000
25.69826 36.000
25.71821 33.000
25.73815 25.000
25.75810 40.000
25.77805 27.000
25.79799 26.000
25.81794 32.000
25.83789 44.000
25.85783 26.000
25.87778 35.000
25.89773 37.000
25.91768 34.000
25.93762 37.000
25.95757 35.000
25.97752 38.000
25.99746 41.000
26.01741 33.000
26.03736 33.000
26.05730 36.000
26.07725 38.000
26.09720 28.000
26.11715 47.000
26.13709 38.000
26.15704 39.000
26.17699 25.000
26.19693 36.000
26.21688 29.000
26.23683 32.000
26.25677 27.000
26.27672 26.000
26.29667 39.000
26.31661 40.000
26.33656 43.000
26.35651 31.000
26.37646 36.000
26.39640 29.000
26.41635 32.000
26.43630 36.000
26.45624 46.000
26.47619 43.000
26.49614 28.000
26.51608 42.000
26.53603 32.000
26.55598 40.000
26.57593 39.000
26.59587 39.000
26.61582 36.000
26.63577 40.000
26.65571 29.000
26.67566 39.000
26.69561 37.000
26.71555 39.000
26.73550 44.000
26.75545 38.000
26.77539 35.000
26.79534 36.000
26.81529 30.000
26.83524 39.000
26.85518 31.000
26.87513 36.000
26.89508 29.000
26.91502 26.000
26.93497 38.000
26.95492 36.000
26.97486 44.000
26.99481 37.000
27.01476 38.000
27.03471 40.000
27.05465 38.000
27.07460 36.000
27.09455 45.000
27.11449 37.000
27.13444 46.000
27.15439 30.000
27.17433 39.000
27.19428 37.000
27.21423 41.000
27.23417 29.000
27.25412 46.000
27.27407 48.000
27.29402 31.000
27.31396 39.000
27.33391 31.000
27.35386 32.000
27.37380 39.000
27.39375 22.000
27.41370 44.000
27.43364 44.000
27.45359 32.000
27.47354 38.000
27.49349 25.000
27.51343 54.000
27.53338 26.000
27.55333 41.000
27.57327 29.000
27.59322 42.000
27.61317 39.000
27.63311 36.000
27.65306 33.000
27.67301 40.000
27.69296 38.000
27.71290 43.000
27.73285 44.000
27.75280 41.000
27.77274 28.000
27.79269 31.000
27.81264 44.000
27.83258 36.000
27.85253 38.000
27.87248 37.000
27.89242 35.000
27.91237 36.000
27.93232 38.000
27.95227 34.000
27.97221 40.000
27.99216 29.000
28.01211 38.000
28.03205 47.000
28.05200 43.000
28.07195 44.000
28.09189 39.000
28.11184 47.000
28.13179 33.000
28.15174 52.000
28.17168 32.000
28.19163 42.000
28.21158 36.000
28.23152 47.000
28.25147 40.000
28.27142 40.000
28.29136 45.000
28.31131 30.000
28.33126 37.000
28.35120 42.000
28.37115 43.000
28.39110 41.000
28.41105 34.000
28.43099 36.000
28.45094 38.000
28.47089 43.000
28.49083 47.000
28.51078 40.000
28.53073 40.000
28.55067 39.000
28.57062 35.000
28.59057 35.000
28.61052 29.000
28.63046 36.000
28.65041 45.000
28.67036 53.000
28.69030 45.000
28.71025 35.000
28.73020 48.000
28.75014 49.000
28.77009 44.000
28.79004 46.000
28.80998 34.000
28.82993 47.000
28.84988 33.000
28.86983 47.000
28.88977 46.000
28.90972 45.000
28.92967 46.000
28.94961 35.000
28.96956 31.000
28.98951 44.000
29.00945 51.000
29.02940 31.000
29.04935 36.000
29.06930 41.000
29.08924 30.000
29.10919 46.000
29.12914 39.000
29.14908 45.000
29.16903 40.000
29.18898 41.000
29.20892 48.000
29.22887 55.000
29.24882 33.000
29.26877 48.000
29.28871 34.000
29.30866 50.000
29.32861 39.000
29.34855 36.000
29.36850 34.000
29.38845 32.000
29.40839 37.000
29.42834 43.000
29.44829 46.000
29.46823 53.000
29.48818 52.000
29.50813 46.000
29.52808 40.000
29.54802 47.000
29.56797 51.000
29.58792 52.000
29.60786 47.000
29.62781 56.000
29.64776 59.000
29.66770 70.000
29.68765 99.000
29.70760 97.000
29.72755 121.000
29.74749 123.000
29.76744 119.000
29.78739 117.000
29.80733 127.000
29.82728 92.000
29.84723 74.000
29.86717 89.000
29.88712 57.000
29.90707 61.000
29.92701 67.000
29.94696 38.000
29.96691 48.000
29.98686 58.000
30.00680 54.000
30.02675 53.000
30.04670 38.000
30.06664 51.000
30.08659 62.000
30.10654 45.000
30.12648 62.000
30.14643 69.000
30.16638 64.000
30.18633 72.000
30.20627 67.000
30.22622 51.000
30.24617 53.000
30.26611 56.000
30.28606 49.000
30.30601 56.000
30.32595 43.000
30.34590 58.000
30.36585 47.000
30.38579 46.000
30.40574 57.000
30.42569 61.000
30.44564 46.000
30.46558 54.000
30.48553 52.000
30.50548 56.000
30.52542 57.000
30.54537 45.000
30.56532 45.000
30.58526 48.000
30.60521 43.000
30.62516 54.000
30.64511 52.000
30.66505 31.000
30.68500 45.000
30.70495 39.000
30.72489 41.000
30.74484 44.000
30.76479 50.000
30.78473 61.000
30.80468 53.000
30.82463 48.000
30.84458 42.000
30.86452 38.000
30.88447 38.000
30.90442 45.000
30.92436 52.000
30.94431 55.000
30.96426 51.000
30.98420 43.000
31.00415 50.000
31.02410 56.000
31.04404 53.000
31.06399 42.000
31.08394 45.000
31.10389 51.000
31.12383 54.000
31.14378 49.000
31.16373 47.000
31.18367 62.000
31.20362 42.000
31.22357 46.000
31.24351 61.000
31.26346 48.000
31.28341 59.000
31.30336 50.000
31.32330 54.000
31.34325 58.000
31.36320 58.000
31.38314 68.000
31.40309 52.000
31.42304 59.000
31.44298 64.000
31.46293 83.000
31.48288 77.000
31.50282 80.000
31.52277 65.000
31.54272 97.000
31.56267 104.000
31.58261 116.000
31.60256 153.000
31.62251 222.000
31.64245 298.000
31.66240 405.000
31.68235 550.000
31.70229 607.000
31.72224 722.000
31.74219 686.000
31.76214 681.000
31.78208 611.000
31.80203 483.000
31.82198 434.000
31.84192 342.000
31.86187 261.000
31.88182 187.000
31.90176 129.000
31.92171 110.000
31.94166 73.000
31.96160 80.000
31.98155 71.000
32.00150 57.000
32.02145 66.000
32.04139 62.000
32.06134 44.000
32.08129 60.000
32.10123 55.000
32.12118 53.000
32.14113 52.000
32.16107 54.000
32.18102 57.000
32.20097 52.000
32.22092 55.000
32.24086 39.000
32.26081 52.000
32.28076 46.000
32.30070 53.000
32.32065 37.000
32.34060 40.000
32.36054 50.000
32.38049 43.000
32.40044 40.000
32.42039 44.000
32.44033 37.000
32.46028 46.000
32.48023 43.000
32.50017 44.000
32.52012 44.000
32.54007 42.000
32.56001 46.000
32.57996 48.000
32.59991 47.000
32.61985 53.000
32.63980 36.000
32.65975 50.000
32.67970 39.000
32.69964 29.000
32.71959 40.000
32.73954 55.000
32.75948 34.000
32.77943 40.000
32.79938 38.000
32.81932 42.000
32.83927 37.000
32.85922 39.000
32.87917 46.000
32.89911 47.000
32.91906 41.000
32.93901 39.000
32.95895 49.000
32.97890 41.000
32.99885 42.000
33.01879 57.000
33.03874 41.000
33.05869 52.000
33.07863 42.000
33.09858 41.000
33.11853 40.000
33.13848 40.000
33.15842 46.000
33.17837 59.000
33.19832 49.000
33.21826 49.000
33.23821 53.000
33.25816 58.000
33.27810 44.000
33.29805 42.000
33.31800 42.000
33.33795 37.000
33.35789 36.000
33.37784 48.000
33.39779 48.000
33.41773 40.000
33.43768 45.000
33.45763 42.000
33.47757 49.000
33.49752 30.000
33.51747 46.000
33.53741 47.000
33.55736 49.000
33.57731 43.000
33.59726 38.000
33.61720 44.000
33.63715 53.000
33.65710 47.000
33.67704 49.000
33.69699 47.000
33.71694 35.000
33.73688 33.000
33.75683 43.000
33.77678 41.000
33.79673 32.000
33.81667 52.000
33.83662 35.000
33.85657 54.000
33.87651 52.000
33.89646 31.000
33.91641 42.000
33.93635 56.000
33.95630 48.000
33.97625 49.000
33.99620 55.000
34.01614 49.000
34.03609 51.000
34.05604 60.000
34.07598 36.000
34.09593 65.000
34.11588 46.000
34.13582 58.000
34.15577 48.000
34.17572 49.000
34.19566 71.000
34.21561 54.000
34.23556 63.000
34.25551 79.000
34.27545 73.000
34.29540 69.000
34.31535 92.000
34.33529 83.000
34.35524 86.000
34.37519 80.000
34.39513 93.000
34.41508 80.000
34.43503 75.000
34.45498 83.000
34.47492 89.000
34.49487 83.000
34.51482 73.000
34.53476 85.000
34.55471 88.000
34.57466 72.000
34.59460 92.000
34.61455 83.000
34.63450 59.000
34.65444 69.000
34.67439 85.000
34.69434 79.000
34.71429 65.000
34.73423 67.000
34.75418 67.000
34.77413 74.000
34.79407 85.000
34.81402 68.000
34.83397 78.000
34.85391 84.000
34.87386 87.000
34.89381 125.000
34.91376 128.000
34.93370 155.000
34.95365 202.000
34.97360 265.000
34.99354 268.000
35.01349 292.000
35.03344 314.000
35.05338 297.000
35.07333 330.000
35.09328 288.000
35.11322 240.000
35.13317 191.000
35.15312 171.000
35.17307 154.000
35.19301 123.000
35.21296 120.000
35.23291 116.000
35.25285 103.000
35.27280 106.000
35.29275 105.000
35.31269 103.000
35.33264 134.000
35.35259 192.000
35.37254 210.000
35.39248 275.000
35.41243 363.000
35.43238 460.000
35.45232 511.000
35.47227 582.000
35.49222 560.000
35.51216 545.000
35.53211 531.000
35.55206 533.000
35.57201 453.000
35.59195 416.000
35.61190 318.000
35.63185 295.000
35.65179 232.000
35.67174 217.000
35.69169 177.000
35.71163 137.000
35.73158 127.000
35.75153 93.000
35.77147 105.000
35.79142 99.000
35.81137 75.000
35.83132 76.000
35.85126 69.000
35.87121 61.000
35.89116 52.000
35.91110 59.000
35.93105 67.000
35.95100 56.000
35.97094 38.000
35.99089 53.000
36.01084 53.000
36.03079 52.000
36.05073 47.000
36.07068 52.000
36.09063 40.000
36.11057 58.000
36.13052 40.000
36.15047 55.000
36.17041 55.000
36.19036 48.000
36.21031 65.000
36.23025 60.000
36.25020 63.000
36.27015 66.000
36.29010 60.000
36.31004 57.000
36.32999 83.000
36.34994 85.000
36.36988 99.000
36.38983 96.000
36.40978 109.000
36.42972 82.000
36.44967 107.000
36.46962 82.000
36.48957 97.000
36.50951 75.000
36.52946 78.000
36.54941 87.000
36.56935 68.000
36.58930 71.000
36.60925 77.000
36.62919 73.000
36.64914 79.000
36.66909 56.000
36.68903 54.000
36.70898 46.000
36.72893 51.000
36.74888 58.000
36.76882 71.000
36.78877 34.000
36.80872 45.000
36.82866 52.000
36.84861 35.000
36.86856 49.000
36.88850 47.000
36.90845 38.000
36.92840 43.000
36.94835 42.000
36.96829 35.000
36.98824 46.000
37.00819 53.000
37.02813 49.000
37.04808 32.000
37.06803 48.000
37.08797 57.000
37.10792 52.000
37.12787 39.000
37.14781 55.000
37.16776 45.000
37.18771 52.000
37.20766 47.000
37.22760 31.000
37.24755 39.000
37.26750 41.000
37.28744 53.000
37.30739 42.000
37.32734 50.000
37.34728 50.000
37.36723 42.000
37.38718 37.000
37.40713 40.000
37.42707 38.000
37.44702 37.000
37.46697 42.000
37.48691 45.000
37.50686 49.000
37.52681 42.000
37.54675 36.000
37.56670 38.000
37.58665 37.000
37.60660 42.000
37.62654 43.000
37.64649 51.000
37.66644 37.000
37.68638 43.000
37.70633 47.000
37.72628 41.000
37.74622 46.000
37.76617 49.000
37.78612 29.000
37.80606 56.000
37.82601 44.000
37.84596 51.000
37.86591 56.000
37.88585 47.000
37.90580 52.000
37.92575 50.000
37.94569 51.000
37.96564 60.000
37.98559 58.000
38.00553 47.000
38.02548 62.000
38.04543 60.000
38.06538 48.000
38.08532 52.000
38.10527 61.000
38.12522 56.000
38.14516 60.000
38.16511 70.000
38.18506 63.000
38.20500 56.000
38.22495 62.000
38.24490 66.000
38.26484 54.000
38.28479 48.000
38.30474 41.000
38.32469 81.000
38.34463 73.000
38.36458 62.000
38.38453 60.000
38.40447 73.000
38.42442 57.000
38.44437 51.000
38.46431 69.000
38.48426 62.000
38.50421 69.000
38.52416 54.000
38.54410 63.000
38.56405 80.000
38.58400 69.000
38.60394 82.000
38.62389 82.000
38.64384 99.000
38.66378 72.000
38.68373 97.000
38.70368 117.000
38.72362 106.000
38.74357 92.000
38.76352 111.000
38.78347 126.000
38.80341 150.000
38.82336 170.000
38.84331 184.000
38.86325 211.000
38.88320 258.000
38.90315 361.000
38.92309 486.000
38.94304 661.000
38.96299 852.000
38.98294 1125.000
39.00288 1176.000
39.02283 1179.000
39.04278 1181.000
39.06272 1091.000
39.08267 1058.000
39.10262 969.000
39.12256 837.000
39.14251 710.000
39.16246 566.000
39.18241 466.000
39.20235 398.000
39.22230 296.000
39.24225 261.000
39.26219 218.000
39.28214 179.000
39.30209 144.000
39.32203 106.000
39.34198 118.000
39.36193 102.000
39.38187 97.000
39.40182 83.000
39.42177 84.000
39.44172 84.000
39.46166 68.000
39.48161 64.000
39.50156 62.000
39.52150 59.000
39.54145 65.000
39.56140 68.000
39.58134 54.000
39.60129 65.000
39.62124 48.000
39.64119 55.000
39.66113 50.000
39.68108 49.000
39.70103 56.000
39.72097 62.000
39.74092 46.000
39.76087 55.000
39.78081 46.000
39.80076 38.000
39.82071 49.000
39.84065 42.000
39.86060 50.000
39.88055 47.000
39.90050 39.000
39.92044 46.000
39.94039 45.000
39.96034 44.000
39.98028 53.000
40.00023 38.000
40.02018 41.000
40.04012 33.000
40.06007 39.000
40.08002 45.000
40.09997 46.000
40.11991 47.000
40.13986 40.000
40.15981 37.000
40.17975 45.000
40.19970 37.000
40.21965 35.000
40.23959 42.000
40.25954 26.000
40.27949 44.000
40.29943 33.000
40.31938 38.000
40.33933 33.000
40.35928 25.000
40.37922 42.000
40.39917 36.000
40.41912 43.000
40.43906 29.000
40.45901 30.000
40.47896 34.000
40.49890 32.000
40.51885 23.000
40.53880 47.000
40.55875 33.000
40.57869 32.000
40.59864 42.000
40.61859 35.000
40.63853 41.000
40.65848 35.000
40.67843 43.000
40.69837 26.000
40.71832 30.000
40.73827 30.000
40.75822 36.000
40.77816 31.000
40.79811 31.000
40.81806 35.000
40.83800 34.000
40.85795 32.000
40.87790 29.000
40.89784 36.000
40.91779 28.000
40.93774 31.000
40.95768 36.000
40.97763 38.000
40.99758 40.000
41.01753 39.000
41.03747 30.000
41.05742 24.000
41.07737 38.000
41.09731 47.000
41.11726 38.000
41.13721 47.000
41.15715 36.000
41.17710 35.000
41.19705 43.000
41.21700 48.000
41.23694 35.000
41.25689 50.000
41.27684 26.000
41.29678 48.000
41.31673 34.000
41.33668 37.000
41.35662 30.000
41.37657 33.000
41.39652 38.000
41.41646 40.000
41.43641 36.000
41.45636 47.000
41.47631 33.000
41.49625 46.000
41.51620 41.000
41.53615 39.000
41.55609 38.000
41.57604 39.000
41.59599 43.000
41.61593 38.000
41.63588 41.000
41.65583 37.000
41.67578 29.000
41.69572 40.000
41.71567 37.000
41.73562 39.000
41.75556 43.000
41.77551 47.000
41.79546 20.000
41.81540 28.000
41.83535 29.000
41.85530 33.000
41.87524 31.000
41.89519 30.000
41.91514 35.000
41.93509 34.000
41.95503 34.000
41.97498 34.000
41.99493 28.000
42.01487 44.000
42.03482 34.000
42.05477 39.000
42.07471 34.000
42.09466 33.000
42.11461 33.000
42.13456 29.000
42.15450 29.000
42.17445 36.000
42.19440 39.000
42.21434 47.000
42.23429 46.000
42.25424 36.000
42.27418 34.000
42.29413 41.000
42.31408 38.000
42.33403 49.000
42.35397 52.000
42.37392 38.000
42.39387 74.000
42.41381 62.000
42.43376 55.000
42.45371 74.000
42.47365 91.000
42.49360 83.000
42.51355 101.000
42.53349 100.000
42.55344 96.000
42.57339 117.000
42.59334 103.000
42.61328 89.000
42.63323 95.000
42.65318 99.000
42.67312 103.000
42.69307 73.000
42.71302 79.000
42.73296 83.000
42.75291 81.000
42.77286 71.000
42.79281 59.000
42.81275 70.000
42.83270 68.000
42.85265 89.000
42.87259 75.000
42.89254 83.000
42.91249 85.000
42.93243 101.000
42.95238 132.000
42.97233 161.000
42.99227 198.000
43.01222 259.000
43.03217 420.000
43.05212 478.000
43.07206 505.000
43.09201 533.000
43.11196 478.000
43.13190 402.000
43.15185 419.000
43.17180 377.000
43.19174 346.000
43.21169 370.000
43.23164 263.000
43.25159 213.000
43.27153 193.000
43.29148 151.000
43.31143 122.000
43.33137 100.000
43.35132 93.000
43.37127 97.000
43.39121 88.000
43.41116 75.000
43.43111 66.000
43.45105 51.000
43.47100 63.000
43.49095 57.000
43.51090 51.000
43.53084 42.000
43.55079 52.000
43.57074 42.000
43.59068 51.000
43.61063 45.000
43.63058 45.000
43.65052 49.000
43.67047 37.000
43.69042 38.000
43.71037 39.000
43.73031 32.000
43.75026 38.000
43.77021 42.000
43.79015 32.000
43.81010 36.000
43.83005 37.000
43.84999 28.000
43.86994 38.000
43.88989 26.000
43.90984 32.000
43.92978 27.000
43.94973 40.000
43.96968 45.000
43.98962 45.000
44.00957 28.000
44.02952 34.000
44.04946 25.000
44.06941 39.000
44.08936 28.000
44.10930 33.000
44.12925 33.000
44.14920 39.000
44.16915 33.000
44.18909 42.000
44.20904 37.000
44.22899 27.000
44.24893 38.000
44.26888 32.000
44.28883 28.000
44.30877 35.000
44.32872 30.000
44.34867 30.000
44.36862 53.000
44.38856 42.000
44.40851 31.000
44.42846 33.000
44.44840 32.000
44.46835 23.000
44.48830 26.000
44.50824 37.000
44.52819 41.000
44.54814 31.000
44.56808 32.000
44.58803 35.000
44.60798 36.000
44.62793 35.000
44.64787 35.000
44.66782 34.000
44.68777 36.000
44.70771 40.000
44.72766 36.000
44.74761 40.000
44.76755 36.000
44.78750 32.000
44.80745 24.000
44.82740 32.000
44.84734 41.000
44.86729 26.000
44.88724 31.000
44.90718 32.000
44.92713 27.000
44.94708 30.000
44.96702 27.000
44.98697 32.000
45.00692 40.000
45.02686 29.000
45.04681 31.000
45.06676 38.000
45.08671 26.000
45.10665 39.000
45.12660 29.000
45.14655 28.000
45.16649 30.000
45.18644 25.000
45.20639 35.000
45.22633 28.000
45.24628 24.000
45.26623 28.000
45.28618 32.000
45.30612 24.000
45.32607 27.000
45.34602 32.000
45.36596 33.000
45.38591 34.000
45.40586 20.000
45.42580 38.000
45.44575 26.000
45.46570 19.000
45.48565 31.000
45.50559 32.000
45.52554 23.000
45.54549 39.000
45.56543 33.000
45.58538 37.000
45.60533 23.000
45.62527 23.000
45.64522 38.000
45.66517 30.000
45.68511 34.000
45.70506 19.000
45.72501 22.000
45.74496 29.000
45.76490 34.000
45.78485 30.000
45.80480 36.000
45.82474 32.000
45.84469 31.000
45.86464 26.000
45.88458 32.000
45.90453 39.000
45.92448 31.000
45.94443 35.000
45.96437 38.000
45.98432 31.000
46.00427 32.000
46.02421 28.000
46.04416 40.000
46.06411 27.000
46.08405 38.000
46.10400 27.000
46.12395 28.000
46.14389 36.000
46.16384 30.000
46.18379 39.000
46.20374 38.000
46.22368 25.000
46.24363 36.000
46.26358 42.000
46.28352 31.000
46.30347 50.000
46.32342 33.000
46.34336 40.000
46.36331 32.000
46.38326 45.000
46.40321 33.000
46.42315 34.000
46.44310 47.000
46.46305 31.000
46.48299 39.000
46.50294 30.000
46.52289 34.000
46.54283 45.000
46.56278 30.000
46.58273 44.000
46.60267 32.000
46.62262 43.000
46.64257 35.000
46.66252 39.000
46.68246 39.000
46.70241 47.000
46.72236 33.000
46.74230 36.000
46.76225 36.000
46.78220 32.000
46.80214 43.000
46.82209 44.000
46.84204 38.000
46.86199 31.000
46.88193 34.000
46.90188 31.000
46.92183 38.000
46.94177 39.000
46.96172 37.000
46.98167 42.000
47.00161 38.000
47.02156 36.000
47.04151 41.000
47.06146 28.000
47.08140 29.000
47.10135 31.000
47.12130 38.000
47.14124 42.000
47.16119 45.000
47.18114 42.000
47.20108 34.000
47.22103 51.000
47.24098 39.000
47.26092 47.000
47.28087 23.000
47.30082 33.000
47.32077 46.000
47.34071 39.000
47.36066 27.000
47.38061 37.000
47.40055 47.000
47.42050 36.000
47.44045 39.000
47.46039 27.000
47.48034 34.000
47.50029 32.000
47.52024 45.000
47.54018 53.000
47.56013 47.000
47.58008 47.000
47.60002 39.000
47.61997 40.000
47.63992 55.000
47.65986 57.000
47.67981 55.000
47.69976 41.000
47.71970 51.000
47.73965 67.000
47.75960 71.000
47.77955 48.000
47.79949 69.000
47.81944 57.000
47.83939 63.000
47.85933 56.000
47.87928 78.000
47.89923 79.000
47.91917 81.000
47.93912 88.000
47.95907 93.000
47.97902 96.000
47.99896 103.000
48.01891 109.000
48.03886 145.000
48.05880 114.000
48.07875 135.000
48.09870 145.000
48.11864 178.000
48.13859 178.000
48.15854 215.000
48.17848 228.000
48.19843 310.000
48.21838 361.000
48.23833 514.000
48.25827 683.000
48.27822 990.000
48.29817 1229.000
48.31811 1232.000
48.33806 1184.000
48.35801 1060.000
48.37795 919.000
48.39790 817.000
48.41785 852.000
48.43780 862.000
48.45774 781.000
48.47769 636.000
48.49764 485.000
48.51758 357.000
48.53753 325.000
48.55748 246.000
48.57742 203.000
48.59737 187.000
48.61732 156.000
48.63726 130.000
48.65721 108.000
48.67716 109.000
48.69711 106.000
48.71705 104.000
48.73700 102.000
48.75695 62.000
48.77689 80.000
48.79684 90.000
48.81679 78.000
48.83673 63.000
48.85668 65.000
48.87663 63.000
48.89658 71.000
48.91652 50.000
48.93647 68.000
48.95642 60.000
48.97636 52.000
48.99631 61.000
49.01626 54.000
49.03620 48.000
49.05615 39.000
49.07610 43.000
49.09605 63.000
49.11599 56.000
49.13594 40.000
49.15589 53.000
49.17583 38.000
49.19578 44.000
49.21573 57.000
49.23567 27.000
49.25562 35.000
49.27557 40.000
49.29551 35.000
49.31546 38.000
49.33541 35.000
49.35536 54.000
49.37530 40.000
49.39525 39.000
49.41520 45.000
49.43514 37.000
49.45509 34.000
49.47504 38.000
49.49498 40.000
49.51493 34.000
49.53488 37.000
49.55483 39.000
49.57477 37.000
49.59472 35.000
49.61467 44.000
49.63461 31.000
49.65456 46.000
49.67451 35.000
49.69445 36.000
49.71440 42.000
49.73435 36.000
49.75429 41.000
49.77424 46.000
49.79419 46.000
49.81414 45.000
49.83408 32.000
49.85403 24.000
49.87398 34.000
49.89392 27.000
49.91387 34.000
49.93382 29.000
49.95376 33.000
49.97371 29.000
49.99366 39.000
50.01361 36.000
50.03355 28.000
50.05350 37.000
50.07345 29.000
50.09339 30.000
50.11334 30.000
50.13329 22.000
50.15323 28.000
50.17318 49.000
50.19313 40.000
50.21307 31.000
50.23302 31.000
50.25297 32.000
50.27292 22.000
50.29286 32.000
50.31281 29.000
50.33276 26.000
50.35270 37.000
50.37265 31.000
50.39260 33.000
50.41254 28.000
50.43249 31.000
50.45244 30.000
50.47239 30.000
50.49233 33.000
50.51228 37.000
50.53223 26.000
50.55217 32.000
50.57212 27.000
50.59207 25.000
50.61201 34.000
50.63196 33.000
50.65191 29.000
50.67186 30.000
50.69180 34.000
50.71175 29.000
50.73170 30.000
50.75164 25.000
50.77159 25.000
50.79154 28.000
50.81148 34.000
50.83143 19.000
50.85138 25.000
50.87132 29.000
50.89127 28.000
50.91122 23.000
50.93117 21.000
50.95111 28.000
50.97106 27.000
50.99101 23.000
51.01095 30.000
51.03090 19.000
51.05085 26.000
51.07079 29.000
51.09074 26.000
51.11069 30.000
51.13064 23.000
51.15058 34.000
51.17053 25.000
51.19048 31.000
51.21042 19.000
51.23037 22.000
51.25032 22.000
51.27026 34.000
51.29021 30.000
51.31016 26.000
51.33010 31.000
51.35005 25.000
51.37000 30.000
51.38995 25.000
51.40989 21.000
51.42984 24.000
51.44979 29.000
51.46973 27.000
51.48968 32.000
51.50963 16.000
51.52957 30.000
51.54952 29.000
51.56947 30.000
51.58942 27.000
51.60936 27.000
51.62931 39.000
51.64926 19.000
51.66920 18.000
51.68915 25.000
51.70910 21.000
51.72904 32.000
51.74899 21.000
51.76894 26.000
51.78888 28.000
51.80883 21.000
51.82878 19.000
51.84873 31.000
51.86867 28.000
51.88862 27.000
51.90857 31.000
51.92851 25.000
51.94846 35.000
51.96841 20.000
51.98835 19.000
52.00830 26.000
52.02825 28.000
52.04820 21.000
52.06814 25.000
52.08809 30.000
52.10804 23.000
52.12798 20.000
52.14793 27.000
52.16788 27.000
52.18782 20.000
52.20777 33.000
52.22772 22.000
52.24767 18.000
52.26761 23.000
52.28756 29.000
52.30751 29.000
52.32745 17.000
52.34740 26.000
52.36735 24.000
52.38729 24.000
52.40724 31.000
52.42719 36.000
52.44713 33.000
52.46708 25.000
52.48703 34.000
52.50698 34.000
52.52692 30.000
52.54687 28.000
52.56682 22.000
52.58676 27.000
52.60671 35.000
52.62666 29.000
52.64660 24.000
52.66655 32.000
52.68650 38.000
52.70645 37.000
52.72639 31.000
52.74634 44.000
52.76629 30.000
52.78623 42.000
52.80618 42.000
52.82613 25.000
52.84607 44.000
52.86602 40.000
52.88597 30.000
52.90591 30.000
52.92586 26.000
52.94581 29.000
52.96576 30.000
52.98570 32.000
53.00565 22.000
53.02560 16.000
53.04554 27.000
53.06549 27.000
53.08544 28.000
53.10538 29.000
53.12533 27.000
53.14528 32.000
53.16523 25.000
53.18517 26.000
53.20512 23.000
53.22507 23.000
53.24501 19.000
53.26496 26.000
53.28491 23.000
53.30485 26.000
53.32480 32.000
53.34475 35.000
53.36469 31.000
53.38464 27.000
53.40459 35.000
53.42454 23.000
53.44448 30.000
53.46443 26.000
53.48438 24.000
53.50432 31.000
53.52427 25.000
53.54422 32.000
53.56416 26.000
53.58411 25.000
53.60406 31.000
53.62401 34.000
53.64395 31.000
53.66390 31.000
53.68385 20.000
53.70379 22.000
53.72374 29.000
53.74369 27.000
53.76363 32.000
53.78358 22.000
53.80353 24.000
53.82348 35.000
53.84342 27.000
53.86337 34.000
53.88332 31.000
53.90326 32.000
53.92321 28.000
53.94316 18.000
53.96310 27.000
53.98305 23.000
54.00300 24.000
54.02294 26.000
54.04289 26.000
54.06284 34.000
54.08279 20.000
54.10273 23.000
54.12268 29.000
54.14263 22.000
54.16257 27.000
54.18252 22.000
54.20247 22.000
54.22241 35.000
54.24236 26.000
54.26231 18.000
54.28226 23.000
54.30220 30.000
54.32215 26.000
54.34210 30.000
54.36204 27.000
54.38199 28.000
54.40194 24.000
54.42188 32.000
54.44183 25.000
54.46178 30.000
54.48172 25.000
54.50167 34.000
54.52162 33.000
54.54157 24.000
54.56151 28.000
54.58146 30.000
54.60141 26.000
54.62135 34.000
54.64130 27.000
54.66125 27.000
54.68119 29.000
54.70114 38.000
54.72109 22.000
54.74104 23.000
54.76098 21.000
54.78093 27.000
54.80088 32.000
54.82082 21.000
54.84077 19.000
54.86072 22.000
54.88066 28.000
54.90061 31.000
54.92056 24.000
54.94050 28.000
54.96045 18.000
54.98040 32.000
55.00035 24.000
55.02029 31.000
55.04024 22.000
55.06019 21.000
55.08013 19.000
55.10008 33.000
55.12003 21.000
55.13997 22.000
55.15992 34.000
55.17987 23.000
55.19982 29.000
55.21976 31.000
55.23971 24.000
55.25966 30.000
55.27960 26.000
55.29955 24.000
55.31950 24.000
55.33944 27.000
55.35939 25.000
55.37934 27.000
55.39929 34.000
55.41923 17.000
55.43918 32.000
55.45913 23.000
55.47907 40.000
55.49902 32.000
55.51897 25.000
55.53891 23.000
55.55886 34.000
55.57881 29.000
55.59875 19.000
55.61870 26.000
55.63865 18.000
55.65860 31.000
55.67854 33.000
55.69849 23.000
55.71844 29.000
55.73838 35.000
55.75833 26.000
55.77828 26.000
55.79822 21.000
55.81817 27.000
55.83812 30.000
55.85807 21.000
55.87801 34.000
55.89796 35.000
55.91791 22.000
55.93785 38.000
55.95780 28.000
55.97775 37.000
55.99769 30.000
56.01764 44.000
56.03759 39.000
56.05753 31.000
56.07748 40.000
56.09743 61.000
56.11738 50.000
56.13732 59.000
56.15727 66.000
56.17722 81.000
56.19716 73.000
56.21711 80.000
56.23706 106.000
56.25700 83.000
56.27695 80.000
56.29690 81.000
56.31685 73.000
56.33679 71.000
56.35674 48.000
56.37669 55.000
56.39663 75.000
56.41658 63.000
56.43653 58.000
56.45647 51.000
56.47642 43.000
56.49637 51.000
56.51631 42.000
56.53626 41.000
56.55621 36.000
56.57616 31.000
56.59610 30.000
56.61605 36.000
56.63600 36.000
56.65594 32.000
56.67589 36.000
56.69584 17.000
56.71578 29.000
56.73573 28.000
56.75568 27.000
56.77563 18.000
56.79557 17.000
56.81552 29.000
56.83547 30.000
56.85541 25.000
56.87536 26.000
56.89531 38.000
56.91525 20.000
56.93520 23.000
56.95515 29.000
56.97510 30.000
56.99504 30.000
57.01499 25.000
57.03494 27.000
57.05488 28.000
57.07483 24.000
57.09478 25.000
57.11472 25.000
57.13467 26.000
57.15462 27.000
57.17456 20.000
57.19451 28.000
57.21446 25.000
57.23441 28.000
57.25435 34.000
57.27430 28.000
57.29425 26.000
57.31419 30.000
57.33414 28.000
57.35409 29.000
57.37403 17.000
57.39398 29.000
57.41393 32.000
57.43388 27.000
57.45382 24.000
57.47377 24.000
57.49372 29.000
57.51366 31.000
57.53361 15.000
57.55356 23.000
57.57350 27.000
57.59345 22.000
57.61340 31.000
57.63334 23.000
57.65329 19.000
57.67324 21.000
57.69319 27.000
57.71313 26.000
57.73308 23.000
57.75303 27.000
57.77297 36.000
57.79292 21.000
57.81287 25.000
57.83281 30.000
57.85276 21.000
57.87271 23.000
57.89266 19.000
57.91260 30.000
57.93255 25.000
57.95250 26.000
57.97244 15.000
57.99239 28.000
58.01234 24.000
58.03228 24.000
58.05223 27.000
58.07218 26.000
58.09212 31.000
58.11207 27.000
58.13202 18.000
58.15197 27.000
58.17191 37.000
58.19186 24.000
58.21181 23.000
58.23175 26.000
58.25170 34.000
58.27165 22.000
58.29159 28.000
58.31154 25.000
58.33149 24.000
58.35144 26.000
58.37138 31.000
58.39133 37.000
58.41128 31.000
58.43122 31.000
58.45117 25.000
58.47112 26.000
58.49106 31.000
58.51101 25.000
58.53096 22.000
58.55090 30.000
58.57085 27.000
58.59080 29.000
58.61075 25.000
58.63069 28.000
58.65064 31.000
58.67059 22.000
58.69053 23.000
58.71048 26.000
58.73043 25.000
58.75037 29.000
58.77032 31.000
58.79027 29.000
58.81022 24.000
58.83016 26.000
58.85011 22.000
58.87006 26.000
58.89000 30.000
58.90995 21.000
58.92990 25.000
58.94984 27.000
58.96979 27.000
58.98974 29.000
59.00969 29.000
59.02963 32.000
59.04958 24.000
59.06953 28.000
59.08947 29.000
59.10942 24.000
59.12937 26.000
59.14931 30.000
59.16926 18.000
59.18921 38.000
59.20915 24.000
59.22910 20.000
59.24905 32.000
59.26900 41.000
59.28894 24.000
59.30889 34.000
59.32884 30.000
59.34878 22.000
59.36873 30.000
59.38868 28.000
59.40862 26.000
59.42857 27.000
59.44852 41.000
59.46847 35.000
59.48841 24.000
59.50836 29.000
59.52831 18.000
59.54825 26.000
59.56820 33.000
59.58815 24.000
59.60809 35.000
59.62804 30.000
59.64799 28.000
59.66793 36.000
59.68788 31.000
59.70783 25.000
59.72778 32.000
59.74772 26.000
59.76767 30.000
59.78762 32.000
59.80756 25.000
59.82751 32.000
59.84746 31.000
59.86740 28.000
59.88735 35.000
59.90730 29.000
59.92725 23.000
59.94719 28.000
59.96714 22.000
59.98709 24.000
60.00703 44.000
60.02698 26.000
60.04693 35.000
60.06687 32.000
60.08682 23.000
60.10677 43.000
60.12671 27.000
60.14666 21.000
60.16661 29.000
60.18656 30.000
60.20650 26.000
60.22645 32.000
60.24640 31.000
60.26634 32.000
60.28629 33.000
60.30624 28.000
60.32618 40.000
60.34613 38.000
60.36608 33.000
60.38603 34.000
60.40597 28.000
60.42592 42.000
60.44587 37.000
60.46581 30.000
60.48576 30.000
60.50571 41.000
60.52565 27.000
60.54560 36.000
60.56555 32.000
60.58550 35.000
60.60544 25.000
60.62539 36.000
60.64534 43.000
60.66528 44.000
60.68523 31.000
60.70518 32.000
60.72512 49.000
60.74507 38.000
60.76502 32.000
60.78496 35.000
60.80491 44.000
60.82486 45.000
60.84481 52.000
60.86475 39.000
60.88470 28.000
60.90465 43.000
60.92459 55.000
60.94454 54.000
60.96449 46.000
60.98443 47.000
61.00438 45.000
61.02433 56.000
61.04428 62.000
61.06422 68.000
61.08417 69.000
61.10412 62.000
61.12406 90.000
61.14401 81.000
61.16396 76.000
61.18390 101.000
61.20385 108.000
61.22380 115.000
61.24374 109.000
61.26369 126.000
61.28364 167.000
61.30359 172.000
61.32353 211.000
61.34348 303.000
61.36343 347.000
61.38337 427.000
61.40332 521.000
61.42327 550.000
61.44321 461.000
61.46316 410.000
61.48311 381.000
61.50306 350.000
61.52300 328.000
61.54295 344.000
61.56290 337.000
61.58284 364.000
61.60279 343.000
61.62274 320.000
61.64268 288.000
61.66263 244.000
61.68258 221.000
61.70252 186.000
61.72247 185.000
61.74242 170.000
61.76237 161.000
61.78231 172.000
61.80226 163.000
61.82221 153.000
61.84215 148.000
61.86210 143.000
61.88205 125.000
61.90199 112.000
61.92194 97.000
61.94189 108.000
61.96184 105.000
61.98178 80.000
62.00173 92.000
62.02168 85.000
62.04162 85.000
62.06157 78.000
62.08152 64.000
62.10146 63.000
62.12141 52.000
62.14136 36.000
62.16131 55.000
62.18125 53.000
62.20120 58.000
62.22115 45.000
62.24109 45.000
62.26104 45.000
62.28099 51.000
62.30093 46.000
62.32088 48.000
62.34083 47.000
62.36077 37.000
62.38072 41.000
62.40067 43.000
62.42062 38.000
62.44056 40.000
62.46051 30.000
62.48046 44.000
62.50040 39.000
62.52035 41.000
62.54030 37.000
62.56024 32.000
62.58019 36.000
62.60014 33.000
62.62009 50.000
62.64003 41.000
62.65998 27.000
62.67993 27.000
62.69987 40.000
62.71982 49.000
62.73977 34.000
62.75971 35.000
62.77966 36.000
62.79961 42.000
62.81955 27.000
62.83950 32.000
62.85945 43.000
62.87940 48.000
62.89934 50.000
62.91929 41.000
62.93924 39.000
62.95918 36.000
62.97913 33.000
62.99908 36.000
63.01902 44.000
63.03897 50.000
63.05892 39.000
63.07887 38.000
63.09881 33.000
63.11876 38.000
63.13871 42.000
63.15865 49.000
63.17860 38.000
63.19855 46.000
63.21849 52.000
63.23844 32.000
63.25839 46.000
63.27833 37.000
63.29828 52.000
63.31823 46.000
63.33818 56.000
63.35812 64.000
63.37807 67.000
63.39802 62.000
63.41796 67.000
63.43791 73.000
63.45786 90.000
63.47780 98.000
63.49775 105.000
63.51770 137.000
63.53765 156.000
63.55759 204.000
63.57754 229.000
63.59749 231.000
63.61743 295.000
63.63738 238.000
63.65733 245.000
63.67727 246.000
63.69722 243.000
63.71717 258.000
63.73712 269.000
63.75706 285.000
63.77701 264.000
63.79696 249.000
63.81690 249.000
63.83685 232.000
63.85680 195.000
63.87674 195.000
63.89669 180.000
63.91664 145.000
63.93658 142.000
63.95653 133.000
63.97648 113.000
63.99643 106.000
64.01637 101.000
64.03632 105.000
64.05627 87.000
64.07621 74.000
64.09616 88.000
64.11611 79.000
64.13605 64.000
64.15600 89.000
64.17595 48.000
64.19590 41.000
64.21584 55.000
64.23579 56.000
64.25574 55.000
64.27568 41.000
64.29563 45.000
64.31558 41.000
64.33552 38.000
64.35547 44.000
64.37542 47.000
64.39536 49.000
64.41531 30.000
64.43526 38.000
64.45521 40.000
64.47515 33.000
64.49510 27.000
64.51505 37.000
64.53499 32.000
64.55494 40.000
64.57489 36.000
64.59483 35.000
64.61478 42.000
64.63473 40.000
64.65468 34.000
64.67462 37.000
64.69457 27.000
64.71452 30.000
64.73446 31.000
64.75441 41.000
64.77436 33.000
64.79430 45.000
64.81425 35.000
64.83420 48.000
64.85414 40.000
64.87409 31.000
64.89404 26.000
64.91399 41.000
64.93393 43.000
64.95388 35.000
64.97383 38.000
64.99377 32.000
65.01372 37.000
65.03367 31.000
65.05361 36.000
65.07356 25.000
65.09351 23.000
65.11346 31.000
65.13340 33.000
65.15335 29.000
65.17330 32.000
65.19324 39.000
65.21319 29.000
65.23314 34.000
65.25308 40.000
65.27303 32.000
65.29298 37.000
65.31293 27.000
65.33287 41.000
65.35282 25.000
65.37277 42.000
65.39271 28.000
65.41266 34.000
65.43261 30.000
65.45255 29.000
65.47250 30.000
65.49245 26.000
65.51239 36.000
65.53234 30.000
65.55229 29.000
65.57224 37.000
65.59218 38.000
65.61213 43.000
65.63208 43.000
65.65202 37.000
65.67197 41.000
65.69192 49.000
65.71186 45.000
65.73181 39.000
65.75176 49.000
65.77171 54.000
65.79165 54.000
65.81160 56.000
65.83155 87.000
65.85149 83.000
65.87144 101.000
65.89139 126.000
65.91133 136.000
65.93128 170.000
65.95123 194.000
65.97117 193.000
65.99112 190.000
66.01107 220.000
66.03102 207.000
66.05096 205.000
66.07091 227.000
66.09086 200.000
66.11080 232.000
66.13075 230.000
66.15070 232.000
66.17064 230.000
66.19059 173.000
66.21054 238.000
66.23049 199.000
66.25043 199.000
66.27038 191.000
66.29033 156.000
66.31027 159.000
66.33022 135.000
66.35017 132.000
66.37011 131.000
66.39006 119.000
66.41001 115.000
66.42995 80.000
66.44990 96.000
66.46985 67.000
66.48980 72.000
66.50974 57.000
66.52969 62.000
66.54964 47.000
66.56958 67.000
66.58953 55.000
66.60948 42.000
66.62942 39.000
66.64937 36.000
66.66932 43.000
66.68927 37.000
66.70921 38.000
66.72916 46.000
66.74911 34.000
66.76905 35.000
66.78900 28.000
66.80895 24.000
66.82889 34.000
66.84884 33.000
66.86879 33.000
66.88874 24.000
66.90868 27.000
66.92863 30.000
66.94858 28.000
66.96852 36.000
66.98847 16.000
67.00842 28.000
67.02836 30.000
67.04831 27.000
67.06826 26.000
67.08820 26.000
67.10815 32.000
67.12810 31.000
67.14805 24.000
67.16799 26.000
67.18794 36.000
67.20789 27.000
67.22783 24.000
67.24778 27.000
67.26773 28.000
67.28767 25.000
67.30762 20.000
67.32757 32.000
67.34752 18.000
67.36746 27.000
67.38741 26.000
67.40736 34.000
67.42730 27.000
67.44725 21.000
67.46720 33.000
67.48714 20.000
67.50709 24.000
67.52704 37.000
67.54698 20.000
67.56693 32.000
67.58688 22.000
67.60683 17.000
67.62677 22.000
67.64672 19.000
67.66667 31.000
67.68661 27.000
67.70656 16.000
67.72651 32.000
67.74645 22.000
67.76640 31.000
67.78635 17.000
67.80630 21.000
67.82624 34.000
67.84619 24.000
67.86614 27.000
67.88608 17.000
67.90603 22.000
67.92598 18.000
67.94592 16.000
67.96587 23.000
67.98582 20.000
68.00576 19.000
68.02571 30.000
68.04566 19.000
68.06561 22.000
68.08555 22.000
68.10550 23.000
68.12545 31.000
68.14539 25.000
68.16534 22.000
68.18529 24.000
68.20523 29.000
68.22518 20.000
68.24513 14.000
68.26508 23.000
68.28502 15.000
68.30497 20.000
68.32492 21.000
68.34486 24.000
68.36481 32.000
68.38476 29.000
68.40470 19.000
68.42465 14.000
68.44460 19.000
68.46455 21.000
68.48449 26.000
68.50444 24.000
68.52439 15.000
68.54433 26.000
68.56428 24.000
68.58423 32.000
68.60417 19.000
68.62412 24.000
68.64407 29.000
68.66401 14.000
68.68396 20.000
68.70391 27.000
68.72386 20.000
68.74380 32.000
68.76375 14.000
68.78370 19.000
68.80364 23.000
68.82359 27.000
68.84354 27.000
68.86348 30.000
68.88343 23.000
68.90338 24.000
68.92333 27.000
68.94327 28.000
68.96322 24.000
68.98317 17.000
69.00311 29.000
69.02306 23.000
69.04301 35.000
69.06295 17.000
69.08290 33.000
69.10285 33.000
69.12279 25.000
69.14274 27.000
69.16269 23.000
69.18264 30.000
69.20258 28.000
69.22253 28.000
69.24248 27.000
69.26242 17.000
69.28237 20.000
69.30232 23.000
69.32226 25.000
69.34221 17.000
69.36216 25.000
69.38211 24.000
69.40205 16.000
69.42200 31.000
69.44195 18.000
69.46189 23.000
69.48184 16.000
69.50179 20.000
69.52173 27.000
69.54168 23.000
69.56163 15.000
69.58157 20.000
69.60152 17.000
69.62147 21.000
69.64142 26.000
69.66136 24.000
69.68131 24.000
69.70126 15.000
69.72120 22.000
69.74115 22.000
69.76110 26.000
69.78104 17.000
69.80099 16.000
69.82094 21.000
69.84089 26.000
69.86083 25.000
69.88078 23.000
69.90073 23.000
69.92067 23.000
69.94062 11.000
69.96057 16.000
69.98051 23.000
70.00046 22.000
70.02041 17.000
70.04035 29.000
70.06030 25.000
70.08025 28.000
70.10020 35.000
70.12014 25.000
70.14009 18.000
70.16004 26.000
70.17998 31.000
70.19993 19.000
70.21988 29.000
70.23982 17.000
70.25977 19.000
70.27972 18.000
70.29967 26.000
70.31961 18.000
70.33956 13.000
70.35951 20.000
70.37945 24.000
70.39940 28.000
70.41935 26.000
70.43929 26.000
70.45924 20.000
70.47919 29.000
70.49914 17.000
70.51908 18.000
70.53903 22.000
70.55898 21.000
70.57892 17.000
70.59887 17.000
70.61882 16.000
70.63876 19.000
70.65871 22.000
70.67866 19.000
70.69860 22.000
70.71855 18.000
70.73850 13.000
70.75845 11.000
70.77839 23.000
70.79834 21.000
70.81829 22.000
70.83823 28.000
70.85818 14.000
70.87813 22.000
70.89807 16.000
70.91802 8.000
70.93797 16.000
70.95792 23.000
70.97786 20.000
70.99781 20.000
71.01776 27.000
71.03770 13.000
71.05765 22.000
71.07760 26.000
71.09754 19.000
71.11749 32.000
71.13744 28.000
71.15738 9.000
71.17733 26.000
71.19728 16.000
71.21723 20.000
71.23717 18.000
71.25712 21.000
71.27707 19.000
71.29701 25.000
71.31696 24.000
71.33691 19.000
71.35685 21.000
71.37680 13.000
71.39675 15.000
71.41670 20.000
71.43664 24.000
71.45659 15.000
71.47654 16.000
71.49648 17.000
71.51643 25.000
71.53638 26.000
71.55632 19.000
71.57627 19.000
71.59622 16.000
71.61616 14.000
71.63611 22.000
71.65606 24.000
71.67601 26.000
71.69595 19.000
71.71590 22.000
71.73585 25.000
71.75579 12.000
71.77574 27.000
71.79569 24.000
71.81563 8.000
71.83558 30.000
71.85553 15.000
71.87548 14.000
71.89542 29.000
71.91537 14.000
71.93532 12.000
71.95526 18.000
71.97521 19.000
71.99516 25.000
72.01510 21.000
72.03505 30.000
72.05500 21.000
72.07495 28.000
72.09489 23.000
72.11484 25.000
72.13479 28.000
72.15473 31.000
72.17468 23.000
72.19463 20.000
72.21457 21.000
72.23452 26.000
72.25447 29.000
72.27441 25.000
72.29436 29.000
72.31431 31.000
72.33426 27.000
72.35420 38.000
72.37415 19.000
72.39410 25.000
72.41404 25.000
72.43399 35.000
72.45394 17.000
72.47388 23.000
72.49383 26.000
72.51378 31.000
72.53373 18.000
72.55367 27.000
72.57362 31.000
72.59357 34.000
72.61351 28.000
72.63346 29.000
72.65341 46.000
72.67335 46.000
72.69330 45.000
72.71325 55.000
72.73319 64.000
72.75314 53.000
72.77309 63.000
72.79304 84.000
72.81298 101.000
72.83293 80.000
72.85288 117.000
72.87282 123.000
72.89277 123.000
72.91272 119.000
72.93266 89.000
72.95261 110.000
72.97256 104.000
72.99251 104.000
73.01245 103.000
73.03240 104.000
73.05235 97.000
73.07229 89.000
73.09224 95.000
73.11219 82.000
73.13213 81.000
73.15208 64.000
73.17203 84.000
73.19197 62.000
73.21192 47.000
73.23187 53.000
73.25182 51.000
73.27176 41.000
73.29171 43.000
73.31166 41.000
73.33160 33.000
73.35155 37.000
73.37150 28.000
73.39144 28.000
73.41139 39.000
73.43134 28.000
73.45129 26.000
73.47123 36.000
73.49118 20.000
73.51113 27.000
73.53107 24.000
73.55102 28.000
73.57097 20.000
73.59091 29.000
73.61086 27.000
73.63081 19.000
73.65076 25.000
73.67070 26.000
73.69065 24.000
73.71060 27.000
73.73054 22.000
73.75049 34.000
73.77044 32.000
73.79038 27.000
73.81033 28.000
73.83028 31.000
73.85022 27.000
73.87017 30.000
73.89012 29.000
73.91007 28.000
73.93001 27.000
73.94996 29.000
73.96991 22.000
73.98985 30.000
74.00980 32.000
74.02975 34.000
74.04969 24.000
74.06964 31.000
74.08959 20.000
74.10954 24.000
74.12948 27.000
74.14943 20.000
74.16938 31.000
74.18932 24.000
74.20927 17.000
74.22922 27.000
74.24916 19.000
74.26911 24.000
74.28906 28.000
74.30900 32.000
74.32895 26.000
74.34890 18.000
74.36885 24.000
74.38879 28.000
74.40874 27.000
74.42869 21.000
74.44863 21.000
74.46858 23.000
74.48853 20.000
74.50847 26.000
74.52842 28.000
74.54837 18.000
74.56832 24.000
74.58826 18.000
74.60821 22.000
74.62816 34.000
74.64810 25.000
74.66805 24.000
74.68800 25.000
74.70794 27.000
74.72789 27.000
74.74784 19.000
74.76778 24.000
74.78773 26.000
74.80768 26.000
74.82763 24.000
74.84757 27.000
74.86752 36.000
74.88747 35.000
74.90741 32.000
74.92736 58.000
74.94731 36.000
74.96725 54.000
74.98720 61.000
75.00715 44.000
75.02710 43.000
75.04704 40.000
75.06699 41.000
75.08694 50.000
75.10688 44.000
75.12683 47.000
75.14678 38.000
75.16672 56.000
75.18667 56.000
75.20662 44.000
75.22657 36.000
75.24651 38.000
75.26646 45.000
75.28641 38.000
75.30635 34.000
75.32630 38.000
75.34625 31.000
75.36619 44.000
75.38614 20.000
75.40609 29.000
75.42603 34.000
75.44598 33.000
75.46593 26.000
75.48588 21.000
75.50582 28.000
75.52577 28.000
75.54572 23.000
75.56566 30.000
75.58561 18.000
75.60556 21.000
75.62550 27.000
75.64545 23.000
75.66540 21.000
75.68535 24.000
75.70529 24.000
75.72524 25.000
75.74519 18.000
75.76513 20.000
75.78508 23.000
75.80503 21.000
75.82497 30.000
75.84492 18.000
75.86487 25.000
75.88481 24.000
75.90476 21.000
75.92471 23.000
75.94466 30.000
75.96460 20.000
75.98455 19.000
76.00450 17.000
76.02444 22.000
76.04439 22.000
76.06434 19.000
76.08428 22.000
76.10423 18.000
76.12418 28.000
76.14413 23.000
76.16407 18.000
76.18402 26.000
76.20397 17.000
76.22391 17.000
76.24386 17.000
76.26381 19.000
76.28375 26.000
76.30370 22.000
76.32365 19.000
76.34359 29.000
76.36354 20.000
76.38349 18.000
76.40344 24.000
76.42338 14.000
76.44333 23.000
76.46328 26.000
76.48322 20.000
76.50317 12.000
76.52312 15.000
76.54306 22.000
76.56301 27.000
76.58296 25.000
76.60291 30.000
76.62285 18.000
76.64280 33.000
76.66275 28.000
76.68269 28.000
76.70264 29.000
76.72259 31.000
76.74253 27.000
76.76248 28.000
76.78243 28.000
76.80238 28.000
76.82232 28.000
76.84227 25.000
76.86222 27.000
76.88216 33.000
76.90211 28.000
76.92206 37.000
76.94200 34.000
76.96195 45.000
76.98190 49.000
77.00184 44.000
77.02179 47.000
77.04174 61.000
77.06169 49.000
77.08163 60.000
77.10158 78.000
77.12153 87.000
77.14147 87.000
77.16142 105.000
77.18137 107.000
77.20131 86.000
77.22126 102.000
77.24121 99.000
77.26116 111.000
77.28110 111.000
77.30105 127.000
77.32100 138.000
77.34094 143.000
77.36089 125.000
77.38084 155.000
77.40078 181.000
77.42073 151.000
77.44068 177.000
77.46062 185.000
77.48057 172.000
77.50052 172.000
77.52047 202.000
77.54041 154.000
77.56036 150.000
77.58031 140.000
77.60025 137.000
77.62020 127.000
77.64015 96.000
77.66009 124.000
77.68004 88.000
77.69999 90.000
77.71994 83.000
77.73988 91.000
77.75983 76.000
77.77978 69.000
77.79972 72.000
77.81967 73.000
77.83962 45.000
77.85956 63.000
77.87951 45.000
77.89946 58.000
77.91940 40.000
77.93935 39.000
77.95930 32.000
77.97925 47.000
77.99919 36.000
78.01914 40.000
78.03909 45.000
78.05903 26.000
78.07898 26.000
78.09893 32.000
78.11887 33.000
78.13882 30.000
78.15877 18.000
78.17872 21.000
78.19866 33.000
78.21861 28.000
78.23856 21.000
78.25850 26.000
78.27845 30.000
78.29840 21.000
78.31834 19.000
78.33829 20.000
78.35824 18.000
78.37819 25.000
78.39813 23.000
78.41808 23.000
78.43803 14.000
78.45797 19.000
78.47792 15.000
78.49787 25.000
78.51781 12.000
78.53776 23.000
78.55771 23.000
78.57765 26.000
78.59760 31.000
78.61755 17.000
78.63750 13.000
78.65744 29.000
78.67739 19.000
78.69734 14.000
78.71728 20.000
78.73723 14.000
78.75718 15.000
78.77712 25.000
78.79707 25.000
78.81702 26.000
78.83697 17.000
78.85691 17.000
78.87686 17.000
78.89681 25.000
78.91675 17.000
78.93670 20.000
78.95665 23.000
78.97659 24.000
78.99654 17.000
79.01649 22.000
79.03643 24.000
79.05638 30.000
79.07633 26.000
79.09628 18.000
79.11622 13.000
79.13617 22.000
79.15612 17.000
79.17606 13.000
79.19601 15.000
79.21596 18.000
79.23590 25.000
79.25585 21.000
79.27580 15.000
79.29575 21.000
79.31569 19.000
79.33564 19.000
79.35559 10.000
79.37553 14.000
79.39548 21.000
79.41543 15.000
79.43537 23.000
79.45532 22.000
79.47527 20.000
79.49521 19.000
79.51516 23.000
79.53511 14.000
79.55506 15.000
79.57500 18.000
79.59495 17.000
79.61490 18.000
79.63484 15.000
79.65479 28.000
79.67474 29.000
79.69468 19.000
79.71463 26.000
79.73458 26.000
79.75453 17.000
79.77447 20.000
79.79442 14.000
79.81437 15.000
79.83431 34.000
79.85426 24.000
79.87421 26.000
79.89415 30.000
79.91410 32.000
79.93405 18.000
79.95399 33.000
79.97394 30.000
79.99389 27.000
80.01384 35.000
80.03378 27.000
80.05373 21.000
80.07368 40.000
80.09362 25.000
80.11357 26.000
80.13352 38.000
80.15346 31.000
80.17341 29.000
80.19336 22.000
80.21331 23.000
80.23325 14.000
80.25320 19.000
80.27315 38.000
80.29309 26.000
80.31304 24.000
80.33299 13.000
80.35293 35.000
80.37288 17.000
80.39283 21.000
80.41278 22.000
80.43272 22.000
80.45267 17.000
80.47262 29.000
80.49256 20.000
80.51251 18.000
80.53246 16.000
80.55240 17.000
80.57235 15.000
80.59230 28.000
80.61224 23.000
80.63219 25.000
80.65214 23.000
80.67209 25.000
80.69203 25.000
80.71198 19.000
80.73193 26.000
80.75187 19.000
80.77182 24.000
80.79177 18.000
80.81171 22.000
80.83166 20.000
80.85161 20.000
80.87156 18.000
80.89150 18.000
80.91145 19.000
80.93140 19.000
80.95134 24.000
80.97129 15.000
80.99124 25.000
81.01118 11.000
81.03113 17.000
81.05108 27.000
81.07102 13.000
81.09097 20.000
81.11092 16.000
81.13087 18.000
81.15081 14.000
81.17076 13.000
81.19071 14.000
81.21065 15.000
81.23060 19.000
81.25055 17.000
81.27049 15.000
81.29044 13.000
81.31039 18.000
81.33034 19.000
81.35028 14.000
81.37023 14.000
81.39018 17.000
81.41012 18.000
81.43007 21.000
81.45002 19.000
81.46996 16.000
81.48991 18.000
81.50986 17.000
81.52980 12.000
81.54975 22.000
81.56970 18.000
81.58965 15.000
81.60959 19.000
81.62954 12.000
81.64949 21.000
81.66943 12.000
81.68938 16.000
81.70933 19.000
81.72927 14.000
81.74922 19.000
81.76917 11.000
81.78912 26.000
81.80906 17.000
81.82901 20.000
81.84896 20.000
81.86890 15.000
81.88885 14.000
81.90880 16.000
81.92874 21.000
81.94869 18.000
81.96864 18.000
81.98859 11.000
82.00853 14.000
82.02848 19.000
82.04843 19.000
82.06837 15.000
82.08832 22.000
82.10827 15.000
82.12821 19.000
82.14816 15.000
82.16811 19.000
82.18805 25.000
82.20800 21.000
82.22795 24.000
82.24790 13.000
82.26784 18.000
82.28779 25.000
82.30774 13.000
82.32768 17.000
82.34763 26.000
82.36758 18.000
82.38752 13.000
82.40747 17.000
82.42742 15.000
82.44737 12.000
82.46731 15.000
82.48726 23.000
82.50721 15.000
82.52715 20.000
82.54710 16.000
82.56705 20.000
82.58699 14.000
82.60694 21.000
82.62689 20.000
82.64683 15.000
82.66678 23.000
82.68673 17.000
82.70668 16.000
82.72662 18.000
82.74657 17.000
82.76652 11.000
82.78646 17.000
82.80641 20.000
82.82636 20.000
82.84630 20.000
82.86625 25.000
82.88620 32.000
82.90615 16.000
82.92609 25.000
82.94604 19.000
82.96599 22.000
82.98593 13.000
83.00588 14.000
83.02583 22.000
83.04577 18.000
83.06572 16.000
83.08567 28.000
83.10561 19.000
83.12556 20.000
83.14551 23.000
83.16546 15.000
83.18540 20.000
83.20535 22.000
83.22530 15.000
83.24524 21.000
83.26519 24.000
83.28514 23.000
83.30508 29.000
83.32503 25.000
83.34498 25.000
83.36493 36.000
83.38487 28.000
83.40482 31.000
83.42477 31.000
83.44471 32.000
83.46466 34.000
83.48461 36.000
83.50455 32.000
83.52450 31.000
83.54445 50.000
83.56440 41.000
83.58434 55.000
83.60429 62.000
83.62424 83.000
83.64418 71.000
83.66413 87.000
83.68408 92.000
83.70402 103.000
83.72397 105.000
83.74392 108.000
83.76386 86.000
83.78381 93.000
83.80376 110.000
83.82371 93.000
83.84365 89.000
83.86360 90.000
83.88355 93.000
83.90349 88.000
83.92344 97.000
83.94339 76.000
83.96333 77.000
83.98328 67.000
84.00323 89.000
84.02318 95.000
84.04312 61.000
84.06307 69.000
84.08302 70.000
84.10296 46.000
84.12291 55.000
84.14286 54.000
84.16280 32.000
84.18275 55.000
84.20270 49.000
84.22264 44.000
84.24259 26.000
84.26254 45.000
84.28249 31.000
84.30243 44.000
84.32238 26.000
84.34233 31.000
84.36227 22.000
84.38222 31.000
84.40217 26.000
84.42211 17.000
84.44206 22.000
84.46201 25.000
84.48196 32.000
84.50190 27.000
84.52185 18.000
84.54180 21.000
84.56174 28.000
84.58169 14.000
84.60164 21.000
84.62158 19.000
84.64153 26.000
84.66148 19.000
84.68142 15.000
84.70137 15.000
84.72132 26.000
84.74127 21.000
84.76121 19.000
84.78116 18.000
84.80111 18.000
84.82105 22.000
84.84100 24.000
84.86095 20.000
84.88089 19.000
84.90084 25.000
84.92079 22.000
84.94074 24.000
84.96068 20.000
84.98063 23.000
85.00058 13.000
85.02052 15.000
85.04047 13.000
85.06042 14.000
85.08036 13.000
85.10031 17.000
85.12026 27.000
85.14021 24.000
85.16015 22.000
85.18010 21.000
85.20005 22.000
85.21999 11.000
85.23994 21.000
85.25989 14.000
85.27983 20.000
85.29978 19.000
85.31973 18.000
85.33967 21.000
85.35962 25.000
85.37957 13.000
85.39952 27.000
85.41946 20.000
85.43941 24.000
85.45936 17.000
85.47930 22.000
85.49925 18.000
85.51920 19.000
85.53914 23.000
85.55909 29.000
85.57904 14.000
85.59899 19.000
85.61893 26.000
85.63888 17.000
85.65883 20.000
85.67877 20.000
85.69872 21.000
85.71867 22.000
85.73861 26.000
85.75856 28.000
85.77851 29.000
85.79845 18.000
85.81840 21.000
85.83835 23.000
85.85830 17.000
85.87824 22.000
85.89819 25.000
85.91814 21.000
85.93808 31.000
85.95803 17.000
85.97798 25.000
85.99792 27.000
86.01787 27.000
86.03782 34.000
86.05777 21.000
86.07771 29.000
86.09766 30.000
86.11761 19.000
86.13755 29.000
86.15750 32.000
86.17745 31.000
86.19739 30.000
86.21734 36.000
86.23729 34.000
86.25723 34.000
86.27718 36.000
86.29713 29.000
86.31708 23.000
86.33702 31.000
86.35697 29.000
86.37692 30.000
86.39686 29.000
86.41681 36.000
86.43676 23.000
86.45670 31.000
86.47665 30.000
86.49660 36.000
86.51655 24.000
86.53649 19.000
86.55644 28.000
86.57639 32.000
86.59633 37.000
86.61628 34.000
86.63623 23.000
86.65617 33.000
86.67612 31.000
86.69607 28.000
86.71602 32.000
86.73596 31.000
86.75591 18.000
86.77586 21.000
86.79580 28.000
86.81575 18.000
86.83570 21.000
86.85564 26.000
86.87559 17.000
86.89554 28.000
86.91548 24.000
86.93543 24.000
86.95538 28.000
86.97533 28.000
86.99527 22.000
87.01522 26.000
87.03517 12.000
87.05511 17.000
87.07506 18.000
87.09501 13.000
87.11495 21.000
87.13490 15.000
87.15485 20.000
87.17480 12.000
87.19474 16.000
87.21469 20.000
87.23464 17.000
87.25458 14.000
87.27453 17.000
87.29448 18.000
87.31442 17.000
87.33437 23.000
87.35432 15.000
87.37426 19.000
87.39421 20.000
87.41416 8.000
87.43411 20.000
87.45405 20.000
87.47400 13.000
87.49395 19.000
87.51389 10.000
87.53384 20.000
87.55379 14.000
87.57373 19.000
87.59368 13.000
87.61363 17.000
87.63358 16.000
87.65352 16.000
87.67347 9.000
87.69342 21.000
87.71336 17.000
87.73331 27.000
87.75326 20.000
87.77320 17.000
87.79315 17.000
87.81310 19.000
87.83304 20.000
87.85299 14.000
87.87294 26.000
87.89289 14.000
87.91283 10.000
87.93278 24.000
87.95273 20.000
87.97267 19.000
87.99262 23.000
88.01257 18.000
88.03251 15.000
88.05246 21.000
88.07241 21.000
88.09236 22.000
88.11230 21.000
88.13225 25.000
88.15220 29.000
88.17214 20.000
88.19209 23.000
88.21204 33.000
88.23198 31.000
88.25193 28.000
88.27188 31.000
88.29183 37.000
88.31177 39.000
88.33172 36.000
88.35167 28.000
88.37161 36.000
88.39156 29.000
88.41151 23.000
88.43145 29.000
88.45140 37.000
88.47135 26.000
88.49129 25.000
88.51124 31.000
88.53119 31.000
88.55114 27.000
88.57108 22.000
88.59103 31.000
88.61098 17.000
88.63092 23.000
88.65087 24.000
88.67082 20.000
88.69076 21.000
88.71071 16.000
88.73066 20.000
88.75061 18.000
88.77055 22.000
88.79050 24.000
88.81045 21.000
88.83039 17.000
88.85034 13.000
88.87029 19.000
88.89023 23.000
88.91018 27.000
88.93013 13.000
88.95007 21.000
88.97002 18.000
88.98997 13.000
89.00992 14.000
89.02986 15.000
89.04981 10.000
89.06976 6.000
89.08970 11.000
89.10965 9.000
89.12960 24.000
89.14954 20.000
89.16949 14.000
89.18944 23.000
89.20939 13.000
89.22933 17.000
89.24928 17.000
89.26923 23.000
89.28917 12.000
89.30912 16.000
89.32907 18.000
89.34901 15.000
89.36896 25.000
89.38891 14.000
89.40885 15.000
89.42880 11.000
89.44875 11.000
89.46870 14.000
89.48864 19.000
89.50859 12.000
89.52854 11.000
89.54848 20.000
89.56843 19.000
89.58838 16.000
89.60832 19.000
89.62827 16.000
89.64822 12.000
89.66817 17.000
89.68811 22.000
89.70806 8.000
89.72801 15.000
89.74795 14.000
89.76790 13.000
89.78785 14.000
89.80779 17.000
89.82774 14.000
89.84769 17.000
89.86764 13.000
89.88758 22.000
89.90753 11.000
89.92748 15.000
89.94742 16.000
89.96737 16.000
89.98732 11.000
90.00726 23.000
