10.00000 233.000
10.01995 253.000
10.03989 205.000
10.05984 218.000
10.07979 203.000
10.09973 243.000
10.11968 231.000
10.13963 244.000
10.15958 221.000
10.17952 239.000
10.19947 247.000
10.21942 246.000
10.23936 238.000
10.25931 237.000
10.27926 237.000
10.29920 253.000
10.31915 237.000
10.33910 226.000
10.35905 231.000
10.37899 234.000
10.39894 221.000
10.41889 224.000
10.43883 249.000
10.45878 220.000
10.47873 222.000
10.49867 230.000
10.51862 267.000
10.53857 215.000
10.55851 221.000
10.57846 230.000
10.59841 246.000
10.61836 262.000
10.63830 248.000
10.65825 262.000
10.67820 256.000
10.69814 262.000
10.71809 252.000
10.73804 236.000
10.75798 238.000
10.77793 260.000
10.79788 262.000
10.81783 240.000
10.83777 232.000
10.85772 267.000
10.87767 235.000
10.89761 225.000
10.91756 246.000
10.93751 250.000
10.95745 239.000
10.97740 248.000
10.99735 248.000
11.01730 224.000
11.03724 226.000
11.05719 239.000
11.07714 246.000
11.09708 229.000
11.11703 253.000
11.13698 227.000
11.15692 230.000
11.17687 239.000
11.19682 239.000
11.21676 248.000
11.23671 243.000
11.25666 253.000
11.27661 224.000
11.29655 242.000
11.31650 226.000
11.33645 263.000
11.35639 241.000
11.37634 229.000
11.39629 242.000
11.41623 273.000
11.43618 252.000
11.45613 232.000
11.47608 261.000
11.49602 232.000
11.51597 245.000
11.53592 251.000
11.55586 255.000
11.57581 233.000
11.59576 233.000
11.61570 223.000
11.63565 221.000
11.65560 253.000
11.67554 253.000
11.69549 230.000
11.71544 233.000
11.73539 253.000
11.75533 265.000
11.77528 254.000
11.79523 227.000
11.81517 281.000
11.83512 251.000
11.85507 277.000
11.87501 258.000
11.89496 251.000
11.91491 252.000
11.93486 225.000
11.95480 240.000
11.97475 266.000
11.99470 283.000
12.01464 242.000
12.03459 255.000
12.05454 302.000
12.07448 269.000
12.09443 240.000
12.11438 270.000
12.13432 253.000
12.15427 268.000
12.17422 292.000
12.19417 262.000
12.21411 303.000
12.23406 275.000
12.25401 274.000
12.27395 268.000
12.29390 269.000
12.31385 261.000
12.33379 277.000
12.35374 270.000
12.37369 270.000
12.39364 263.000
12.41358 293.000
12.43353 275.000
12.45348 309.000
12.47342 306.000
12.49337 297.000
12.51332 323.000
12.53326 307.000
12.55321 345.000
12.57316 326.000
12.59311 335.000
12.61305 339.000
12.63300 361.000
12.65295 380.000
12.67289 327.000
12.69284 344.000
12.71279 369.000
12.73273 323.000
12.75268 337.000
12.77263 354.000
12.79257 377.000
12.81252 344.000
12.83247 354.000
12.85242 308.000
12.87236 323.000
12.89231 353.000
12.91226 320.000
12.93220 312.000
12.95215 301.000
12.97210 324.000
12.99204 326.000
13.01199 314.000
13.03194 324.000
13.05189 308.000
13.07183 299.000
13.09178 320.000
13.11173 271.000
13.13167 290.000
13.15162 282.000
13.17157 313.000
13.19151 300.000
13.21146 288.000
13.23141 323.000
13.25135 302.000
13.27130 304.000
13.29125 269.000
13.31120 288.000
13.33114 276.000
13.35109 267.000
13.37104 293.000
13.39098 267.000
13.41093 280.000
13.43088 302.000
13.45082 291.000
13.47077 251.000
13.49072 315.000
13.51067 288.000
13.53061 281.000
13.55056 289.000
13.57051 307.000
13.59045 307.000
13.61040 299.000
13.63035 283.000
13.65029 278.000
13.67024 263.000
13.69019 310.000
13.71013 288.000
13.73008 296.000
13.75003 293.000
13.76998 278.000
13.78992 286.000
13.80987 282.000
13.82982 292.000
13.84976 282.000
13.86971 256.000
13.88966 310.000
13.90960 283.000
13.92955 285.000
13.94950 303.000
13.96945 306.000
13.98939 280.000
14.00934 275.000
14.02929 292.000
14.04923 308.000
14.06918 284.000
14.08913 292.000
14.10907 302.000
14.12902 274.000
14.14897 299.000
14.16892 259.000
14.18886 305.000
14.20881 287.000
14.22876 260.000
14.24870 287.000
14.26865 303.000
14.28860 274.000
14.30854 283.000
14.32849 286.000
14.34844 266.000
14.36838 278.000
14.38833 282.000
14.40828 287.000
14.42823 286.000
14.44817 290.000
14.46812 323.000
14.48807 295.000
14.50801 281.000
14.52796 296.000
14.54791 275.000
14.56785 295.000
14.58780 279.000
14.60775 296.000
14.62770 274.000
14.64764 280.000
14.66759 288.000
14.68754 282.000
14.70748 293.000
14.72743 291.000
14.74738 295.000
14.76732 287.000
14.78727 313.000
14.80722 293.000
14.82716 286.000
14.84711 288.000
14.86706 295.000
14.88701 317.000
14.90695 327.000
14.92690 314.000
14.94685 310.000
14.96679 317.000
14.98674 304.000
15.00669 338.000
15.02663 300.000
15.04658 320.000
15.06653 297.000
15.08648 364.000
15.10642 332.000
15.12637 341.000
15.14632 354.000
15.16626 324.000
15.18621 325.000
15.20616 340.000
15.22610 362.000
15.24605 370.000
15.26600 333.000
15.28594 381.000
15.30589 385.000
15.32584 370.000
15.34579 384.000
15.36573 381.000
15.38568 427.000
15.40563 429.000
15.42557 481.000
15.44552 495.000
15.46547 498.000
15.48541 563.000
15.50536 607.000
15.52531 726.000
15.54526 854.000
15.56520 1139.000
15.58515 1549.000
15.60510 2313.000
15.62504 3495.000
15.64499 4921.000
15.66494 6276.000
15.68488 6170.000
15.70483 4896.000
15.72478 3566.000
15.74472 2273.000
15.76467 1410.000
15.78462 966.000
15.80457 723.000
15.82451 612.000
15.84446 564.000
15.86441 474.000
15.88435 365.000
15.90430 379.000
15.92425 343.000
15.94419 330.000
15.96414 304.000
15.98409 321.000
16.00404 280.000
16.02398 296.000
16.04393 305.000
16.06388 308.000
16.08382 301.000
16.10377 304.000
16.12372 328.000
16.14366 292.000
16.16361 297.000
16.18356 287.000
16.20351 300.000
16.22345 287.000
16.24340 280.000
16.26335 259.000
16.28329 294.000
16.30324 280.000
16.32319 255.000
16.34313 296.000
16.36308 273.000
16.38303 248.000
16.40297 270.000
16.42292 253.000
16.44287 257.000
16.46282 276.000
16.48276 254.000
16.50271 254.000
16.52266 247.000
16.54260 277.000
16.56255 295.000
16.58250 273.000
16.60244 289.000
16.62239 242.000
16.64234 263.000
16.66229 227.000
16.68223 257.000
16.70218 260.000
16.72213 254.000
16.74207 255.000
16.76202 247.000
16.78197 279.000
16.80191 257.000
16.82186 293.000
16.84181 273.000
16.86175 243.000
16.88170 257.000
16.90165 269.000
16.92160 281.000
16.94154 290.000
16.96149 275.000
16.98144 260.000
17.00138 279.000
17.02133 266.000
17.04128 254.000
17.06122 266.000
17.08117 295.000
17.10112 267.000
17.12107 260.000
17.14101 248.000
17.16096 268.000
17.18091 272.000
17.20085 247.000
17.22080 255.000
17.24075 261.000
17.26069 267.000
17.28064 266.000
17.30059 268.000
17.32053 238.000
17.34048 290.000
17.36043 257.000
17.38038 291.000
17.40032 288.000
17.42027 271.000
17.44022 240.000
17.46016 245.000
17.48011 241.000
17.50006 273.000
17.52000 251.000
17.53995 277.000
17.55990 268.000
17.57985 237.000
17.59979 264.000
17.61974 252.000
17.63969 257.000
17.65963 277.000
17.67958 257.000
17.69953 260.000
17.71947 260.000
17.73942 263.000
17.75937 256.000
17.77932 283.000
17.79926 235.000
17.81921 256.000
17.83916 264.000
17.85910 254.000
17.87905 275.000
17.89900 237.000
17.91894 259.000
17.93889 254.000
17.95884 262.000
17.97878 246.000
17.99873 281.000
18.01868 267.000
18.03863 282.000
18.05857 270.000
18.07852 274.000
18.09847 273.000
18.11841 263.000
18.13836 282.000
18.15831 268.000
18.17825 271.000
18.19820 264.000
18.21815 255.000
18.23810 271.000
18.25804 273.000
18.27799 305.000
18.29794 262.000
18.31788 297.000
18.33783 334.000
18.35778 379.000
18.37772 494.000
18.39767 570.000
18.41762 527.000
18.43756 602.000
18.45751 558.000
18.47746 536.000
18.49741 454.000
18.51735 384.000
18.53730 346.000
18.55725 293.000
18.57719 275.000
18.59714 239.000
18.61709 278.000
18.63703 277.000
18.65698 284.000
18.67693 276.000
18.69688 250.000
18.71682 261.000
18.73677 258.000
18.75672 288.000
18.77666 265.000
18.79661 239.000
18.81656 254.000
18.83650 240.000
18.85645 264.000
18.87640 277.000
18.89634 276.000
18.91629 263.000
18.93624 265.000
18.95619 263.000
18.97613 251.000
18.99608 270.000
19.01603 288.000
19.03597 246.000
19.05592 263.000
19.07587 266.000
19.09581 270.000
19.11576 282.000
19.13571 261.000
19.15566 251.000
19.17560 235.000
19.19555 264.000
19.21550 280.000
19.23544 270.000
19.25539 276.000
19.27534 229.000
19.29528 254.000
19.31523 266.000
19.33518 306.000
19.35513 252.000
19.37507 286.000
19.39502 270.000
19.41497 254.000
19.43491 269.000
19.45486 284.000
19.47481 236.000
19.49475 251.000
19.51470 249.000
19.53465 259.000
19.55459 280.000
19.57454 270.000
19.59449 295.000
19.61444 262.000
19.63438 244.000
19.65433 262.000
19.67428 244.000
19.69422 268.000
19.71417 255.000
19.73412 242.000
19.75406 260.000
19.77401 265.000
19.79396 284.000
19.81391 236.000
19.83385 257.000
19.85380 265.000
19.87375 261.000
19.89369 247.000
19.91364 275.000
19.93359 235.000
19.95353 307.000
19.97348 270.000
19.99343 271.000
20.01337 260.000
20.03332 271.000
20.05327 266.000
20.07322 249.000
20.09316 236.000
20.11311 298.000
20.13306 273.000
20.15300 272.000
20.17295 228.000
20.19290 282.000
20.21284 270.000
20.23279 241.000
20.25274 258.000
20.27269 274.000
20.29263 281.000
20.31258 283.000
20.33253 245.000
20.35247 251.000
20.37242 275.000
20.39237 242.000
20.41231 258.000
20.43226 266.000
20.45221 232.000
20.47215 258.000
20.49210 258.000
20.51205 239.000
20.53200 256.000
20.55194 272.000
20.57189 254.000
20.59184 311.000
20.61178 263.000
20.63173 276.000
20.65168 249.000
20.67162 272.000
20.69157 277.000
20.71152 279.000
20.73147 263.000
20.75141 276.000
20.77136 283.000
20.79131 265.000
20.81125 253.000
20.83120 303.000
20.85115 275.000
20.87109 245.000
20.89104 237.000
20.91099 276.000
20.93094 257.000
20.95088 257.000
20.97083 248.000
20.99078 282.000
21.01072 297.000
21.03067 265.000
21.05062 270.000
21.07056 238.000
21.09051 322.000
21.11046 281.000
21.13040 254.000
21.15035 290.000
21.17030 305.000
21.19025 285.000
21.21019 311.000
21.23014 265.000
21.25009 269.000
21.27003 272.000
21.28998 280.000
21.30993 268.000
21.32987 243.000
21.34982 251.000
21.36977 256.000
21.38972 281.000
21.40966 249.000
21.42961 281.000
21.44956 273.000
21.46950 290.000
21.48945 279.000
21.50940 271.000
21.52934 263.000
21.54929 242.000
21.56924 247.000
21.58918 285.000
21.60913 261.000
21.62908 281.000
21.64903 261.000
21.66897 285.000
21.68892 269.000
21.70887 274.000
21.72881 268.000
21.74876 235.000
21.76871 298.000
21.78865 301.000
21.80860 251.000
21.82855 239.000
21.84850 248.000
21.86844 268.000
21.88839 267.000
21.90834 280.000
21.92828 285.000
21.94823 264.000
21.96818 283.000
21.98812 252.000
22.00807 266.000
22.02802 286.000
22.04796 253.000
22.06791 269.000
22.08786 258.000
22.10781 287.000
22.12775 275.000
22.14770 294.000
22.16765 277.000
22.18759 253.000
22.20754 262.000
22.22749 264.000
22.24743 267.000
22.26738 280.000
22.28733 257.000
22.30728 276.000
22.32722 268.000
22.34717 278.000
22.36712 267.000
22.38706 261.000
22.40701 286.000
22.42696 292.000
22.44690 257.000
22.46685 277.000
22.48680 274.000
22.50675 298.000
22.52669 269.000
22.54664 244.000
22.56659 260.000
22.58653 266.000
22.60648 258.000
22.62643 271.000
22.64637 260.000
22.66632 277.000
22.68627 268.000
22.70621 280.000
22.72616 267.000
22.74611 263.000
22.76606 239.000
22.78600 274.000
22.80595 264.000
22.82590 263.000
22.84584 297.000
22.86579 296.000
22.88574 298.000
22.90568 250.000
22.92563 266.000
22.94558 281.000
22.96553 271.000
22.98547 252.000
23.00542 265.000
23.02537 240.000
23.04531 243.000
23.06526 252.000
23.08521 280.000
23.10515 253.000
23.12510 276.000
23.14505 270.000
23.16499 263.000
23.18494 277.000
23.20489 306.000
23.22484 271.000
23.24478 287.000
23.26473 261.000
23.28468 273.000
23.30462 291.000
23.32457 273.000
23.34452 248.000
23.36446 270.000
23.38441 270.000
23.40436 264.000
23.42431 274.000
23.44425 300.000
23.46420 242.000
23.48415 267.000
23.50409 269.000
23.52404 277.000
23.54399 271.000
23.56393 286.000
23.58388 268.000
23.60383 271.000
23.62377 260.000
23.64372 301.000
23.66367 284.000
23.68362 305.000
23.70356 285.000
23.72351 303.000
23.74346 277.000
23.76340 259.000
23.78335 285.000
23.80330 259.000
23.82324 260.000
23.84319 289.000
23.86314 290.000
23.88309 282.000
23.90303 255.000
23.92298 259.000
23.94293 268.000
23.96287 254.000
23.98282 285.000
24.00277 281.000
24.02271 273.000
24.04266 292.000
24.06261 286.000
24.08256 277.000
24.10250 271.000
24.12245 296.000
24.14240 289.000
24.16234 268.000
24.18229 265.000
24.20224 281.000
24.22218 271.000
24.24213 319.000
24.26208 256.000
24.28202 306.000
24.30197 273.000
24.32192 272.000
24.34187 309.000
24.36181 259.000
24.38176 254.000
24.40171 283.000
24.42165 290.000
24.44160 296.000
24.46155 288.000
24.48149 305.000
24.50144 283.000
24.52139 281.000
24.54134 295.000
24.56128 271.000
24.58123 284.000
24.60118 282.000
24.62112 288.000
24.64107 281.000
24.66102 291.000
24.68096 293.000
24.70091 275.000
24.72086 283.000
24.74080 273.000
24.76075 273.000
24.78070 292.000
24.80065 286.000
24.82059 304.000
24.84054 303.000
24.86049 285.000
24.88043 290.000
24.90038 251.000
24.92033 258.000
24.94027 276.000
24.96022 306.000
24.98017 252.000
25.00012 284.000
25.02006 277.000
25.04001 294.000
25.05996 303.000
25.07990 285.000
25.09985 286.000
25.11980 265.000
25.13974 292.000
25.15969 307.000
25.17964 289.000
25.19958 305.000
25.21953 315.000
25.23948 297.000
25.25943 279.000
25.27937 279.000
25.29932 300.000
25.31927 299.000
25.33921 301.000
25.35916 289.000
25.37911 333.000
25.39905 282.000
25.41900 313.000
25.43895 323.000
25.45890 267.000
25.47884 320.000
25.49879 325.000
25.51874 305.000
25.53868 307.000
25.55863 299.000
25.57858 275.000
25.59852 307.000
25.61847 303.000
25.63842 303.000
25.65837 275.000
25.67831 308.000
25.69826 292.000
25.71821 306.000
25.73815 296.000
25.75810 265.000
25.77805 300.000
25.79799 298.000
25.81794 328.000
25.83789 301.000
25.85783 282.000
25.87778 320.000
25.89773 316.000
25.91768 271.000
25.93762 296.000
25.95757 269.000
25.97752 294.000
25.99746 309.000
26.01741 275.000
26.03736 263.000
26.05730 274.000
26.07725 296.000
26.09720 293.000
26.11715 285.000
26.13709 286.000
26.15704 287.000
26.17699 277.000
26.19693 288.000
26.21688 277.000
26.23683 258.000
26.25677 263.000
26.27672 300.000
26.29667 313.000
26.31661 308.000
26.33656 282.000
26.35651 300.000
26.37646 289.000
26.39640 305.000
26.41635 293.000
26.43630 299.000
26.45624 279.000
26.47619 277.000
26.49614 306.000
26.51608 304.000
26.53603 298.000
26.55598 281.000
26.57593 260.000
26.59587 275.000
26.61582 308.000
26.63577 297.000
26.65571 288.000
26.67566 305.000
26.69561 287.000
26.71555 300.000
26.73550 274.000
26.75545 261.000
26.77539 287.000
26.79534 284.000
26.81529 287.000
26.83524 278.000
26.85518 294.000
26.87513 280.000
26.89508 271.000
26.91502 288.000
26.93497 292.000
26.95492 292.000
26.97486 289.000
26.99481 304.000
27.01476 299.000
27.03471 320.000
27.05465 289.000
27.07460 279.000
27.09455 303.000
27.11449 305.000
27.13444 305.000
27.15439 288.000
27.17433 281.000
27.19428 287.000
27.21423 302.000
27.23417 303.000
27.25412 305.000
27.27407 298.000
27.29402 307.000
27.31396 301.000
27.33391 290.000
27.35386 302.000
27.37380 310.000
27.39375 300.000
27.41370 326.000
27.43364 285.000
27.45359 314.000
27.47354 293.000
27.49349 284.000
27.51343 274.000
27.53338 290.000
27.55333 258.000
27.57327 311.000
27.59322 282.000
27.61317 302.000
27.63311 288.000
27.65306 290.000
27.67301 287.000
27.69296 308.000
27.71290 296.000
27.73285 284.000
27.75280 313.000
27.77274 325.000
27.79269 305.000
27.81264 318.000
27.83258 316.000
27.85253 301.000
27.87248 278.000
27.89242 281.000
27.91237 309.000
27.93232 285.000
27.95227 329.000
27.97221 268.000
27.99216 302.000
28.01211 285.000
28.03205 282.000
28.05200 291.000
28.07195 317.000
28.09189 300.000
28.11184 301.000
28.13179 301.000
28.15174 297.000
28.17168 303.000
28.19163 304.000
28.21158 297.000
28.23152 275.000
28.25147 303.000
28.27142 318.000
28.29136 299.000
28.31131 300.000
28.33126 298.000
28.35120 291.000
28.37115 273.000
28.39110 339.000
28.41105 309.000
28.43099 320.000
28.45094 310.000
28.47089 274.000
28.49083 290.000
28.51078 282.000
28.53073 327.000
28.55067 283.000
28.57062 253.000
28.59057 314.000
28.61052 281.000
28.63046 297.000
28.65041 284.000
28.67036 293.000
28.69030 297.000
28.71025 307.000
28.73020 300.000
28.75014 258.000
28.77009 281.000
28.79004 295.000
28.80998 335.000
28.82993 293.000
28.84988 312.000
28.86983 318.000
28.88977 283.000
28.90972 331.000
28.92967 276.000
28.94961 310.000
28.96956 315.000
28.98951 318.000
29.00945 303.000
29.02940 296.000
29.04935 322.000
29.06930 316.000
29.08924 307.000
29.10919 279.000
29.12914 324.000
29.14908 301.000
29.16903 270.000
29.18898 310.000
29.20892 303.000
29.22887 300.000
29.24882 276.000
29.26877 292.000
29.28871 295.000
29.30866 338.000
29.32861 282.000
29.34855 283.000
29.36850 278.000
29.38845 324.000
29.40839 316.000
29.42834 333.000
29.44829 300.000
29.46823 302.000
29.48818 301.000
29.50813 326.000
29.52808 348.000
29.54802 280.000
29.56797 313.000
29.58792 310.000
29.60786 300.000
29.62781 345.000
29.64776 298.000
29.66770 304.000
29.68765 302.000
29.70760 276.000
29.72755 316.000
29.74749 305.000
29.76744 331.000
29.78739 322.000
29.80733 300.000
29.82728 295.000
29.84723 311.000
29.86717 307.000
29.88712 312.000
29.90707 320.000
29.92701 339.000
29.94696 313.000
29.96691 310.000
29.98686 309.000
30.00680 314.000
30.02675 347.000
30.04670 330.000
30.06664 337.000
30.08659 341.000
30.10654 335.000
30.12648 357.000
30.14643 374.000
30.16638 407.000
30.18633 394.000
30.20627 405.000
30.22622 463.000
30.24617 520.000
30.26611 602.000
30.28606 606.000
30.30601 644.000
30.32595 701.000
30.34590 692.000
30.36585 701.000
30.38579 638.000
30.40574 571.000
30.42569 573.000
30.44564 558.000
30.46558 441.000
30.48553 418.000
30.50548 382.000
30.52542 386.000
30.54537 338.000
30.56532 338.000
30.58526 361.000
30.60521 312.000
30.62516 324.000
30.64511 318.000
30.66505 313.000
30.68500 300.000
30.70495 292.000
30.72489 304.000
30.74484 301.000
30.76479 297.000
30.78473 312.000
30.80468 318.000
30.82463 300.000
30.84458 341.000
30.86452 319.000
30.88447 296.000
30.90442 306.000
30.92436 326.000
30.94431 309.000
30.96426 319.000
30.98420 342.000
31.00415 303.000
31.02410 329.000
31.04404 310.000
31.06399 307.000
31.08394 304.000
31.10389 302.000
31.12383 341.000
31.14378 330.000
31.16373 278.000
31.18367 301.000
31.20362 318.000
31.22357 320.000
31.24351 316.000
31.26346 312.000
31.28341 342.000
31.30336 306.000
31.32330 329.000
31.34325 321.000
31.36320 319.000
31.38314 308.000
31.40309 340.000
31.42304 290.000
31.44298 357.000
31.46293 364.000
31.48288 353.000
31.50282 361.000
31.52277 399.000
31.54272 422.000
31.56267 471.000
31.58261 518.000
31.60256 583.000
31.62251 703.000
31.64245 655.000
31.66240 597.000
31.68235 596.000
31.70229 609.000
31.72224 524.000
31.74219 481.000
31.76214 438.000
31.78208 385.000
31.80203 388.000
31.82198 363.000
31.84192 354.000
31.86187 333.000
31.88182 310.000
31.90176 340.000
31.92171 325.000
31.94166 337.000
31.96160 331.000
31.98155 334.000
32.00150 303.000
32.02145 324.000
32.04139 340.000
32.06134 346.000
32.08129 337.000
32.10123 323.000
32.12118 301.000
32.14113 323.000
32.16107 286.000
32.18102 309.000
32.20097 316.000
32.22092 291.000
32.24086 319.000
32.26081 334.000
32.28076 328.000
32.30070 347.000
32.32065 353.000
32.34060 366.000
32.36054 295.000
32.38049 288.000
32.40044 317.000
32.42039 333.000
32.44033 322.000
32.46028 352.000
32.48023 386.000
32.50017 406.000
32.52012 468.000
32.54007 484.000
32.56001 466.000
32.57996 430.000
32.59991 420.000
32.61985 405.000
32.63980 363.000
32.65975 357.000
32.67970 299.000
32.69964 351.000
32.71959 321.000
32.73954 340.000
32.75948 307.000
32.77943 313.000
32.79938 319.000
32.81932 286.000
32.83927 326.000
32.85922 335.000
32.87917 322.000
32.89911 318.000
32.91906 329.000
32.93901 309.000
32.95895 283.000
32.97890 315.000
32.99885 293.000
33.01879 284.000
33.03874 293.000
33.05869 260.000
33.07863 297.000
33.09858 290.000
33.11853 295.000
33.13848 281.000
33.15842 305.000
33.17837 327.000
33.19832 318.000
33.21826 329.000
33.23821 302.000
33.25816 310.000
33.27810 287.000
33.29805 321.000
33.31800 322.000
33.33795 307.000
33.35789 306.000
33.37784 309.000
33.39779 312.000
33.41773 344.000
33.43768 325.000
33.45763 306.000
33.47757 298.000
33.49752 300.000
33.51747 298.000
33.53741 313.000
33.55736 314.000
33.57731 319.000
33.59726 300.000
33.61720 293.000
33.63715 328.000
33.65710 276.000
33.67704 315.000
33.69699 315.000
33.71694 337.000
33.73688 305.000
33.75683 271.000
33.77678 310.000
33.79673 299.000
33.81667 290.000
33.83662 298.000
33.85657 319.000
33.87651 297.000
33.89646 300.000
33.91641 298.000
33.93635 327.000
33.95630 321.000
33.97625 312.000
33.99620 321.000
34.01614 323.000
34.03609 331.000
34.05604 328.000
34.07598 313.000
34.09593 302.000
34.11588 323.000
34.13582 338.000
34.15577 343.000
34.17572 302.000
34.19566 306.000
34.21561 315.000
34.23556 354.000
34.25551 282.000
34.27545 305.000
34.29540 330.000
34.31535 328.000
34.33529 306.000
34.35524 300.000
34.37519 302.000
34.39513 319.000
34.41508 302.000
34.43503 320.000
34.45498 329.000
34.47492 300.000
34.49487 369.000
34.51482 324.000
34.53476 307.000
34.55471 326.000
34.57466 323.000
34.59460 299.000
34.61455 330.000
34.63450 309.000
34.65444 316.000
34.67439 301.000
34.69434 310.000
34.71429 332.000
34.73423 337.000
34.75418 353.000
34.77413 338.000
34.79407 324.000
34.81402 320.000
34.83397 346.000
34.85391 329.000
34.87386 356.000
34.89381 304.000
34.91376 344.000
34.93370 373.000
34.95365 352.000
34.97360 357.000
34.99354 343.000
35.01349 361.000
35.03344 351.000
35.05338 344.000
35.07333 367.000
35.09328 394.000
35.11322 391.000
35.13317 388.000
35.15312 396.000
35.17307 427.000
35.19301 428.000
35.21296 414.000
35.23291 478.000
35.25285 441.000
35.27280 469.000
35.29275 455.000
35.31269 528.000
35.33264 571.000
35.35259 590.000
35.37254 619.000
35.39248 744.000
35.41243 935.000
35.43238 1103.000
35.45232 1354.000
35.47227 1429.000
35.49222 1390.000
35.51216 1561.000
35.53211 2074.000
35.55206 2507.000
35.57201 2399.000
35.59195 2124.000
35.61190 1860.000
35.63185 2057.000
35.65179 2243.000
35.67174 2023.000
35.69169 1870.000
35.71163 1843.000
35.73158 1711.000
35.75153 1644.000
35.77147 1578.000
35.79142 1498.000
35.81137 1458.000
35.83132 1380.000
35.85126 1289.000
35.87121 1148.000
35.89116 1104.000
35.91110 1014.000
35.93105 905.000
35.95100 739.000
35.97094 742.000
35.99089 669.000
36.01084 590.000
36.03079 539.000
36.05073 490.000
36.07068 430.000
36.09063 419.000
36.11057 372.000
36.13052 379.000
36.15047 431.000
36.17041 408.000
36.19036 399.000
36.21031 404.000
36.23025 393.000
36.25020 379.000
36.27015 408.000
36.29010 378.000
36.31004 406.000
36.32999 395.000
36.34994 383.000
36.36988 400.000
36.38983 352.000
36.40978 396.000
36.42972 363.000
36.44967 398.000
36.46962 367.000
36.48957 344.000
36.50951 345.000
36.52946 330.000
36.54941 368.000
36.56935 340.000
36.58930 318.000
36.60925 344.000
36.62919 377.000
36.64914 332.000
36.66909 352.000
36.68903 348.000
36.70898 360.000
36.72893 355.000
36.74888 364.000
36.76882 384.000
36.78877 386.000
36.80872 326.000
36.82866 362.000
36.84861 367.000
36.86856 373.000
36.88850 311.000
36.90845 328.000
36.92840 334.000
36.94835 364.000
36.96829 329.000
36.98824 321.000
37.00819 348.000
37.02813 365.000
37.04808 330.000
37.06803 349.000
37.08797 332.000
37.10792 335.000
37.12787 345.000
37.14781 324.000
37.16776 360.000
37.18771 357.000
37.20766 357.000
37.22760 404.000
37.24755 401.000
37.26750 411.000
37.28744 462.000
37.30739 443.000
37.32734 473.000
37.34728 457.000
37.36723 492.000
37.38718 449.000
37.40713 505.000
37.42707 478.000
37.44702 451.000
37.46697 449.000
37.48691 489.000
37.50686 446.000
37.52681 454.000
37.54675 439.000
37.56670 440.000
37.58665 402.000
37.60660 375.000
37.62654 387.000
37.64649 404.000
37.66644 380.000
37.68638 353.000
37.70633 366.000
37.72628 401.000
37.74622 363.000
37.76617 348.000
37.78612 372.000
37.80606 351.000
37.82601 364.000
37.84596 332.000
37.86591 304.000
37.88585 329.000
37.90580 340.000
37.92575 397.000
37.94569 359.000
37.96564 331.000
37.98559 343.000
38.00553 411.000
38.02548 396.000
38.04543 348.000
38.06538 354.000
38.08532 343.000
38.10527 349.000
38.12522 378.000
38.14516 364.000
38.16511 355.000
38.18506 393.000
38.20500 400.000
38.22495 375.000
38.24490 372.000
38.26484 357.000
38.28479 391.000
38.30474 348.000
38.32469 359.000
38.34463 411.000
38.36458 424.000
38.38453 436.000
38.40447 382.000
38.42442 397.000
38.44437 400.000
38.46431 457.000
38.48426 448.000
38.50421 502.000
38.52416 498.000
38.54410 501.000
38.56405 581.000
38.58400 589.000
38.60394 610.000
38.62389 681.000
38.64384 820.000
38.66378 926.000
38.68373 1092.000
38.70368 1395.000
38.72362 1679.000
38.74357 2015.000
38.76352 1970.000
38.78347 1730.000
38.80341 1689.000
38.82336 1497.000
38.84331 1486.000
38.86325 1380.000
38.88320 1226.000
38.90315 1189.000
38.92309 1043.000
38.94304 1005.000
38.96299 833.000
38.98294 768.000
39.00288 744.000
39.02283 745.000
39.04278 629.000
39.06272 604.000
39.08267 620.000
39.10262 520.000
39.12256 548.000
39.14251 460.000
39.16246 485.000
39.18241 462.000
39.20235 480.000
39.22230 467.000
39.24225 564.000
39.26219 607.000
39.28214 673.000
39.30209 708.000
39.32203 837.000
39.34198 920.000
39.36193 942.000
39.38187 864.000
39.40182 829.000
39.42177 754.000
39.44172 711.000
39.46166 696.000
39.48161 650.000
39.50156 627.000
39.52150 512.000
39.54145 454.000
39.56140 400.000
39.58134 385.000
39.60129 376.000
39.62124 365.000
39.64119 393.000
39.66113 368.000
39.68108 319.000
39.70103 334.000
39.72097 327.000
39.74092 278.000
39.76087 329.000
39.78081 320.000
39.80076 299.000
39.82071 335.000
39.84065 324.000
39.86060 358.000
39.88055 308.000
39.90050 309.000
39.92044 331.000
39.94039 351.000
39.96034 315.000
39.98028 327.000
40.00023 300.000
40.02018 313.000
40.04012 303.000
40.06007 304.000
40.08002 353.000
40.09997 290.000
40.11991 304.000
40.13986 304.000
40.15981 302.000
40.17975 317.000
40.19970 317.000
40.21965 313.000
40.23959 304.000
40.25954 321.000
40.27949 282.000
40.29943 293.000
40.31938 303.000
40.33933 293.000
40.35928 294.000
40.37922 289.000
40.39917 305.000
40.41912 327.000
40.43906 289.000
40.45901 313.000
40.47896 294.000
40.49890 329.000
40.51885 321.000
40.53880 305.000
40.55875 309.000
40.57869 301.000
40.59864 313.000
40.61859 294.000
40.63853 312.000
40.65848 291.000
40.67843 267.000
40.69837 272.000
40.71832 302.000
40.73827 292.000
40.75822 308.000
40.77816 344.000
40.79811 305.000
40.81806 293.000
40.83800 280.000
40.85795 312.000
40.87790 319.000
40.89784 295.000
40.91779 286.000
40.93774 283.000
40.95768 304.000
40.97763 279.000
40.99758 287.000
41.01753 291.000
41.03747 309.000
41.05742 277.000
41.07737 312.000
41.09731 333.000
41.11726 281.000
41.13721 327.000
41.15715 327.000
41.17710 298.000
41.19705 320.000
41.21700 296.000
41.23694 286.000
41.25689 280.000
41.27684 302.000
41.29678 308.000
41.31673 278.000
41.33668 299.000
41.35662 294.000
41.37657 299.000
41.39652 300.000
41.41646 313.000
41.43641 312.000
41.45636 325.000
41.47631 304.000
41.49625 305.000
41.51620 293.000
41.53615 301.000
41.55609 323.000
41.57604 309.000
41.59599 292.000
41.61593 331.000
41.63588 323.000
41.65583 304.000
41.67578 293.000
41.69572 309.000
41.71567 298.000
41.73562 309.000
41.75556 299.000
41.77551 322.000
41.79546 297.000
41.81540 288.000
41.83535 322.000
41.85530 311.000
41.87524 295.000
41.89519 302.000
41.91514 263.000
41.93509 329.000
41.95503 268.000
41.97498 300.000
41.99493 323.000
42.01487 306.000
42.03482 301.000
42.05477 306.000
42.07471 283.000
42.09466 314.000
42.11461 298.000
42.13456 287.000
42.15450 280.000
42.17445 301.000
42.19440 295.000
42.21434 288.000
42.23429 320.000
42.25424 299.000
42.27418 296.000
42.29413 274.000
42.31408 295.000
42.33403 295.000
42.35397 303.000
42.37392 296.000
42.39387 272.000
42.41381 276.000
42.43376 305.000
42.45371 330.000
42.47365 301.000
42.49360 321.000
42.51355 319.000
42.53349 291.000
42.55344 314.000
42.57339 324.000
42.59334 300.000
42.61328 282.000
42.63323 323.000
42.65318 285.000
42.67312 310.000
42.69307 297.000
42.71302 314.000
42.73296 309.000
42.75291 313.000
42.77286 326.000
42.79281 314.000
42.81275 305.000
42.83270 312.000
42.85265 310.000
42.87259 308.000
42.89254 323.000
42.91249 302.000
42.93243 289.000
42.95238 328.000
42.97233 295.000
42.99227 309.000
43.01222 320.000
43.03217 305.000
43.05212 307.000
43.07206 323.000
43.09201 342.000
43.11196 365.000
43.13190 336.000
43.15185 359.000
43.17180 378.000
43.19174 376.000
43.21169 394.000
43.23164 443.000
43.25159 437.000
43.27153 420.000
43.29148 441.000
43.31143 506.000
43.33137 565.000
43.35132 606.000
43.37127 641.000
43.39121 652.000
43.41116 685.000
43.43111 656.000
43.45105 639.000
43.47100 658.000
43.49095 637.000
43.51090 554.000
43.53084 578.000
43.55079 500.000
43.57074 493.000
43.59068 410.000
43.61063 396.000
43.63058 413.000
43.65052 361.000
43.67047 384.000
43.69042 340.000
43.71037 362.000
43.73031 350.000
43.75026 344.000
43.77021 336.000
43.79015 290.000
43.81010 314.000
43.83005 321.000
43.84999 339.000
43.86994 304.000
43.88989 301.000
43.90984 324.000
43.92978 317.000
43.94973 308.000
43.96968 298.000
43.98962 315.000
44.00957 296.000
44.02952 321.000
44.04946 305.000
44.06941 319.000
44.08936 337.000
44.10930 295.000
44.12925 293.000
44.14920 326.000
44.16915 325.000
44.18909 315.000
44.20904 328.000
44.22899 302.000
44.24893 310.000
44.26888 291.000
44.28883 333.000
44.30877 297.000
44.32872 319.000
44.34867 297.000
44.36862 315.000
44.38856 337.000
44.40851 328.000
44.42846 338.000
44.44840 315.000
44.46835 318.000
44.48830 297.000
44.50824 328.000
44.52819 351.000
44.54814 339.000
44.56808 334.000
44.58803 340.000
44.60798 358.000
44.62793 304.000
44.64787 337.000
44.66782 340.000
44.68777 326.000
44.70771 364.000
44.72766 348.000
44.74761 317.000
44.76755 339.000
44.78750 360.000
44.80745 393.000
44.82740 326.000
44.84734 403.000
44.86729 349.000
44.88724 362.000
44.90718 364.000
44.92713 370.000
44.94708 319.000
44.96702 391.000
44.98697 361.000
45.00692 395.000
45.02686 341.000
45.04681 370.000
45.06676 364.000
45.08671 366.000
45.10665 372.000
45.12660 356.000
45.14655 339.000
45.16649 332.000
45.18644 331.000
45.20639 349.000
45.22633 327.000
45.24628 344.000
45.26623 359.000
45.28618 321.000
45.30612 307.000
45.32607 338.000
45.34602 320.000
45.36596 356.000
45.38591 369.000
45.40586 366.000
45.42580 326.000
45.44575 315.000
45.46570 333.000
45.48565 293.000
45.50559 303.000
45.52554 283.000
45.54549 330.000
45.56543 310.000
45.58538 327.000
45.60533 284.000
45.62527 309.000
45.64522 296.000
45.66517 312.000
45.68511 278.000
45.70506 321.000
45.72501 329.000
45.74496 307.000
45.76490 265.000
45.78485 274.000
45.80480 322.000
45.82474 282.000
45.84469 281.000
45.86464 307.000
45.88458 318.000
45.90453 315.000
45.92448 325.000
45.94443 304.000
45.96437 284.000
45.98432 304.000
46.00427 263.000
46.02421 288.000
46.04416 320.000
46.06411 293.000
46.08405 302.000
46.10400 275.000
46.12395 295.000
46.14389 318.000
46.16384 315.000
46.18379 296.000
46.20374 312.000
46.22368 316.000
46.24363 331.000
46.26358 330.000
46.28352 331.000
46.30347 323.000
46.32342 296.000
46.34336 281.000
46.36331 332.000
46.38326 286.000
46.40321 324.000
46.42315 317.000
46.44310 313.000
46.46305 303.000
46.48299 303.000
46.50294 318.000
46.52289 307.000
46.54283 307.000
46.56278 313.000
46.58273 321.000
46.60267 299.000
46.62262 297.000
46.64257 286.000
46.66252 308.000
46.68246 280.000
46.70241 298.000
46.72236 287.000
46.74230 321.000
46.76225 302.000
46.78220 301.000
46.80214 295.000
46.82209 266.000
46.84204 291.000
46.86199 284.000
46.88193 302.000
46.90188 301.000
46.92183 306.000
46.94177 273.000
46.96172 277.000
46.98167 297.000
47.00161 296.000
47.02156 303.000
47.04151 304.000
47.06146 288.000
47.08140 317.000
47.10135 312.000
47.12130 302.000
47.14124 285.000
47.16119 271.000
47.18114 286.000
47.20108 265.000
47.22103 303.000
47.24098 313.000
47.26092 291.000
47.28087 304.000
47.30082 277.000
47.32077 281.000
47.34071 312.000
47.36066 316.000
47.38061 306.000
47.40055 307.000
47.42050 283.000
47.44045 298.000
47.46039 337.000
47.48034 269.000
47.50029 315.000
47.52024 293.000
47.54018 281.000
47.56013 276.000
47.58008 315.000
47.60002 296.000
47.61997 289.000
47.63992 286.000
47.65986 296.000
47.67981 293.000
47.69976 281.000
47.71970 311.000
47.73965 295.000
47.75960 290.000
47.77955 322.000
47.79949 320.000
47.81944 292.000
47.83939 305.000
47.85933 283.000
47.87928 308.000
47.89923 317.000
47.91917 300.000
47.93912 300.000
47.95907 304.000
47.97902 323.000
47.99896 310.000
48.01891 303.000
48.03886 334.000
48.05880 339.000
48.07875 357.000
48.09870 292.000
48.11864 330.000
48.13859 355.000
48.15854 329.000
48.17848 316.000
48.19843 312.000
48.21838 347.000
48.23833 320.000
48.25827 333.000
48.27822 390.000
48.29817 360.000
48.31811 361.000
48.33806 393.000
48.35801 410.000
48.37795 386.000
48.39790 384.000
48.41785 443.000
48.43780 456.000
48.45774 514.000
48.47769 546.000
48.49764 591.000
48.51758 717.000
48.53753 767.000
48.55748 864.000
48.57742 826.000
48.59737 825.000
48.61732 872.000
48.63726 851.000
48.65721 851.000
48.67716 894.000
48.69711 1017.000
48.71705 977.000
48.73700 905.000
48.75695 888.000
48.77689 705.000
48.79684 624.000
48.81679 770.000
48.83673 686.000
48.85668 645.000
48.87663 575.000
48.89658 534.000
48.91652 508.000
48.93647 440.000
48.95642 411.000
48.97636 380.000
48.99631 415.000
49.01626 347.000
49.03620 352.000
49.05615 326.000
49.07610 314.000
49.09605 308.000
49.11599 345.000
49.13594 334.000
49.15589 328.000
49.17583 313.000
49.19578 334.000
49.21573 323.000
49.23567 294.000
49.25562 298.000
49.27557 328.000
49.29551 324.000
49.31546 282.000
49.33541 294.000
49.35536 295.000
49.37530 339.000
49.39525 284.000
49.41520 300.000
49.43514 264.000
49.45509 323.000
49.47504 310.000
49.49498 302.000
49.51493 296.000
49.53488 300.000
49.55483 307.000
49.57477 318.000
49.59472 290.000
49.61467 284.000
49.63461 280.000
49.65456 306.000
49.67451 298.000
49.69445 284.000
49.71440 315.000
49.73435 291.000
49.75429 298.000
49.77424 287.000
49.79419 303.000
49.81414 293.000
49.83408 273.000
49.85403 247.000
49.87398 325.000
49.89392 309.000
49.91387 290.000
49.93382 323.000
49.95376 280.000
49.97371 282.000
49.99366 293.000
50.01361 310.000
50.03355 302.000
50.05350 284.000
50.07345 300.000
50.09339 306.000
50.11334 266.000
50.13329 260.000
50.15323 273.000
50.17318 297.000
50.19313 276.000
50.21307 288.000
50.23302 293.000
50.25297 290.000
50.27292 274.000
50.29286 310.000
50.31281 293.000
50.33276 280.000
50.35270 309.000
50.37265 250.000
50.39260 284.000
50.41254 259.000
50.43249 333.000
50.45244 296.000
50.47239 285.000
50.49233 263.000
50.51228 285.000
50.53223 269.000
50.55217 271.000
50.57212 306.000
50.59207 311.000
50.61201 291.000
50.63196 308.000
50.65191 332.000
50.67186 273.000
50.69180 266.000
50.71175 280.000
50.73170 281.000
50.75164 319.000
50.77159 297.000
50.79154 275.000
50.81148 258.000
50.83143 258.000
50.85138 318.000
50.87132 299.000
50.89127 273.000
50.91122 274.000
50.93117 290.000
50.95111 273.000
50.97106 294.000
50.99101 284.000
51.01095 242.000
51.03090 298.000
51.05085 275.000
51.07079 265.000
51.09074 331.000
51.11069 299.000
51.13064 292.000
51.15058 314.000
51.17053 265.000
51.19048 298.000
51.21042 288.000
51.23037 317.000
51.25032 271.000
51.27026 329.000
51.29021 309.000
51.31016 303.000
51.33010 302.000
51.35005 326.000
51.37000 271.000
51.38995 292.000
51.40989 309.000
51.42984 294.000
51.44979 289.000
51.46973 325.000
51.48968 311.000
51.50963 311.000
51.52957 322.000
51.54952 265.000
51.56947 291.000
51.58942 269.000
51.60936 299.000
51.62931 282.000
51.64926 273.000
51.66920 301.000
51.68915 288.000
51.70910 320.000
51.72904 305.000
51.74899 298.000
51.76894 306.000
51.78888 309.000
51.80883 333.000
51.82878 303.000
51.84873 294.000
51.86867 293.000
51.88862 288.000
51.90857 302.000
51.92851 249.000
51.94846 314.000
51.96841 286.000
51.98835 290.000
52.00830 301.000
52.02825 292.000
52.04820 286.000
52.06814 256.000
52.08809 282.000
52.10804 287.000
52.12798 311.000
52.14793 290.000
52.16788 280.000
52.18782 297.000
52.20777 276.000
52.22772 290.000
52.24767 319.000
52.26761 289.000
52.28756 311.000
52.30751 290.000
52.32745 301.000
52.34740 296.000
52.36735 308.000
52.38729 308.000
52.40724 297.000
52.42719 290.000
52.44713 307.000
52.46708 283.000
52.48703 322.000
52.50698 304.000
52.52692 278.000
52.54687 329.000
52.56682 304.000
52.58676 318.000
52.60671 315.000
52.62666 312.000
52.64660 292.000
52.66655 292.000
52.68650 317.000
52.70645 317.000
52.72639 301.000
52.74634 299.000
52.76629 278.000
52.78623 313.000
52.80618 283.000
52.82613 339.000
52.84607 312.000
52.86602 332.000
52.88597 284.000
52.90591 295.000
52.92586 307.000
52.94581 295.000
52.96576 300.000
52.98570 269.000
53.00565 322.000
53.02560 284.000
53.04554 297.000
53.06549 278.000
53.08544 310.000
53.10538 302.000
53.12533 337.000
53.14528 333.000
53.16523 316.000
53.18517 328.000
53.20512 340.000
53.22507 358.000
53.24501 306.000
53.26496 327.000
53.28491 314.000
53.30485 320.000
53.32480 331.000
53.34475 333.000
53.36469 355.000
53.38464 334.000
53.40459 381.000
53.42454 332.000
53.44448 353.000
53.46443 366.000
53.48438 391.000
53.50432 403.000
53.52427 434.000
53.54422 408.000
53.56416 388.000
53.58411 403.000
53.60406 371.000
53.62401 389.000
53.64395 418.000
53.66390 359.000
53.68385 385.000
53.70379 396.000
53.72374 390.000
53.74369 340.000
53.76363 371.000
53.78358 390.000
53.80353 368.000
53.82348 355.000
53.84342 373.000
53.86337 382.000
53.88332 379.000
53.90326 368.000
53.92321 359.000
53.94316 370.000
53.96310 339.000
53.98305 369.000
54.00300 336.000
54.02294 339.000
54.04289 306.000
54.06284 344.000
54.08279 363.000
54.10273 309.000
54.12268 335.000
54.14263 305.000
54.16257 295.000
54.18252 272.000
54.20247 311.000
54.22241 317.000
54.24236 331.000
54.26231 323.000
54.28226 308.000
54.30220 290.000
54.32215 314.000
54.34210 283.000
54.36204 276.000
54.38199 302.000
54.40194 288.000
54.42188 281.000
54.44183 316.000
54.46178 261.000
54.48172 287.000
54.50167 270.000
54.52162 309.000
54.54157 280.000
54.56151 278.000
54.58146 280.000
54.60141 295.000
54.62135 296.000
54.64130 267.000
54.66125 304.000
54.68119 273.000
54.70114 282.000
54.72109 297.000
54.74104 288.000
54.76098 309.000
54.78093 295.000
54.80088 316.000
54.82082 288.000
54.84077 307.000
54.86072 270.000
54.88066 314.000
54.90061 290.000
54.92056 307.000
54.94050 300.000
54.96045 292.000
54.98040 260.000
55.00035 277.000
55.02029 327.000
55.04024 285.000
55.06019 296.000
55.08013 275.000
55.10008 291.000
55.12003 287.000
55.13997 288.000
55.15992 281.000
55.17987 285.000
55.19982 305.000
55.21976 306.000
55.23971 284.000
55.25966 265.000
55.27960 300.000
55.29955 288.000
55.31950 329.000
55.33944 275.000
55.35939 261.000
55.37934 280.000
55.39929 287.000
55.41923 291.000
55.43918 279.000
55.45913 298.000
55.47907 270.000
55.49902 303.000
55.51897 276.000
55.53891 299.000
55.55886 321.000
55.57881 256.000
55.59875 289.000
55.61870 288.000
55.63865 290.000
55.65860 313.000
55.67854 303.000
55.69849 268.000
55.71844 290.000
55.73838 303.000
55.75833 253.000
55.77828 266.000
55.79822 309.000
55.81817 315.000
55.83812 301.000
55.85807 305.000
55.87801 278.000
55.89796 293.000
55.91791 296.000
55.93785 300.000
55.95780 310.000
55.97775 296.000
55.99769 300.000
56.01764 270.000
56.03759 272.000
56.05753 297.000
56.07748 264.000
56.09743 292.000
56.11738 308.000
56.13732 291.000
56.15727 310.000
56.17722 295.000
56.19716 267.000
56.21711 305.000
56.23706 323.000
56.25700 296.000
56.27695 313.000
56.29690 323.000
56.31685 285.000
56.33679 289.000
56.35674 301.000
56.37669 275.000
56.39663 276.000
56.41658 295.000
56.43653 308.000
56.45647 282.000
56.47642 307.000
56.49637 285.000
56.51631 297.000
56.53626 282.000
56.55621 299.000
56.57616 336.000
56.59610 348.000
56.61605 320.000
56.63600 342.000
56.65594 331.000
56.67589 305.000
56.69584 303.000
56.71578 317.000
56.73573 328.000
56.75568 302.000
56.77563 296.000
56.79557 323.000
56.81552 306.000
56.83547 333.000
56.85541 327.000
56.87536 316.000
56.89531 323.000
56.91525 304.000
56.93520 316.000
56.95515 321.000
56.97510 322.000
56.99504 329.000
57.01499 349.000
57.03494 311.000
57.05488 307.000
57.07483 322.000
57.09478 362.000
57.11472 330.000
57.13467 334.000
57.15462 344.000
57.17456 371.000
57.19451 376.000
57.21446 386.000
57.23441 394.000
57.25435 399.000
57.27430 412.000
57.29425 429.000
57.31419 438.000
57.33414 528.000
57.35409 518.000
57.37403 491.000
57.39398 520.000
57.41393 545.000
57.43388 560.000
57.45382 516.000
57.47377 507.000
57.49372 568.000
57.51366 531.000
57.53361 514.000
57.55356 492.000
57.57350 470.000
57.59345 461.000
57.61340 444.000
57.63334 479.000
57.65329 436.000
57.67324 396.000
57.69319 394.000
57.71313 382.000
57.73308 372.000
57.75303 385.000
57.77297 358.000
57.79292 362.000
57.81287 345.000
57.83281 316.000
57.85276 308.000
57.87271 283.000
57.89266 317.000
57.91260 329.000
57.93255 295.000
57.95250 346.000
57.97244 338.000
57.99239 345.000
58.01234 328.000
58.03228 312.000
58.05223 334.000
58.07218 304.000
58.09212 337.000
58.11207 291.000
58.13202 352.000
58.15197 345.000
58.17191 359.000
58.19186 359.000
58.21181 396.000
58.23175 365.000
58.25170 449.000
58.27165 418.000
58.29159 479.000
58.31154 480.000
58.33149 471.000
58.35144 473.000
58.37138 411.000
58.39133 453.000
58.41128 382.000
58.43122 396.000
58.45117 412.000
58.47112 381.000
58.49106 396.000
58.51101 394.000
58.53096 394.000
58.55090 332.000
58.57085 338.000
58.59080 347.000
58.61075 336.000
58.63069 336.000
58.65064 310.000
58.67059 285.000
58.69053 326.000
58.71048 276.000
58.73043 295.000
58.75037 309.000
58.77032 312.000
58.79027 328.000
58.81022 309.000
58.83016 274.000
58.85011 327.000
58.87006 280.000
58.89000 296.000
58.90995 267.000
58.92990 289.000
58.94984 279.000
58.96979 290.000
58.98974 279.000
59.00969 313.000
59.02963 313.000
59.04958 315.000
59.06953 281.000
59.08947 298.000
59.10942 295.000
59.12937 282.000
59.14931 300.000
59.16926 305.000
59.18921 264.000
59.20915 301.000
59.22910 303.000
59.24905 301.000
59.26900 312.000
59.28894 269.000
59.30889 319.000
59.32884 302.000
59.34878 262.000
59.36873 289.000
59.38868 313.000
59.40862 295.000
59.42857 299.000
59.44852 304.000
59.46847 264.000
59.48841 306.000
59.50836 286.000
59.52831 304.000
59.54825 278.000
59.56820 303.000
59.58815 279.000
59.60809 259.000
59.62804 295.000
59.64799 265.000
59.66793 302.000
59.68788 280.000
59.70783 280.000
59.72778 307.000
59.74772 277.000
59.76767 294.000
59.78762 287.000
59.80756 289.000
59.82751 301.000
59.84746 285.000
59.86740 281.000
59.88735 273.000
59.90730 296.000
59.92725 290.000
59.94719 328.000
59.96714 321.000
59.98709 286.000
60.00703 294.000
60.02698 286.000
60.04693 290.000
60.06687 322.000
60.08682 300.000
60.10677 264.000
60.12671 302.000
60.14666 320.000
60.16661 278.000
60.18656 265.000
60.20650 299.000
60.22645 318.000
60.24640 266.000
60.26634 285.000
60.28629 272.000
60.30624 296.000
60.32618 270.000
60.34613 323.000
60.36608 290.000
60.38603 321.000
60.40597 254.000
60.42592 277.000
60.44587 291.000
60.46581 299.000
60.48576 292.000
60.50571 264.000
60.52565 277.000
60.54560 282.000
60.56555 303.000
60.58550 291.000
60.60544 277.000
60.62539 295.000
60.64534 274.000
60.66528 291.000
60.68523 290.000
60.70518 301.000
60.72512 266.000
60.74507 315.000
60.76502 279.000
60.78496 303.000
60.80491 293.000
60.82486 292.000
60.84481 305.000
60.86475 315.000
60.88470 290.000
60.90465 310.000
60.92459 282.000
60.94454 305.000
60.96449 288.000
60.98443 320.000
61.00438 283.000
61.02433 319.000
61.04428 310.000
61.06422 323.000
61.08417 353.000
61.10412 291.000
61.12406 306.000
61.14401 341.000
61.16396 334.000
61.18390 314.000
61.20385 341.000
61.22380 301.000
61.24374 340.000
61.26369 322.000
61.28364 332.000
61.30359 307.000
61.32353 398.000
61.34348 386.000
61.36343 342.000
61.38337 402.000
61.40332 428.000
61.42327 431.000
61.44321 468.000
61.46316 506.000
61.48311 500.000
61.50306 632.000
61.52300 718.000
61.54295 760.000
61.56290 780.000
61.58284 715.000
61.60279 695.000
61.62274 628.000
61.64268 592.000
61.66263 577.000
61.68258 579.000
61.70252 615.000
61.72247 579.000
61.74242 557.000
61.76237 539.000
61.78231 460.000
61.80226 489.000
61.82221 409.000
61.84215 359.000
61.86210 395.000
61.88205 338.000
61.90199 361.000
61.92194 336.000
61.94189 350.000
61.96184 357.000
61.98178 313.000
62.00173 320.000
62.02168 284.000
62.04162 295.000
62.06157 282.000
62.08152 295.000
62.10146 305.000
62.12141 315.000
62.14136 281.000
62.16131 267.000
62.18125 285.000
62.20120 321.000
62.22115 327.000
62.24109 292.000
62.26104 306.000
62.28099 297.000
62.30093 312.000
62.32088 310.000
62.34083 308.000
62.36077 325.000
62.38072 292.000
62.40067 283.000
62.42062 293.000
62.44056 306.000
62.46051 326.000
62.48046 293.000
62.50040 323.000
62.52035 298.000
62.54030 284.000
62.56024 304.000
62.58019 289.000
62.60014 323.000
62.62009 318.000
62.64003 345.000
62.65998 334.000
62.67993 352.000
62.69987 374.000
62.71982 340.000
62.73977 336.000
62.75971 346.000
62.77966 374.000
62.79961 368.000
62.81955 375.000
62.83950 393.000
62.85945 410.000
62.87940 406.000
62.89934 464.000
62.91929 498.000
62.93924 490.000
62.95918 460.000
62.97913 541.000
62.99908 528.000
63.01902 548.000
63.03897 534.000
63.05892 528.000
63.07887 514.000
63.09881 540.000
63.11876 512.000
63.13871 562.000
63.15865 521.000
63.17860 522.000
63.19855 499.000
63.21849 508.000
63.23844 483.000
63.25839 502.000
63.27833 476.000
63.29828 452.000
63.31823 475.000
63.33818 457.000
63.35812 357.000
63.37807 428.000
63.39802 406.000
63.41796 408.000
63.43791 352.000
63.45786 378.000
63.47780 338.000
63.49775 362.000
63.51770 327.000
63.53765 338.000
63.55759 340.000
63.57754 336.000
63.59749 316.000
63.61743 310.000
63.63738 294.000
63.65733 338.000
63.67727 296.000
63.69722 347.000
63.71717 299.000
63.73712 312.000
63.75706 355.000
63.77701 284.000
63.79696 319.000
63.81690 305.000
63.83685 307.000
63.85680 340.000
63.87674 317.000
63.89669 291.000
63.91664 343.000
63.93658 318.000
63.95653 302.000
63.97648 330.000
63.99643 279.000
64.01637 299.000
64.03632 302.000
64.05627 323.000
64.07621 340.000
64.09616 313.000
64.11611 323.000
64.13605 311.000
64.15600 336.000
64.17595 348.000
64.19590 346.000
64.21584 365.000
64.23579 342.000
64.25574 345.000
64.27568 367.000
64.29563 376.000
64.31558 371.000
64.33552 385.000
64.35547 371.000
64.37542 399.000
64.39536 411.000
64.41531 415.000
64.43526 476.000
64.45521 477.000
64.47515 489.000
64.49510 468.000
64.51505 408.000
64.53499 460.000
64.55494 434.000
64.57489 408.000
64.59483 440.000
64.61478 390.000
64.63473 421.000
64.65468 459.000
64.67462 413.000
64.69457 371.000
64.71452 387.000
64.73446 383.000
64.75441 376.000
64.77436 373.000
64.79430 323.000
64.81425 340.000
64.83420 332.000
64.85414 340.000
64.87409 299.000
64.89404 349.000
64.91399 314.000
64.93393 345.000
64.95388 321.000
64.97383 332.000
64.99377 303.000
65.01372 305.000
65.03367 344.000
65.05361 310.000
65.07356 270.000
65.09351 359.000
65.11346 320.000
65.13340 318.000
65.15335 313.000
65.17330 329.000
65.19324 301.000
65.21319 333.000
65.23314 323.000
65.25308 319.000
65.27303 350.000
65.29298 344.000
65.31293 328.000
65.33287 334.000
65.35282 344.000
65.37277 313.000
65.39271 322.000
65.41266 324.000
65.43261 332.000
65.45255 330.000
65.47250 298.000
65.49245 308.000
65.51239 321.000
65.53234 341.000
65.55229 360.000
65.57224 346.000
65.59218 362.000
65.61213 347.000
65.63208 341.000
65.65202 387.000
65.67197 386.000
65.69192 355.000
65.71186 364.000
65.73181 379.000
65.75176 399.000
65.77171 438.000
65.79165 453.000
65.81160 458.000
65.83155 484.000
65.85149 486.000
65.87144 479.000
65.89139 435.000
65.91133 433.000
65.93128 450.000
65.95123 484.000
65.97117 452.000
65.99112 473.000
66.01107 468.000
66.03102 447.000
66.05096 423.000
66.07091 456.000
66.09086 441.000
66.11080 468.000
66.13075 478.000
66.15070 490.000
66.17064 541.000
66.19059 514.000
66.21054 565.000
66.23049 574.000
66.25043 566.000
66.27038 525.000
66.29033 501.000
66.31027 451.000
66.33022 495.000
66.35017 459.000
66.37011 477.000
66.39006 487.000
66.41001 494.000
66.42995 440.000
66.44990 454.000
66.46985 442.000
66.48980 419.000
66.50974 398.000
66.52969 414.000
66.54964 384.000
66.56958 406.000
66.58953 417.000
66.60948 414.000
66.62942 375.000
66.64937 399.000
66.66932 378.000
66.68927 403.000
66.70921 369.000
66.72916 411.000
66.74911 446.000
66.76905 422.000
66.78900 434.000
66.80895 428.000
66.82889 417.000
66.84884 432.000
66.86879 451.000
66.88874 433.000
66.90868 367.000
66.92863 384.000
66.94858 415.000
66.96852 389.000
66.98847 370.000
67.00842 380.000
67.02836 359.000
67.04831 356.000
67.06826 360.000
67.08820 344.000
67.10815 308.000
67.12810 360.000
67.14805 312.000
67.16799 332.000
67.18794 326.000
67.20789 326.000
67.22783 359.000
67.24778 314.000
67.26773 301.000
67.28767 295.000
67.30762 325.000
67.32757 308.000
67.34752 301.000
67.36746 304.000
67.38741 273.000
67.40736 318.000
67.42730 316.000
67.44725 287.000
67.46720 316.000
67.48714 301.000
67.50709 322.000
67.52704 284.000
67.54698 301.000
67.56693 319.000
67.58688 308.000
67.60683 314.000
67.62677 309.000
67.64672 291.000
67.66667 342.000
67.68661 329.000
67.70656 296.000
67.72651 339.000
67.74645 318.000
67.76640 338.000
67.78635 313.000
67.80630 347.000
67.82624 355.000
67.84619 361.000
67.86614 363.000
67.88608 403.000
67.90603 410.000
67.92598 414.000
67.94592 473.000
67.96587 468.000
67.98582 462.000
68.00576 447.000
68.02571 426.000
68.04566 451.000
68.06561 469.000
68.08555 507.000
68.10550 532.000
68.12545 509.000
68.14539 548.000
68.16534 474.000
68.18529 454.000
68.20523 426.000
68.22518 436.000
68.24513 422.000
68.26508 369.000
68.28502 398.000
68.30497 437.000
68.32492 397.000
68.34486 411.000
68.36481 354.000
68.38476 325.000
68.40470 378.000
68.42465 346.000
68.44460 333.000
68.46455 342.000
68.48449 314.000
68.50444 310.000
68.52439 288.000
68.54433 301.000
68.56428 320.000
68.58423 324.000
68.60417 316.000
68.62412 283.000
68.64407 282.000
68.66401 335.000
68.68396 278.000
68.70391 304.000
68.72386 267.000
68.74380 314.000
68.76375 290.000
68.78370 317.000
68.80364 290.000
68.82359 303.000
68.84354 277.000
68.86348 308.000
68.88343 273.000
68.90338 305.000
68.92333 275.000
68.94327 275.000
68.96322 285.000
68.98317 307.000
69.00311 296.000
69.02306 311.000
69.04301 281.000
69.06295 281.000
69.08290 282.000
69.10285 264.000
69.12279 282.000
69.14274 312.000
69.16269 275.000
69.18264 301.000
69.20258 300.000
69.22253 287.000
69.24248 276.000
69.26242 297.000
69.28237 306.000
69.30232 299.000
69.32226 292.000
69.34221 286.000
69.36216 277.000
69.38211 313.000
69.40205 288.000
69.42200 287.000
69.44195 319.000
69.46189 282.000
69.48184 286.000
69.50179 280.000
69.52173 278.000
69.54168 271.000
69.56163 288.000
69.58157 268.000
69.60152 280.000
69.62147 276.000
69.64142 261.000
69.66136 310.000
69.68131 253.000
69.70126 275.000
69.72120 256.000
69.74115 310.000
69.76110 279.000
69.78104 307.000
69.80099 259.000
69.82094 302.000
69.84089 290.000
69.86083 292.000
69.88078 274.000
69.90073 299.000
69.92067 301.000
69.94062 304.000
69.96057 295.000
69.98051 268.000
70.00046 332.000
70.02041 278.000
70.04035 304.000
70.06030 258.000
70.08025 297.000
70.10020 292.000
70.12014 276.000
70.14009 317.000
70.16004 293.000
70.17998 295.000
70.19993 294.000
70.21988 302.000
70.23982 273.000
70.25977 298.000
70.27972 289.000
70.29967 262.000
70.31961 276.000
70.33956 258.000
70.35951 265.000
70.37945 267.000
70.39940 256.000
70.41935 279.000
70.43929 266.000
70.45924 287.000
70.47919 305.000
70.49914 268.000
70.51908 264.000
70.53903 294.000
70.55898 287.000
70.57892 278.000
70.59887 272.000
70.61882 284.000
70.63876 282.000
70.65871 272.000
70.67866 288.000
70.69860 315.000
70.71855 256.000
70.73850 292.000
70.75845 265.000
70.77839 296.000
70.79834 266.000
70.81829 318.000
70.83823 296.000
70.85818 273.000
70.87813 308.000
70.89807 272.000
70.91802 275.000
70.93797 291.000
70.95792 278.000
70.97786 297.000
70.99781 286.000
71.01776 284.000
71.03770 278.000
71.05765 292.000
71.07760 308.000
71.09754 301.000
71.11749 303.000
71.13744 276.000
71.15738 283.000
71.17733 294.000
71.19728 288.000
71.21723 282.000
71.23717 279.000
71.25712 290.000
71.27707 330.000
71.29701 337.000
71.31696 296.000
71.33691 310.000
71.35685 295.000
71.37680 295.000
71.39675 292.000
71.41670 373.000
71.43664 322.000
71.45659 274.000
71.47654 266.000
71.49648 301.000
71.51643 300.000
71.53638 331.000
71.55632 301.000
71.57627 314.000
71.59622 289.000
71.61616 321.000
71.63611 282.000
71.65606 343.000
71.67601 336.000
71.69595 309.000
71.71590 335.000
71.73585 300.000
71.75579 301.000
71.77574 307.000
71.79569 308.000
71.81563 329.000
71.83558 307.000
71.85553 298.000
71.87548 297.000
71.89542 281.000
71.91537 299.000
71.93532 329.000
71.95526 299.000
71.97521 306.000
71.99516 285.000
72.01510 316.000
72.03505 304.000
72.05500 287.000
72.07495 279.000
72.09489 316.000
72.11484 281.000
72.13479 278.000
72.15473 293.000
72.17468 297.000
72.19463 307.000
72.21457 285.000
72.23452 287.000
72.25447 284.000
72.27441 336.000
72.29436 292.000
72.31431 303.000
72.33426 346.000
72.35420 345.000
72.37415 356.000
72.39410 350.000
72.41404 380.000
72.43399 393.000
72.45394 386.000
72.47388 381.000
72.49383 351.000
72.51378 327.000
72.53373 330.000
72.55367 332.000
72.57362 338.000
72.59357 324.000
72.61351 321.000
72.63346 343.000
72.65341 368.000
72.67335 327.000
72.69330 304.000
72.71325 300.000
72.73319 316.000
72.75314 286.000
72.77309 292.000
72.79304 293.000
72.81298 307.000
72.83293 284.000
72.85288 303.000
72.87282 320.000
72.89277 296.000
72.91272 268.000
72.93266 288.000
72.95261 294.000
72.97256 294.000
72.99251 273.000
73.01245 287.000
73.03240 292.000
73.05235 262.000
73.07229 270.000
73.09224 292.000
73.11219 288.000
73.13213 319.000
73.15208 308.000
73.17203 293.000
73.19197 289.000
73.21192 310.000
73.23187 289.000
73.25182 281.000
73.27176 320.000
73.29171 301.000
73.31166 310.000
73.33160 282.000
73.35155 282.000
73.37150 286.000
73.39144 295.000
73.41139 309.000
73.43134 330.000
73.45129 296.000
73.47123 288.000
73.49118 308.000
73.51113 326.000
73.53107 318.000
73.55102 359.000
73.57097 340.000
73.59091 300.000
73.61086 294.000
73.63081 301.000
73.65076 306.000
73.67070 312.000
73.69065 334.000
73.71060 306.000
73.73054 316.000
73.75049 293.000
73.77044 308.000
73.79038 310.000
73.81033 310.000
73.83028 317.000
73.85022 334.000
73.87017 283.000
73.89012 303.000
73.91007 317.000
73.93001 299.000
73.94996 291.000
73.96991 310.000
73.98985 308.000
74.00980 278.000
74.02975 286.000
74.04969 324.000
74.06964 274.000
74.08959 270.000
74.10954 288.000
74.12948 325.000
74.14943 278.000
74.16938 329.000
74.18932 330.000
74.20927 261.000
74.22922 301.000
74.24916 315.000
74.26911 272.000
74.28906 321.000
74.30900 299.000
74.32895 325.000
74.34890 300.000
74.36885 307.000
74.38879 300.000
74.40874 315.000
74.42869 286.000
74.44863 306.000
74.46858 346.000
74.48853 295.000
74.50847 355.000
74.52842 300.000
74.54837 318.000
74.56832 337.000
74.58826 319.000
74.60821 316.000
74.62816 348.000
74.64810 342.000
74.66805 340.000
74.68800 329.000
74.70794 331.000
74.72789 316.000
74.74784 327.000
74.76778 335.000
74.78773 325.000
74.80768 353.000
74.82763 366.000
74.84757 348.000
74.86752 316.000
74.88747 323.000
74.90741 322.000
74.92736 381.000
74.94731 368.000
74.96725 369.000
74.98720 359.000
75.00715 395.000
75.02710 402.000
75.04704 384.000
75.06699 401.000
75.08694 351.000
75.10688 321.000
75.12683 357.000
75.14678 356.000
75.16672 332.000
75.18667 363.000
75.20662 393.000
75.22657 401.000
75.24651 401.000
75.26646 426.000
75.28641 434.000
75.30635 420.000
75.32630 375.000
75.34625 347.000
75.36619 352.000
75.38614 339.000
75.40609 362.000
75.42603 322.000
75.44598 351.000
75.46593 347.000
75.48588 388.000
75.50582 356.000
75.52577 354.000
75.54572 353.000
75.56566 313.000
75.58561 356.000
75.60556 328.000
75.62550 312.000
75.64545 356.000
75.66540 319.000
75.68535 328.000
75.70529 322.000
75.72524 342.000
75.74519 302.000
75.76513 336.000
75.78508 298.000
75.80503 320.000
75.82497 355.000
75.84492 319.000
75.86487 302.000
75.88481 345.000
75.90476 330.000
75.92471 313.000
75.94466 333.000
75.96460 335.000
75.98455 303.000
76.00450 325.000
76.02444 348.000
76.04439 297.000
76.06434 311.000
76.08428 314.000
76.10423 292.000
76.12418 314.000
76.14413 317.000
76.16407 289.000
76.18402 286.000
76.20397 293.000
76.22391 320.000
76.24386 291.000
76.26381 287.000
76.28375 304.000
76.30370 296.000
76.32365 259.000
76.34359 296.000
76.36354 305.000
76.38349 281.000
76.40344 293.000
76.42338 273.000
76.44333 291.000
76.46328 332.000
76.48322 293.000
76.50317 274.000
76.52312 309.000
76.54306 279.000
76.56301 276.000
76.58296 281.000
76.60291 272.000
76.62285 274.000
76.64280 285.000
76.66275 247.000
76.68269 274.000
76.70264 271.000
76.72259 299.000
76.74253 274.000
76.76248 298.000
76.78243 315.000
76.80238 290.000
76.82232 264.000
76.84227 286.000
76.86222 301.000
76.88216 304.000
76.90211 304.000
76.92206 274.000
76.94200 293.000
76.96195 289.000
76.98190 346.000
77.00184 286.000
77.02179 264.000
77.04174 309.000
77.06169 318.000
77.08163 308.000
77.10158 331.000
77.12153 314.000
77.14147 304.000
77.16142 292.000
77.18137 315.000
77.20131 292.000
77.22126 291.000
77.24121 281.000
77.26116 285.000
77.28110 295.000
77.30105 298.000
77.32100 317.000
77.34094 277.000
77.36089 303.000
77.38084 299.000
77.40078 339.000
77.42073 335.000
77.44068 319.000
77.46062 339.000
77.48057 354.000
77.50052 347.000
77.52047 371.000
77.54041 339.000
77.56036 321.000
77.58031 334.000
77.60025 336.000
77.62020 316.000
77.64015 331.000
77.66009 373.000
77.68004 347.000
77.69999 311.000
77.71994 327.000
77.73988 318.000
77.75983 316.000
77.77978 326.000
77.79972 293.000
77.81967 311.000
77.83962 348.000
77.85956 321.000
77.87951 308.000
77.89946 320.000
77.91940 281.000
77.93935 303.000
77.95930 296.000
77.97925 287.000
77.99919 302.000
78.01914 299.000
78.03909 320.000
78.05903 302.000
78.07898 313.000
78.09893 323.000
78.11887 297.000
78.13882 364.000
78.15877 314.000
78.17872 346.000
78.19866 324.000
78.21861 328.000
78.23856 351.000
78.25850 346.000
78.27845 297.000
78.29840 313.000
78.31834 322.000
78.33829 300.000
78.35824 311.000
78.37819 337.000
78.39813 328.000
78.41808 325.000
78.43803 311.000
78.45797 295.000
78.47792 308.000
78.49787 301.000
78.51781 269.000
78.53776 293.000
78.55771 297.000
78.57765 301.000
78.59760 292.000
78.61755 296.000
78.63750 313.000
78.65744 294.000
78.67739 279.000
78.69734 310.000
78.71728 284.000
78.73723 321.000
78.75718 267.000
78.77712 300.000
78.79707 265.000
78.81702 277.000
78.83697 282.000
78.85691 257.000
78.87686 270.000
78.89681 275.000
78.91675 271.000
78.93670 262.000
78.95665 291.000
78.97659 314.000
78.99654 320.000
79.01649 258.000
79.03643 282.000
79.05638 312.000
79.07633 302.000
79.09628 267.000
79.11622 289.000
79.13617 267.000
79.15612 275.000
79.17606 258.000
79.19601 292.000
79.21596 327.000
79.23590 272.000
79.25585 287.000
79.27580 301.000
79.29575 293.000
79.31569 294.000
79.33564 288.000
79.35559 282.000
79.37553 284.000
79.39548 301.000
79.41543 281.000
79.43537 275.000
79.45532 269.000
79.47527 300.000
79.49521 283.000
79.51516 326.000
79.53511 286.000
79.55506 279.000
79.57500 289.000
79.59495 291.000
79.61490 268.000
79.63484 317.000
79.65479 300.000
79.67474 337.000
79.69468 332.000
79.71463 302.000
79.73458 261.000
79.75453 290.000
79.77447 307.000
79.79442 292.000
79.81437 293.000
79.83431 329.000
79.85426 318.000
79.87421 251.000
79.89415 298.000
79.91410 276.000
79.93405 302.000
79.95399 289.000
79.97394 317.000
79.99389 301.000
80.01384 306.000
80.03378 279.000
80.05373 304.000
80.07368 293.000
80.09362 307.000
80.11357 318.000
80.13352 291.000
80.15346 349.000
80.17341 318.000
80.19336 319.000
80.21331 297.000
80.23325 285.000
80.25320 303.000
80.27315 297.000
80.29309 310.000
80.31304 273.000
80.33299 307.000
80.35293 330.000
80.37288 301.000
80.39283 316.000
80.41278 303.000
80.43272 305.000
80.45267 292.000
80.47262 291.000
80.49256 286.000
80.51251 275.000
80.53246 283.000
80.55240 323.000
80.57235 296.000
80.59230 280.000
80.61224 288.000
80.63219 299.000
80.65214 293.000
80.67209 279.000
80.69203 297.000
80.71198 318.000
80.73193 274.000
80.75187 279.000
80.77182 281.000
80.79177 253.000
80.81171 289.000
80.83166 293.000
80.85161 291.000
80.87156 294.000
80.89150 276.000
80.91145 272.000
80.93140 275.000
80.95134 291.000
80.97129 289.000
80.99124 272.000
81.01118 287.000
81.03113 310.000
81.05108 280.000
81.07102 290.000
81.09097 287.000
81.11092 291.000
81.13087 276.000
81.15081 282.000
81.17076 275.000
81.19071 288.000
81.21065 291.000
81.23060 290.000
81.25055 267.000
81.27049 259.000
81.29044 262.000
81.31039 289.000
81.33034 265.000
81.35028 287.000
81.37023 283.000
81.39018 280.000
81.41012 258.000
81.43007 282.000
81.45002 265.000
81.46996 291.000
81.48991 297.000
81.50986 263.000
81.52980 299.000
81.54975 294.000
81.56970 303.000
81.58965 249.000
81.60959 274.000
81.62954 257.000
81.64949 301.000
81.66943 272.000
81.68938 305.000
81.70933 271.000
81.72927 278.000
81.74922 319.000
81.76917 256.000
81.78912 282.000
81.80906 287.000
81.82901 317.000
81.84896 285.000
81.86890 273.000
81.88885 294.000
81.90880 280.000
81.92874 262.000
81.94869 292.000
81.96864 271.000
81.98859 270.000
82.00853 296.000
82.02848 286.000
82.04843 295.000
82.06837 249.000
82.08832 275.000
82.10827 265.000
82.12821 272.000
82.14816 330.000
82.16811 315.000
82.18805 328.000
82.20800 343.000
82.22795 309.000
82.24790 317.000
82.26784 297.000
82.28779 330.000
82.30774 347.000
82.32768 317.000
82.34763 333.000
82.36758 334.000
82.38752 328.000
82.40747 336.000
82.42742 309.000
82.44737 345.000
82.46731 352.000
82.48726 341.000
82.50721 327.000
82.52715 330.000
82.54710 308.000
82.56705 338.000
82.58699 361.000
82.60694 346.000
82.62689 286.000
82.64683 326.000
82.66678 375.000
82.68673 314.000
82.70668 340.000
82.72662 333.000
82.74657 325.000
82.76652 313.000
82.78646 321.000
82.80641 306.000
82.82636 275.000
82.84630 301.000
82.86625 290.000
82.88620 331.000
82.90615 298.000
82.92609 286.000
82.94604 288.000
82.96599 291.000
82.98593 341.000
83.00588 320.000
83.02583 309.000
83.04577 325.000
83.06572 335.000
83.08567 320.000
83.10561 316.000
83.12556 339.000
83.14551 332.000
83.16546 327.000
83.18540 319.000
83.20535 325.000
83.22530 299.000
83.24524 308.000
83.26519 351.000
83.28514 303.000
83.30508 326.000
83.32503 285.000
83.34498 362.000
83.36493 323.000
83.38487 309.000
83.40482 335.000
83.42477 330.000
83.44471 320.000
83.46466 325.000
83.48461 291.000
83.50455 322.000
83.52450 322.000
83.54445 302.000
83.56440 356.000
83.58434 356.000
83.60429 332.000
83.62424 354.000
83.64418 291.000
83.66413 309.000
83.68408 321.000
83.70402 281.000
83.72397 292.000
83.74392 318.000
83.76386 304.000
83.78381 286.000
83.80376 312.000
83.82371 338.000
83.84365 358.000
83.86360 342.000
83.88355 316.000
83.90349 294.000
83.92344 316.000
83.94339 283.000
83.96333 288.000
83.98328 292.000
84.00323 278.000
84.02318 278.000
84.04312 266.000
84.06307 296.000
84.08302 299.000
84.10296 300.000
84.12291 305.000
84.14286 299.000
84.16280 290.000
84.18275 278.000
84.20270 285.000
84.22264 292.000
84.24259 275.000
84.26254 302.000
84.28249 289.000
84.30243 301.000
84.32238 310.000
84.34233 300.000
84.36227 303.000
84.38222 312.000
84.40217 303.000
84.42211 335.000
84.44206 291.000
84.46201 295.000
84.48196 312.000
84.50190 291.000
84.52185 321.000
84.54180 310.000
84.56174 323.000
84.58169 304.000
84.60164 312.000
84.62158 313.000
84.64153 330.000
84.66148 317.000
84.68142 324.000
84.70137 306.000
84.72132 324.000
84.74127 308.000
84.76121 338.000
84.78116 308.000
84.80111 311.000
84.82105 333.000
84.84100 305.000
84.86095 301.000
84.88089 325.000
84.90084 300.000
84.92079 317.000
84.94074 334.000
84.96068 309.000
84.98063 318.000
85.00058 307.000
85.02052 312.000
85.04047 290.000
85.06042 310.000
85.08036 257.000
85.10031 263.000
85.12026 289.000
85.14021 283.000
85.16015 284.000
85.18010 266.000
85.20005 279.000
85.21999 281.000
85.23994 276.000
85.25989 287.000
85.27983 295.000
85.29978 264.000
85.31973 255.000
85.33967 262.000
85.35962 289.000
85.37957 298.000
85.39952 280.000
85.41946 275.000
85.43941 269.000
85.45936 289.000
85.47930 290.000
85.49925 281.000
85.51920 306.000
85.53914 309.000
85.55909 273.000
85.57904 277.000
85.59899 274.000
85.61893 265.000
85.63888 275.000
85.65883 289.000
85.67877 306.000
85.69872 288.000
85.71867 288.000
85.73861 279.000
85.75856 301.000
85.77851 279.000
85.79845 271.000
85.81840 280.000
85.83835 282.000
85.85830 294.000
85.87824 269.000
85.89819 287.000
85.91814 285.000
85.93808 301.000
85.95803 242.000
85.97798 298.000
85.99792 294.000
86.01787 283.000
86.03782 280.000
86.05777 301.000
86.07771 297.000
86.09766 270.000
86.11761 304.000
86.13755 278.000
86.15750 312.000
86.17745 309.000
86.19739 277.000
86.21734 313.000
86.23729 278.000
86.25723 307.000
86.27718 286.000
86.29713 282.000
86.31708 327.000
86.33702 293.000
86.35697 293.000
86.37692 310.000
86.39686 280.000
86.41681 305.000
86.43676 313.000
86.45670 330.000
86.47665 302.000
86.49660 272.000
86.51655 279.000
86.53649 310.000
86.55644 291.000
86.57639 291.000
86.59633 327.000
86.61628 300.000
86.63623 307.000
86.65617 278.000
86.67612 270.000
86.69607 305.000
86.71602 301.000
86.73596 300.000
86.75591 296.000
86.77586 275.000
86.79580 310.000
86.81575 305.000
86.83570 309.000
86.85564 288.000
86.87559 277.000
86.89554 263.000
86.91548 281.000
86.93543 297.000
86.95538 300.000
86.97533 284.000
86.99527 325.000
87.01522 301.000
87.03517 297.000
87.05511 252.000
87.07506 305.000
87.09501 302.000
87.11495 273.000
87.13490 282.000
87.15485 275.000
87.17480 273.000
87.19474 301.000
87.21469 295.000
87.23464 297.000
87.25458 303.000
87.27453 280.000
87.29448 280.000
87.31442 289.000
87.33437 300.000
87.35432 282.000
87.37426 293.000
87.39421 286.000
87.41416 271.000
87.43411 322.000
87.45405 266.000
87.47400 322.000
87.49395 272.000
87.51389 304.000
87.53384 326.000
87.55379 257.000
87.57373 294.000
87.59368 303.000
87.61363 286.000
87.63358 318.000
87.65352 282.000
87.67347 313.000
87.69342 318.000
87.71336 297.000
87.73331 328.000
87.75326 279.000
87.77320 310.000
87.79315 325.000
87.81310 296.000
87.83304 295.000
87.85299 306.000
87.87294 305.000
87.89289 304.000
87.91283 270.000
87.93278 297.000
87.95273 276.000
87.97267 282.000
87.99262 284.000
88.01257 265.000
88.03251 265.000
88.05246 289.000
88.07241 274.000
88.09236 319.000
88.11230 296.000
88.13225 283.000
88.15220 261.000
88.17214 307.000
88.19209 269.000
88.21204 292.000
88.23198 274.000
88.25193 307.000
88.27188 291.000
88.29183 289.000
88.31177 294.000
88.33172 268.000
88.35167 284.000
88.37161 283.000
88.39156 264.000
88.41151 310.000
88.43145 292.000
88.45140 288.000
88.47135 294.000
88.49129 288.000
88.51124 281.000
88.53119 282.000
88.55114 289.000
88.57108 274.000
88.59103 300.000
88.61098 293.000
88.63092 277.000
88.65087 267.000
88.67082 302.000
88.69076 241.000
88.71071 265.000
88.73066 313.000
88.75061 330.000
88.77055 271.000
88.79050 295.000
88.81045 288.000
88.83039 286.000
88.85034 261.000
88.87029 279.000
88.89023 269.000
88.91018 286.000
88.93013 268.000
88.95007 295.000
88.97002 283.000
88.98997 304.000
89.00992 263.000
89.02986 290.000
89.04981 284.000
89.06976 300.000
89.08970 284.000
89.10965 292.000
89.12960 242.000
89.14954 294.000
89.16949 278.000
89.18944 289.000
89.20939 322.000
89.22933 300.000
89.24928 278.000
89.26923 284.000
89.28917 253.000
89.30912 305.000
89.32907 292.000
89.34901 301.000
89.36896 303.000
89.38891 286.000
89.40885 301.000
89.42880 294.000
89.44875 287.000
89.46870 284.000
89.48864 276.000
89.50859 299.000
89.52854 266.000
89.54848 282.000
89.56843 308.000
89.58838 313.000
89.60832 320.000
89.62827 315.000
89.64822 317.000
89.66817 311.000
89.68811 290.000
89.70806 324.000
89.72801 326.000
89.74795 317.000
89.76790 309.000
89.78785 304.000
89.80779 340.000
89.82774 332.000
89.84769 284.000
89.86764 337.000
89.88758 349.000
89.90753 335.000
89.92748 321.000
89.94742 302.000
89.96737 315.000
89.98732 350.000
90.00726 324.000
