10.00000 56.000
10.01995 50.000
10.03989 66.000
10.05984 51.000
10.07979 38.000
10.09973 48.000
10.11968 53.000
10.13963 28.000
10.15958 26.000
10.17952 39.000
10.19947 45.000
10.21942 42.000
10.23936 28.000
10.25931 26.000
10.27926 37.000
10.29920 32.000
10.31915 30.000
10.33910 30.000
10.35905 27.000
10.37899 25.000
10.39894 31.000
10.41889 38.000
10.43883 32.000
10.45878 31.000
10.47873 40.000
10.49867 43.000
10.51862 26.000
10.53857 36.000
10.55851 28.000
10.57846 20.000
10.59841 25.000
10.61836 17.000
10.63830 28.000
10.65825 23.000
10.67820 31.000
10.69814 31.000
10.71809 33.000
10.73804 26.000
10.75798 26.000
10.77793 32.000
10.79788 35.000
10.81783 33.000
10.83777 25.000
10.85772 26.000
10.87767 32.000
10.89761 37.000
10.91756 27.000
10.93751 27.000
10.95745 36.000
10.97740 26.000
10.99735 30.000
11.01730 21.000
11.03724 29.000
11.05719 31.000
11.07714 32.000
11.09708 24.000
11.11703 23.000
11.13698 28.000
11.15692 23.000
11.17687 17.000
11.19682 37.000
11.21676 22.000
11.23671 21.000
11.25666 23.000
11.27661 24.000
11.29655 18.000
11.31650 30.000
11.33645 30.000
11.35639 23.000
11.37634 19.000
11.39629 27.000
11.41623 23.000
11.43618 26.000
11.45613 18.000
11.47608 20.000
11.49602 22.000
11.51597 26.000
11.53592 31.000
11.55586 32.000
11.57581 26.000
11.59576 22.000
11.61570 20.000
11.63565 12.000
11.65560 22.000
11.67554 35.000
11.69549 35.000
11.71544 17.000
11.73539 26.000
11.75533 29.000
11.77528 32.000
11.79523 27.000
11.81517 27.000
11.83512 31.000
11.85507 19.000
11.87501 27.000
11.89496 21.000
11.91491 32.000
11.93486 28.000
11.95480 27.000
11.97475 28.000
11.99470 19.000
12.01464 18.000
12.03459 23.000
12.05454 30.000
12.07448 26.000
12.09443 31.000
12.11438 26.000
12.13432 24.000
12.15427 20.000
12.17422 23.000
12.19417 21.000
12.21411 23.000
12.23406 18.000
12.25401 25.000
12.27395 26.000
12.29390 27.000
12.31385 17.000
12.33379 32.000
12.35374 21.000
12.37369 26.000
12.39364 18.000
12.41358 24.000
12.43353 21.000
12.45348 33.000
12.47342 32.000
12.49337 25.000
12.51332 29.000
12.53326 22.000
12.55321 28.000
12.57316 22.000
12.59311 24.000
12.61305 20.000
12.63300 33.000
12.65295 25.000
12.67289 30.000
12.69284 18.000
12.71279 21.000
12.73273 21.000
12.75268 17.000
12.77263 25.000
12.79257 20.000
12.81252 23.000
12.83247 27.000
12.85242 30.000
12.87236 21.000
12.89231 25.000
12.91226 25.000
12.93220 19.000
12.95215 18.000
12.97210 21.000
12.99204 27.000
13.01199 28.000
13.03194 18.000
13.05189 22.000
13.07183 25.000
13.09178 28.000
13.11173 32.000
13.13167 43.000
13.15162 52.000
13.17157 80.000
13.19151 102.000
13.21146 114.000
13.23141 90.000
13.25135 56.000
13.27130 48.000
13.29125 30.000
13.31120 33.000
13.33114 21.000
13.35109 25.000
13.37104 22.000
13.39098 23.000
13.41093 17.000
13.43088 15.000
13.45082 12.000
13.47077 20.000
13.49072 21.000
13.51067 17.000
13.53061 20.000
13.55056 17.000
13.57051 16.000
13.59045 24.000
13.61040 18.000
13.63035 26.000
13.65029 20.000
13.67024 14.000
13.69019 25.000
13.71013 15.000
13.73008 20.000
13.75003 22.000
13.76998 30.000
13.78992 24.000
13.80987 21.000
13.82982 10.000
13.84976 28.000
13.86971 25.000
13.88966 22.000
13.90960 23.000
13.92955 31.000
13.94950 21.000
13.96945 14.000
13.98939 26.000
14.00934 24.000
14.02929 35.000
14.04923 25.000
14.06918 21.000
14.08913 18.000
14.10907 30.000
14.12902 28.000
14.14897 24.000
14.16892 22.000
14.18886 24.000
14.20881 14.000
14.22876 24.000
14.24870 27.000
14.26865 25.000
14.28860 31.000
14.30854 18.000
14.32849 26.000
14.34844 25.000
14.36838 24.000
14.38833 26.000
14.40828 18.000
14.42823 21.000
14.44817 20.000
14.46812 22.000
14.48807 34.000
14.50801 27.000
14.52796 56.000
14.54791 49.000
14.56785 80.000
14.58780 128.000
14.60775 218.000
14.62770 391.000
14.64764 692.000
14.66759 749.000
14.68754 532.000
14.70748 342.000
14.72743 131.000
14.74738 55.000
14.76732 34.000
14.78727 43.000
14.80722 34.000
14.82716 24.000
14.84711 28.000
14.86706 28.000
14.88701 35.000
14.90695 24.000
14.92690 22.000
14.94685 18.000
14.96679 26.000
14.98674 18.000
15.00669 21.000
15.02663 29.000
15.04658 15.000
15.06653 32.000
15.08648 31.000
15.10642 28.000
15.12637 26.000
15.14632 23.000
15.16626 25.000
15.18621 23.000
15.20616 21.000
15.22610 16.000
15.24605 22.000
15.26600 22.000
15.28594 27.000
15.30589 14.000
15.32584 19.000
15.34579 19.000
15.36573 35.000
15.38568 14.000
15.40563 15.000
15.42557 20.000
15.44552 12.000
15.46547 16.000
15.48541 16.000
15.50536 13.000
15.52531 21.000
15.54526 23.000
15.56520 16.000
15.58515 17.000
15.60510 33.000
15.62504 15.000
15.64499 26.000
15.66494 18.000
15.68488 15.000
15.70483 22.000
15.72478 24.000
15.74472 27.000
15.76467 23.000
15.78462 23.000
15.80457 16.000
15.82451 17.000
15.84446 16.000
15.86441 26.000
15.88435 19.000
15.90430 14.000
15.92425 14.000
15.94419 24.000
15.96414 22.000
15.98409 22.000
16.00404 19.000
16.02398 26.000
16.04393 28.000
16.06388 20.000
16.08382 15.000
16.10377 14.000
16.12372 15.000
16.14366 17.000
16.16361 23.000
16.18356 23.000
16.20351 20.000
16.22345 14.000
16.24340 24.000
16.26335 20.000
16.28329 25.000
16.30324 22.000
16.32319 22.000
16.34313 19.000
16.36308 24.000
16.38303 25.000
16.40297 23.000
16.42292 20.000
16.44287 11.000
16.46282 25.000
16.48276 18.000
16.50271 17.000
16.52266 18.000
16.54260 17.000
16.56255 18.000
16.58250 15.000
16.60244 18.000
16.62239 14.000
16.64234 25.000
16.66229 19.000
16.68223 20.000
16.70218 15.000
16.72213 21.000
16.74207 14.000
16.76202 31.000
16.78197 17.000
16.80191 11.000
16.82186 24.000
16.84181 26.000
16.86175 18.000
16.88170 19.000
16.90165 22.000
16.92160 24.000
16.94154 11.000
16.96149 24.000
16.98144 24.000
17.00138 20.000
17.02133 15.000
17.04128 17.000
17.06122 13.000
17.08117 21.000
17.10112 26.000
17.12107 26.000
17.14101 14.000
17.16096 20.000
17.18091 19.000
17.20085 20.000
17.22080 22.000
17.24075 28.000
17.26069 18.000
17.28064 15.000
17.30059 22.000
17.32053 18.000
17.34048 16.000
17.36043 15.000
17.38038 22.000
17.40032 16.000
17.42027 28.000
17.44022 13.000
17.46016 19.000
17.48011 16.000
17.50006 14.000
17.52000 19.000
17.53995 14.000
17.55990 16.000
17.57985 24.000
17.59979 19.000
17.61974 15.000
17.63969 21.000
17.65963 23.000
17.67958 22.000
17.69953 16.000
17.71947 16.000
17.73942 22.000
17.75937 14.000
17.77932 14.000
17.79926 25.000
17.81921 18.000
17.83916 12.000
17.85910 22.000
17.87905 19.000
17.89900 22.000
17.91894 16.000
17.93889 17.000
17.95884 26.000
17.97878 16.000
17.99873 21.000
18.01868 19.000
18.03863 17.000
18.05857 21.000
18.07852 14.000
18.09847 20.000
18.11841 17.000
18.13836 19.000
18.15831 27.000
18.17825 24.000
18.19820 14.000
18.21815 21.000
18.23810 17.000
18.25804 26.000
18.27799 18.000
18.29794 23.000
18.31788 26.000
18.33783 24.000
18.35778 20.000
18.37772 17.000
18.39767 18.000
18.41762 23.000
18.43756 11.000
18.45751 19.000
18.47746 17.000
18.49741 20.000
18.51735 16.000
18.53730 25.000
18.55725 24.000
18.57719 26.000
18.59714 27.000
18.61709 19.000
18.63703 18.000
18.65698 20.000
18.67693 26.000
18.69688 18.000
18.71682 14.000
18.73677 17.000
18.75672 26.000
18.77666 20.000
18.79661 17.000
18.81656 22.000
18.83650 22.000
18.85645 22.000
18.87640 26.000
18.89634 15.000
18.91629 24.000
18.93624 21.000
18.95619 22.000
18.97613 29.000
18.99608 14.000
19.01603 18.000
19.03597 29.000
19.05592 18.000
19.07587 19.000
19.09581 19.000
19.11576 13.000
19.13571 13.000
19.15566 17.000
19.17560 17.000
19.19555 20.000
19.21550 23.000
19.23544 27.000
19.25539 24.000
19.27534 27.000
19.29528 33.000
19.31523 42.000
19.33518 79.000
19.35513 131.000
19.37507 116.000
19.39502 91.000
19.41497 81.000
19.43491 52.000
19.45486 52.000
19.47481 45.000
19.49475 69.000
19.51470 89.000
19.53465 102.000
19.55459 72.000
19.57454 56.000
19.59449 54.000
19.61444 28.000
19.63438 31.000
19.65433 24.000
19.67428 36.000
19.69422 35.000
19.71417 49.000
19.73412 50.000
19.75406 83.000
19.77401 72.000
19.79396 90.000
19.81391 72.000
19.83385 57.000
19.85380 57.000
19.87375 36.000
19.89369 43.000
19.91364 48.000
19.93359 64.000
19.95353 126.000
19.97348 193.000
19.99343 126.000
20.01337 110.000
20.03332 118.000
20.05327 50.000
20.07322 39.000
20.09316 30.000
20.11311 33.000
20.13306 25.000
20.15300 23.000
20.17295 27.000
20.19290 19.000
20.21284 28.000
20.23279 23.000
20.25274 25.000
20.27269 22.000
20.29263 19.000
20.31258 29.000
20.33253 16.000
20.35247 23.000
20.37242 39.000
20.39237 28.000
20.41231 30.000
20.43226 34.000
20.45221 36.000
20.47215 69.000
20.49210 68.000
20.51205 118.000
20.53200 122.000
20.55194 137.000
20.57189 150.000
20.59184 161.000
20.61178 210.000
20.63173 290.000
20.65168 271.000
20.67162 204.000
20.69157 191.000
20.71152 126.000
20.73147 95.000
20.75141 79.000
20.77136 65.000
20.79131 60.000
20.81125 72.000
20.83120 61.000
20.85115 53.000
20.87109 73.000
20.89104 55.000
20.91099 48.000
20.93094 47.000
20.95088 26.000
20.97083 29.000
20.99078 29.000
21.01072 27.000
21.03067 26.000
21.05062 18.000
21.07056 26.000
21.09051 23.000
21.11046 20.000
21.13040 25.000
21.15035 22.000
21.17030 15.000
21.19025 23.000
21.21019 22.000
21.23014 19.000
21.25009 17.000
21.27003 24.000
21.28998 14.000
21.30993 30.000
21.32987 17.000
21.34982 15.000
21.36977 22.000
21.38972 23.000
21.40966 25.000
21.42961 18.000
21.44956 14.000
21.46950 13.000
21.48945 16.000
21.50940 16.000
21.52934 23.000
21.54929 21.000
21.56924 22.000
21.58918 29.000
21.60913 21.000
21.62908 9.000
21.64903 26.000
21.66897 13.000
21.68892 26.000
21.70887 26.000
21.72881 19.000
21.74876 15.000
21.76871 30.000
21.78865 21.000
21.80860 23.000
21.82855 20.000
21.84850 18.000
21.86844 20.000
21.88839 26.000
21.90834 31.000
21.92828 22.000
21.94823 21.000
21.96818 14.000
21.98812 27.000
22.00807 20.000
22.02802 18.000
22.04796 21.000
22.06791 35.000
22.08786 17.000
22.10781 27.000
22.12775 44.000
22.14770 44.000
22.16765 51.000
22.18759 53.000
22.20754 75.000
22.22749 92.000
22.24743 170.000
22.26738 283.000
22.28733 597.000
22.30728 737.000
22.32722 555.000
22.34717 461.000
22.36712 406.000
22.38706 231.000
22.40701 112.000
22.42696 47.000
22.44690 52.000
22.46685 31.000
22.48680 39.000
22.50675 19.000
22.52669 32.000
22.54664 35.000
22.56659 19.000
22.58653 31.000
22.60648 25.000
22.62643 23.000
22.64637 33.000
22.66632 22.000
22.68627 20.000
22.70621 25.000
22.72616 26.000
22.74611 20.000
22.76606 23.000
22.78600 20.000
22.80595 29.000
22.82590 27.000
22.84584 30.000
22.86579 14.000
22.88574 26.000
22.90568 39.000
22.92563 35.000
22.94558 40.000
22.96553 44.000
22.98547 65.000
23.00542 88.000
23.02537 154.000
23.04531 220.000
23.06526 199.000
23.08521 129.000
23.10515 144.000
23.12510 97.000
23.14505 58.000
23.16499 51.000
23.18494 29.000
23.20489 33.000
23.22484 25.000
23.24478 20.000
23.26473 23.000
23.28468 25.000
23.30462 27.000
23.32457 27.000
23.34452 20.000
23.36446 26.000
23.38441 16.000
23.40436 24.000
23.42431 18.000
23.44425 22.000
23.46420 24.000
23.48415 18.000
23.50409 20.000
23.52404 14.000
23.54399 20.000
23.56393 17.000
23.58388 28.000
23.60383 23.000
23.62377 26.000
23.64372 26.000
23.66367 33.000
23.68362 29.000
23.70356 23.000
23.72351 25.000
23.74346 25.000
23.76340 18.000
23.78335 26.000
23.80330 30.000
23.82324 31.000
23.84319 22.000
23.86314 16.000
23.88309 24.000
23.90303 28.000
23.92298 31.000
23.94293 24.000
23.96287 32.000
23.98282 28.000
24.00277 46.000
24.02271 43.000
24.04266 48.000
24.06261 52.000
24.08256 85.000
24.10250 147.000
24.12245 289.000
24.14240 450.000
24.16234 411.000
24.18229 261.000
24.20224 266.000
24.22218 188.000
24.24213 91.000
24.26208 49.000
24.28202 44.000
24.30197 33.000
24.32192 31.000
24.34187 27.000
24.36181 31.000
24.38176 29.000
24.40171 31.000
24.42165 18.000
24.44160 22.000
24.46155 22.000
24.48149 25.000
24.50144 21.000
24.52139 25.000
24.54134 28.000
24.56128 24.000
24.58123 21.000
24.60118 16.000
24.62112 22.000
24.64107 34.000
24.66102 29.000
24.68096 22.000
24.70091 27.000
24.72086 23.000
24.74080 26.000
24.76075 26.000
24.78070 22.000
24.80065 22.000
24.82059 21.000
24.84054 27.000
24.86049 24.000
24.88043 27.000
24.90038 27.000
24.92033 25.000
24.94027 23.000
24.96022 16.000
24.98017 18.000
25.00012 18.000
25.02006 26.000
25.04001 25.000
25.05996 36.000
25.07990 20.000
25.09985 16.000
25.11980 23.000
25.13974 18.000
25.15969 27.000
25.17964 15.000
25.19958 27.000
25.21953 29.000
25.23948 25.000
25.25943 17.000
25.27937 18.000
25.29932 19.000
25.31927 26.000
25.33921 25.000
25.35916 26.000
25.37911 23.000
25.39905 24.000
25.41900 20.000
25.43895 26.000
25.45890 35.000
25.47884 23.000
25.49879 33.000
25.51874 23.000
25.53868 18.000
25.55863 20.000
25.57858 18.000
25.59852 22.000
25.61847 29.000
25.63842 22.000
25.65837 31.000
25.67831 25.000
25.69826 22.000
25.71821 23.000
25.73815 29.000
25.75810 26.000
25.77805 18.000
25.79799 31.000
25.81794 18.000
25.83789 32.000
25.85783 34.000
25.87778 39.000
25.89773 31.000
25.91768 40.000
25.93762 45.000
25.95757 47.000
25.97752 58.000
25.99746 65.000
26.01741 58.000
26.03736 68.000
26.05730 108.000
26.07725 118.000
26.09720 173.000
26.11715 269.000
26.13709 278.000
26.15704 236.000
26.17699 183.000
26.19693 181.000
26.21688 139.000
26.23683 70.000
26.25677 52.000
26.27672 44.000
26.29667 42.000
26.31661 25.000
26.33656 35.000
26.35651 34.000
26.37646 43.000
26.39640 34.000
26.41635 40.000
26.43630 35.000
26.45624 36.000
26.47619 51.000
26.49614 67.000
26.51608 70.000
26.53603 107.000
26.55598 132.000
26.57593 183.000
26.59587 163.000
26.61582 139.000
26.63577 138.000
26.65571 96.000
26.67566 71.000
26.69561 57.000
26.71555 37.000
26.73550 44.000
26.75545 41.000
26.77539 41.000
26.79534 47.000
26.81529 29.000
26.83524 41.000
26.85518 54.000
26.87513 67.000
26.89508 91.000
26.91502 80.000
26.93497 110.000
26.95492 91.000
26.97486 78.000
26.99481 78.000
27.01476 69.000
27.03471 48.000
27.05465 34.000
27.07460 36.000
27.09455 38.000
27.11449 38.000
27.13444 31.000
27.15439 33.000
27.17433 31.000
27.19428 29.000
27.21423 41.000
27.23417 39.000
27.25412 37.000
27.27407 46.000
27.29402 49.000
27.31396 40.000
27.33391 39.000
27.35386 36.000
27.37380 35.000
27.39375 37.000
27.41370 32.000
27.43364 37.000
27.45359 31.000
27.47354 27.000
27.49349 40.000
27.51343 31.000
27.53338 29.000
27.55333 30.000
27.57327 38.000
27.59322 35.000
27.61317 25.000
27.63311 24.000
27.65306 35.000
27.67301 37.000
27.69296 22.000
27.71290 30.000
27.73285 33.000
27.75280 41.000
27.77274 29.000
27.79269 26.000
27.81264 27.000
27.83258 23.000
27.85253 21.000
27.87248 27.000
27.89242 31.000
27.91237 24.000
27.93232 39.000
27.95227 22.000
27.97221 32.000
27.99216 21.000
28.01211 29.000
28.03205 27.000
28.05200 24.000
28.07195 24.000
28.09189 23.000
28.11184 27.000
28.13179 29.000
28.15174 28.000
28.17168 29.000
28.19163 36.000
28.21158 40.000
28.23152 25.000
28.25147 26.000
28.27142 27.000
28.29136 41.000
28.31131 30.000
28.33126 37.000
28.35120 26.000
28.37115 38.000
28.39110 27.000
28.41105 25.000
28.43099 28.000
28.45094 37.000
28.47089 38.000
28.49083 30.000
28.51078 25.000
28.53073 40.000
28.55067 27.000
28.57062 42.000
28.59057 41.000
28.61052 51.000
28.63046 45.000
28.65041 49.000
28.67036 49.000
28.69030 59.000
28.71025 45.000
28.73020 47.000
28.75014 44.000
28.77009 37.000
28.79004 30.000
28.80998 34.000
28.82993 36.000
28.84988 34.000
28.86983 23.000
28.88977 31.000
28.90972 34.000
28.92967 53.000
28.94961 41.000
28.96956 28.000
28.98951 39.000
29.00945 36.000
29.02940 32.000
29.04935 51.000
29.06930 38.000
29.08924 25.000
29.10919 37.000
29.12914 37.000
29.14908 34.000
29.16903 50.000
29.18898 48.000
29.20892 42.000
29.22887 34.000
29.24882 48.000
29.26877 41.000
29.28871 50.000
29.30866 45.000
29.32861 67.000
29.34855 51.000
29.36850 57.000
29.38845 67.000
29.40839 59.000
29.42834 73.000
29.44829 96.000
29.46823 124.000
29.48818 162.000
29.50813 271.000
29.52808 519.000
29.54802 734.000
29.56797 824.000
29.58792 620.000
29.60786 499.000
29.62781 512.000
29.64776 428.000
29.66770 268.000
29.68765 150.000
29.70760 99.000
29.72755 72.000
29.74749 60.000
29.76744 63.000
29.78739 74.000
29.80733 70.000
29.82728 66.000
29.84723 80.000
29.86717 50.000
29.88712 75.000
29.90707 80.000
29.92701 65.000
29.94696 54.000
29.96691 56.000
29.98686 56.000
30.00680 53.000
30.02675 52.000
30.04670 45.000
30.06664 42.000
30.08659 47.000
30.10654 57.000
30.12648 57.000
30.14643 48.000
30.16638 60.000
30.18633 57.000
30.20627 78.000
30.22622 86.000
30.24617 91.000
30.26611 74.000
30.28606 109.000
30.30601 93.000
30.32595 103.000
30.34590 111.000
30.36585 131.000
30.38579 144.000
30.40574 187.000
30.42569 282.000
30.44564 485.000
30.46558 792.000
30.48553 860.000
30.50548 630.000
30.52542 504.000
30.54537 508.000
30.56532 489.000
30.58526 346.000
30.60521 158.000
30.62516 127.000
30.64511 114.000
30.66505 77.000
30.68500 68.000
30.70495 54.000
30.72489 65.000
30.74484 46.000
30.76479 47.000
30.78473 49.000
30.80468 41.000
30.82463 41.000
30.84458 45.000
30.86452 46.000
30.88447 40.000
30.90442 45.000
30.92436 44.000
30.94431 54.000
30.96426 44.000
30.98420 39.000
31.00415 39.000
31.02410 43.000
31.04404 25.000
31.06399 34.000
31.08394 35.000
31.10389 41.000
31.12383 37.000
31.14378 33.000
31.16373 22.000
31.18367 40.000
31.20362 22.000
31.22357 29.000
31.24351 43.000
31.26346 43.000
31.28341 35.000
31.30336 36.000
31.32330 40.000
31.34325 27.000
31.36320 37.000
31.38314 25.000
31.40309 39.000
31.42304 34.000
31.44298 51.000
31.46293 56.000
31.48288 79.000
31.50282 114.000
31.52277 127.000
31.54272 80.000
31.56267 109.000
31.58261 77.000
31.60256 77.000
31.62251 76.000
31.64245 66.000
31.66240 53.000
31.68235 40.000
31.70229 49.000
31.72224 50.000
31.74219 47.000
31.76214 40.000
31.78208 32.000
31.80203 52.000
31.82198 29.000
31.84192 33.000
31.86187 39.000
31.88182 39.000
31.90176 37.000
31.92171 40.000
31.94166 37.000
31.96160 40.000
31.98155 42.000
32.00150 32.000
32.02145 36.000
32.04139 33.000
32.06134 29.000
32.08129 50.000
32.10123 51.000
32.12118 34.000
32.14113 47.000
32.16107 45.000
32.18102 46.000
32.20097 40.000
32.22092 36.000
32.24086 37.000
32.26081 44.000
32.28076 27.000
32.30070 36.000
32.32065 44.000
32.34060 31.000
32.36054 42.000
32.38049 38.000
32.40044 35.000
32.42039 52.000
32.44033 31.000
32.46028 48.000
32.48023 53.000
32.50017 53.000
32.52012 49.000
32.54007 50.000
32.56001 53.000
32.57996 54.000
32.59991 47.000
32.61985 48.000
32.63980 52.000
32.65975 43.000
32.67970 69.000
32.69964 55.000
32.71959 52.000
32.73954 54.000
32.75948 46.000
32.77943 45.000
32.79938 45.000
32.81932 53.000
32.83927 61.000
32.85922 52.000
32.87917 58.000
32.89911 55.000
32.91906 52.000
32.93901 75.000
32.95895 70.000
32.97890 83.000
32.99885 94.000
33.01879 106.000
33.03874 119.000
33.05869 153.000
33.07863 205.000
33.09858 315.000
33.11853 515.000
33.13848 1052.000
33.15842 1491.000
33.17837 1093.000
33.19832 665.000
33.21826 662.000
33.23821 950.000
33.25816 822.000
33.27810 440.000
33.29805 245.000
33.31800 203.000
33.33795 174.000
33.35789 142.000
33.37784 133.000
33.39779 80.000
33.41773 73.000
33.43768 85.000
33.45763 68.000
33.47757 74.000
33.49752 80.000
33.51747 57.000
33.53741 77.000
33.55736 89.000
33.57731 65.000
33.59726 80.000
33.61720 75.000
33.63715 90.000
33.65710 102.000
33.67704 118.000
33.69699 150.000
33.71694 169.000
33.73688 218.000
33.75683 343.000
33.77678 527.000
33.79673 835.000
33.81667 891.000
33.83662 676.000
33.85657 460.000
33.87651 517.000
33.89646 629.000
33.91641 475.000
33.93635 360.000
33.95630 336.000
33.97625 384.000
33.99620 439.000
34.01614 344.000
34.03609 298.000
34.05604 344.000
34.07598 438.000
34.09593 457.000
34.11588 694.000
34.13582 954.000
34.15577 1175.000
34.17572 892.000
34.19566 629.000
34.21561 606.000
34.23556 715.000
34.25551 629.000
34.27545 401.000
34.29540 296.000
34.31535 206.000
34.33529 188.000
34.35524 145.000
34.37519 123.000
34.39513 100.000
34.41508 111.000
34.43503 87.000
34.45498 89.000
34.47492 87.000
34.49487 90.000
34.51482 80.000
34.53476 80.000
34.55471 72.000
34.57466 68.000
34.59460 84.000
34.61455 90.000
34.63450 87.000
34.65444 87.000
34.67439 101.000
34.69434 147.000
34.71429 205.000
34.73423 315.000
34.75418 412.000
34.77413 439.000
34.79407 407.000
34.81402 284.000
34.83397 271.000
34.85391 293.000
34.87386 252.000
34.89381 200.000
34.91376 146.000
34.93370 93.000
34.95365 105.000
34.97360 101.000
34.99354 86.000
35.01349 99.000
35.03344 87.000
35.05338 100.000
35.07333 112.000
35.09328 180.000
35.11322 271.000
35.13317 347.000
35.15312 434.000
35.17307 370.000
35.19301 288.000
35.21296 249.000
35.23291 272.000
35.25285 242.000
35.27280 210.000
35.29275 145.000
35.31269 98.000
35.33264 87.000
35.35259 74.000
35.37254 92.000
35.39248 93.000
35.41243 90.000
35.43238 91.000
35.45232 92.000
35.47227 110.000
35.49222 111.000
35.51216 117.000
35.53211 122.000
35.55206 196.000
35.57201 284.000
35.59195 456.000
35.61190 749.000
35.63185 1033.000
35.65179 755.000
35.67174 456.000
35.69169 417.000
35.71163 579.000
35.73158 591.000
35.75153 349.000
35.77147 237.000
35.79142 124.000
35.81137 107.000
35.83132 111.000
35.85126 92.000
35.87121 85.000
35.89116 61.000
35.91110 61.000
35.93105 53.000
35.95100 58.000
35.97094 56.000
35.99089 53.000
36.01084 39.000
36.03079 51.000
36.05073 33.000
36.07068 55.000
36.09063 40.000
36.11057 42.000
36.13052 32.000
36.15047 37.000
36.17041 31.000
36.19036 29.000
36.21031 44.000
36.23025 40.000
36.25020 45.000
36.27015 31.000
36.29010 27.000
36.31004 35.000
36.32999 28.000
36.34994 32.000
36.36988 37.000
36.38983 34.000
36.40978 32.000
36.42972 29.000
36.44967 27.000
36.46962 39.000
36.48957 50.000
36.50951 45.000
36.52946 35.000
36.54941 46.000
36.56935 56.000
36.58930 66.000
36.60925 96.000
36.62919 125.000
36.64914 169.000
36.66909 223.000
36.68903 198.000
36.70898 132.000
36.72893 138.000
36.74888 128.000
36.76882 181.000
36.78877 137.000
36.80872 96.000
36.82866 140.000
36.84861 161.000
36.86856 150.000
36.88850 126.000
36.90845 87.000
36.92840 118.000
36.94835 91.000
36.96829 74.000
36.98824 76.000
37.00819 55.000
37.02813 57.000
37.04808 60.000
37.06803 51.000
37.08797 39.000
37.10792 35.000
37.12787 45.000
37.14781 35.000
37.16776 38.000
37.18771 24.000
37.20766 35.000
37.22760 30.000
37.24755 31.000
37.26750 23.000
37.28744 31.000
37.30739 20.000
37.32734 33.000
37.34728 24.000
37.36723 30.000
37.38718 28.000
37.40713 32.000
37.42707 27.000
37.44702 31.000
37.46697 32.000
37.48691 32.000
37.50686 17.000
37.52681 25.000
37.54675 19.000
37.56670 35.000
37.58665 33.000
37.60660 28.000
37.62654 34.000
37.64649 27.000
37.66644 33.000
37.68638 20.000
37.70633 30.000
37.72628 26.000
37.74622 18.000
37.76617 32.000
37.78612 39.000
37.80606 35.000
37.82601 34.000
37.84596 30.000
37.86591 37.000
37.88585 32.000
37.90580 41.000
37.92575 30.000
37.94569 49.000
37.96564 46.000
37.98559 35.000
38.00553 35.000
38.02548 39.000
38.04543 27.000
38.06538 40.000
38.08532 38.000
38.10527 46.000
38.12522 33.000
38.14516 32.000
38.16511 28.000
38.18506 36.000
38.20500 30.000
38.22495 31.000
38.24490 26.000
38.26484 33.000
38.28479 20.000
38.30474 25.000
38.32469 29.000
38.34463 36.000
38.36458 18.000
38.38453 22.000
38.40447 22.000
38.42442 19.000
38.44437 23.000
38.46431 14.000
38.48426 21.000
38.50421 21.000
38.52416 21.000
38.54410 18.000
38.56405 22.000
38.58400 20.000
38.60394 23.000
38.62389 20.000
38.64384 30.000
38.66378 17.000
38.68373 33.000
38.70368 24.000
38.72362 22.000
38.74357 21.000
38.76352 24.000
38.78347 33.000
38.80341 30.000
38.82336 27.000
38.84331 23.000
38.86325 21.000
38.88320 32.000
38.90315 23.000
38.92309 23.000
38.94304 27.000
38.96299 23.000
38.98294 21.000
39.00288 26.000
39.02283 29.000
39.04278 24.000
39.06272 18.000
39.08267 36.000
39.10262 29.000
39.12256 35.000
39.14251 32.000
39.16246 31.000
39.18241 33.000
39.20235 36.000
39.22230 32.000
39.24225 34.000
39.26219 46.000
39.28214 81.000
39.30209 50.000
39.32203 41.000
39.34198 34.000
39.36193 37.000
39.38187 51.000
39.40182 44.000
39.42177 25.000
39.44172 27.000
39.46166 16.000
39.48161 27.000
39.50156 28.000
39.52150 31.000
39.54145 33.000
39.56140 20.000
39.58134 22.000
39.60129 28.000
39.62124 27.000
39.64119 27.000
39.66113 35.000
39.68108 28.000
39.70103 25.000
39.72097 31.000
39.74092 30.000
39.76087 31.000
39.78081 25.000
39.80076 36.000
39.82071 31.000
39.84065 32.000
39.86060 31.000
39.88055 34.000
39.90050 33.000
39.92044 37.000
39.94039 39.000
39.96034 56.000
39.98028 65.000
40.00023 59.000
40.02018 44.000
40.04012 43.000
40.06007 43.000
40.08002 37.000
40.09997 37.000
40.11991 36.000
40.13986 42.000
40.15981 33.000
40.17975 35.000
40.19970 31.000
40.21965 28.000
40.23959 27.000
40.25954 29.000
40.27949 42.000
40.29943 23.000
40.31938 19.000
40.33933 21.000
40.35928 27.000
40.37922 38.000
40.39917 26.000
40.41912 33.000
40.43906 29.000
40.45901 32.000
40.47896 37.000
40.49890 39.000
40.51885 44.000
40.53880 42.000
40.55875 36.000
40.57869 39.000
40.59864 43.000
40.61859 33.000
40.63853 35.000
40.65848 50.000
40.67843 40.000
40.69837 31.000
40.71832 43.000
40.73827 45.000
40.75822 47.000
40.77816 71.000
40.79811 78.000
40.81806 123.000
40.83800 203.000
40.85795 272.000
40.87790 268.000
40.89784 160.000
40.91779 91.000
40.93774 133.000
40.95768 155.000
40.97763 147.000
40.99758 119.000
41.01753 65.000
41.03747 46.000
41.05742 32.000
41.07737 29.000
41.09731 37.000
41.11726 32.000
41.13721 30.000
41.15715 38.000
41.17710 36.000
41.19705 27.000
41.21700 35.000
41.23694 37.000
41.25689 22.000
41.27684 17.000
41.29678 31.000
41.31673 33.000
41.33668 30.000
41.35662 33.000
41.37657 56.000
41.39652 69.000
41.41646 62.000
41.43641 48.000
41.45636 59.000
41.47631 56.000
41.49625 62.000
41.51620 57.000
41.53615 87.000
41.55609 99.000
41.57604 70.000
41.59599 75.000
41.61593 58.000
41.63588 57.000
41.65583 56.000
41.67578 53.000
41.69572 46.000
41.71567 51.000
41.73562 26.000
41.75556 30.000
41.77551 24.000
41.79546 23.000
41.81540 32.000
41.83535 28.000
41.85530 27.000
41.87524 27.000
41.89519 26.000
41.91514 22.000
41.93509 24.000
41.95503 24.000
41.97498 32.000
41.99493 21.000
42.01487 26.000
42.03482 27.000
42.05477 27.000
42.07471 27.000
42.09466 11.000
42.11461 23.000
42.13456 23.000
42.15450 27.000
42.17445 30.000
42.19440 30.000
42.21434 28.000
42.23429 18.000
42.25424 36.000
42.27418 27.000
42.29413 24.000
42.31408 25.000
42.33403 26.000
42.35397 31.000
42.37392 32.000
42.39387 21.000
42.41381 27.000
42.43376 32.000
42.45371 29.000
42.47365 39.000
42.49360 41.000
42.51355 37.000
42.53349 46.000
42.55344 43.000
42.57339 27.000
42.59334 35.000
42.61328 48.000
42.63323 42.000
42.65318 21.000
42.67312 31.000
42.69307 24.000
42.71302 25.000
42.73296 23.000
42.75291 28.000
42.77286 27.000
42.79281 16.000
42.81275 26.000
42.83270 25.000
42.85265 24.000
42.87259 20.000
42.89254 23.000
42.91249 16.000
42.93243 30.000
42.95238 16.000
42.97233 21.000
42.99227 23.000
43.01222 20.000
43.03217 29.000
43.05212 27.000
43.07206 26.000
43.09201 26.000
43.11196 21.000
43.13190 26.000
43.15185 23.000
43.17180 51.000
43.19174 35.000
43.21169 50.000
43.23164 42.000
43.25159 35.000
43.27153 32.000
43.29148 48.000
43.31143 44.000
43.33137 32.000
43.35132 40.000
43.37127 31.000
43.39121 38.000
43.41116 40.000
43.43111 31.000
43.45105 39.000
43.47100 40.000
43.49095 39.000
43.51090 47.000
43.53084 37.000
43.55079 37.000
43.57074 48.000
43.59068 35.000
43.61063 40.000
43.63058 44.000
43.65052 44.000
43.67047 42.000
43.69042 38.000
43.71037 54.000
43.73031 56.000
43.75026 76.000
43.77021 95.000
43.79015 124.000
43.81010 88.000
43.83005 100.000
43.84999 72.000
43.86994 64.000
43.88989 97.000
43.90984 96.000
43.92978 88.000
43.94973 63.000
43.96968 68.000
43.98962 54.000
44.00957 35.000
44.02952 50.000
44.04946 43.000
44.06941 45.000
44.08936 51.000
44.10930 43.000
44.12925 32.000
44.14920 41.000
44.16915 52.000
44.18909 57.000
44.20904 54.000
44.22899 36.000
44.24893 33.000
44.26888 35.000
44.28883 28.000
44.30877 52.000
44.32872 40.000
44.34867 28.000
44.36862 49.000
44.38856 32.000
44.40851 28.000
44.42846 30.000
44.44840 20.000
44.46835 24.000
44.48830 23.000
44.50824 28.000
44.52819 36.000
44.54814 34.000
44.56808 29.000
44.58803 21.000
44.60798 21.000
44.62793 24.000
44.64787 40.000
44.66782 36.000
44.68777 32.000
44.70771 35.000
44.72766 21.000
44.74761 23.000
44.76755 21.000
44.78750 21.000
44.80745 15.000
44.82740 22.000
44.84734 35.000
44.86729 25.000
44.88724 20.000
44.90718 36.000
44.92713 42.000
44.94708 32.000
44.96702 63.000
44.98697 69.000
45.00692 78.000
45.02686 76.000
45.04681 64.000
45.06676 78.000
45.08671 73.000
45.10665 71.000
45.12660 66.000
45.14655 53.000
45.16649 58.000
45.18644 47.000
45.20639 46.000
45.22633 32.000
45.24628 30.000
45.26623 35.000
45.28618 34.000
45.30612 22.000
45.32607 42.000
45.34602 43.000
45.36596 31.000
45.38591 39.000
45.40586 53.000
45.42580 49.000
45.44575 59.000
45.46570 72.000
45.48565 123.000
45.50559 153.000
45.52554 181.000
45.54549 129.000
45.56543 106.000
45.58538 80.000
45.60533 86.000
45.62527 110.000
45.64522 81.000
45.66517 80.000
45.68511 59.000
45.70506 46.000
45.72501 58.000
45.74496 53.000
45.76490 57.000
45.78485 68.000
45.80480 83.000
45.82474 118.000
45.84469 154.000
45.86464 143.000
45.88458 113.000
45.90453 113.000
45.92448 71.000
45.94443 100.000
45.96437 91.000
45.98432 102.000
46.00427 75.000
46.02421 60.000
46.04416 43.000
46.06411 56.000
46.08405 47.000
46.10400 45.000
46.12395 39.000
46.14389 36.000
46.16384 37.000
46.18379 27.000
46.20374 40.000
46.22368 39.000
46.24363 43.000
46.26358 35.000
46.28352 43.000
46.30347 37.000
46.32342 47.000
46.34336 61.000
46.36331 63.000
46.38326 62.000
46.40321 87.000
46.42315 120.000
46.44310 144.000
46.46305 200.000
46.48299 180.000
46.50294 123.000
46.52289 93.000
46.54283 87.000
46.56278 101.000
46.58273 103.000
46.60267 93.000
46.62262 73.000
46.64257 70.000
46.66252 47.000
46.68246 47.000
46.70241 37.000
46.72236 27.000
46.74230 30.000
46.76225 32.000
46.78220 35.000
46.80214 32.000
46.82209 29.000
46.84204 38.000
46.86199 21.000
46.88193 26.000
46.90188 32.000
46.92183 22.000
46.94177 38.000
46.96172 23.000
46.98167 24.000
47.00161 20.000
47.02156 18.000
47.04151 17.000
47.06146 15.000
47.08140 26.000
47.10135 24.000
47.12130 27.000
47.14124 25.000
47.16119 20.000
47.18114 29.000
47.20108 27.000
47.22103 23.000
47.24098 17.000
47.26092 32.000
47.28087 21.000
47.30082 22.000
47.32077 10.000
47.34071 30.000
47.36066 20.000
47.38061 19.000
47.40055 24.000
47.42050 17.000
47.44045 22.000
47.46039 23.000
47.48034 23.000
47.50029 18.000
47.52024 17.000
47.54018 18.000
47.56013 27.000
47.58008 19.000
47.60002 22.000
47.61997 26.000
47.63992 20.000
47.65986 18.000
47.67981 22.000
47.69976 20.000
47.71970 23.000
47.73965 19.000
47.75960 23.000
47.77955 27.000
47.79949 28.000
47.81944 25.000
47.83939 23.000
47.85933 31.000
47.87928 19.000
47.89923 34.000
47.91917 18.000
47.93912 18.000
47.95907 20.000
47.97902 26.000
47.99896 25.000
48.01891 21.000
48.03886 29.000
48.05880 16.000
48.07875 14.000
48.09870 20.000
48.11864 25.000
48.13859 19.000
48.15854 28.000
48.17848 21.000
48.19843 24.000
48.21838 24.000
48.23833 24.000
48.25827 30.000
48.27822 44.000
48.29817 36.000
48.31811 43.000
48.33806 41.000
48.35801 37.000
48.37795 37.000
48.39790 27.000
48.41785 30.000
48.43780 32.000
48.45774 32.000
48.47769 26.000
48.49764 42.000
48.51758 25.000
48.53753 40.000
48.55748 23.000
48.57742 31.000
48.59737 39.000
48.61732 25.000
48.63726 37.000
48.65721 30.000
48.67716 29.000
48.69711 37.000
48.71705 20.000
48.73700 29.000
48.75695 16.000
48.77689 33.000
48.79684 28.000
48.81679 27.000
48.83673 24.000
48.85668 23.000
48.87663 30.000
48.89658 37.000
48.91652 27.000
48.93647 21.000
48.95642 31.000
48.97636 24.000
48.99631 25.000
49.01626 22.000
49.03620 26.000
49.05615 34.000
49.07610 31.000
49.09605 27.000
49.11599 28.000
49.13594 39.000
49.15589 19.000
49.17583 35.000
49.19578 40.000
49.21573 44.000
49.23567 33.000
49.25562 63.000
49.27557 59.000
49.29551 60.000
49.31546 43.000
49.33541 51.000
49.35536 81.000
49.37530 81.000
49.39525 115.000
49.41520 191.000
49.43514 319.000
49.45509 414.000
49.47504 399.000
49.49498 267.000
49.51493 183.000
49.53488 115.000
49.55483 131.000
49.57477 219.000
49.59472 241.000
49.61467 186.000
49.63461 99.000
49.65456 74.000
49.67451 48.000
49.69445 39.000
49.71440 37.000
49.73435 32.000
49.75429 27.000
49.77424 25.000
49.79419 28.000
49.81414 32.000
49.83408 24.000
49.85403 24.000
49.87398 28.000
49.89392 31.000
49.91387 27.000
49.93382 24.000
49.95376 25.000
49.97371 37.000
49.99366 25.000
50.01361 26.000
50.03355 17.000
50.05350 13.000
50.07345 29.000
50.09339 24.000
50.11334 22.000
50.13329 23.000
50.15323 20.000
50.17318 23.000
50.19313 26.000
50.21307 23.000
50.23302 15.000
50.25297 33.000
50.27292 22.000
50.29286 27.000
50.31281 25.000
50.33276 21.000
50.35270 16.000
50.37265 23.000
50.39260 18.000
50.41254 17.000
50.43249 29.000
50.45244 28.000
50.47239 21.000
50.49233 22.000
50.51228 23.000
50.53223 23.000
50.55217 18.000
50.57212 22.000
50.59207 24.000
50.61201 31.000
50.63196 25.000
50.65191 27.000
50.67186 22.000
50.69180 25.000
50.71175 28.000
50.73170 21.000
50.75164 24.000
50.77159 32.000
50.79154 41.000
50.81148 33.000
50.83143 38.000
50.85138 55.000
50.87132 35.000
50.89127 31.000
50.91122 38.000
50.93117 35.000
50.95111 55.000
50.97106 48.000
50.99101 45.000
51.01095 51.000
51.03090 38.000
51.05085 45.000
51.07079 42.000
51.09074 46.000
51.11069 51.000
51.13064 66.000
51.15058 62.000
51.17053 61.000
51.19048 40.000
51.21042 28.000
51.23037 31.000
51.25032 41.000
51.27026 31.000
51.29021 40.000
51.31016 33.000
51.33010 26.000
51.35005 21.000
51.37000 25.000
51.38995 18.000
51.40989 15.000
51.42984 24.000
51.44979 31.000
51.46973 43.000
51.48968 43.000
51.50963 43.000
51.52957 47.000
51.54952 42.000
51.56947 34.000
51.58942 25.000
51.60936 35.000
51.62931 23.000
51.64926 30.000
51.66920 32.000
51.68915 26.000
51.70910 20.000
51.72904 24.000
51.74899 13.000
51.76894 28.000
51.78888 20.000
51.80883 19.000
51.82878 19.000
51.84873 28.000
51.86867 18.000
51.88862 18.000
51.90857 15.000
51.92851 20.000
51.94846 23.000
51.96841 17.000
51.98835 18.000
52.00830 16.000
52.02825 23.000
52.04820 16.000
52.06814 14.000
52.08809 15.000
52.10804 22.000
52.12798 22.000
52.14793 24.000
52.16788 16.000
52.18782 21.000
52.20777 24.000
52.22772 18.000
52.24767 20.000
52.26761 23.000
52.28756 24.000
52.30751 18.000
52.32745 18.000
52.34740 27.000
52.36735 23.000
52.38729 24.000
52.40724 27.000
52.42719 24.000
52.44713 17.000
52.46708 31.000
52.48703 26.000
52.50698 42.000
52.52692 38.000
52.54687 27.000
52.56682 34.000
52.58676 29.000
52.60671 28.000
52.62666 27.000
52.64660 32.000
52.66655 26.000
52.68650 37.000
52.70645 47.000
52.72639 37.000
52.74634 40.000
52.76629 34.000
52.78623 45.000
52.80618 46.000
52.82613 49.000
52.84607 56.000
52.86602 55.000
52.88597 76.000
52.90591 85.000
52.92586 94.000
52.94581 136.000
52.96576 170.000
52.98570 231.000
53.00565 321.000
53.02560 386.000
53.04554 327.000
53.06549 245.000
53.08544 230.000
53.10538 149.000
53.12533 175.000
53.14528 214.000
53.16523 227.000
53.18517 198.000
53.20512 158.000
53.22507 93.000
53.24501 79.000
53.26496 63.000
53.28491 45.000
53.30485 57.000
53.32480 39.000
53.34475 42.000
53.36469 41.000
53.38464 40.000
53.40459 31.000
53.42454 36.000
53.44448 36.000
53.46443 44.000
53.48438 39.000
53.50432 45.000
53.52427 42.000
53.54422 30.000
53.56416 35.000
53.58411 36.000
53.60406 28.000
53.62401 45.000
53.64395 42.000
53.66390 48.000
53.68385 49.000
53.70379 48.000
53.72374 84.000
53.74369 55.000
53.76363 66.000
53.78358 60.000
53.80353 55.000
53.82348 60.000
53.84342 68.000
53.86337 70.000
53.88332 77.000
53.90326 78.000
53.92321 77.000
53.94316 88.000
53.96310 112.000
53.98305 154.000
54.00300 160.000
54.02294 273.000
54.04289 441.000
54.06284 643.000
54.08279 533.000
54.10273 372.000
54.12268 236.000
54.14263 216.000
54.16257 224.000
54.18252 267.000
54.20247 326.000
54.22241 299.000
54.24236 214.000
54.26231 143.000
54.28226 88.000
54.30220 62.000
54.32215 59.000
54.34210 53.000
54.36204 46.000
54.38199 45.000
54.40194 31.000
54.42188 27.000
54.44183 28.000
54.46178 26.000
54.48172 33.000
54.50167 37.000
54.52162 32.000
54.54157 42.000
54.56151 27.000
54.58146 45.000
54.60141 36.000
54.62135 37.000
54.64130 39.000
54.66125 55.000
54.68119 79.000
54.70114 71.000
54.72109 117.000
54.74104 98.000
54.76098 103.000
54.78093 70.000
54.80088 61.000
54.82082 66.000
54.84077 74.000
54.86072 111.000
54.88066 105.000
54.90061 106.000
54.92056 87.000
54.94050 64.000
54.96045 55.000
54.98040 46.000
55.00035 39.000
55.02029 56.000
55.04024 63.000
55.06019 51.000
55.08013 45.000
55.10008 38.000
55.12003 38.000
55.13997 36.000
55.15992 28.000
55.17987 25.000
55.19982 25.000
55.21976 28.000
55.23971 21.000
55.25966 32.000
55.27960 16.000
55.29955 28.000
55.31950 27.000
55.33944 31.000
55.35939 21.000
55.37934 15.000
55.39929 23.000
55.41923 26.000
55.43918 21.000
55.45913 25.000
55.47907 30.000
55.49902 27.000
55.51897 28.000
55.53891 26.000
55.55886 35.000
55.57881 30.000
55.59875 27.000
55.61870 25.000
55.63865 24.000
55.65860 27.000
55.67854 30.000
55.69849 34.000
55.71844 33.000
55.73838 51.000
55.75833 38.000
55.77828 38.000
55.79822 35.000
55.81817 45.000
55.83812 44.000
55.85807 51.000
55.87801 31.000
55.89796 50.000
55.91791 43.000
55.93785 31.000
55.95780 42.000
55.97775 36.000
55.99769 44.000
56.01764 37.000
56.03759 53.000
56.05753 49.000
56.07748 65.000
56.09743 57.000
56.11738 86.000
56.13732 75.000
56.15727 56.000
56.17722 48.000
56.19716 49.000
56.21711 41.000
56.23706 41.000
56.25700 61.000
56.27695 54.000
56.29690 40.000
56.31685 38.000
56.33679 25.000
56.35674 33.000
56.37669 27.000
56.39663 43.000
56.41658 43.000
56.43653 38.000
56.45647 34.000
56.47642 30.000
56.49637 32.000
56.51631 27.000
56.53626 32.000
56.55621 30.000
56.57616 30.000
56.59610 23.000
56.61605 26.000
56.63600 25.000
56.65594 26.000
56.67589 29.000
56.69584 23.000
56.71578 24.000
56.73573 12.000
56.75568 25.000
56.77563 22.000
56.79557 22.000
56.81552 20.000
56.83547 27.000
56.85541 17.000
56.87536 15.000
56.89531 27.000
56.91525 21.000
56.93520 25.000
56.95515 28.000
56.97510 26.000
56.99504 33.000
57.01499 21.000
57.03494 27.000
57.05488 28.000
57.07483 30.000
57.09478 31.000
57.11472 36.000
57.13467 46.000
57.15462 61.000
57.17456 56.000
57.19451 59.000
57.21446 51.000
57.23441 41.000
57.25435 61.000
57.27430 54.000
57.29425 57.000
57.31419 58.000
57.33414 54.000
57.35409 54.000
57.37403 53.000
57.39398 58.000
57.41393 59.000
57.43388 85.000
57.45382 79.000
57.47377 66.000
57.49372 49.000
57.51366 56.000
57.53361 61.000
57.55356 75.000
57.57350 110.000
57.59345 138.000
57.61340 124.000
57.63334 94.000
57.65329 69.000
57.67324 49.000
57.69319 54.000
57.71313 63.000
57.73308 79.000
57.75303 92.000
57.77297 69.000
57.79292 47.000
57.81287 36.000
57.83281 41.000
57.85276 24.000
57.87271 27.000
57.89266 26.000
57.91260 21.000
57.93255 26.000
57.95250 21.000
57.97244 27.000
57.99239 21.000
58.01234 19.000
58.03228 25.000
58.05223 16.000
58.07218 14.000
58.09212 22.000
58.11207 15.000
58.13202 13.000
58.15197 20.000
58.17191 15.000
58.19186 21.000
58.21181 25.000
58.23175 11.000
58.25170 18.000
58.27165 22.000
58.29159 20.000
58.31154 18.000
58.33149 19.000
58.35144 23.000
58.37138 19.000
58.39133 12.000
58.41128 23.000
58.43122 13.000
58.45117 17.000
58.47112 14.000
58.49106 20.000
58.51101 15.000
58.53096 12.000
58.55090 22.000
58.57085 18.000
58.59080 16.000
58.61075 17.000
58.63069 20.000
58.65064 11.000
58.67059 14.000
58.69053 22.000
58.71048 23.000
58.73043 16.000
58.75037 28.000
58.77032 11.000
58.79027 18.000
58.81022 18.000
58.83016 17.000
58.85011 15.000
58.87006 13.000
58.89000 23.000
58.90995 13.000
58.92990 27.000
58.94984 20.000
58.96979 19.000
58.98974 29.000
59.00969 11.000
59.02963 19.000
59.04958 17.000
59.06953 18.000
59.08947 18.000
59.10942 22.000
59.12937 16.000
59.14931 15.000
59.16926 18.000
59.18921 21.000
59.20915 16.000
59.22910 26.000
59.24905 13.000
59.26900 30.000
59.28894 29.000
59.30889 22.000
59.32884 43.000
59.34878 41.000
59.36873 29.000
59.38868 27.000
59.40862 32.000
59.42857 28.000
59.44852 32.000
59.46847 27.000
59.48841 22.000
59.50836 44.000
59.52831 30.000
59.54825 36.000
59.56820 39.000
59.58815 38.000
59.60809 28.000
59.62804 40.000
59.64799 27.000
59.66793 31.000
59.68788 37.000
59.70783 38.000
59.72778 32.000
59.74772 38.000
59.76767 35.000
59.78762 39.000
59.80756 40.000
59.82751 48.000
59.84746 55.000
59.86740 58.000
59.88735 83.000
59.90730 64.000
59.92725 71.000
59.94719 48.000
59.96714 45.000
59.98709 52.000
60.00703 47.000
60.02698 45.000
60.04693 49.000
60.06687 54.000
60.08682 48.000
60.10677 41.000
60.12671 30.000
60.14666 47.000
60.16661 29.000
60.18656 32.000
60.20650 28.000
60.22645 33.000
60.24640 24.000
60.26634 40.000
60.28629 27.000
60.30624 31.000
60.32618 38.000
60.34613 35.000
60.36608 26.000
60.38603 23.000
60.40597 35.000
60.42592 48.000
60.44587 44.000
60.46581 54.000
60.48576 53.000
60.50571 39.000
60.52565 58.000
60.54560 57.000
60.56555 52.000
60.58550 60.000
60.60544 84.000
60.62539 93.000
60.64534 114.000
60.66528 142.000
60.68523 160.000
60.70518 213.000
60.72512 199.000
60.74507 158.000
60.76502 128.000
60.78496 106.000
60.80491 119.000
60.82486 165.000
60.84481 142.000
60.86475 195.000
60.88470 198.000
60.90465 130.000
60.92459 122.000
60.94454 85.000
60.96449 81.000
60.98443 81.000
61.00438 78.000
61.02433 95.000
61.04428 100.000
61.06422 94.000
61.08417 69.000
61.10412 63.000
61.12406 69.000
61.14401 45.000
61.16396 59.000
61.18390 59.000
61.20385 63.000
61.22380 58.000
61.24374 67.000
61.26369 64.000
61.28364 95.000
61.30359 109.000
61.32353 127.000
61.34348 162.000
61.36343 170.000
61.38337 146.000
61.40332 108.000
61.42327 108.000
61.44321 73.000
61.46316 74.000
61.48311 101.000
61.50306 108.000
61.52300 127.000
61.54295 108.000
61.56290 120.000
61.58284 121.000
61.60279 95.000
61.62274 107.000
61.64268 80.000
61.66263 76.000
61.68258 86.000
61.70252 65.000
61.72247 46.000
61.74242 57.000
61.76237 61.000
61.78231 60.000
61.80226 67.000
61.82221 59.000
61.84215 36.000
61.86210 48.000
61.88205 32.000
61.90199 26.000
61.92194 34.000
61.94189 37.000
61.96184 32.000
61.98178 35.000
62.00173 38.000
62.02168 47.000
62.04162 30.000
62.06157 22.000
62.08152 42.000
62.10146 44.000
62.12141 59.000
62.14136 55.000
62.16131 59.000
62.18125 51.000
62.20120 84.000
62.22115 84.000
62.24109 94.000
62.26104 91.000
62.28099 84.000
62.30093 79.000
62.32088 103.000
62.34083 103.000
62.36077 119.000
62.38072 156.000
62.40067 248.000
62.42062 294.000
62.44056 363.000
62.46051 274.000
62.48046 146.000
62.50040 134.000
62.52035 105.000
62.54030 117.000
62.56024 138.000
62.58019 154.000
62.60014 176.000
62.62009 182.000
62.64003 132.000
62.65998 81.000
62.67993 76.000
62.69987 62.000
62.71982 65.000
62.73977 64.000
62.75971 70.000
62.77966 67.000
62.79961 74.000
62.81955 57.000
62.83950 59.000
62.85945 43.000
62.87940 52.000
62.89934 74.000
62.91929 60.000
62.93924 64.000
62.95918 54.000
62.97913 60.000
62.99908 44.000
63.01902 43.000
63.03897 54.000
63.05892 45.000
63.07887 36.000
63.09881 47.000
63.11876 35.000
63.13871 33.000
63.15865 36.000
63.17860 26.000
63.19855 39.000
63.21849 33.000
63.23844 40.000
63.25839 25.000
63.27833 32.000
63.29828 24.000
63.31823 19.000
63.33818 20.000
63.35812 27.000
63.37807 39.000
63.39802 36.000
63.41796 32.000
63.43791 39.000
63.45786 33.000
63.47780 27.000
63.49775 37.000
63.51770 27.000
63.53765 35.000
63.55759 29.000
63.57754 43.000
63.59749 41.000
63.61743 40.000
63.63738 42.000
63.65733 39.000
63.67727 42.000
63.69722 36.000
63.71717 42.000
63.73712 39.000
63.75706 41.000
63.77701 46.000
63.79696 48.000
63.81690 55.000
63.83685 57.000
63.85680 72.000
63.87674 73.000
63.89669 101.000
63.91664 98.000
63.93658 144.000
63.95653 197.000
63.97648 271.000
63.99643 321.000
64.01637 305.000
64.03632 264.000
64.05627 218.000
64.07621 217.000
64.09616 223.000
64.11611 250.000
64.13605 265.000
64.15600 279.000
64.17595 290.000
64.19590 272.000
64.21584 188.000
64.23579 165.000
64.25574 168.000
64.27568 147.000
64.29563 136.000
64.31558 133.000
64.33552 103.000
64.35547 102.000
64.37542 69.000
64.39536 83.000
64.41531 70.000
64.43526 74.000
64.45521 64.000
64.47515 50.000
64.49510 64.000
64.51505 56.000
64.53499 60.000
64.55494 69.000
64.57489 103.000
64.59483 100.000
64.61478 139.000
64.63473 134.000
64.65468 118.000
64.67462 95.000
64.69457 111.000
64.71452 70.000
64.73446 77.000
64.75441 81.000
64.77436 73.000
64.79430 79.000
64.81425 81.000
64.83420 79.000
64.85414 68.000
64.87409 67.000
64.89404 55.000
64.91399 37.000
64.93393 51.000
64.95388 44.000
64.97383 39.000
64.99377 27.000
65.01372 29.000
65.03367 28.000
65.05361 37.000
65.07356 36.000
65.09351 36.000
65.11346 30.000
65.13340 36.000
65.15335 29.000
65.17330 41.000
65.19324 49.000
65.21319 53.000
65.23314 41.000
65.25308 46.000
65.27303 43.000
65.29298 40.000
65.31293 45.000
65.33287 45.000
65.35282 50.000
65.37277 64.000
65.39271 64.000
65.41266 63.000
65.43261 81.000
65.45255 89.000
65.47250 64.000
65.49245 67.000
65.51239 51.000
65.53234 53.000
65.55229 54.000
65.57224 54.000
65.59218 51.000
65.61213 74.000
65.63208 64.000
65.65202 56.000
65.67197 87.000
65.69192 87.000
65.71186 84.000
65.73181 115.000
65.75176 80.000
65.77171 79.000
65.79165 68.000
65.81160 72.000
65.83155 88.000
65.85149 69.000
65.87144 84.000
65.89139 80.000
65.91133 82.000
65.93128 95.000
65.95123 81.000
65.97117 55.000
65.99112 48.000
66.01107 42.000
66.03102 51.000
66.05096 47.000
66.07091 54.000
66.09086 41.000
66.11080 43.000
66.13075 50.000
66.15070 38.000
66.17064 30.000
66.19059 40.000
66.21054 48.000
66.23049 39.000
66.25043 48.000
66.27038 39.000
66.29033 47.000
66.31027 69.000
66.33022 53.000
66.35017 88.000
66.37011 71.000
66.39006 92.000
66.41001 60.000
66.42995 57.000
66.44990 52.000
66.46985 49.000
66.48980 47.000
66.50974 63.000
66.52969 45.000
66.54964 58.000
66.56958 65.000
66.58953 43.000
66.60948 51.000
66.62942 38.000
66.64937 35.000
66.66932 25.000
66.68927 40.000
66.70921 25.000
66.72916 28.000
66.74911 22.000
66.76905 32.000
66.78900 27.000
66.80895 23.000
66.82889 28.000
66.84884 24.000
66.86879 26.000
66.88874 35.000
66.90868 39.000
66.92863 38.000
66.94858 50.000
66.96852 35.000
66.98847 28.000
67.00842 32.000
67.02836 44.000
67.04831 44.000
67.06826 47.000
67.08820 40.000
67.10815 44.000
67.12810 39.000
67.14805 26.000
67.16799 39.000
67.18794 33.000
67.20789 30.000
67.22783 37.000
67.24778 25.000
67.26773 28.000
67.28767 29.000
67.30762 21.000
67.32757 22.000
67.34752 23.000
67.36746 31.000
67.38741 22.000
67.40736 18.000
67.42730 16.000
67.44725 30.000
67.46720 20.000
67.48714 20.000
67.50709 20.000
67.52704 14.000
67.54698 25.000
67.56693 16.000
67.58688 23.000
67.60683 24.000
67.62677 16.000
67.64672 22.000
67.66667 21.000
67.68661 26.000
67.70656 19.000
67.72651 19.000
67.74645 18.000
67.76640 27.000
67.78635 28.000
67.80630 33.000
67.82624 30.000
67.84619 29.000
67.86614 32.000
67.88608 25.000
67.90603 26.000
67.92598 35.000
67.94592 32.000
67.96587 26.000
67.98582 31.000
68.00576 34.000
68.02571 36.000
68.04566 29.000
68.06561 26.000
68.08555 36.000
68.10550 37.000
68.12545 29.000
68.14539 25.000
68.16534 25.000
68.18529 26.000
68.20523 32.000
68.22518 27.000
68.24513 31.000
68.26508 38.000
68.28502 40.000
68.30497 41.000
68.32492 32.000
68.34486 27.000
68.36481 35.000
68.38476 20.000
68.40470 29.000
68.42465 20.000
68.44460 30.000
68.46455 27.000
68.48449 24.000
68.50444 26.000
68.52439 35.000
68.54433 21.000
68.56428 12.000
68.58423 22.000
68.60417 23.000
68.62412 18.000
68.64407 18.000
68.66401 15.000
68.68396 19.000
68.70391 16.000
68.72386 16.000
68.74380 16.000
68.76375 7.000
68.78370 16.000
68.80364 23.000
68.82359 21.000
68.84354 21.000
68.86348 19.000
68.88343 21.000
68.90338 23.000
68.92333 24.000
68.94327 22.000
68.96322 17.000
68.98317 19.000
69.00311 18.000
69.02306 25.000
69.04301 26.000
69.06295 27.000
69.08290 43.000
69.10285 19.000
69.12279 22.000
69.14274 12.000
69.16269 23.000
69.18264 19.000
69.20258 19.000
69.22253 10.000
69.24248 13.000
69.26242 16.000
69.28237 18.000
69.30232 18.000
69.32226 12.000
69.34221 16.000
69.36216 18.000
69.38211 15.000
69.40205 21.000
69.42200 26.000
69.44195 16.000
69.46189 22.000
69.48184 23.000
69.50179 23.000
69.52173 21.000
69.54168 26.000
69.56163 39.000
69.58157 49.000
69.60152 32.000
69.62147 39.000
69.64142 40.000
69.66136 25.000
69.68131 27.000
69.70126 23.000
69.72120 30.000
69.74115 21.000
69.76110 39.000
69.78104 30.000
69.80099 45.000
69.82094 26.000
69.84089 31.000
69.86083 20.000
69.88078 24.000
69.90073 20.000
69.92067 26.000
69.94062 20.000
69.96057 26.000
69.98051 25.000
70.00046 13.000
70.02041 28.000
70.04035 20.000
70.06030 27.000
70.08025 23.000
70.10020 41.000
70.12014 28.000
70.14009 17.000
70.16004 21.000
70.17998 23.000
70.19993 23.000
70.21988 35.000
70.23982 25.000
70.25977 20.000
70.27972 24.000
70.29967 29.000
70.31961 26.000
70.33956 27.000
70.35951 26.000
70.37945 30.000
70.39940 32.000
70.41935 26.000
70.43929 44.000
70.45924 40.000
70.47919 44.000
70.49914 35.000
70.51908 45.000
70.53903 50.000
70.55898 43.000
70.57892 33.000
70.59887 28.000
70.61882 32.000
70.63876 28.000
70.65871 40.000
70.67866 32.000
70.69860 29.000
70.71855 45.000
70.73850 43.000
70.75845 39.000
70.77839 29.000
70.79834 38.000
70.81829 26.000
70.83823 14.000
70.85818 23.000
70.87813 17.000
70.89807 21.000
70.91802 20.000
70.93797 19.000
70.95792 18.000
70.97786 19.000
70.99781 23.000
71.01776 23.000
71.03770 21.000
71.05765 27.000
71.07760 19.000
71.09754 37.000
71.11749 36.000
71.13744 32.000
71.15738 23.000
71.17733 21.000
71.19728 22.000
71.21723 27.000
71.23717 11.000
71.25712 26.000
71.27707 18.000
71.29701 18.000
71.31696 31.000
71.33691 28.000
71.35685 28.000
71.37680 24.000
71.39675 23.000
71.41670 22.000
71.43664 22.000
71.45659 21.000
71.47654 24.000
71.49648 31.000
71.51643 26.000
71.53638 32.000
71.55632 26.000
71.57627 28.000
71.59622 29.000
71.61616 24.000
71.63611 28.000
71.65606 24.000
71.67601 28.000
71.69595 24.000
71.71590 34.000
71.73585 25.000
71.75579 37.000
71.77574 43.000
71.79569 55.000
71.81563 50.000
71.83558 54.000
71.85553 48.000
71.87548 70.000
71.89542 101.000
71.91537 124.000
71.93532 164.000
71.95526 147.000
71.97521 138.000
71.99516 94.000
72.01510 69.000
72.03505 52.000
72.05500 44.000
72.07495 64.000
72.09489 61.000
72.11484 63.000
72.13479 92.000
72.15473 102.000
72.17468 90.000
72.19463 72.000
72.21457 41.000
72.23452 53.000
72.25447 43.000
72.27441 52.000
72.29436 34.000
72.31431 38.000
72.33426 29.000
72.35420 36.000
72.37415 28.000
72.39410 24.000
72.41404 23.000
72.43399 38.000
72.45394 27.000
72.47388 50.000
72.49383 46.000
72.51378 33.000
72.53373 40.000
72.55367 37.000
72.57362 26.000
72.59357 35.000
72.61351 36.000
72.63346 22.000
72.65341 25.000
72.67335 32.000
72.69330 36.000
72.71325 33.000
72.73319 29.000
72.75314 42.000
72.77309 30.000
72.79304 33.000
72.81298 29.000
72.83293 23.000
72.85288 31.000
72.87282 21.000
72.89277 31.000
72.91272 30.000
72.93266 40.000
72.95261 46.000
72.97256 42.000
72.99251 53.000
73.01245 41.000
73.03240 42.000
73.05235 32.000
73.07229 24.000
73.09224 31.000
73.11219 26.000
73.13213 30.000
73.15208 24.000
73.17203 28.000
73.19197 30.000
73.21192 26.000
73.23187 24.000
73.25182 22.000
73.27176 22.000
73.29171 28.000
73.31166 19.000
73.33160 31.000
73.35155 24.000
73.37150 29.000
73.39144 35.000
73.41139 22.000
73.43134 31.000
73.45129 21.000
73.47123 25.000
73.49118 27.000
73.51113 19.000
73.53107 31.000
73.55102 28.000
73.57097 19.000
73.59091 15.000
73.61086 33.000
73.63081 25.000
73.65076 15.000
73.67070 17.000
73.69065 20.000
73.71060 21.000
73.73054 16.000
73.75049 19.000
73.77044 13.000
73.79038 15.000
73.81033 22.000
73.83028 21.000
73.85022 23.000
73.87017 31.000
73.89012 22.000
73.91007 29.000
73.93001 26.000
73.94996 18.000
73.96991 16.000
73.98985 16.000
74.00980 31.000
74.02975 20.000
74.04969 19.000
74.06964 21.000
74.08959 20.000
74.10954 31.000
74.12948 19.000
74.14943 32.000
74.16938 20.000
74.18932 12.000
74.20927 18.000
74.22922 19.000
74.24916 24.000
74.26911 15.000
74.28906 23.000
74.30900 24.000
74.32895 20.000
74.34890 14.000
74.36885 16.000
74.38879 18.000
74.40874 22.000
74.42869 24.000
74.44863 18.000
74.46858 16.000
74.48853 27.000
74.50847 26.000
74.52842 27.000
74.54837 22.000
74.56832 28.000
74.58826 15.000
74.60821 17.000
74.62816 18.000
74.64810 10.000
74.66805 15.000
74.68800 16.000
74.70794 19.000
74.72789 20.000
74.74784 23.000
74.76778 31.000
74.78773 19.000
74.80768 27.000
74.82763 21.000
74.84757 32.000
74.86752 36.000
74.88747 29.000
74.90741 22.000
74.92736 38.000
74.94731 28.000
74.96725 27.000
74.98720 20.000
75.00715 23.000
75.02710 39.000
75.04704 22.000
75.06699 20.000
75.08694 20.000
75.10688 27.000
75.12683 34.000
75.14678 28.000
75.16672 20.000
75.18667 19.000
75.20662 28.000
75.22657 34.000
75.24651 18.000
75.26646 23.000
75.28641 20.000
75.30635 16.000
75.32630 23.000
75.34625 18.000
75.36619 31.000
75.38614 38.000
75.40609 49.000
75.42603 59.000
75.44598 78.000
75.46593 71.000
75.48588 53.000
75.50582 32.000
75.52577 34.000
75.54572 29.000
75.56566 29.000
75.58561 34.000
75.60556 30.000
75.62550 24.000
75.64545 35.000
75.66540 39.000
75.68535 45.000
75.70529 33.000
75.72524 35.000
75.74519 26.000
75.76513 33.000
75.78508 26.000
75.80503 21.000
75.82497 21.000
75.84492 19.000
75.86487 22.000
75.88481 20.000
75.90476 19.000
75.92471 24.000
75.94466 27.000
75.96460 29.000
75.98455 32.000
76.00450 24.000
76.02444 21.000
76.04439 18.000
76.06434 27.000
76.08428 26.000
76.10423 19.000
76.12418 24.000
76.14413 25.000
76.16407 14.000
76.18402 16.000
76.20397 23.000
76.22391 20.000
76.24386 23.000
76.26381 15.000
76.28375 17.000
76.30370 8.000
76.32365 19.000
76.34359 16.000
76.36354 21.000
76.38349 19.000
76.40344 23.000
76.42338 13.000
76.44333 11.000
76.46328 21.000
76.48322 11.000
76.50317 16.000
76.52312 14.000
76.54306 16.000
76.56301 14.000
76.58296 11.000
76.60291 18.000
76.62285 17.000
76.64280 22.000
76.66275 11.000
76.68269 22.000
76.70264 18.000
76.72259 15.000
76.74253 11.000
76.76248 19.000
76.78243 20.000
76.80238 16.000
76.82232 12.000
76.84227 20.000
76.86222 23.000
76.88216 18.000
76.90211 18.000
76.92206 12.000
76.94200 19.000
76.96195 15.000
76.98190 15.000
77.00184 16.000
77.02179 16.000
77.04174 13.000
77.06169 20.000
77.08163 18.000
77.10158 22.000
77.12153 19.000
77.14147 15.000
77.16142 14.000
77.18137 17.000
77.20131 13.000
77.22126 13.000
77.24121 12.000
77.26116 9.000
77.28110 17.000
77.30105 19.000
77.32100 17.000
77.34094 17.000
77.36089 15.000
77.38084 13.000
77.40078 23.000
77.42073 21.000
77.44068 24.000
77.46062 14.000
77.48057 14.000
77.50052 25.000
77.52047 18.000
77.54041 21.000
77.56036 31.000
77.58031 43.000
77.60025 25.000
77.62020 40.000
77.64015 31.000
77.66009 41.000
77.68004 42.000
77.69999 39.000
77.71994 44.000
77.73988 50.000
77.75983 45.000
77.77978 34.000
77.79972 34.000
77.81967 27.000
77.83962 23.000
77.85956 27.000
77.87951 32.000
77.89946 24.000
77.91940 28.000
77.93935 33.000
77.95930 30.000
77.97925 34.000
77.99919 33.000
78.01914 22.000
78.03909 22.000
78.05903 17.000
78.07898 17.000
78.09893 20.000
78.11887 14.000
78.13882 8.000
78.15877 24.000
78.17872 21.000
78.19866 20.000
78.21861 20.000
78.23856 22.000
78.25850 18.000
78.27845 13.000
78.29840 18.000
78.31834 13.000
78.33829 12.000
78.35824 12.000
78.37819 14.000
78.39813 16.000
78.41808 13.000
78.43803 9.000
78.45797 16.000
78.47792 17.000
78.49787 22.000
78.51781 8.000
78.53776 16.000
78.55771 10.000
78.57765 18.000
78.59760 27.000
78.61755 17.000
78.63750 17.000
78.65744 24.000
78.67739 24.000
78.69734 29.000
78.71728 20.000
78.73723 21.000
78.75718 34.000
78.77712 29.000
78.79707 29.000
78.81702 24.000
78.83697 27.000
78.85691 27.000
78.87686 32.000
78.89681 27.000
78.91675 27.000
78.93670 26.000
78.95665 18.000
78.97659 17.000
78.99654 25.000
79.01649 24.000
79.03643 13.000
79.05638 18.000
79.07633 27.000
79.09628 24.000
79.11622 16.000
79.13617 13.000
79.15612 23.000
79.17606 17.000
79.19601 16.000
79.21596 17.000
79.23590 8.000
79.25585 21.000
79.27580 12.000
79.29575 12.000
79.31569 14.000
79.33564 12.000
79.35559 9.000
79.37553 21.000
79.39548 10.000
79.41543 16.000
79.43537 18.000
79.45532 11.000
79.47527 17.000
79.49521 17.000
79.51516 15.000
79.53511 14.000
79.55506 16.000
79.57500 18.000
79.59495 14.000
79.61490 20.000
79.63484 19.000
79.65479 22.000
79.67474 9.000
79.69468 32.000
79.71463 19.000
79.73458 19.000
79.75453 17.000
79.77447 27.000
79.79442 20.000
79.81437 21.000
79.83431 15.000
79.85426 14.000
79.87421 22.000
79.89415 20.000
79.91410 24.000
79.93405 20.000
79.95399 12.000
79.97394 12.000
79.99389 22.000
80.01384 17.000
80.03378 22.000
80.05373 25.000
80.07368 20.000
80.09362 25.000
80.11357 20.000
80.13352 14.000
80.15346 14.000
80.17341 19.000
80.19336 16.000
80.21331 17.000
80.23325 16.000
80.25320 16.000
80.27315 20.000
80.29309 13.000
80.31304 18.000
80.33299 17.000
80.35293 16.000
80.37288 17.000
80.39283 21.000
80.41278 19.000
80.43272 18.000
80.45267 20.000
80.47262 24.000
80.49256 29.000
80.51251 33.000
80.53246 24.000
80.55240 33.000
80.57235 34.000
80.59230 29.000
80.61224 36.000
80.63219 29.000
80.65214 42.000
80.67209 42.000
80.69203 46.000
80.71198 53.000
80.73193 46.000
80.75187 39.000
80.77182 34.000
80.79177 41.000
80.81171 26.000
80.83166 39.000
80.85161 28.000
80.87156 22.000
80.89150 29.000
80.91145 39.000
80.93140 35.000
80.95134 39.000
80.97129 28.000
80.99124 25.000
81.01118 30.000
81.03113 18.000
81.05108 21.000
81.07102 37.000
81.09097 21.000
81.11092 13.000
81.13087 19.000
81.15081 13.000
81.17076 21.000
81.19071 19.000
81.21065 11.000
81.23060 22.000
81.25055 17.000
81.27049 16.000
81.29044 11.000
81.31039 14.000
81.33034 14.000
81.35028 14.000
81.37023 16.000
81.39018 21.000
81.41012 19.000
81.43007 11.000
81.45002 10.000
81.46996 14.000
81.48991 14.000
81.50986 18.000
81.52980 14.000
81.54975 16.000
81.56970 13.000
81.58965 15.000
81.60959 19.000
81.62954 19.000
81.64949 14.000
81.66943 13.000
81.68938 17.000
81.70933 15.000
81.72927 25.000
81.74922 18.000
81.76917 14.000
81.78912 12.000
81.80906 9.000
81.82901 16.000
81.84896 20.000
81.86890 19.000
81.88885 20.000
81.90880 10.000
81.92874 14.000
81.94869 10.000
81.96864 24.000
81.98859 14.000
82.00853 17.000
82.02848 13.000
82.04843 19.000
82.06837 13.000
82.08832 21.000
82.10827 24.000
82.12821 16.000
82.14816 15.000
82.16811 12.000
82.18805 19.000
82.20800 13.000
82.22795 19.000
82.24790 16.000
82.26784 12.000
82.28779 17.000
82.30774 11.000
82.32768 12.000
82.34763 14.000
82.36758 17.000
82.38752 17.000
82.40747 15.000
82.42742 19.000
82.44737 23.000
82.46731 14.000
82.48726 14.000
82.50721 16.000
82.52715 18.000
82.54710 23.000
82.56705 9.000
82.58699 10.000
82.60694 13.000
82.62689 21.000
82.64683 14.000
82.66678 22.000
82.68673 16.000
82.70668 18.000
82.72662 19.000
82.74657 23.000
82.76652 17.000
82.78646 14.000
82.80641 24.000
82.82636 20.000
82.84630 17.000
82.86625 25.000
82.88620 34.000
82.90615 33.000
82.92609 51.000
82.94604 63.000
82.96599 54.000
82.98593 50.000
83.00588 39.000
83.02583 28.000
83.04577 23.000
83.06572 17.000
83.08567 28.000
83.10561 27.000
83.12556 26.000
83.14551 26.000
83.16546 38.000
83.18540 35.000
83.20535 39.000
83.22530 34.000
83.24524 29.000
83.26519 43.000
83.28514 33.000
83.30508 33.000
83.32503 22.000
83.34498 24.000
83.36493 29.000
83.38487 19.000
83.40482 14.000
83.42477 27.000
83.44471 24.000
83.46466 21.000
83.48461 20.000
83.50455 18.000
83.52450 20.000
83.54445 16.000
83.56440 21.000
83.58434 24.000
83.60429 28.000
83.62424 16.000
83.64418 12.000
83.66413 28.000
83.68408 21.000
83.70402 13.000
83.72397 23.000
83.74392 17.000
83.76386 23.000
83.78381 19.000
83.80376 23.000
83.82371 24.000
83.84365 14.000
83.86360 15.000
83.88355 16.000
83.90349 14.000
83.92344 27.000
83.94339 13.000
83.96333 13.000
83.98328 16.000
84.00323 18.000
84.02318 10.000
84.04312 14.000
84.06307 15.000
84.08302 7.000
84.10296 21.000
84.12291 13.000
84.14286 18.000
84.16280 15.000
84.18275 17.000
84.20270 22.000
84.22264 25.000
84.24259 15.000
84.26254 11.000
84.28249 16.000
84.30243 19.000
84.32238 16.000
84.34233 27.000
84.36227 24.000
84.38222 16.000
84.40217 24.000
84.42211 16.000
84.44206 30.000
84.46201 20.000
84.48196 23.000
84.50190 26.000
84.52185 25.000
84.54180 23.000
84.56174 23.000
84.58169 23.000
84.60164 17.000
84.62158 16.000
84.64153 20.000
84.66148 20.000
84.68142 25.000
84.70137 14.000
84.72132 22.000
84.74127 26.000
84.76121 24.000
84.78116 24.000
84.80111 30.000
84.82105 36.000
84.84100 23.000
84.86095 33.000
84.88089 62.000
84.90084 72.000
84.92079 70.000
84.94074 81.000
84.96068 63.000
84.98063 59.000
85.00058 44.000
85.02052 30.000
85.04047 37.000
85.06042 34.000
85.08036 35.000
85.10031 31.000
85.12026 39.000
85.14021 43.000
85.16015 45.000
85.18010 60.000
85.20005 58.000
85.21999 56.000
85.23994 54.000
85.25989 34.000
85.27983 28.000
85.29978 29.000
85.31973 20.000
85.33967 29.000
85.35962 37.000
85.37957 19.000
85.39952 27.000
85.41946 34.000
85.43941 35.000
85.45936 26.000
85.47930 26.000
85.49925 36.000
85.51920 40.000
85.53914 29.000
85.55909 22.000
85.57904 23.000
85.59899 17.000
85.61893 14.000
85.63888 29.000
85.65883 19.000
85.67877 28.000
85.69872 26.000
85.71867 24.000
85.73861 29.000
85.75856 22.000
85.77851 24.000
85.79845 22.000
85.81840 20.000
85.83835 26.000
85.85830 22.000
85.87824 18.000
85.89819 24.000
85.91814 23.000
85.93808 18.000
85.95803 20.000
85.97798 25.000
85.99792 23.000
86.01787 22.000
86.03782 29.000
86.05777 21.000
86.07771 22.000
86.09766 15.000
86.11761 21.000
86.13755 15.000
86.15750 16.000
86.17745 17.000
86.19739 13.000
86.21734 17.000
86.23729 24.000
86.25723 23.000
86.27718 22.000
86.29713 26.000
86.31708 26.000
86.33702 28.000
86.35697 13.000
86.37692 24.000
86.39686 22.000
86.41681 23.000
86.43676 18.000
86.45670 16.000
86.47665 19.000
86.49660 21.000
86.51655 19.000
86.53649 16.000
86.55644 14.000
86.57639 20.000
86.59633 17.000
86.61628 24.000
86.63623 24.000
86.65617 18.000
86.67612 28.000
86.69607 31.000
86.71602 22.000
86.73596 9.000
86.75591 26.000
86.77586 35.000
86.79580 40.000
86.81575 33.000
86.83570 37.000
86.85564 28.000
86.87559 20.000
86.89554 26.000
86.91548 30.000
86.93543 26.000
86.95538 22.000
86.97533 28.000
86.99527 27.000
87.01522 22.000
87.03517 21.000
87.05511 34.000
87.07506 26.000
87.09501 19.000
87.11495 23.000
87.13490 33.000
87.15485 32.000
87.17480 21.000
87.19474 15.000
87.21469 19.000
87.23464 15.000
87.25458 21.000
87.27453 26.000
87.29448 21.000
87.31442 19.000
87.33437 24.000
87.35432 26.000
87.37426 20.000
87.39421 14.000
87.41416 22.000
87.43411 24.000
87.45405 21.000
87.47400 21.000
87.49395 25.000
87.51389 23.000
87.53384 22.000
87.55379 29.000
87.57373 27.000
87.59368 38.000
87.61363 37.000
87.63358 36.000
87.65352 40.000
87.67347 47.000
87.69342 43.000
87.71336 35.000
87.73331 39.000
87.75326 36.000
87.77320 29.000
87.79315 35.000
87.81310 34.000
87.83304 43.000
87.85299 47.000
87.87294 55.000
87.89289 67.000
87.91283 58.000
87.93278 48.000
87.95273 47.000
87.97267 47.000
87.99262 39.000
88.01257 31.000
88.03251 37.000
88.05246 31.000
88.07241 26.000
88.09236 30.000
88.11230 34.000
88.13225 30.000
88.15220 43.000
88.17214 44.000
88.19209 39.000
88.21204 19.000
88.23198 27.000
88.25193 31.000
88.27188 28.000
88.29183 21.000
88.31177 19.000
88.33172 22.000
88.35167 23.000
88.37161 15.000
88.39156 26.000
88.41151 41.000
88.43145 32.000
88.45140 34.000
88.47135 35.000
88.49129 44.000
88.51124 58.000
88.53119 66.000
88.55114 70.000
88.57108 73.000
88.59103 67.000
88.61098 46.000
88.63092 44.000
88.65087 38.000
88.67082 27.000
88.69076 31.000
88.71071 33.000
88.73066 39.000
88.75061 22.000
88.77055 37.000
88.79050 36.000
88.81045 35.000
88.83039 50.000
88.85034 49.000
88.87029 39.000
88.89023 35.000
88.91018 32.000
88.93013 32.000
88.95007 35.000
88.97002 36.000
88.98997 29.000
89.00992 27.000
89.02986 29.000
89.04981 38.000
89.06976 21.000
89.08970 32.000
89.10965 28.000
89.12960 22.000
89.14954 31.000
89.16949 26.000
89.18944 22.000
89.20939 29.000
89.22933 26.000
89.24928 22.000
89.26923 31.000
89.28917 16.000
89.30912 22.000
89.32907 35.000
89.34901 27.000
89.36896 22.000
89.38891 35.000
89.40885 24.000
89.42880 43.000
89.44875 29.000
89.46870 27.000
89.48864 34.000
89.50859 33.000
89.52854 32.000
89.54848 37.000
89.56843 25.000
89.58838 24.000
89.60832 20.000
89.62827 20.000
89.64822 13.000
89.66817 27.000
89.68811 19.000
89.70806 20.000
89.72801 34.000
89.74795 31.000
89.76790 28.000
89.78785 39.000
89.80779 23.000
89.82774 30.000
89.84769 34.000
89.86764 33.000
89.88758 31.000
89.90753 29.000
89.92748 27.000
89.94742 38.000
89.96737 19.000
89.98732 30.000
90.00726 28.000
