10.00000 60.000
10.01995 56.000
10.03989 48.000
10.05984 56.000
10.07979 52.000
10.09973 39.000
10.11968 45.000
10.13963 33.000
10.15958 41.000
10.17952 35.000
10.19947 37.000
10.21942 32.000
10.23936 41.000
10.25931 37.000
10.27926 35.000
10.29920 37.000
10.31915 31.000
10.33910 40.000
10.35905 40.000
10.37899 28.000
10.39894 30.000
10.41889 29.000
10.43883 34.000
10.45878 36.000
10.47873 26.000
10.49867 32.000
10.51862 35.000
10.53857 34.000
10.55851 31.000
10.57846 37.000
10.59841 30.000
10.61836 25.000
10.63830 27.000
10.65825 31.000
10.67820 37.000
10.69814 32.000
10.71809 24.000
10.73804 28.000
10.75798 24.000
10.77793 30.000
10.79788 26.000
10.81783 35.000
10.83777 25.000
10.85772 33.000
10.87767 29.000
10.89761 38.000
10.91756 34.000
10.93751 49.000
10.95745 36.000
10.97740 39.000
10.99735 32.000
11.01730 33.000
11.03724 36.000
11.05719 41.000
11.07714 34.000
11.09708 30.000
11.11703 35.000
11.13698 21.000
11.15692 21.000
11.17687 33.000
11.19682 27.000
11.21676 27.000
11.23671 26.000
11.25666 23.000
11.27661 30.000
11.29655 16.000
11.31650 32.000
11.33645 27.000
11.35639 27.000
11.37634 36.000
11.39629 31.000
11.41623 21.000
11.43618 24.000
11.45613 23.000
11.47608 25.000
11.49602 34.000
11.51597 20.000
11.53592 22.000
11.55586 24.000
11.57581 34.000
11.59576 26.000
11.61570 36.000
11.63565 32.000
11.65560 17.000
11.67554 27.000
11.69549 36.000
11.71544 28.000
11.73539 27.000
11.75533 20.000
11.77528 37.000
11.79523 26.000
11.81517 24.000
11.83512 26.000
11.85507 29.000
11.87501 25.000
11.89496 29.000
11.91491 32.000
11.93486 23.000
11.95480 24.000
11.97475 23.000
11.99470 24.000
12.01464 35.000
12.03459 26.000
12.05454 26.000
12.07448 36.000
12.09443 38.000
12.11438 34.000
12.13432 26.000
12.15427 20.000
12.17422 31.000
12.19417 28.000
12.21411 32.000
12.23406 35.000
12.25401 20.000
12.27395 29.000
12.29390 29.000
12.31385 31.000
12.33379 29.000
12.35374 17.000
12.37369 24.000
12.39364 24.000
12.41358 25.000
12.43353 34.000
12.45348 14.000
12.47342 27.000
12.49337 38.000
12.51332 29.000
12.53326 31.000
12.55321 32.000
12.57316 22.000
12.59311 28.000
12.61305 23.000
12.63300 28.000
12.65295 24.000
12.67289 34.000
12.69284 30.000
12.71279 21.000
12.73273 16.000
12.75268 28.000
12.77263 19.000
12.79257 34.000
12.81252 25.000
12.83247 26.000
12.85242 21.000
12.87236 22.000
12.89231 25.000
12.91226 15.000
12.93220 20.000
12.95215 32.000
12.97210 27.000
12.99204 22.000
13.01199 32.000
13.03194 31.000
13.05189 30.000
13.07183 24.000
13.09178 33.000
13.11173 28.000
13.13167 46.000
13.15162 56.000
13.17157 77.000
13.19151 98.000
13.21146 107.000
13.23141 87.000
13.25135 58.000
13.27130 38.000
13.29125 21.000
13.31120 29.000
13.33114 27.000
13.35109 28.000
13.37104 20.000
13.39098 13.000
13.41093 34.000
13.43088 32.000
13.45082 25.000
13.47077 36.000
13.49072 23.000
13.51067 33.000
13.53061 32.000
13.55056 35.000
13.57051 29.000
13.59045 25.000
13.61040 29.000
13.63035 31.000
13.65029 34.000
13.67024 26.000
13.69019 20.000
13.71013 27.000
13.73008 28.000
13.75003 21.000
13.76998 19.000
13.78992 33.000
13.80987 22.000
13.82982 24.000
13.84976 27.000
13.86971 26.000
13.88966 28.000
13.90960 16.000
13.92955 30.000
13.94950 27.000
13.96945 20.000
13.98939 26.000
14.00934 25.000
14.02929 28.000
14.04923 18.000
14.06918 21.000
14.08913 34.000
14.10907 22.000
14.12902 17.000
14.14897 20.000
14.16892 22.000
14.18886 28.000
14.20881 25.000
14.22876 21.000
14.24870 28.000
14.26865 30.000
14.28860 31.000
14.30854 25.000
14.32849 31.000
14.34844 33.000
14.36838 32.000
14.38833 26.000
14.40828 21.000
14.42823 33.000
14.44817 25.000
14.46812 24.000
14.48807 23.000
14.50801 50.000
14.52796 63.000
14.54791 46.000
14.56785 65.000
14.58780 100.000
14.60775 164.000
14.62770 254.000
14.64764 486.000
14.66759 548.000
14.68754 411.000
14.70748 256.000
14.72743 104.000
14.74738 55.000
14.76732 42.000
14.78727 39.000
14.80722 35.000
14.82716 25.000
14.84711 25.000
14.86706 32.000
14.88701 31.000
14.90695 21.000
14.92690 25.000
14.94685 30.000
14.96679 25.000
14.98674 30.000
15.00669 40.000
15.02663 19.000
15.04658 25.000
15.06653 24.000
15.08648 19.000
15.10642 22.000
15.12637 28.000
15.14632 28.000
15.16626 16.000
15.18621 22.000
15.20616 20.000
15.22610 24.000
15.24605 26.000
15.26600 27.000
15.28594 21.000
15.30589 31.000
15.32584 25.000
15.34579 16.000
15.36573 16.000
15.38568 21.000
15.40563 14.000
15.42557 23.000
15.44552 28.000
15.46547 22.000
15.48541 28.000
15.50536 29.000
15.52531 26.000
15.54526 23.000
15.56520 24.000
15.58515 20.000
15.60510 29.000
15.62504 25.000
15.64499 20.000
15.66494 18.000
15.68488 25.000
15.70483 22.000
15.72478 24.000
15.74472 19.000
15.76467 16.000
15.78462 24.000
15.80457 25.000
15.82451 26.000
15.84446 33.000
15.86441 30.000
15.88435 20.000
15.90430 24.000
15.92425 21.000
15.94419 17.000
15.96414 20.000
15.98409 27.000
16.00404 26.000
16.02398 26.000
16.04393 27.000
16.06388 26.000
16.08382 33.000
16.10377 14.000
16.12372 28.000
16.14366 34.000
16.16361 28.000
16.18356 28.000
16.20351 15.000
16.22345 32.000
16.24340 30.000
16.26335 22.000
16.28329 20.000
16.30324 22.000
16.32319 25.000
16.34313 23.000
16.36308 26.000
16.38303 24.000
16.40297 24.000
16.42292 26.000
16.44287 25.000
16.46282 17.000
16.48276 15.000
16.50271 32.000
16.52266 26.000
16.54260 25.000
16.56255 27.000
16.58250 18.000
16.60244 27.000
16.62239 31.000
16.64234 19.000
16.66229 32.000
16.68223 24.000
16.70218 32.000
16.72213 26.000
16.74207 27.000
16.76202 22.000
16.78197 36.000
16.80191 26.000
16.82186 26.000
16.84181 22.000
16.86175 20.000
16.88170 26.000
16.90165 21.000
16.92160 26.000
16.94154 24.000
16.96149 23.000
16.98144 21.000
17.00138 11.000
17.02133 33.000
17.04128 23.000
17.06122 20.000
17.08117 21.000
17.10112 21.000
17.12107 24.000
17.14101 26.000
17.16096 26.000
17.18091 16.000
17.20085 29.000
17.22080 25.000
17.24075 17.000
17.26069 23.000
17.28064 22.000
17.30059 23.000
17.32053 26.000
17.34048 21.000
17.36043 22.000
17.38038 28.000
17.40032 24.000
17.42027 27.000
17.44022 20.000
17.46016 33.000
17.48011 31.000
17.50006 26.000
17.52000 20.000
17.53995 21.000
17.55990 17.000
17.57985 13.000
17.59979 25.000
17.61974 27.000
17.63969 36.000
17.65963 24.000
17.67958 30.000
17.69953 22.000
17.71947 23.000
17.73942 24.000
17.75937 25.000
17.77932 16.000
17.79926 18.000
17.81921 26.000
17.83916 39.000
17.85910 32.000
17.87905 20.000
17.89900 20.000
17.91894 21.000
17.93889 30.000
17.95884 16.000
17.97878 25.000
17.99873 20.000
18.01868 16.000
18.03863 43.000
18.05857 18.000
18.07852 26.000
18.09847 19.000
18.11841 28.000
18.13836 23.000
18.15831 20.000
18.17825 21.000
18.19820 21.000
18.21815 20.000
18.23810 22.000
18.25804 18.000
18.27799 27.000
18.29794 23.000
18.31788 34.000
18.33783 23.000
18.35778 29.000
18.37772 19.000
18.39767 21.000
18.41762 16.000
18.43756 22.000
18.45751 25.000
18.47746 23.000
18.49741 23.000
18.51735 30.000
18.53730 15.000
18.55725 22.000
18.57719 29.000
18.59714 14.000
18.61709 25.000
18.63703 18.000
18.65698 26.000
18.67693 27.000
18.69688 20.000
18.71682 17.000
18.73677 26.000
18.75672 19.000
18.77666 29.000
18.79661 22.000
18.81656 33.000
18.83650 19.000
18.85645 29.000
18.87640 30.000
18.89634 26.000
18.91629 28.000
18.93624 27.000
18.95619 19.000
18.97613 24.000
18.99608 31.000
19.01603 17.000
19.03597 17.000
19.05592 32.000
19.07587 36.000
19.09581 24.000
19.11576 23.000
19.13571 28.000
19.15566 30.000
19.17560 32.000
19.19555 27.000
19.21550 26.000
19.23544 29.000
19.25539 35.000
19.27534 42.000
19.29528 64.000
19.31523 56.000
19.33518 69.000
19.35513 125.000
19.37507 108.000
19.39502 99.000
19.41497 79.000
19.43491 69.000
19.45486 51.000
19.47481 57.000
19.49475 54.000
19.51470 99.000
19.53465 106.000
19.55459 96.000
19.57454 77.000
19.59449 57.000
19.61444 44.000
19.63438 36.000
19.65433 30.000
19.67428 41.000
19.69422 36.000
19.71417 45.000
19.73412 42.000
19.75406 70.000
19.77401 88.000
19.79396 80.000
19.81391 68.000
19.83385 74.000
19.85380 50.000
19.87375 69.000
19.89369 65.000
19.91364 108.000
19.93359 151.000
19.95353 301.000
19.97348 411.000
19.99343 329.000
20.01337 292.000
20.03332 243.000
20.05327 124.000
20.07322 56.000
20.09316 51.000
20.11311 45.000
20.13306 54.000
20.15300 43.000
20.17295 40.000
20.19290 29.000
20.21284 32.000
20.23279 47.000
20.25274 35.000
20.27269 37.000
20.29263 41.000
20.31258 54.000
20.33253 43.000
20.35247 59.000
20.37242 56.000
20.39237 64.000
20.41231 94.000
20.43226 118.000
20.45221 189.000
20.47215 236.000
20.49210 305.000
20.51205 389.000
20.53200 418.000
20.55194 394.000
20.57189 374.000
20.59184 381.000
20.61178 468.000
20.63173 624.000
20.65168 669.000
20.67162 495.000
20.69157 444.000
20.71152 356.000
20.73147 186.000
20.75141 144.000
20.77136 135.000
20.79131 187.000
20.81125 172.000
20.83120 180.000
20.85115 166.000
20.87109 170.000
20.89104 146.000
20.91099 120.000
20.93094 93.000
20.95088 63.000
20.97083 49.000
20.99078 43.000
21.01072 43.000
21.03067 50.000
21.05062 34.000
21.07056 35.000
21.09051 34.000
21.11046 55.000
21.13040 44.000
21.15035 27.000
21.17030 34.000
21.19025 31.000
21.21019 33.000
21.23014 34.000
21.25009 28.000
21.27003 26.000
21.28998 22.000
21.30993 23.000
21.32987 30.000
21.34982 28.000
21.36977 30.000
21.38972 31.000
21.40966 26.000
21.42961 24.000
21.44956 22.000
21.46950 26.000
21.48945 21.000
21.50940 21.000
21.52934 27.000
21.54929 21.000
21.56924 40.000
21.58918 29.000
21.60913 22.000
21.62908 26.000
21.64903 24.000
21.66897 28.000
21.68892 21.000
21.70887 27.000
21.72881 25.000
21.74876 20.000
21.76871 24.000
21.78865 27.000
21.80860 28.000
21.82855 23.000
21.84850 24.000
21.86844 38.000
21.88839 26.000
21.90834 31.000
21.92828 32.000
21.94823 26.000
21.96818 36.000
21.98812 26.000
22.00807 34.000
22.02802 27.000
22.04796 24.000
22.06791 27.000
22.08786 31.000
22.10781 33.000
22.12775 43.000
22.14770 44.000
22.16765 45.000
22.18759 51.000
22.20754 63.000
22.22749 70.000
22.24743 149.000
22.26738 295.000
22.28733 442.000
22.30728 639.000
22.32722 557.000
22.34717 427.000
22.36712 341.000
22.38706 208.000
22.40701 120.000
22.42696 62.000
22.44690 49.000
22.46685 39.000
22.48680 38.000
22.50675 23.000
22.52669 37.000
22.54664 30.000
22.56659 23.000
22.58653 22.000
22.60648 28.000
22.62643 30.000
22.64637 32.000
22.66632 24.000
22.68627 31.000
22.70621 34.000
22.72616 30.000
22.74611 22.000
22.76606 25.000
22.78600 29.000
22.80595 22.000
22.82590 33.000
22.84584 29.000
22.86579 28.000
22.88574 28.000
22.90568 29.000
22.92563 39.000
22.94558 37.000
22.96553 51.000
22.98547 52.000
23.00542 77.000
23.02537 122.000
23.04531 174.000
23.06526 178.000
23.08521 138.000
23.10515 135.000
23.12510 76.000
23.14505 56.000
23.16499 45.000
23.18494 41.000
23.20489 37.000
23.22484 31.000
23.24478 42.000
23.26473 29.000
23.28468 26.000
23.30462 25.000
23.32457 24.000
23.34452 32.000
23.36446 26.000
23.38441 24.000
23.40436 26.000
23.42431 32.000
23.44425 25.000
23.46420 19.000
23.48415 24.000
23.50409 30.000
23.52404 19.000
23.54399 37.000
23.56393 21.000
23.58388 28.000
23.60383 23.000
23.62377 20.000
23.64372 36.000
23.66367 28.000
23.68362 28.000
23.70356 28.000
23.72351 35.000
23.74346 31.000
23.76340 32.000
23.78335 33.000
23.80330 35.000
23.82324 28.000
23.84319 28.000
23.86314 33.000
23.88309 31.000
23.90303 29.000
23.92298 22.000
23.94293 26.000
23.96287 33.000
23.98282 36.000
24.00277 28.000
24.02271 32.000
24.04266 38.000
24.06261 44.000
24.08256 55.000
24.10250 100.000
24.12245 165.000
24.14240 263.000
24.16234 266.000
24.18229 145.000
24.20224 138.000
24.22218 131.000
24.24213 72.000
24.26208 39.000
24.28202 55.000
24.30197 38.000
24.32192 34.000
24.34187 31.000
24.36181 20.000
24.38176 39.000
24.40171 33.000
24.42165 37.000
24.44160 30.000
24.46155 30.000
24.48149 33.000
24.50144 23.000
24.52139 28.000
24.54134 28.000
24.56128 31.000
24.58123 31.000
24.60118 27.000
24.62112 37.000
24.64107 36.000
24.66102 27.000
24.68096 26.000
24.70091 26.000
24.72086 33.000
24.74080 41.000
24.76075 27.000
24.78070 33.000
24.80065 34.000
24.82059 30.000
24.84054 25.000
24.86049 35.000
24.88043 16.000
24.90038 30.000
24.92033 27.000
24.94027 32.000
24.96022 34.000
24.98017 25.000
25.00012 21.000
25.02006 31.000
25.04001 26.000
25.05996 26.000
25.07990 17.000
25.09985 21.000
25.11980 22.000
25.13974 31.000
25.15969 37.000
25.17964 20.000
25.19958 22.000
25.21953 29.000
25.23948 23.000
25.25943 21.000
25.27937 32.000
25.29932 32.000
25.31927 20.000
25.33921 29.000
25.35916 25.000
25.37911 25.000
25.39905 36.000
25.41900 38.000
25.43895 30.000
25.45890 16.000
25.47884 31.000
25.49879 30.000
25.51874 23.000
25.53868 32.000
25.55863 34.000
25.57858 24.000
25.59852 24.000
25.61847 33.000
25.63842 26.000
25.65837 29.000
25.67831 27.000
25.69826 28.000
25.71821 35.000
25.73815 32.000
25.75810 35.000
25.77805 30.000
25.79799 38.000
25.81794 40.000
25.83789 44.000
25.85783 40.000
25.87778 55.000
25.89773 50.000
25.91768 54.000
25.93762 62.000
25.95757 73.000
25.97752 123.000
25.99746 103.000
26.01741 98.000
26.03736 85.000
26.05730 93.000
26.07725 111.000
26.09720 171.000
26.11715 235.000
26.13709 291.000
26.15704 217.000
26.17699 152.000
26.19693 176.000
26.21688 143.000
26.23683 87.000
26.25677 55.000
26.27672 52.000
26.29667 48.000
26.31661 35.000
26.33656 33.000
26.35651 38.000
26.37646 44.000
26.39640 41.000
26.41635 44.000
26.43630 37.000
26.45624 49.000
26.47619 45.000
26.49614 50.000
26.51608 64.000
26.53603 114.000
26.55598 167.000
26.57593 194.000
26.59587 142.000
26.61582 118.000
26.63577 136.000
26.65571 144.000
26.67566 88.000
26.69561 60.000
26.71555 51.000
26.73550 60.000
26.75545 51.000
26.77539 42.000
26.79534 34.000
26.81529 46.000
26.83524 45.000
26.85518 58.000
26.87513 76.000
26.89508 95.000
26.91502 110.000
26.93497 105.000
26.95492 96.000
26.97486 89.000
26.99481 88.000
27.01476 65.000
27.03471 38.000
27.05465 35.000
27.07460 44.000
27.09455 44.000
27.11449 48.000
27.13444 49.000
27.15439 37.000
27.17433 41.000
27.19428 35.000
27.21423 39.000
27.23417 36.000
27.25412 33.000
27.27407 50.000
27.29402 51.000
27.31396 47.000
27.33391 43.000
27.35386 46.000
27.37380 44.000
27.39375 36.000
27.41370 33.000
27.43364 40.000
27.45359 32.000
27.47354 43.000
27.49349 36.000
27.51343 28.000
27.53338 37.000
27.55333 31.000
27.57327 38.000
27.59322 46.000
27.61317 41.000
27.63311 35.000
27.65306 31.000
27.67301 34.000
27.69296 40.000
27.71290 27.000
27.73285 33.000
27.75280 37.000
27.77274 22.000
27.79269 36.000
27.81264 33.000
27.83258 40.000
27.85253 38.000
27.87248 35.000
27.89242 35.000
27.91237 35.000
27.93232 37.000
27.95227 29.000
27.97221 40.000
27.99216 36.000
28.01211 27.000
28.03205 49.000
28.05200 40.000
28.07195 26.000
28.09189 28.000
28.11184 40.000
28.13179 33.000
28.15174 40.000
28.17168 35.000
28.19163 37.000
28.21158 37.000
28.23152 48.000
28.25147 39.000
28.27142 41.000
28.29136 34.000
28.31131 34.000
28.33126 40.000
28.35120 37.000
28.37115 41.000
28.39110 44.000
28.41105 38.000
28.43099 33.000
28.45094 37.000
28.47089 34.000
28.49083 43.000
28.51078 42.000
28.53073 36.000
28.55067 32.000
28.57062 46.000
28.59057 46.000
28.61052 40.000
28.63046 46.000
28.65041 54.000
28.67036 60.000
28.69030 62.000
28.71025 45.000
28.73020 70.000
28.75014 63.000
28.77009 44.000
28.79004 41.000
28.80998 36.000
28.82993 31.000
28.84988 45.000
28.86983 31.000
28.88977 38.000
28.90972 44.000
28.92967 48.000
28.94961 51.000
28.96956 56.000
28.98951 39.000
29.00945 41.000
29.02940 41.000
29.04935 47.000
29.06930 41.000
29.08924 34.000
29.10919 33.000
29.12914 42.000
29.14908 45.000
29.16903 41.000
29.18898 47.000
29.20892 48.000
29.22887 44.000
29.24882 39.000
29.26877 56.000
29.28871 67.000
29.30866 37.000
29.32861 63.000
29.34855 68.000
29.36850 59.000
29.38845 67.000
29.40839 67.000
29.42834 73.000
29.44829 89.000
29.46823 119.000
29.48818 204.000
29.50813 320.000
29.52808 531.000
29.54802 822.000
29.56797 736.000
29.58792 568.000
29.60786 515.000
29.62781 494.000
29.64776 356.000
29.66770 223.000
29.68765 121.000
29.70760 91.000
29.72755 74.000
29.74749 80.000
29.76744 77.000
29.78739 82.000
29.80733 73.000
29.82728 86.000
29.84723 101.000
29.86717 106.000
29.88712 81.000
29.90707 79.000
29.92701 74.000
29.94696 71.000
29.96691 62.000
29.98686 63.000
30.00680 52.000
30.02675 59.000
30.04670 53.000
30.06664 47.000
30.08659 68.000
30.10654 56.000
30.12648 66.000
30.14643 61.000
30.16638 64.000
30.18633 70.000
30.20627 74.000
30.22622 85.000
30.24617 75.000
30.26611 67.000
30.28606 82.000
30.30601 103.000
30.32595 101.000
30.34590 87.000
30.36585 93.000
30.38579 137.000
30.40574 173.000
30.42569 256.000
30.44564 433.000
30.46558 769.000
30.48553 864.000
30.50548 702.000
30.52542 477.000
30.54537 534.000
30.56532 507.000
30.58526 351.000
30.60521 205.000
30.62516 125.000
30.64511 99.000
30.66505 72.000
30.68500 64.000
30.70495 77.000
30.72489 77.000
30.74484 57.000
30.76479 65.000
30.78473 69.000
30.80468 57.000
30.82463 57.000
30.84458 57.000
30.86452 61.000
30.88447 49.000
30.90442 56.000
30.92436 53.000
30.94431 57.000
30.96426 36.000
30.98420 47.000
31.00415 49.000
31.02410 45.000
31.04404 42.000
31.06399 53.000
31.08394 47.000
31.10389 49.000
31.12383 35.000
31.14378 43.000
31.16373 40.000
31.18367 57.000
31.20362 33.000
31.22357 60.000
31.24351 59.000
31.26346 50.000
31.28341 53.000
31.30336 41.000
31.32330 48.000
31.34325 58.000
31.36320 52.000
31.38314 40.000
31.40309 51.000
31.42304 62.000
31.44298 67.000
31.46293 127.000
31.48288 176.000
31.50282 265.000
31.52277 289.000
31.54272 204.000
31.56267 202.000
31.58261 221.000
31.60256 206.000
31.62251 127.000
31.64245 93.000
31.66240 91.000
31.68235 67.000
31.70229 69.000
31.72224 66.000
31.74219 63.000
31.76214 54.000
31.78208 61.000
31.80203 57.000
31.82198 54.000
31.84192 41.000
31.86187 54.000
31.88182 46.000
31.90176 51.000
31.92171 48.000
31.94166 41.000
31.96160 49.000
31.98155 29.000
32.00150 42.000
32.02145 52.000
32.04139 49.000
32.06134 41.000
32.08129 46.000
32.10123 43.000
32.12118 49.000
32.14113 43.000
32.16107 54.000
32.18102 33.000
32.20097 50.000
32.22092 59.000
32.24086 48.000
32.26081 47.000
32.28076 45.000
32.30070 57.000
32.32065 66.000
32.34060 55.000
32.36054 46.000
32.38049 55.000
32.40044 55.000
32.42039 38.000
32.44033 48.000
32.46028 53.000
32.48023 72.000
32.50017 65.000
32.52012 76.000
32.54007 56.000
32.56001 78.000
32.57996 56.000
32.59991 55.000
32.61985 49.000
32.63980 62.000
32.65975 43.000
32.67970 63.000
32.69964 57.000
32.71959 58.000
32.73954 51.000
32.75948 48.000
32.77943 55.000
32.79938 55.000
32.81932 48.000
32.83927 65.000
32.85922 51.000
32.87917 49.000
32.89911 58.000
32.91906 69.000
32.93901 62.000
32.95895 73.000
32.97890 93.000
32.99885 76.000
33.01879 97.000
33.03874 115.000
33.05869 116.000
33.07863 135.000
33.09858 217.000
33.11853 351.000
33.13848 661.000
33.15842 971.000
33.17837 669.000
33.19832 470.000
33.21826 528.000
33.23821 798.000
33.25816 779.000
33.27810 524.000
33.29805 358.000
33.31800 310.000
33.33795 332.000
33.35789 278.000
33.37784 209.000
33.39779 145.000
33.41773 144.000
33.43768 147.000
33.45763 98.000
33.47757 112.000
33.49752 102.000
33.51747 95.000
33.53741 92.000
33.55736 99.000
33.57731 104.000
33.59726 117.000
33.61720 127.000
33.63715 123.000
33.65710 156.000
33.67704 175.000
33.69699 210.000
33.71694 253.000
33.73688 316.000
33.75683 425.000
33.77678 641.000
33.79673 934.000
33.81667 1052.000
33.83662 858.000
33.85657 631.000
33.87651 717.000
33.89646 751.000
33.91641 670.000
33.93635 568.000
33.95630 539.000
33.97625 744.000
33.99620 893.000
34.01614 777.000
34.03609 593.000
34.05604 530.000
34.07598 636.000
34.09593 707.000
34.11588 720.000
34.13582 947.000
34.15577 1083.000
34.17572 879.000
34.19566 630.000
34.21561 637.000
34.23556 693.000
34.25551 666.000
34.27545 492.000
34.29540 322.000
34.31535 275.000
34.33529 256.000
34.35524 224.000
34.37519 177.000
34.39513 188.000
34.41508 163.000
34.43503 123.000
34.45498 131.000
34.47492 130.000
34.49487 121.000
34.51482 105.000
34.53476 85.000
34.55471 105.000
34.57466 102.000
34.59460 91.000
34.61455 92.000
34.63450 83.000
34.65444 100.000
34.67439 122.000
34.69434 130.000
34.71429 175.000
34.73423 280.000
34.75418 403.000
34.77413 482.000
34.79407 421.000
34.81402 259.000
34.83397 257.000
34.85391 313.000
34.87386 271.000
34.89381 196.000
34.91376 117.000
34.93370 110.000
34.95365 98.000
34.97360 99.000
34.99354 95.000
35.01349 98.000
35.03344 81.000
35.05338 127.000
35.07333 132.000
35.09328 172.000
35.11322 229.000
35.13317 300.000
35.15312 469.000
35.17307 435.000
35.19301 306.000
35.21296 270.000
35.23291 280.000
35.25285 280.000
35.27280 212.000
35.29275 162.000
35.31269 128.000
35.33264 114.000
35.35259 104.000
35.37254 105.000
35.39248 98.000
35.41243 115.000
35.43238 113.000
35.45232 116.000
35.47227 116.000
35.49222 111.000
35.51216 123.000
35.53211 145.000
35.55206 156.000
35.57201 210.000
35.59195 292.000
35.61190 511.000
35.63185 682.000
35.65179 541.000
35.67174 312.000
35.69169 303.000
35.71163 442.000
35.73158 439.000
35.75153 353.000
35.77147 243.000
35.79142 170.000
35.81137 166.000
35.83132 169.000
35.85126 153.000
35.87121 129.000
35.89116 108.000
35.91110 88.000
35.93105 78.000
35.95100 75.000
35.97094 84.000
35.99089 82.000
36.01084 61.000
36.03079 52.000
36.05073 61.000
36.07068 59.000
36.09063 55.000
36.11057 44.000
36.13052 67.000
36.15047 64.000
36.17041 48.000
36.19036 53.000
36.21031 54.000
36.23025 40.000
36.25020 46.000
36.27015 48.000
36.29010 43.000
36.31004 43.000
36.32999 45.000
36.34994 45.000
36.36988 47.000
36.38983 40.000
36.40978 44.000
36.42972 48.000
36.44967 44.000
36.46962 36.000
36.48957 54.000
36.50951 52.000
36.52946 56.000
36.54941 70.000
36.56935 56.000
36.58930 68.000
36.60925 73.000
36.62919 136.000
36.64914 195.000
36.66909 217.000
36.68903 179.000
36.70898 153.000
36.72893 105.000
36.74888 142.000
36.76882 165.000
36.78877 147.000
36.80872 130.000
36.82866 122.000
36.84861 169.000
36.86856 159.000
36.88850 119.000
36.90845 97.000
36.92840 83.000
36.94835 122.000
36.96829 107.000
36.98824 90.000
37.00819 64.000
37.02813 64.000
37.04808 57.000
37.06803 50.000
37.08797 41.000
37.10792 55.000
37.12787 52.000
37.14781 56.000
37.16776 48.000
37.18771 38.000
37.20766 46.000
37.22760 24.000
37.24755 36.000
37.26750 40.000
37.28744 39.000
37.30739 33.000
37.32734 36.000
37.34728 30.000
37.36723 37.000
37.38718 34.000
37.40713 32.000
37.42707 30.000
37.44702 27.000
37.46697 37.000
37.48691 41.000
37.50686 34.000
37.52681 37.000
37.54675 30.000
37.56670 34.000
37.58665 40.000
37.60660 40.000
37.62654 38.000
37.64649 34.000
37.66644 40.000
37.68638 31.000
37.70633 29.000
37.72628 36.000
37.74622 45.000
37.76617 36.000
37.78612 34.000
37.80606 47.000
37.82601 71.000
37.84596 37.000
37.86591 50.000
37.88585 49.000
37.90580 55.000
37.92575 61.000
37.94569 51.000
37.96564 64.000
37.98559 70.000
38.00553 75.000
38.02548 51.000
38.04543 63.000
38.06538 47.000
38.08532 65.000
38.10527 60.000
38.12522 54.000
38.14516 55.000
38.16511 39.000
38.18506 39.000
38.20500 50.000
38.22495 38.000
38.24490 32.000
38.26484 39.000
38.28479 41.000
38.30474 38.000
38.32469 36.000
38.34463 44.000
38.36458 38.000
38.38453 38.000
38.40447 35.000
38.42442 42.000
38.44437 47.000
38.46431 34.000
38.48426 26.000
38.50421 27.000
38.52416 35.000
38.54410 33.000
38.56405 43.000
38.58400 29.000
38.60394 39.000
38.62389 29.000
38.64384 46.000
38.66378 28.000
38.68373 40.000
38.70368 44.000
38.72362 32.000
38.74357 53.000
38.76352 44.000
38.78347 32.000
38.80341 47.000
38.82336 48.000
38.84331 37.000
38.86325 42.000
38.88320 47.000
38.90315 51.000
38.92309 37.000
38.94304 48.000
38.96299 44.000
38.98294 33.000
39.00288 37.000
39.02283 63.000
39.04278 48.000
39.06272 57.000
39.08267 52.000
39.10262 55.000
39.12256 59.000
39.14251 57.000
39.16246 53.000
39.18241 44.000
39.20235 45.000
39.22230 54.000
39.24225 48.000
39.26219 49.000
39.28214 45.000
39.30209 55.000
39.32203 31.000
39.34198 53.000
39.36193 36.000
39.38187 57.000
39.40182 44.000
39.42177 35.000
39.44172 34.000
39.46166 41.000
39.48161 39.000
39.50156 37.000
39.52150 33.000
39.54145 47.000
39.56140 31.000
39.58134 27.000
39.60129 34.000
39.62124 38.000
39.64119 52.000
39.66113 52.000
39.68108 44.000
39.70103 41.000
39.72097 34.000
39.74092 53.000
39.76087 39.000
39.78081 44.000
39.80076 49.000
39.82071 37.000
39.84065 41.000
39.86060 46.000
39.88055 49.000
39.90050 49.000
39.92044 40.000
39.94039 60.000
39.96034 73.000
39.98028 57.000
40.00023 70.000
40.02018 54.000
40.04012 56.000
40.06007 49.000
40.08002 63.000
40.09997 56.000
40.11991 47.000
40.13986 45.000
40.15981 42.000
40.17975 35.000
40.19970 37.000
40.21965 35.000
40.23959 35.000
40.25954 30.000
40.27949 37.000
40.29943 46.000
40.31938 34.000
40.33933 43.000
40.35928 40.000
40.37922 41.000
40.39917 52.000
40.41912 36.000
40.43906 52.000
40.45901 45.000
40.47896 50.000
40.49890 62.000
40.51885 49.000
40.53880 49.000
40.55875 47.000
40.57869 45.000
40.59864 51.000
40.61859 47.000
40.63853 56.000
40.65848 38.000
40.67843 50.000
40.69837 44.000
40.71832 43.000
40.73827 43.000
40.75822 46.000
40.77816 52.000
40.79811 48.000
40.81806 100.000
40.83800 158.000
40.85795 180.000
40.87790 146.000
40.89784 105.000
40.91779 79.000
40.93774 81.000
40.95768 114.000
40.97763 121.000
40.99758 79.000
41.01753 42.000
41.03747 49.000
41.05742 62.000
41.07737 40.000
41.09731 38.000
41.11726 58.000
41.13721 46.000
41.15715 31.000
41.17710 35.000
41.19705 43.000
41.21700 39.000
41.23694 39.000
41.25689 38.000
41.27684 40.000
41.29678 43.000
41.31673 35.000
41.33668 45.000
41.35662 41.000
41.37657 51.000
41.39652 78.000
41.41646 60.000
41.43641 74.000
41.45636 71.000
41.47631 68.000
41.49625 61.000
41.51620 65.000
41.53615 82.000
41.55609 91.000
41.57604 109.000
41.59599 77.000
41.61593 65.000
41.63588 62.000
41.65583 63.000
41.67578 73.000
41.69572 53.000
41.71567 62.000
41.73562 39.000
41.75556 46.000
41.77551 45.000
41.79546 43.000
41.81540 37.000
41.83535 37.000
41.85530 37.000
41.87524 32.000
41.89519 40.000
41.91514 31.000
41.93509 34.000
41.95503 31.000
41.97498 45.000
41.99493 32.000
42.01487 29.000
42.03482 31.000
42.05477 40.000
42.07471 35.000
42.09466 35.000
42.11461 36.000
42.13456 41.000
42.15450 30.000
42.17445 31.000
42.19440 30.000
42.21434 39.000
42.23429 33.000
42.25424 33.000
42.27418 32.000
42.29413 36.000
42.31408 26.000
42.33403 40.000
42.35397 29.000
42.37392 44.000
42.39387 23.000
42.41381 30.000
42.43376 32.000
42.45371 35.000
42.47365 53.000
42.49360 43.000
42.51355 49.000
42.53349 54.000
42.55344 47.000
42.57339 35.000
42.59334 39.000
42.61328 43.000
42.63323 46.000
42.65318 30.000
42.67312 37.000
42.69307 27.000
42.71302 24.000
42.73296 38.000
42.75291 28.000
42.77286 44.000
42.79281 25.000
42.81275 28.000
42.83270 42.000
42.85265 34.000
42.87259 39.000
42.89254 26.000
42.91249 32.000
42.93243 27.000
42.95238 35.000
42.97233 39.000
42.99227 21.000
43.01222 31.000
43.03217 40.000
43.05212 31.000
43.07206 19.000
43.09201 32.000
43.11196 39.000
43.13190 42.000
43.15185 36.000
43.17180 33.000
43.19174 52.000
43.21169 35.000
43.23164 54.000
43.25159 39.000
43.27153 38.000
43.29148 51.000
43.31143 50.000
43.33137 43.000
43.35132 40.000
43.37127 37.000
43.39121 37.000
43.41116 43.000
43.43111 43.000
43.45105 36.000
43.47100 51.000
43.49095 45.000
43.51090 51.000
43.53084 62.000
43.55079 40.000
43.57074 36.000
43.59068 41.000
43.61063 43.000
43.63058 63.000
43.65052 48.000
43.67047 40.000
43.69042 50.000
43.71037 45.000
43.73031 47.000
43.75026 51.000
43.77021 81.000
43.79015 95.000
43.81010 108.000
43.83005 79.000
43.84999 98.000
43.86994 70.000
43.88989 58.000
43.90984 92.000
43.92978 85.000
43.94973 86.000
43.96968 68.000
43.98962 55.000
44.00957 45.000
44.02952 49.000
44.04946 47.000
44.06941 48.000
44.08936 56.000
44.10930 49.000
44.12925 53.000
44.14920 54.000
44.16915 48.000
44.18909 52.000
44.20904 66.000
44.22899 39.000
44.24893 50.000
44.26888 33.000
44.28883 61.000
44.30877 40.000
44.32872 35.000
44.34867 45.000
44.36862 39.000
44.38856 45.000
44.40851 35.000
44.42846 29.000
44.44840 40.000
44.46835 43.000
44.48830 38.000
44.50824 51.000
44.52819 48.000
44.54814 53.000
44.56808 60.000
44.58803 34.000
44.60798 42.000
44.62793 47.000
44.64787 40.000
44.66782 38.000
44.68777 50.000
44.70771 46.000
44.72766 29.000
44.74761 33.000
44.76755 35.000
44.78750 36.000
44.80745 22.000
44.82740 29.000
44.84734 44.000
44.86729 38.000
44.88724 39.000
44.90718 29.000
44.92713 56.000
44.94708 59.000
44.96702 50.000
44.98697 66.000
45.00692 108.000
45.02686 94.000
45.04681 137.000
45.06676 153.000
45.08671 142.000
45.10665 118.000
45.12660 84.000
45.14655 80.000
45.16649 92.000
45.18644 106.000
45.20639 79.000
45.22633 67.000
45.24628 48.000
45.26623 51.000
45.28618 47.000
45.30612 39.000
45.32607 34.000
45.34602 45.000
45.36596 48.000
45.38591 39.000
45.40586 57.000
45.42580 53.000
45.44575 80.000
45.46570 76.000
45.48565 112.000
45.50559 157.000
45.52554 159.000
45.54549 122.000
45.56543 85.000
45.58538 78.000
45.60533 95.000
45.62527 85.000
45.64522 79.000
45.66517 88.000
45.68511 55.000
45.70506 65.000
45.72501 45.000
45.74496 55.000
45.76490 56.000
45.78485 83.000
45.80480 86.000
45.82474 129.000
45.84469 161.000
45.86464 126.000
45.88458 127.000
45.90453 88.000
45.92448 79.000
45.94443 92.000
45.96437 79.000
45.98432 106.000
46.00427 80.000
46.02421 62.000
46.04416 58.000
46.06411 46.000
46.08405 52.000
46.10400 46.000
46.12395 50.000
46.14389 34.000
46.16384 44.000
46.18379 47.000
46.20374 37.000
46.22368 56.000
46.24363 40.000
46.26358 45.000
46.28352 55.000
46.30347 37.000
46.32342 59.000
46.34336 56.000
46.36331 65.000
46.38326 71.000
46.40321 90.000
46.42315 124.000
46.44310 176.000
46.46305 207.000
46.48299 187.000
46.50294 161.000
46.52289 119.000
46.54283 131.000
46.56278 112.000
46.58273 130.000
46.60267 119.000
46.62262 99.000
46.64257 80.000
46.66252 67.000
46.68246 44.000
46.70241 42.000
46.72236 46.000
46.74230 42.000
46.76225 30.000
46.78220 43.000
46.80214 55.000
46.82209 40.000
46.84204 37.000
46.86199 31.000
46.88193 27.000
46.90188 38.000
46.92183 38.000
46.94177 54.000
46.96172 45.000
46.98167 31.000
47.00161 35.000
47.02156 18.000
47.04151 31.000
47.06146 29.000
47.08140 25.000
47.10135 30.000
47.12130 38.000
47.14124 36.000
47.16119 36.000
47.18114 26.000
47.20108 27.000
47.22103 26.000
47.24098 26.000
47.26092 33.000
47.28087 36.000
47.30082 25.000
47.32077 25.000
47.34071 24.000
47.36066 22.000
47.38061 32.000
47.40055 37.000
47.42050 21.000
47.44045 33.000
47.46039 32.000
47.48034 33.000
47.50029 33.000
47.52024 23.000
47.54018 43.000
47.56013 37.000
47.58008 30.000
47.60002 34.000
47.61997 37.000
47.63992 24.000
47.65986 29.000
47.67981 35.000
47.69976 37.000
47.71970 36.000
47.73965 34.000
47.75960 33.000
47.77955 40.000
47.79949 37.000
47.81944 26.000
47.83939 30.000
47.85933 31.000
47.87928 38.000
47.89923 33.000
47.91917 26.000
47.93912 42.000
47.95907 31.000
47.97902 30.000
47.99896 36.000
48.01891 25.000
48.03886 34.000
48.05880 25.000
48.07875 32.000
48.09870 42.000
48.11864 42.000
48.13859 33.000
48.15854 29.000
48.17848 32.000
48.19843 36.000
48.21838 29.000
48.23833 42.000
48.25827 53.000
48.27822 49.000
48.29817 34.000
48.31811 50.000
48.33806 46.000
48.35801 60.000
48.37795 41.000
48.39790 49.000
48.41785 51.000
48.43780 50.000
48.45774 45.000
48.47769 55.000
48.49764 57.000
48.51758 52.000
48.53753 50.000
48.55748 42.000
48.57742 45.000
48.59737 55.000
48.61732 62.000
48.63726 50.000
48.65721 50.000
48.67716 59.000
48.69711 56.000
48.71705 43.000
48.73700 39.000
48.75695 46.000
48.77689 42.000
48.79684 65.000
48.81679 43.000
48.83673 43.000
48.85668 35.000
48.87663 35.000
48.89658 35.000
48.91652 47.000
48.93647 49.000
48.95642 44.000
48.97636 42.000
48.99631 68.000
49.01626 43.000
49.03620 38.000
49.05615 47.000
49.07610 38.000
49.09605 40.000
49.11599 30.000
49.13594 40.000
49.15589 45.000
49.17583 39.000
49.19578 44.000
49.21573 51.000
49.23567 61.000
49.25562 51.000
49.27557 59.000
49.29551 44.000
49.31546 69.000
49.33541 58.000
49.35536 69.000
49.37530 73.000
49.39525 86.000
49.41520 146.000
49.43514 170.000
49.45509 269.000
49.47504 275.000
49.49498 181.000
49.51493 114.000
49.53488 100.000
49.55483 100.000
49.57477 143.000
49.59472 155.000
49.61467 103.000
49.63461 87.000
49.65456 57.000
49.67451 43.000
49.69445 29.000
49.71440 40.000
49.73435 32.000
49.75429 27.000
49.77424 38.000
49.79419 29.000
49.81414 38.000
49.83408 49.000
49.85403 43.000
49.87398 42.000
49.89392 38.000
49.91387 37.000
49.93382 41.000
49.95376 40.000
49.97371 55.000
49.99366 37.000
50.01361 37.000
50.03355 34.000
50.05350 34.000
50.07345 39.000
50.09339 29.000
50.11334 31.000
50.13329 40.000
50.15323 30.000
50.17318 28.000
50.19313 37.000
50.21307 27.000
50.23302 36.000
50.25297 27.000
50.27292 26.000
50.29286 25.000
50.31281 24.000
50.33276 33.000
50.35270 32.000
50.37265 30.000
50.39260 33.000
50.41254 20.000
50.43249 21.000
50.45244 34.000
50.47239 26.000
50.49233 29.000
50.51228 30.000
50.53223 24.000
50.55217 35.000
50.57212 20.000
50.59207 36.000
50.61201 37.000
50.63196 28.000
50.65191 34.000
50.67186 26.000
50.69180 25.000
50.71175 37.000
50.73170 34.000
50.75164 32.000
50.77159 28.000
50.79154 43.000
50.81148 40.000
50.83143 43.000
50.85138 51.000
50.87132 55.000
50.89127 42.000
50.91122 51.000
50.93117 47.000
50.95111 47.000
50.97106 64.000
50.99101 63.000
51.01095 75.000
51.03090 62.000
51.05085 64.000
51.07079 62.000
51.09074 82.000
51.11069 105.000
51.13064 117.000
51.15058 107.000
51.17053 91.000
51.19048 90.000
51.21042 81.000
51.23037 79.000
51.25032 85.000
51.27026 62.000
51.29021 59.000
51.31016 58.000
51.33010 55.000
51.35005 49.000
51.37000 38.000
51.38995 37.000
51.40989 29.000
51.42984 30.000
51.44979 34.000
51.46973 47.000
51.48968 36.000
51.50963 48.000
51.52957 52.000
51.54952 46.000
51.56947 32.000
51.58942 38.000
51.60936 30.000
51.62931 28.000
51.64926 29.000
51.66920 43.000
51.68915 41.000
51.70910 25.000
51.72904 32.000
51.74899 35.000
51.76894 23.000
51.78888 33.000
51.80883 30.000
51.82878 31.000
51.84873 25.000
51.86867 30.000
51.88862 26.000
51.90857 26.000
51.92851 34.000
51.94846 24.000
51.96841 20.000
51.98835 24.000
52.00830 31.000
52.02825 28.000
52.04820 23.000
52.06814 31.000
52.08809 37.000
52.10804 34.000
52.12798 36.000
52.14793 22.000
52.16788 19.000
52.18782 22.000
52.20777 30.000
52.22772 27.000
52.24767 21.000
52.26761 26.000
52.28756 27.000
52.30751 42.000
52.32745 28.000
52.34740 31.000
52.36735 33.000
52.38729 29.000
52.40724 27.000
52.42719 33.000
52.44713 27.000
52.46708 33.000
52.48703 39.000
52.50698 44.000
52.52692 42.000
52.54687 56.000
52.56682 44.000
52.58676 43.000
52.60671 40.000
52.62666 49.000
52.64660 39.000
52.66655 49.000
52.68650 52.000
52.70645 41.000
52.72639 56.000
52.74634 45.000
52.76629 48.000
52.78623 54.000
52.80618 66.000
52.82613 62.000
52.84607 85.000
52.86602 79.000
52.88597 90.000
52.90591 72.000
52.92586 95.000
52.94581 116.000
52.96576 146.000
52.98570 230.000
53.00565 284.000
53.02560 343.000
53.04554 328.000
53.06549 279.000
53.08544 171.000
53.10538 189.000
53.12533 167.000
53.14528 171.000
53.16523 185.000
53.18517 207.000
53.20512 149.000
53.22507 121.000
53.24501 100.000
53.26496 88.000
53.28491 60.000
53.30485 61.000
53.32480 45.000
53.34475 63.000
53.36469 49.000
53.38464 51.000
53.40459 47.000
53.42454 51.000
53.44448 51.000
53.46443 46.000
53.48438 45.000
53.50432 46.000
53.52427 39.000
53.54422 40.000
53.56416 47.000
53.58411 47.000
53.60406 48.000
53.62401 35.000
53.64395 36.000
53.66390 53.000
53.68385 54.000
53.70379 58.000
53.72374 83.000
53.74369 76.000
53.76363 68.000
53.78358 62.000
53.80353 58.000
53.82348 68.000
53.84342 81.000
53.86337 71.000
53.88332 65.000
53.90326 61.000
53.92321 56.000
53.94316 56.000
53.96310 84.000
53.98305 100.000
54.00300 145.000
54.02294 199.000
54.04289 299.000
54.06284 420.000
54.08279 353.000
54.10273 216.000
54.12268 172.000
54.14263 134.000
54.16257 136.000
54.18252 172.000
54.20247 223.000
54.22241 218.000
54.24236 147.000
54.26231 117.000
54.28226 72.000
54.30220 66.000
54.32215 47.000
54.34210 48.000
54.36204 36.000
54.38199 35.000
54.40194 37.000
54.42188 43.000
54.44183 49.000
54.46178 34.000
54.48172 25.000
54.50167 34.000
54.52162 44.000
54.54157 48.000
54.56151 27.000
54.58146 48.000
54.60141 47.000
54.62135 48.000
54.64130 52.000
54.66125 56.000
54.68119 92.000
54.70114 83.000
54.72109 127.000
54.74104 152.000
54.76098 126.000
54.78093 96.000
54.80088 99.000
54.82082 70.000
54.84077 91.000
54.86072 145.000
54.88066 192.000
54.90061 218.000
54.92056 180.000
54.94050 129.000
54.96045 99.000
54.98040 89.000
55.00035 87.000
55.02029 112.000
55.04024 100.000
55.06019 81.000
55.08013 85.000
55.10008 61.000
55.12003 67.000
55.13997 54.000
55.15992 51.000
55.17987 39.000
55.19982 30.000
55.21976 36.000
55.23971 51.000
55.25966 40.000
55.27960 37.000
55.29955 24.000
55.31950 30.000
55.33944 36.000
55.35939 38.000
55.37934 39.000
55.39929 35.000
55.41923 33.000
55.43918 40.000
55.45913 34.000
55.47907 21.000
55.49902 29.000
55.51897 27.000
55.53891 41.000
55.55886 36.000
55.57881 42.000
55.59875 32.000
55.61870 32.000
55.63865 46.000
55.65860 53.000
55.67854 32.000
55.69849 49.000
55.71844 53.000
55.73838 48.000
55.75833 39.000
55.77828 33.000
55.79822 45.000
55.81817 41.000
55.83812 67.000
55.85807 69.000
55.87801 59.000
55.89796 46.000
55.91791 56.000
55.93785 34.000
55.95780 47.000
55.97775 54.000
55.99769 44.000
56.01764 48.000
56.03759 62.000
56.05753 55.000
56.07748 60.000
56.09743 65.000
56.11738 67.000
56.13732 75.000
56.15727 50.000
56.17722 60.000
56.19716 54.000
56.21711 48.000
56.23706 56.000
56.25700 67.000
56.27695 58.000
56.29690 64.000
56.31685 40.000
56.33679 34.000
56.35674 41.000
56.37669 40.000
56.39663 44.000
56.41658 49.000
56.43653 44.000
56.45647 39.000
56.47642 47.000
56.49637 37.000
56.51631 42.000
56.53626 26.000
56.55621 29.000
56.57616 41.000
56.59610 35.000
56.61605 30.000
56.63600 36.000
56.65594 30.000
56.67589 25.000
56.69584 34.000
56.71578 25.000
56.73573 23.000
56.75568 29.000
56.77563 31.000
56.79557 31.000
56.81552 36.000
56.83547 44.000
56.85541 31.000
56.87536 34.000
56.89531 43.000
56.91525 35.000
56.93520 29.000
56.95515 43.000
56.97510 34.000
56.99504 40.000
57.01499 36.000
57.03494 35.000
57.05488 27.000
57.07483 30.000
57.09478 39.000
57.11472 41.000
57.13467 46.000
57.15462 52.000
57.17456 56.000
57.19451 74.000
57.21446 66.000
57.23441 57.000
57.25435 60.000
57.27430 36.000
57.29425 47.000
57.31419 47.000
57.33414 58.000
57.35409 49.000
57.37403 51.000
57.39398 52.000
57.41393 56.000
57.43388 76.000
57.45382 78.000
57.47377 58.000
57.49372 66.000
57.51366 53.000
57.53361 64.000
57.55356 60.000
57.57350 92.000
57.59345 99.000
57.61340 87.000
57.63334 62.000
57.65329 56.000
57.67324 49.000
57.69319 58.000
57.71313 63.000
57.73308 64.000
57.75303 77.000
57.77297 60.000
57.79292 39.000
57.81287 44.000
57.83281 51.000
57.85276 37.000
57.87271 29.000
57.89266 32.000
57.91260 29.000
57.93255 40.000
57.95250 30.000
57.97244 33.000
57.99239 32.000
58.01234 24.000
58.03228 27.000
58.05223 25.000
58.07218 35.000
58.09212 33.000
58.11207 27.000
58.13202 27.000
58.15197 28.000
58.17191 32.000
58.19186 33.000
58.21181 23.000
58.23175 26.000
58.25170 26.000
58.27165 26.000
58.29159 26.000
58.31154 17.000
58.33149 38.000
58.35144 26.000
58.37138 32.000
58.39133 27.000
58.41128 23.000
58.43122 21.000
58.45117 30.000
58.47112 41.000
58.49106 23.000
58.51101 23.000
58.53096 31.000
58.55090 24.000
58.57085 22.000
58.59080 24.000
58.61075 33.000
58.63069 23.000
58.65064 23.000
58.67059 20.000
58.69053 32.000
58.71048 23.000
58.73043 30.000
58.75037 32.000
58.77032 31.000
58.79027 23.000
58.81022 26.000
58.83016 27.000
58.85011 26.000
58.87006 29.000
58.89000 26.000
58.90995 33.000
58.92990 25.000
58.94984 32.000
58.96979 30.000
58.98974 20.000
59.00969 21.000
59.02963 31.000
59.04958 36.000
59.06953 36.000
59.08947 24.000
59.10942 32.000
59.12937 24.000
59.14931 24.000
59.16926 33.000
59.18921 19.000
59.20915 25.000
59.22910 32.000
59.24905 32.000
59.26900 27.000
59.28894 29.000
59.30889 44.000
59.32884 52.000
59.34878 41.000
59.36873 39.000
59.38868 33.000
59.40862 45.000
59.42857 50.000
59.44852 33.000
59.46847 37.000
59.48841 29.000
59.50836 45.000
59.52831 41.000
59.54825 40.000
59.56820 36.000
59.58815 40.000
59.60809 57.000
59.62804 47.000
59.64799 30.000
59.66793 51.000
59.68788 33.000
59.70783 45.000
59.72778 44.000
59.74772 42.000
59.76767 52.000
59.78762 62.000
59.80756 57.000
59.82751 80.000
59.84746 83.000
59.86740 116.000
59.88735 144.000
59.90730 131.000
59.92725 125.000
59.94719 85.000
59.96714 66.000
59.98709 89.000
60.00703 83.000
60.02698 84.000
60.04693 104.000
60.06687 105.000
60.08682 86.000
60.10677 99.000
60.12671 87.000
60.14666 82.000
60.16661 59.000
60.18656 61.000
60.20650 62.000
60.22645 63.000
60.24640 52.000
60.26634 60.000
60.28629 59.000
60.30624 55.000
60.32618 60.000
60.34613 72.000
60.36608 79.000
60.38603 78.000
60.40597 73.000
60.42592 89.000
60.44587 96.000
60.46581 82.000
60.48576 85.000
60.50571 104.000
60.52565 110.000
60.54560 86.000
60.56555 93.000
60.58550 102.000
60.60544 133.000
60.62539 124.000
60.64534 155.000
60.66528 130.000
60.68523 182.000
60.70518 241.000
60.72512 209.000
60.74507 178.000
60.76502 139.000
60.78496 145.000
60.80491 126.000
60.82486 179.000
60.84481 181.000
60.86475 194.000
60.88470 156.000
60.90465 153.000
60.92459 112.000
60.94454 113.000
60.96449 91.000
60.98443 110.000
61.00438 111.000
61.02433 119.000
61.04428 135.000
61.06422 126.000
61.08417 101.000
61.10412 101.000
61.12406 94.000
61.14401 90.000
61.16396 94.000
61.18390 82.000
61.20385 96.000
61.22380 109.000
61.24374 118.000
61.26369 100.000
61.28364 107.000
61.30359 121.000
61.32353 145.000
61.34348 146.000
61.36343 164.000
61.38337 154.000
61.40332 140.000
61.42327 131.000
61.44321 105.000
61.46316 104.000
61.48311 112.000
61.50306 125.000
61.52300 138.000
61.54295 141.000
61.56290 118.000
61.58284 113.000
61.60279 146.000
61.62274 117.000
61.64268 125.000
61.66263 101.000
61.68258 87.000
61.70252 56.000
61.72247 70.000
61.74242 85.000
61.76237 89.000
61.78231 83.000
61.80226 77.000
61.82221 60.000
61.84215 49.000
61.86210 54.000
61.88205 45.000
61.90199 36.000
61.92194 55.000
61.94189 44.000
61.96184 41.000
61.98178 42.000
62.00173 41.000
62.02168 44.000
62.04162 37.000
62.06157 50.000
62.08152 49.000
62.10146 49.000
62.12141 54.000
62.14136 49.000
62.16131 49.000
62.18125 68.000
62.20120 84.000
62.22115 87.000
62.24109 93.000
62.26104 82.000
62.28099 96.000
62.30093 69.000
62.32088 95.000
62.34083 98.000
62.36077 127.000
62.38072 186.000
62.40067 169.000
62.42062 231.000
62.44056 231.000
62.46051 171.000
62.48046 147.000
62.50040 111.000
62.52035 111.000
62.54030 100.000
62.56024 121.000
62.58019 132.000
62.60014 158.000
62.62009 124.000
62.64003 112.000
62.65998 86.000
62.67993 80.000
62.69987 66.000
62.71982 65.000
62.73977 57.000
62.75971 56.000
62.77966 78.000
62.79961 58.000
62.81955 63.000
62.83950 53.000
62.85945 74.000
62.87940 55.000
62.89934 44.000
62.91929 51.000
62.93924 57.000
62.95918 41.000
62.97913 48.000
62.99908 48.000
63.01902 38.000
63.03897 35.000
63.05892 49.000
63.07887 55.000
63.09881 27.000
63.11876 34.000
63.13871 29.000
63.15865 31.000
63.17860 29.000
63.19855 36.000
63.21849 31.000
63.23844 42.000
63.25839 36.000
63.27833 37.000
63.29828 32.000
63.31823 42.000
63.33818 33.000
63.35812 48.000
63.37807 41.000
63.39802 62.000
63.41796 43.000
63.43791 54.000
63.45786 48.000
63.47780 42.000
63.49775 35.000
63.51770 49.000
63.53765 33.000
63.55759 44.000
63.57754 44.000
63.59749 49.000
63.61743 33.000
63.63738 27.000
63.65733 39.000
63.67727 38.000
63.69722 28.000
63.71717 46.000
63.73712 46.000
63.75706 45.000
63.77701 53.000
63.79696 42.000
63.81690 67.000
63.83685 68.000
63.85680 68.000
63.87674 79.000
63.89669 74.000
63.91664 105.000
63.93658 141.000
63.95653 147.000
63.97648 190.000
63.99643 258.000
64.01637 230.000
64.03632 219.000
64.05627 185.000
64.07621 149.000
64.09616 202.000
64.11611 240.000
64.13605 239.000
64.15600 244.000
64.17595 272.000
64.19590 199.000
64.21584 162.000
64.23579 143.000
64.25574 151.000
64.27568 140.000
64.29563 136.000
64.31558 103.000
64.33552 121.000
64.35547 111.000
64.37542 78.000
64.39536 79.000
64.41531 88.000
64.43526 69.000
64.45521 50.000
64.47515 64.000
64.49510 45.000
64.51505 77.000
64.53499 74.000
64.55494 64.000
64.57489 57.000
64.59483 98.000
64.61478 119.000
64.63473 118.000
64.65468 120.000
64.67462 124.000
64.69457 112.000
64.71452 90.000
64.73446 71.000
64.75441 95.000
64.77436 78.000
64.79430 70.000
64.81425 91.000
64.83420 91.000
64.85414 86.000
64.87409 74.000
64.89404 84.000
64.91399 52.000
64.93393 36.000
64.95388 50.000
64.97383 56.000
64.99377 44.000
65.01372 52.000
65.03367 61.000
65.05361 43.000
65.07356 43.000
65.09351 44.000
65.11346 59.000
65.13340 41.000
65.15335 36.000
65.17330 54.000
65.19324 52.000
65.21319 56.000
65.23314 56.000
65.25308 62.000
65.27303 77.000
65.29298 65.000
65.31293 81.000
65.33287 61.000
65.35282 61.000
65.37277 94.000
65.39271 102.000
65.41266 94.000
65.43261 99.000
65.45255 76.000
65.47250 85.000
65.49245 54.000
65.51239 70.000
65.53234 67.000
65.55229 80.000
65.57224 67.000
65.59218 68.000
65.61213 79.000
65.63208 77.000
65.65202 89.000
65.67197 86.000
65.69192 119.000
65.71186 145.000
65.73181 141.000
65.75176 126.000
65.77171 131.000
65.79165 108.000
65.81160 97.000
65.83155 103.000
65.85149 109.000
65.87144 116.000
65.89139 127.000
65.91133 113.000
65.93128 87.000
65.95123 97.000
65.97117 88.000
65.99112 91.000
66.01107 55.000
66.03102 78.000
66.05096 60.000
66.07091 59.000
66.09086 75.000
66.11080 43.000
66.13075 43.000
66.15070 52.000
66.17064 42.000
66.19059 34.000
66.21054 46.000
66.23049 44.000
66.25043 52.000
66.27038 41.000
66.29033 51.000
66.31027 71.000
66.33022 84.000
66.35017 75.000
66.37011 106.000
66.39006 94.000
66.41001 72.000
66.42995 74.000
66.44990 60.000
66.46985 49.000
66.48980 55.000
66.50974 65.000
66.52969 58.000
66.54964 85.000
66.56958 62.000
66.58953 65.000
66.60948 46.000
66.62942 44.000
66.64937 54.000
66.66932 35.000
66.68927 36.000
66.70921 35.000
66.72916 35.000
66.74911 40.000
66.76905 33.000
66.78900 34.000
66.80895 31.000
66.82889 42.000
66.84884 38.000
66.86879 38.000
66.88874 46.000
66.90868 32.000
66.92863 56.000
66.94858 48.000
66.96852 36.000
66.98847 54.000
67.00842 43.000
67.02836 40.000
67.04831 39.000
67.06826 50.000
67.08820 55.000
67.10815 56.000
67.12810 46.000
67.14805 43.000
67.16799 40.000
67.18794 32.000
67.20789 35.000
67.22783 39.000
67.24778 41.000
67.26773 48.000
67.28767 31.000
67.30762 40.000
67.32757 29.000
67.34752 32.000
67.36746 38.000
67.38741 50.000
67.40736 32.000
67.42730 29.000
67.44725 26.000
67.46720 32.000
67.48714 31.000
67.50709 27.000
67.52704 30.000
67.54698 30.000
67.56693 35.000
67.58688 33.000
67.60683 40.000
67.62677 30.000
67.64672 38.000
67.66667 31.000
67.68661 23.000
67.70656 28.000
67.72651 38.000
67.74645 33.000
67.76640 29.000
67.78635 49.000
67.80630 39.000
67.82624 37.000
67.84619 40.000
67.86614 51.000
67.88608 34.000
67.90603 33.000
67.92598 43.000
67.94592 42.000
67.96587 48.000
67.98582 34.000
68.00576 45.000
68.02571 50.000
68.04566 43.000
68.06561 44.000
68.08555 42.000
68.10550 41.000
68.12545 37.000
68.14539 39.000
68.16534 41.000
68.18529 28.000
68.20523 39.000
68.22518 46.000
68.24513 53.000
68.26508 47.000
68.28502 59.000
68.30497 54.000
68.32492 58.000
68.34486 57.000
68.36481 51.000
68.38476 49.000
68.40470 48.000
68.42465 37.000
68.44460 34.000
68.46455 32.000
68.48449 33.000
68.50444 32.000
68.52439 41.000
68.54433 42.000
68.56428 38.000
68.58423 25.000
68.60417 20.000
68.62412 26.000
68.64407 23.000
68.66401 32.000
68.68396 18.000
68.70391 22.000
68.72386 28.000
68.74380 21.000
68.76375 24.000
68.78370 21.000
68.80364 26.000
68.82359 19.000
68.84354 24.000
68.86348 14.000
68.88343 15.000
68.90338 25.000
68.92333 25.000
68.94327 30.000
68.96322 19.000
68.98317 30.000
69.00311 21.000
69.02306 27.000
69.04301 28.000
69.06295 31.000
69.08290 29.000
69.10285 26.000
69.12279 29.000
69.14274 23.000
69.16269 24.000
69.18264 36.000
69.20258 33.000
69.22253 17.000
69.24248 27.000
69.26242 21.000
69.28237 18.000
69.30232 17.000
69.32226 21.000
69.34221 29.000
69.36216 16.000
69.38211 27.000
69.40205 16.000
69.42200 28.000
69.44195 25.000
69.46189 29.000
69.48184 28.000
69.50179 24.000
69.52173 27.000
69.54168 34.000
69.56163 33.000
69.58157 34.000
69.60152 33.000
69.62147 42.000
69.64142 35.000
69.66136 18.000
69.68131 26.000
69.70126 33.000
69.72120 22.000
69.74115 42.000
69.76110 22.000
69.78104 38.000
69.80099 39.000
69.82094 40.000
69.84089 39.000
69.86083 32.000
69.88078 32.000
69.90073 29.000
69.92067 27.000
69.94062 31.000
69.96057 24.000
69.98051 36.000
70.00046 42.000
70.02041 30.000
70.04035 31.000
70.06030 38.000
70.08025 41.000
70.10020 36.000
70.12014 37.000
70.14009 32.000
70.16004 25.000
70.17998 33.000
70.19993 27.000
70.21988 31.000
70.23982 27.000
70.25977 21.000
70.27972 23.000
70.29967 29.000
70.31961 29.000
70.33956 36.000
70.35951 34.000
70.37945 25.000
70.39940 40.000
70.41935 29.000
70.43929 35.000
70.45924 36.000
70.47919 39.000
70.49914 43.000
70.51908 48.000
70.53903 47.000
70.55898 47.000
70.57892 29.000
70.59887 45.000
70.61882 43.000
70.63876 48.000
70.65871 35.000
70.67866 51.000
70.69860 29.000
70.71855 41.000
70.73850 36.000
70.75845 42.000
70.77839 44.000
70.79834 36.000
70.81829 34.000
70.83823 37.000
70.85818 39.000
70.87813 21.000
70.89807 30.000
70.91802 30.000
70.93797 26.000
70.95792 25.000
70.97786 36.000
70.99781 31.000
71.01776 30.000
71.03770 22.000
71.05765 37.000
71.07760 36.000
71.09754 36.000
71.11749 32.000
71.13744 40.000
71.15738 34.000
71.17733 37.000
71.19728 37.000
71.21723 34.000
71.23717 31.000
71.25712 29.000
71.27707 24.000
71.29701 41.000
71.31696 41.000
71.33691 37.000
71.35685 32.000
71.37680 26.000
71.39675 35.000
71.41670 35.000
71.43664 47.000
71.45659 38.000
71.47654 41.000
71.49648 40.000
71.51643 44.000
71.53638 46.000
71.55632 61.000
71.57627 43.000
71.59622 59.000
71.61616 33.000
71.63611 47.000
71.65606 46.000
71.67601 29.000
71.69595 41.000
71.71590 49.000
71.73585 50.000
71.75579 37.000
71.77574 50.000
71.79569 47.000
71.81563 42.000
71.83558 44.000
71.85553 46.000
71.87548 62.000
71.89542 74.000
71.91537 103.000
71.93532 115.000
71.95526 107.000
71.97521 95.000
71.99516 62.000
72.01510 54.000
72.03505 52.000
72.05500 48.000
72.07495 44.000
72.09489 46.000
72.11484 72.000
72.13479 75.000
72.15473 69.000
72.17468 74.000
72.19463 58.000
72.21457 59.000
72.23452 51.000
72.25447 63.000
72.27441 41.000
72.29436 34.000
72.31431 42.000
72.33426 31.000
72.35420 34.000
72.37415 39.000
72.39410 33.000
72.41404 35.000
72.43399 39.000
72.45394 36.000
72.47388 50.000
72.49383 56.000
72.51378 37.000
72.53373 32.000
72.55367 28.000
72.57362 42.000
72.59357 39.000
72.61351 29.000
72.63346 37.000
72.65341 35.000
72.67335 54.000
72.69330 36.000
72.71325 31.000
72.73319 34.000
72.75314 34.000
72.77309 32.000
72.79304 30.000
72.81298 31.000
72.83293 23.000
72.85288 33.000
72.87282 30.000
72.89277 33.000
72.91272 36.000
72.93266 44.000
72.95261 44.000
72.97256 44.000
72.99251 39.000
73.01245 29.000
73.03240 40.000
73.05235 37.000
73.07229 30.000
73.09224 39.000
73.11219 39.000
73.13213 42.000
73.15208 42.000
73.17203 41.000
73.19197 38.000
73.21192 34.000
73.23187 32.000
73.25182 38.000
73.27176 28.000
73.29171 37.000
73.31166 37.000
73.33160 27.000
73.35155 37.000
73.37150 31.000
73.39144 35.000
73.41139 30.000
73.43134 35.000
73.45129 28.000
73.47123 36.000
73.49118 31.000
73.51113 22.000
73.53107 28.000
73.55102 30.000
73.57097 34.000
73.59091 29.000
73.61086 30.000
73.63081 35.000
73.65076 32.000
73.67070 37.000
73.69065 20.000
73.71060 30.000
73.73054 30.000
73.75049 26.000
73.77044 27.000
73.79038 27.000
73.81033 28.000
73.83028 34.000
73.85022 32.000
73.87017 37.000
73.89012 28.000
73.91007 34.000
73.93001 32.000
73.94996 30.000
73.96991 27.000
73.98985 38.000
74.00980 31.000
74.02975 28.000
74.04969 31.000
74.06964 31.000
74.08959 41.000
74.10954 33.000
74.12948 40.000
74.14943 34.000
74.16938 26.000
74.18932 32.000
74.20927 32.000
74.22922 27.000
74.24916 29.000
74.26911 35.000
74.28906 26.000
74.30900 25.000
74.32895 27.000
74.34890 27.000
74.36885 35.000
74.38879 33.000
74.40874 18.000
74.42869 28.000
74.44863 20.000
74.46858 22.000
74.48853 26.000
74.50847 22.000
74.52842 30.000
74.54837 23.000
74.56832 26.000
74.58826 27.000
74.60821 21.000
74.62816 18.000
74.64810 24.000
74.66805 31.000
74.68800 38.000
74.70794 34.000
74.72789 27.000
74.74784 24.000
74.76778 24.000
74.78773 37.000
74.80768 31.000
74.82763 31.000
74.84757 33.000
74.86752 38.000
74.88747 35.000
74.90741 34.000
74.92736 44.000
74.94731 32.000
74.96725 32.000
74.98720 38.000
75.00715 22.000
75.02710 29.000
75.04704 20.000
75.06699 26.000
75.08694 29.000
75.10688 32.000
75.12683 33.000
75.14678 33.000
75.16672 34.000
75.18667 23.000
75.20662 32.000
75.22657 31.000
75.24651 22.000
75.26646 25.000
75.28641 21.000
75.30635 30.000
75.32630 28.000
75.34625 21.000
75.36619 28.000
75.38614 37.000
75.40609 34.000
75.42603 31.000
75.44598 54.000
75.46593 55.000
75.48588 49.000
75.50582 30.000
75.52577 32.000
75.54572 36.000
75.56566 31.000
75.58561 25.000
75.60556 38.000
75.62550 29.000
75.64545 37.000
75.66540 33.000
75.68535 34.000
75.70529 26.000
75.72524 34.000
75.74519 22.000
75.76513 21.000
75.78508 29.000
75.80503 26.000
75.82497 29.000
75.84492 28.000
75.86487 33.000
75.88481 19.000
75.90476 21.000
75.92471 30.000
75.94466 26.000
75.96460 20.000
75.98455 24.000
76.00450 24.000
76.02444 18.000
76.04439 16.000
76.06434 29.000
76.08428 32.000
76.10423 39.000
76.12418 29.000
76.14413 40.000
76.16407 19.000
76.18402 25.000
76.20397 33.000
76.22391 32.000
76.24386 22.000
76.26381 26.000
76.28375 34.000
76.30370 25.000
76.32365 27.000
76.34359 27.000
76.36354 27.000
76.38349 28.000
76.40344 23.000
76.42338 24.000
76.44333 23.000
76.46328 33.000
76.48322 31.000
76.50317 21.000
76.52312 22.000
76.54306 28.000
76.56301 19.000
76.58296 11.000
76.60291 29.000
76.62285 21.000
76.64280 24.000
76.66275 34.000
76.68269 22.000
76.70264 22.000
76.72259 21.000
76.74253 27.000
76.76248 23.000
76.78243 31.000
76.80238 22.000
76.82232 30.000
76.84227 24.000
76.86222 32.000
76.88216 11.000
76.90211 20.000
76.92206 22.000
76.94200 17.000
76.96195 28.000
76.98190 24.000
77.00184 22.000
77.02179 24.000
77.04174 21.000
77.06169 16.000
77.08163 35.000
77.10158 24.000
77.12153 20.000
77.14147 26.000
77.16142 27.000
77.18137 19.000
77.20131 25.000
77.22126 28.000
77.24121 12.000
77.26116 29.000
77.28110 20.000
77.30105 17.000
77.32100 22.000
77.34094 23.000
77.36089 27.000
77.38084 20.000
77.40078 21.000
77.42073 24.000
77.44068 23.000
77.46062 37.000
77.48057 22.000
77.50052 24.000
77.52047 38.000
77.54041 47.000
77.56036 36.000
77.58031 46.000
77.60025 43.000
77.62020 42.000
77.64015 39.000
77.66009 39.000
77.68004 33.000
77.69999 44.000
77.71994 40.000
77.73988 47.000
77.75983 31.000
77.77978 39.000
77.79972 31.000
77.81967 22.000
77.83962 25.000
77.85956 29.000
77.87951 30.000
77.89946 30.000
77.91940 31.000
77.93935 36.000
77.95930 33.000
77.97925 18.000
77.99919 37.000
78.01914 35.000
78.03909 26.000
78.05903 34.000
78.07898 23.000
78.09893 22.000
78.11887 25.000
78.13882 22.000
78.15877 30.000
78.17872 24.000
78.19866 21.000
78.21861 23.000
78.23856 12.000
78.25850 26.000
78.27845 22.000
78.29840 21.000
78.31834 18.000
78.33829 31.000
78.35824 16.000
78.37819 29.000
78.39813 24.000
78.41808 20.000
78.43803 32.000
78.45797 28.000
78.47792 30.000
78.49787 22.000
78.51781 18.000
78.53776 21.000
78.55771 26.000
78.57765 28.000
78.59760 20.000
78.61755 23.000
78.63750 36.000
78.65744 32.000
78.67739 36.000
78.69734 26.000
78.71728 32.000
78.73723 41.000
78.75718 26.000
78.77712 28.000
78.79707 23.000
78.81702 24.000
78.83697 43.000
78.85691 37.000
78.87686 35.000
78.89681 40.000
78.91675 32.000
78.93670 29.000
78.95665 18.000
78.97659 23.000
78.99654 36.000
79.01649 23.000
79.03643 19.000
79.05638 34.000
79.07633 23.000
79.09628 22.000
79.11622 31.000
79.13617 31.000
79.15612 24.000
79.17606 21.000
79.19601 23.000
79.21596 19.000
79.23590 15.000
79.25585 17.000
79.27580 15.000
79.29575 17.000
79.31569 24.000
79.33564 20.000
79.35559 21.000
79.37553 11.000
79.39548 25.000
79.41543 19.000
79.43537 20.000
79.45532 14.000
79.47527 21.000
79.49521 20.000
79.51516 16.000
79.53511 16.000
79.55506 19.000
79.57500 28.000
79.59495 16.000
79.61490 19.000
79.63484 19.000
79.65479 17.000
79.67474 18.000
79.69468 22.000
79.71463 20.000
79.73458 20.000
79.75453 37.000
79.77447 34.000
79.79442 29.000
79.81437 27.000
79.83431 32.000
79.85426 34.000
79.87421 16.000
79.89415 23.000
79.91410 30.000
79.93405 22.000
79.95399 34.000
79.97394 30.000
79.99389 17.000
80.01384 27.000
80.03378 20.000
80.05373 14.000
80.07368 22.000
80.09362 27.000
80.11357 37.000
80.13352 18.000
80.15346 22.000
80.17341 26.000
80.19336 14.000
80.21331 24.000
80.23325 19.000
80.25320 21.000
80.27315 19.000
80.29309 34.000
80.31304 14.000
80.33299 26.000
80.35293 26.000
80.37288 19.000
80.39283 16.000
80.41278 20.000
80.43272 21.000
80.45267 23.000
80.47262 24.000
80.49256 26.000
80.51251 32.000
80.53246 26.000
80.55240 35.000
80.57235 36.000
80.59230 41.000
80.61224 31.000
80.63219 35.000
80.65214 30.000
80.67209 44.000
80.69203 48.000
80.71198 43.000
80.73193 59.000
80.75187 40.000
80.77182 48.000
80.79177 36.000
80.81171 31.000
80.83166 32.000
80.85161 33.000
80.87156 30.000
80.89150 23.000
80.91145 27.000
80.93140 25.000
80.95134 32.000
80.97129 36.000
80.99124 36.000
81.01118 28.000
81.03113 33.000
81.05108 23.000
81.07102 26.000
81.09097 37.000
81.11092 26.000
81.13087 21.000
81.15081 26.000
81.17076 27.000
81.19071 24.000
81.21065 24.000
81.23060 26.000
81.25055 25.000
81.27049 33.000
81.29044 18.000
81.31039 18.000
81.33034 28.000
81.35028 34.000
81.37023 21.000
81.39018 23.000
81.41012 33.000
81.43007 27.000
81.45002 19.000
81.46996 19.000
81.48991 24.000
81.50986 18.000
81.52980 17.000
81.54975 16.000
81.56970 22.000
81.58965 17.000
81.60959 18.000
81.62954 25.000
81.64949 27.000
81.66943 26.000
81.68938 22.000
81.70933 17.000
81.72927 26.000
81.74922 22.000
81.76917 27.000
81.78912 25.000
81.80906 21.000
81.82901 14.000
81.84896 19.000
81.86890 26.000
81.88885 27.000
81.90880 19.000
81.92874 28.000
81.94869 15.000
81.96864 19.000
81.98859 33.000
82.00853 23.000
82.02848 22.000
82.04843 29.000
82.06837 22.000
82.08832 23.000
82.10827 24.000
82.12821 13.000
82.14816 31.000
82.16811 19.000
82.18805 27.000
82.20800 26.000
82.22795 32.000
82.24790 25.000
82.26784 16.000
82.28779 18.000
82.30774 16.000
82.32768 29.000
82.34763 23.000
82.36758 27.000
82.38752 24.000
82.40747 28.000
82.42742 28.000
82.44737 25.000
82.46731 21.000
82.48726 30.000
82.50721 25.000
82.52715 20.000
82.54710 25.000
82.56705 22.000
82.58699 25.000
82.60694 29.000
82.62689 22.000
82.64683 23.000
82.66678 19.000
82.68673 20.000
82.70668 18.000
82.72662 25.000
82.74657 36.000
82.76652 28.000
82.78646 21.000
82.80641 26.000
82.82636 32.000
82.84630 33.000
82.86625 35.000
82.88620 42.000
82.90615 32.000
82.92609 51.000
82.94604 45.000
82.96599 56.000
82.98593 43.000
83.00588 40.000
83.02583 32.000
83.04577 26.000
83.06572 30.000
83.08567 29.000
83.10561 28.000
83.12556 17.000
83.14551 32.000
83.16546 21.000
83.18540 40.000
83.20535 27.000
83.22530 36.000
83.24524 32.000
83.26519 42.000
83.28514 19.000
83.30508 36.000
83.32503 27.000
83.34498 35.000
83.36493 34.000
83.38487 23.000
83.40482 21.000
83.42477 20.000
83.44471 20.000
83.46466 31.000
83.48461 22.000
83.50455 22.000
83.52450 31.000
83.54445 27.000
83.56440 32.000
83.58434 37.000
83.60429 43.000
83.62424 41.000
83.64418 39.000
83.66413 27.000
83.68408 37.000
83.70402 23.000
83.72397 28.000
83.74392 28.000
83.76386 31.000
83.78381 25.000
83.80376 33.000
83.82371 36.000
83.84365 22.000
83.86360 37.000
83.88355 31.000
83.90349 31.000
83.92344 27.000
83.94339 25.000
83.96333 24.000
83.98328 24.000
84.00323 19.000
84.02318 19.000
84.04312 23.000
84.06307 18.000
84.08302 29.000
84.10296 38.000
84.12291 28.000
84.14286 19.000
84.16280 25.000
84.18275 22.000
84.20270 30.000
84.22264 36.000
84.24259 25.000
84.26254 21.000
84.28249 32.000
84.30243 30.000
84.32238 34.000
84.34233 41.000
84.36227 36.000
84.38222 38.000
84.40217 23.000
84.42211 39.000
84.44206 40.000
84.46201 14.000
84.48196 32.000
84.50190 34.000
84.52185 27.000
84.54180 33.000
84.56174 28.000
84.58169 28.000
84.60164 32.000
84.62158 27.000
84.64153 21.000
84.66148 22.000
84.68142 26.000
84.70137 41.000
84.72132 27.000
84.74127 34.000
84.76121 37.000
84.78116 41.000
84.80111 34.000
84.82105 29.000
84.84100 30.000
84.86095 41.000
84.88089 53.000
84.90084 52.000
84.92079 57.000
84.94074 54.000
84.96068 44.000
84.98063 48.000
85.00058 53.000
85.02052 35.000
85.04047 36.000
85.06042 43.000
85.08036 35.000
85.10031 44.000
85.12026 52.000
85.14021 44.000
85.16015 54.000
85.18010 54.000
85.20005 52.000
85.21999 45.000
85.23994 38.000
85.25989 45.000
85.27983 34.000
85.29978 49.000
85.31973 42.000
85.33967 27.000
85.35962 40.000
85.37957 29.000
85.39952 33.000
85.41946 48.000
85.43941 32.000
85.45936 41.000
85.47930 29.000
85.49925 30.000
85.51920 32.000
85.53914 39.000
85.55909 29.000
85.57904 34.000
85.59899 20.000
85.61893 28.000
85.63888 37.000
85.65883 25.000
85.67877 33.000
85.69872 24.000
85.71867 19.000
85.73861 36.000
85.75856 29.000
85.77851 29.000
85.79845 27.000
85.81840 25.000
85.83835 26.000
85.85830 32.000
85.87824 14.000
85.89819 32.000
85.91814 19.000
85.93808 22.000
85.95803 23.000
85.97798 27.000
85.99792 26.000
86.01787 20.000
86.03782 27.000
86.05777 31.000
86.07771 27.000
86.09766 26.000
86.11761 25.000
86.13755 38.000
86.15750 26.000
86.17745 22.000
86.19739 16.000
86.21734 30.000
86.23729 29.000
86.25723 17.000
86.27718 21.000
86.29713 32.000
86.31708 29.000
86.33702 18.000
86.35697 35.000
86.37692 28.000
86.39686 24.000
86.41681 26.000
86.43676 34.000
86.45670 26.000
86.47665 23.000
86.49660 14.000
86.51655 30.000
86.53649 22.000
86.55644 20.000
86.57639 21.000
86.59633 30.000
86.61628 33.000
86.63623 33.000
86.65617 27.000
86.67612 29.000
86.69607 25.000
86.71602 34.000
86.73596 35.000
86.75591 22.000
86.77586 31.000
86.79580 29.000
86.81575 20.000
86.83570 30.000
86.85564 37.000
86.87559 32.000
86.89554 21.000
86.91548 29.000
86.93543 23.000
86.95538 29.000
86.97533 33.000
86.99527 35.000
87.01522 30.000
87.03517 43.000
87.05511 27.000
87.07506 34.000
87.09501 38.000
87.11495 26.000
87.13490 23.000
87.15485 27.000
87.17480 33.000
87.19474 37.000
87.21469 28.000
87.23464 24.000
87.25458 36.000
87.27453 32.000
87.29448 19.000
87.31442 22.000
87.33437 29.000
87.35432 28.000
87.37426 23.000
87.39421 18.000
87.41416 18.000
87.43411 26.000
87.45405 29.000
87.47400 26.000
87.49395 22.000
87.51389 28.000
87.53384 27.000
87.55379 39.000
87.57373 36.000
87.59368 41.000
87.61363 57.000
87.63358 37.000
87.65352 50.000
87.67347 51.000
87.69342 41.000
87.71336 50.000
87.73331 45.000
87.75326 44.000
87.77320 46.000
87.79315 52.000
87.81310 34.000
87.83304 51.000
87.85299 51.000
87.87294 50.000
87.89289 62.000
87.91283 53.000
87.93278 47.000
87.95273 50.000
87.97267 42.000
87.99262 40.000
88.01257 32.000
88.03251 33.000
88.05246 31.000
88.07241 31.000
88.09236 32.000
88.11230 35.000
88.13225 31.000
88.15220 38.000
88.17214 30.000
88.19209 36.000
88.21204 36.000
88.23198 31.000
88.25193 31.000
88.27188 31.000
88.29183 36.000
88.31177 23.000
88.33172 35.000
88.35167 21.000
88.37161 30.000
88.39156 32.000
88.41151 26.000
88.43145 32.000
88.45140 25.000
88.47135 40.000
88.49129 33.000
88.51124 47.000
88.53119 48.000
88.55114 52.000
88.57108 43.000
88.59103 53.000
88.61098 37.000
88.63092 35.000
88.65087 29.000
88.67082 30.000
88.69076 31.000
88.71071 25.000
88.73066 28.000
88.75061 23.000
88.77055 32.000
88.79050 33.000
88.81045 36.000
88.83039 52.000
88.85034 42.000
88.87029 42.000
88.89023 35.000
88.91018 41.000
88.93013 38.000
88.95007 27.000
88.97002 37.000
88.98997 31.000
89.00992 35.000
89.02986 34.000
89.04981 36.000
89.06976 38.000
89.08970 27.000
89.10965 36.000
89.12960 41.000
89.14954 27.000
89.16949 31.000
89.18944 23.000
89.20939 28.000
89.22933 30.000
89.24928 41.000
89.26923 27.000
89.28917 30.000
89.30912 27.000
89.32907 27.000
89.34901 28.000
89.36896 33.000
89.38891 38.000
89.40885 25.000
89.42880 36.000
89.44875 43.000
89.46870 37.000
89.48864 28.000
89.50859 33.000
89.52854 32.000
89.54848 29.000
89.56843 34.000
89.58838 39.000
89.60832 31.000
89.62827 27.000
89.64822 35.000
89.66817 25.000
89.68811 27.000
89.70806 25.000
89.72801 35.000
89.74795 33.000
89.76790 29.000
89.78785 26.000
89.80779 25.000
89.82774 25.000
89.84769 41.000
89.86764 31.000
89.88758 36.000
89.90753 30.000
89.92748 32.000
89.94742 34.000
89.96737 36.000
89.98732 44.000
90.00726 32.000
