10.00000 141.000
10.01995 139.000
10.03989 161.000
10.05984 158.000
10.07979 131.000
10.09973 142.000
10.11968 148.000
10.13963 132.000
10.15958 150.000
10.17952 148.000
10.19947 158.000
10.21942 153.000
10.23936 145.000
10.25931 129.000
10.27926 148.000
10.29920 157.000
10.31915 132.000
10.33910 136.000
10.35905 136.000
10.37899 139.000
10.39894 149.000
10.41889 177.000
10.43883 129.000
10.45878 169.000
10.47873 141.000
10.49867 151.000
10.51862 157.000
10.53857 166.000
10.55851 145.000
10.57846 152.000
10.59841 151.000
10.61836 148.000
10.63830 141.000
10.65825 154.000
10.67820 130.000
10.69814 147.000
10.71809 153.000
10.73804 138.000
10.75798 156.000
10.77793 156.000
10.79788 141.000
10.81783 176.000
10.83777 135.000
10.85772 149.000
10.87767 147.000
10.89761 141.000
10.91756 142.000
10.93751 158.000
10.95745 138.000
10.97740 146.000
10.99735 163.000
11.01730 159.000
11.03724 140.000
11.05719 148.000
11.07714 142.000
11.09708 154.000
11.11703 143.000
11.13698 153.000
11.15692 128.000
11.17687 142.000
11.19682 147.000
11.21676 155.000
11.23671 159.000
11.25666 148.000
11.27661 160.000
11.29655 179.000
11.31650 161.000
11.33645 152.000
11.35639 155.000
11.37634 145.000
11.39629 131.000
11.41623 137.000
11.43618 145.000
11.45613 163.000
11.47608 150.000
11.49602 148.000
11.51597 130.000
11.53592 157.000
11.55586 159.000
11.57581 143.000
11.59576 163.000
11.61570 142.000
11.63565 138.000
11.65560 136.000
11.67554 132.000
11.69549 153.000
11.71544 150.000
11.73539 157.000
11.75533 140.000
11.77528 121.000
11.79523 155.000
11.81517 151.000
11.83512 167.000
11.85507 145.000
11.87501 154.000
11.89496 149.000
11.91491 164.000
11.93486 171.000
11.95480 141.000
11.97475 163.000
11.99470 152.000
12.01464 156.000
12.03459 145.000
12.05454 157.000
12.07448 134.000
12.09443 138.000
12.11438 147.000
12.13432 134.000
12.15427 155.000
12.17422 158.000
12.19417 145.000
12.21411 154.000
12.23406 161.000
12.25401 146.000
12.27395 158.000
12.29390 152.000
12.31385 162.000
12.33379 154.000
12.35374 153.000
12.37369 137.000
12.39364 151.000
12.41358 152.000
12.43353 161.000
12.45348 156.000
12.47342 147.000
12.49337 172.000
12.51332 156.000
12.53326 140.000
12.55321 145.000
12.57316 156.000
12.59311 161.000
12.61305 157.000
12.63300 165.000
12.65295 142.000
12.67289 136.000
12.69284 188.000
12.71279 142.000
12.73273 142.000
12.75268 153.000
12.77263 140.000
12.79257 153.000
12.81252 153.000
12.83247 152.000
12.85242 149.000
12.87236 163.000
12.89231 140.000
12.91226 153.000
12.93220 169.000
12.95215 161.000
12.97210 152.000
12.99204 156.000
13.01199 124.000
13.03194 158.000
13.05189 160.000
13.07183 146.000
13.09178 165.000
13.11173 138.000
13.13167 158.000
13.15162 171.000
13.17157 153.000
13.19151 149.000
13.21146 158.000
13.23141 145.000
13.25135 154.000
13.27130 152.000
13.29125 174.000
13.31120 130.000
13.33114 180.000
13.35109 164.000
13.37104 139.000
13.39098 160.000
13.41093 164.000
13.43088 166.000
13.45082 158.000
13.47077 138.000
13.49072 150.000
13.51067 145.000
13.53061 171.000
13.55056 152.000
13.57051 144.000
13.59045 133.000
13.61040 149.000
13.63035 173.000
13.65029 144.000
13.67024 167.000
13.69019 161.000
13.71013 150.000
13.73008 155.000
13.75003 142.000
13.76998 161.000
13.78992 173.000
13.80987 160.000
13.82982 156.000
13.84976 164.000
13.86971 146.000
13.88966 152.000
13.90960 172.000
13.92955 158.000
13.94950 162.000
13.96945 149.000
13.98939 148.000
14.00934 135.000
14.02929 154.000
14.04923 144.000
14.06918 140.000
14.08913 130.000
14.10907 159.000
14.12902 145.000
14.14897 139.000
14.16892 160.000
14.18886 133.000
14.20881 158.000
14.22876 155.000
14.24870 135.000
14.26865 170.000
14.28860 147.000
14.30854 138.000
14.32849 162.000
14.34844 168.000
14.36838 158.000
14.38833 160.000
14.40828 149.000
14.42823 148.000
14.44817 138.000
14.46812 153.000
14.48807 166.000
14.50801 143.000
14.52796 150.000
14.54791 175.000
14.56785 187.000
14.58780 157.000
14.60775 162.000
14.62770 174.000
14.64764 150.000
14.66759 158.000
14.68754 154.000
14.70748 175.000
14.72743 154.000
14.74738 135.000
14.76732 153.000
14.78727 147.000
14.80722 150.000
14.82716 165.000
14.84711 144.000
14.86706 138.000
14.88701 158.000
14.90695 159.000
14.92690 160.000
14.94685 169.000
14.96679 174.000
14.98674 161.000
15.00669 161.000
15.02663 157.000
15.04658 144.000
15.06653 151.000
15.08648 160.000
15.10642 159.000
15.12637 173.000
15.14632 176.000
15.16626 183.000
15.18621 190.000
15.20616 173.000
15.22610 168.000
15.24605 179.000
15.26600 188.000
15.28594 193.000
15.30589 168.000
15.32584 161.000
15.34579 194.000
15.36573 151.000
15.38568 152.000
15.40563 199.000
15.42557 170.000
15.44552 204.000
15.46547 197.000
15.48541 230.000
15.50536 227.000
15.52531 204.000
15.54526 228.000
15.56520 248.000
15.58515 253.000
15.60510 314.000
15.62504 353.000
15.64499 428.000
15.66494 558.000
15.68488 731.000
15.70483 1046.000
15.72478 1323.000
15.74472 1714.000
15.76467 2313.000
15.78462 2950.000
15.80457 3151.000
15.82451 2917.000
15.84446 2524.000
15.86441 2132.000
15.88435 1478.000
15.90430 1037.000
15.92425 714.000
15.94419 525.000
15.96414 425.000
15.98409 438.000
16.00404 422.000
16.02398 471.000
16.04393 510.000
16.06388 658.000
16.08382 663.000
16.10377 779.000
16.12372 841.000
16.14366 788.000
16.16361 766.000
16.18356 668.000
16.20351 602.000
16.22345 424.000
16.24340 344.000
16.26335 279.000
16.28329 215.000
16.30324 235.000
16.32319 192.000
16.34313 177.000
16.36308 205.000
16.38303 220.000
16.40297 186.000
16.42292 189.000
16.44287 166.000
16.46282 192.000
16.48276 177.000
16.50271 172.000
16.52266 190.000
16.54260 186.000
16.56255 185.000
16.58250 200.000
16.60244 191.000
16.62239 171.000
16.64234 160.000
16.66229 161.000
16.68223 161.000
16.70218 179.000
16.72213 181.000
16.74207 200.000
16.76202 170.000
16.78197 198.000
16.80191 165.000
16.82186 186.000
16.84181 190.000
16.86175 175.000
16.88170 164.000
16.90165 183.000
16.92160 168.000
16.94154 165.000
16.96149 171.000
16.98144 176.000
17.00138 161.000
17.02133 160.000
17.04128 125.000
17.06122 145.000
17.08117 177.000
17.10112 178.000
17.12107 167.000
17.14101 155.000
17.16096 160.000
17.18091 162.000
17.20085 164.000
17.22080 138.000
17.24075 157.000
17.26069 170.000
17.28064 150.000
17.30059 119.000
17.32053 157.000
17.34048 174.000
17.36043 169.000
17.38038 147.000
17.40032 151.000
17.42027 159.000
17.44022 181.000
17.46016 147.000
17.48011 154.000
17.50006 152.000
17.52000 172.000
17.53995 153.000
17.55990 157.000
17.57985 161.000
17.59979 166.000
17.61974 161.000
17.63969 161.000
17.65963 177.000
17.67958 145.000
17.69953 172.000
17.71947 142.000
17.73942 160.000
17.75937 144.000
17.77932 164.000
17.79926 159.000
17.81921 147.000
17.83916 164.000
17.85910 145.000
17.87905 179.000
17.89900 181.000
17.91894 164.000
17.93889 168.000
17.95884 181.000
17.97878 144.000
17.99873 170.000
18.01868 165.000
18.03863 149.000
18.05857 169.000
18.07852 150.000
18.09847 171.000
18.11841 184.000
18.13836 165.000
18.15831 153.000
18.17825 152.000
18.19820 169.000
18.21815 193.000
18.23810 173.000
18.25804 216.000
18.27799 241.000
18.29794 223.000
18.31788 252.000
18.33783 235.000
18.35778 247.000
18.37772 206.000
18.39767 202.000
18.41762 220.000
18.43756 203.000
18.45751 175.000
18.47746 177.000
18.49741 150.000
18.51735 142.000
18.53730 147.000
18.55725 159.000
18.57719 162.000
18.59714 141.000
18.61709 168.000
18.63703 144.000
18.65698 152.000
18.67693 163.000
18.69688 146.000
18.71682 151.000
18.73677 154.000
18.75672 155.000
18.77666 138.000
18.79661 160.000
18.81656 172.000
18.83650 164.000
18.85645 149.000
18.87640 149.000
18.89634 150.000
18.91629 172.000
18.93624 147.000
18.95619 148.000
18.97613 165.000
18.99608 152.000
19.01603 162.000
19.03597 144.000
19.05592 135.000
19.07587 149.000
19.09581 157.000
19.11576 183.000
19.13571 160.000
19.15566 156.000
19.17560 132.000
19.19555 172.000
19.21550 162.000
19.23544 206.000
19.25539 160.000
19.27534 142.000
19.29528 172.000
19.31523 183.000
19.33518 165.000
19.35513 180.000
19.37507 180.000
19.39502 179.000
19.41497 156.000
19.43491 164.000
19.45486 164.000
19.47481 163.000
19.49475 191.000
19.51470 141.000
19.53465 155.000
19.55459 162.000
19.57454 173.000
19.59449 151.000
19.61444 166.000
19.63438 149.000
19.65433 172.000
19.67428 180.000
19.69422 136.000
19.71417 176.000
19.73412 173.000
19.75406 163.000
19.77401 182.000
19.79396 158.000
19.81391 163.000
19.83385 156.000
19.85380 166.000
19.87375 155.000
19.89369 189.000
19.91364 165.000
19.93359 160.000
19.95353 159.000
19.97348 162.000
19.99343 156.000
20.01337 171.000
20.03332 167.000
20.05327 150.000
20.07322 156.000
20.09316 166.000
20.11311 133.000
20.13306 178.000
20.15300 153.000
20.17295 149.000
20.19290 164.000
20.21284 179.000
20.23279 157.000
20.25274 151.000
20.27269 168.000
20.29263 170.000
20.31258 160.000
20.33253 190.000
20.35247 166.000
20.37242 188.000
20.39237 162.000
20.41231 206.000
20.43226 163.000
20.45221 164.000
20.47215 214.000
20.49210 182.000
20.51205 177.000
20.53200 189.000
20.55194 195.000
20.57189 210.000
20.59184 201.000
20.61178 223.000
20.63173 203.000
20.65168 245.000
20.67162 232.000
20.69157 281.000
20.71152 289.000
20.73147 285.000
20.75141 353.000
20.77136 356.000
20.79131 412.000
20.81125 363.000
20.83120 357.000
20.85115 398.000
20.87109 342.000
20.89104 303.000
20.91099 345.000
20.93094 298.000
20.95088 264.000
20.97083 292.000
20.99078 265.000
21.01072 286.000
21.03067 248.000
21.05062 264.000
21.07056 237.000
21.09051 220.000
21.11046 192.000
21.13040 169.000
21.15035 179.000
21.17030 165.000
21.19025 184.000
21.21019 171.000
21.23014 157.000
21.25009 169.000
21.27003 157.000
21.28998 167.000
21.30993 187.000
21.32987 159.000
21.34982 141.000
21.36977 159.000
21.38972 178.000
21.40966 163.000
21.42961 167.000
21.44956 163.000
21.46950 179.000
21.48945 188.000
21.50940 164.000
21.52934 181.000
21.54929 174.000
21.56924 177.000
21.58918 161.000
21.60913 167.000
21.62908 169.000
21.64903 146.000
21.66897 167.000
21.68892 166.000
21.70887 147.000
21.72881 146.000
21.74876 146.000
21.76871 183.000
21.78865 154.000
21.80860 186.000
21.82855 169.000
21.84850 160.000
21.86844 162.000
21.88839 150.000
21.90834 173.000
21.92828 145.000
21.94823 157.000
21.96818 162.000
21.98812 164.000
22.00807 209.000
22.02802 157.000
22.04796 173.000
22.06791 158.000
22.08786 164.000
22.10781 177.000
22.12775 168.000
22.14770 164.000
22.16765 185.000
22.18759 185.000
22.20754 188.000
22.22749 195.000
22.24743 178.000
22.26738 170.000
22.28733 151.000
22.30728 153.000
22.32722 164.000
22.34717 164.000
22.36712 178.000
22.38706 163.000
22.40701 169.000
22.42696 175.000
22.44690 171.000
22.46685 155.000
22.48680 148.000
22.50675 174.000
22.52669 167.000
22.54664 170.000
22.56659 187.000
22.58653 174.000
22.60648 175.000
22.62643 177.000
22.64637 161.000
22.66632 186.000
22.68627 163.000
22.70621 157.000
22.72616 159.000
22.74611 151.000
22.76606 162.000
22.78600 165.000
22.80595 166.000
22.82590 165.000
22.84584 157.000
22.86579 155.000
22.88574 169.000
22.90568 172.000
22.92563 191.000
22.94558 153.000
22.96553 185.000
22.98547 179.000
23.00542 179.000
23.02537 163.000
23.04531 172.000
23.06526 156.000
23.08521 151.000
23.10515 175.000
23.12510 148.000
23.14505 184.000
23.16499 179.000
23.18494 163.000
23.20489 155.000
23.22484 172.000
23.24478 142.000
23.26473 175.000
23.28468 161.000
23.30462 186.000
23.32457 173.000
23.34452 184.000
23.36446 172.000
23.38441 161.000
23.40436 150.000
23.42431 191.000
23.44425 155.000
23.46420 150.000
23.48415 165.000
23.50409 189.000
23.52404 166.000
23.54399 166.000
23.56393 157.000
23.58388 171.000
23.60383 175.000
23.62377 173.000
23.64372 178.000
23.66367 159.000
23.68362 172.000
23.70356 190.000
23.72351 177.000
23.74346 171.000
23.76340 169.000
23.78335 157.000
23.80330 151.000
23.82324 181.000
23.84319 147.000
23.86314 162.000
23.88309 173.000
23.90303 156.000
23.92298 177.000
23.94293 189.000
23.96287 170.000
23.98282 187.000
24.00277 183.000
24.02271 181.000
24.04266 202.000
24.06261 182.000
24.08256 168.000
24.10250 162.000
24.12245 168.000
24.14240 181.000
24.16234 153.000
24.18229 172.000
24.20224 155.000
24.22218 162.000
24.24213 167.000
24.26208 183.000
24.28202 155.000
24.30197 177.000
24.32192 156.000
24.34187 174.000
24.36181 192.000
24.38176 191.000
24.40171 161.000
24.42165 183.000
24.44160 173.000
24.46155 177.000
24.48149 183.000
24.50144 179.000
24.52139 183.000
24.54134 173.000
24.56128 160.000
24.58123 166.000
24.60118 196.000
24.62112 174.000
24.64107 178.000
24.66102 166.000
24.68096 180.000
24.70091 185.000
24.72086 166.000
24.74080 179.000
24.76075 156.000
24.78070 196.000
24.80065 168.000
24.82059 179.000
24.84054 186.000
24.86049 192.000
24.88043 190.000
24.90038 192.000
24.92033 206.000
24.94027 220.000
24.96022 183.000
24.98017 169.000
25.00012 194.000
25.02006 172.000
25.04001 179.000
25.05996 196.000
25.07990 190.000
25.09985 174.000
25.11980 176.000
25.13974 187.000
25.15969 165.000
25.17964 187.000
25.19958 178.000
25.21953 182.000
25.23948 175.000
25.25943 181.000
25.27937 175.000
25.29932 171.000
25.31927 150.000
25.33921 178.000
25.35916 183.000
25.37911 179.000
25.39905 172.000
25.41900 174.000
25.43895 175.000
25.45890 146.000
25.47884 172.000
25.49879 153.000
25.51874 178.000
25.53868 186.000
25.55863 198.000
25.57858 178.000
25.59852 181.000
25.61847 173.000
25.63842 148.000
25.65837 165.000
25.67831 159.000
25.69826 172.000
25.71821 169.000
25.73815 160.000
25.75810 155.000
25.77805 188.000
25.79799 188.000
25.81794 189.000
25.83789 170.000
25.85783 191.000
25.87778 174.000
25.89773 174.000
25.91768 189.000
25.93762 200.000
25.95757 179.000
25.97752 192.000
25.99746 189.000
26.01741 177.000
26.03736 179.000
26.05730 197.000
26.07725 214.000
26.09720 163.000
26.11715 164.000
26.13709 151.000
26.15704 202.000
26.17699 192.000
26.19693 175.000
26.21688 158.000
26.23683 198.000
26.25677 186.000
26.27672 180.000
26.29667 207.000
26.31661 188.000
26.33656 210.000
26.35651 177.000
26.37646 166.000
26.39640 181.000
26.41635 188.000
26.43630 193.000
26.45624 183.000
26.47619 188.000
26.49614 180.000
26.51608 178.000
26.53603 171.000
26.55598 178.000
26.57593 188.000
26.59587 164.000
26.61582 191.000
26.63577 163.000
26.65571 159.000
26.67566 188.000
26.69561 197.000
26.71555 184.000
26.73550 183.000
26.75545 177.000
26.77539 184.000
26.79534 178.000
26.81529 144.000
26.83524 189.000
26.85518 188.000
26.87513 174.000
26.89508 187.000
26.91502 191.000
26.93497 206.000
26.95492 160.000
26.97486 161.000
26.99481 201.000
27.01476 203.000
27.03471 210.000
27.05465 203.000
27.07460 164.000
27.09455 209.000
27.11449 171.000
27.13444 185.000
27.15439 177.000
27.17433 174.000
27.19428 209.000
27.21423 182.000
27.23417 210.000
27.25412 191.000
27.27407 203.000
27.29402 187.000
27.31396 201.000
27.33391 176.000
27.35386 198.000
27.37380 181.000
27.39375 211.000
27.41370 165.000
27.43364 205.000
27.45359 200.000
27.47354 198.000
27.49349 192.000
27.51343 196.000
27.53338 186.000
27.55333 210.000
27.57327 181.000
27.59322 149.000
27.61317 181.000
27.63311 188.000
27.65306 172.000
27.67301 189.000
27.69296 162.000
27.71290 205.000
27.73285 211.000
27.75280 179.000
27.77274 192.000
27.79269 190.000
27.81264 216.000
27.83258 169.000
27.85253 180.000
27.87248 202.000
27.89242 207.000
27.91237 196.000
27.93232 168.000
27.95227 176.000
27.97221 211.000
27.99216 184.000
28.01211 191.000
28.03205 176.000
28.05200 183.000
28.07195 175.000
28.09189 201.000
28.11184 204.000
28.13179 203.000
28.15174 191.000
28.17168 197.000
28.19163 191.000
28.21158 189.000
28.23152 186.000
28.25147 193.000
28.27142 210.000
28.29136 186.000
28.31131 202.000
28.33126 187.000
28.35120 180.000
28.37115 195.000
28.39110 196.000
28.41105 184.000
28.43099 167.000
28.45094 209.000
28.47089 185.000
28.49083 192.000
28.51078 209.000
28.53073 189.000
28.55067 202.000
28.57062 177.000
28.59057 183.000
28.61052 196.000
28.63046 165.000
28.65041 196.000
28.67036 199.000
28.69030 185.000
28.71025 193.000
28.73020 187.000
28.75014 164.000
28.77009 212.000
28.79004 222.000
28.80998 195.000
28.82993 193.000
28.84988 176.000
28.86983 189.000
28.88977 193.000
28.90972 194.000
28.92967 195.000
28.94961 189.000
28.96956 194.000
28.98951 172.000
29.00945 189.000
29.02940 190.000
29.04935 200.000
29.06930 193.000
29.08924 199.000
29.10919 217.000
29.12914 187.000
29.14908 215.000
29.16903 242.000
29.18898 222.000
29.20892 226.000
29.22887 218.000
29.24882 266.000
29.26877 247.000
29.28871 282.000
29.30866 276.000
29.32861 267.000
29.34855 261.000
29.36850 228.000
29.38845 245.000
29.40839 269.000
29.42834 267.000
29.44829 237.000
29.46823 235.000
29.48818 223.000
29.50813 207.000
29.52808 246.000
29.54802 185.000
29.56797 208.000
29.58792 211.000
29.60786 227.000
29.62781 204.000
29.64776 198.000
29.66770 199.000
29.68765 237.000
29.70760 184.000
29.72755 198.000
29.74749 190.000
29.76744 203.000
29.78739 219.000
29.80733 197.000
29.82728 197.000
29.84723 239.000
29.86717 210.000
29.88712 191.000
29.90707 225.000
29.92701 198.000
29.94696 205.000
29.96691 209.000
29.98686 218.000
30.00680 210.000
30.02675 223.000
30.04670 247.000
30.06664 247.000
30.08659 260.000
30.10654 281.000
30.12648 282.000
30.14643 345.000
30.16638 413.000
30.18633 387.000
30.20627 379.000
30.22622 367.000
30.24617 385.000
30.26611 313.000
30.28606 279.000
30.30601 292.000
30.32595 259.000
30.34590 243.000
30.36585 220.000
30.38579 207.000
30.40574 216.000
30.42569 216.000
30.44564 213.000
30.46558 204.000
30.48553 211.000
30.50548 214.000
30.52542 210.000
30.54537 190.000
30.56532 218.000
30.58526 201.000
30.60521 206.000
30.62516 200.000
30.64511 197.000
30.66505 185.000
30.68500 208.000
30.70495 200.000
30.72489 186.000
30.74484 220.000
30.76479 224.000
30.78473 185.000
30.80468 164.000
30.82463 183.000
30.84458 192.000
30.86452 195.000
30.88447 217.000
30.90442 190.000
30.92436 203.000
30.94431 213.000
30.96426 175.000
30.98420 224.000
31.00415 201.000
31.02410 229.000
31.04404 187.000
31.06399 228.000
31.08394 214.000
31.10389 225.000
31.12383 159.000
31.14378 183.000
31.16373 226.000
31.18367 185.000
31.20362 215.000
31.22357 217.000
31.24351 201.000
31.26346 196.000
31.28341 208.000
31.30336 207.000
31.32330 235.000
31.34325 203.000
31.36320 196.000
31.38314 222.000
31.40309 210.000
31.42304 208.000
31.44298 186.000
31.46293 195.000
31.48288 227.000
31.50282 189.000
31.52277 176.000
31.54272 190.000
31.56267 211.000
31.58261 214.000
31.60256 190.000
31.62251 202.000
31.64245 207.000
31.66240 223.000
31.68235 175.000
31.70229 206.000
31.72224 237.000
31.74219 231.000
31.76214 212.000
31.78208 225.000
31.80203 249.000
31.82198 262.000
31.84192 232.000
31.86187 269.000
31.88182 294.000
31.90176 303.000
31.92171 343.000
31.94166 385.000
31.96160 441.000
31.98155 519.000
32.00150 501.000
32.02145 500.000
32.04139 548.000
32.06134 520.000
32.08129 487.000
32.10123 469.000
32.12118 395.000
32.14113 346.000
32.16107 327.000
32.18102 299.000
32.20097 261.000
32.22092 232.000
32.24086 218.000
32.26081 244.000
32.28076 232.000
32.30070 244.000
32.32065 230.000
32.34060 234.000
32.36054 236.000
32.38049 254.000
32.40044 264.000
32.42039 253.000
32.44033 236.000
32.46028 264.000
32.48023 267.000
32.50017 279.000
32.52012 278.000
32.54007 245.000
32.56001 287.000
32.57996 293.000
32.59991 257.000
32.61985 293.000
32.63980 295.000
32.65975 314.000
32.67970 309.000
32.69964 320.000
32.71959 272.000
32.73954 299.000
32.75948 235.000
32.77943 254.000
32.79938 236.000
32.81932 225.000
32.83927 201.000
32.85922 202.000
32.87917 219.000
32.89911 220.000
32.91906 220.000
32.93901 219.000
32.95895 235.000
32.97890 191.000
32.99885 210.000
33.01879 196.000
33.03874 233.000
33.05869 222.000
33.07863 235.000
33.09858 207.000
33.11853 221.000
33.13848 186.000
33.15842 218.000
33.17837 182.000
33.19832 188.000
33.21826 206.000
33.23821 204.000
33.25816 221.000
33.27810 214.000
33.29805 193.000
33.31800 179.000
33.33795 217.000
33.35789 199.000
33.37784 230.000
33.39779 203.000
33.41773 195.000
33.43768 211.000
33.45763 196.000
33.47757 222.000
33.49752 205.000
33.51747 197.000
33.53741 229.000
33.55736 241.000
33.57731 206.000
33.59726 201.000
33.61720 216.000
33.63715 206.000
33.65710 249.000
33.67704 214.000
33.69699 211.000
33.71694 214.000
33.73688 230.000
33.75683 213.000
33.77678 233.000
33.79673 221.000
33.81667 216.000
33.83662 217.000
33.85657 237.000
33.87651 187.000
33.89646 228.000
33.91641 218.000
33.93635 234.000
33.95630 213.000
33.97625 228.000
33.99620 227.000
34.01614 261.000
34.03609 247.000
34.05604 256.000
34.07598 279.000
34.09593 246.000
34.11588 278.000
34.13582 277.000
34.15577 284.000
34.17572 292.000
34.19566 346.000
34.21561 355.000
34.23556 404.000
34.25551 446.000
34.27545 417.000
34.29540 430.000
34.31535 491.000
34.33529 473.000
34.35524 455.000
34.37519 503.000
34.39513 511.000
34.41508 466.000
34.43503 464.000
34.45498 446.000
34.47492 363.000
34.49487 390.000
34.51482 356.000
34.53476 343.000
34.55471 346.000
34.57466 343.000
34.59460 326.000
34.61455 328.000
34.63450 321.000
34.65444 307.000
34.67439 344.000
34.69434 315.000
34.71429 299.000
34.73423 304.000
34.75418 279.000
34.77413 289.000
34.79407 290.000
34.81402 285.000
34.83397 239.000
34.85391 275.000
34.87386 268.000
34.89381 263.000
34.91376 246.000
34.93370 260.000
34.95365 254.000
34.97360 243.000
34.99354 249.000
35.01349 253.000
35.03344 241.000
35.05338 272.000
35.07333 274.000
35.09328 296.000
35.11322 273.000
35.13317 278.000
35.15312 303.000
35.17307 337.000
35.19301 344.000
35.21296 343.000
35.23291 389.000
35.25285 399.000
35.27280 429.000
35.29275 476.000
35.31269 550.000
35.33264 643.000
35.35259 691.000
35.37254 793.000
35.39248 946.000
35.41243 1074.000
35.43238 1098.000
35.45232 1162.000
35.47227 1243.000
35.49222 1332.000
35.51216 1366.000
35.53211 1428.000
35.55206 1481.000
35.57201 1542.000
35.59195 1398.000
35.61190 1265.000
35.63185 1128.000
35.65179 1073.000
35.67174 935.000
35.69169 786.000
35.71163 698.000
35.73158 636.000
35.75153 527.000
35.77147 471.000
35.79142 427.000
35.81137 370.000
35.83132 348.000
35.85126 365.000
35.87121 321.000
35.89116 291.000
35.91110 309.000
35.93105 324.000
35.95100 270.000
35.97094 252.000
35.99089 271.000
36.01084 268.000
36.03079 260.000
36.05073 226.000
36.07068 274.000
36.09063 243.000
36.11057 229.000
36.13052 240.000
36.15047 259.000
36.17041 250.000
36.19036 237.000
36.21031 248.000
36.23025 268.000
36.25020 259.000
36.27015 211.000
36.29010 241.000
36.31004 284.000
36.32999 248.000
36.34994 256.000
36.36988 263.000
36.38983 244.000
36.40978 258.000
36.42972 262.000
36.44967 225.000
36.46962 240.000
36.48957 270.000
36.50951 227.000
36.52946 243.000
36.54941 239.000
36.56935 250.000
36.58930 233.000
36.60925 255.000
36.62919 265.000
36.64914 258.000
36.66909 263.000
36.68903 299.000
36.70898 311.000
36.72893 294.000
36.74888 344.000
36.76882 341.000
36.78877 394.000
36.80872 398.000
36.82866 415.000
36.84861 431.000
36.86856 444.000
36.88850 423.000
36.90845 475.000
36.92840 489.000
36.94835 533.000
36.96829 547.000
36.98824 630.000
37.00819 637.000
37.02813 662.000
37.04808 682.000
37.06803 695.000
37.08797 713.000
37.10792 654.000
37.12787 657.000
37.14781 580.000
37.16776 600.000
37.18771 493.000
37.20766 471.000
37.22760 449.000
37.24755 368.000
37.26750 354.000
37.28744 325.000
37.30739 294.000
37.32734 255.000
37.34728 277.000
37.36723 257.000
37.38718 247.000
37.40713 253.000
37.42707 251.000
37.44702 208.000
37.46697 215.000
37.48691 202.000
37.50686 234.000
37.52681 239.000
37.54675 217.000
37.56670 238.000
37.58665 220.000
37.60660 210.000
37.62654 198.000
37.64649 225.000
37.66644 206.000
37.68638 230.000
37.70633 207.000
37.72628 239.000
37.74622 203.000
37.76617 270.000
37.78612 206.000
37.80606 212.000
37.82601 239.000
37.84596 237.000
37.86591 211.000
37.88585 229.000
37.90580 216.000
37.92575 262.000
37.94569 233.000
37.96564 236.000
37.98559 245.000
38.00553 235.000
38.02548 257.000
38.04543 227.000
38.06538 228.000
38.08532 228.000
38.10527 227.000
38.12522 221.000
38.14516 233.000
38.16511 242.000
38.18506 245.000
38.20500 265.000
38.22495 224.000
38.24490 265.000
38.26484 284.000
38.28479 282.000
38.30474 244.000
38.32469 275.000
38.34463 303.000
38.36458 297.000
38.38453 315.000
38.40447 316.000
38.42442 338.000
38.44437 368.000
38.46431 413.000
38.48426 404.000
38.50421 487.000
38.52416 530.000
38.54410 536.000
38.56405 616.000
38.58400 701.000
38.60394 698.000
38.62389 683.000
38.64384 668.000
38.66378 761.000
38.68373 685.000
38.70368 681.000
38.72362 632.000
38.74357 587.000
38.76352 622.000
38.78347 587.000
38.80341 583.000
38.82336 554.000
38.84331 596.000
38.86325 513.000
38.88320 512.000
38.90315 530.000
38.92309 554.000
38.94304 511.000
38.96299 592.000
38.98294 610.000
39.00288 676.000
39.02283 710.000
39.04278 758.000
39.06272 755.000
39.08267 782.000
39.10262 746.000
39.12256 779.000
39.14251 660.000
39.16246 713.000
39.18241 619.000
39.20235 599.000
39.22230 580.000
39.24225 555.000
39.26219 500.000
39.28214 454.000
39.30209 482.000
39.32203 402.000
39.34198 406.000
39.36193 363.000
39.38187 348.000
39.40182 319.000
39.42177 316.000
39.44172 280.000
39.46166 248.000
39.48161 249.000
39.50156 268.000
39.52150 239.000
39.54145 262.000
39.56140 209.000
39.58134 238.000
39.60129 229.000
39.62124 209.000
39.64119 227.000
39.66113 204.000
39.68108 205.000
39.70103 232.000
39.72097 217.000
39.74092 223.000
39.76087 213.000
39.78081 201.000
39.80076 226.000
39.82071 195.000
39.84065 212.000
39.86060 221.000
39.88055 207.000
39.90050 200.000
39.92044 221.000
39.94039 216.000
39.96034 203.000
39.98028 209.000
40.00023 185.000
40.02018 184.000
40.04012 208.000
40.06007 218.000
40.08002 201.000
40.09997 198.000
40.11991 212.000
40.13986 215.000
40.15981 190.000
40.17975 212.000
40.19970 218.000
40.21965 235.000
40.23959 220.000
40.25954 207.000
40.27949 213.000
40.29943 202.000
40.31938 196.000
40.33933 192.000
40.35928 218.000
40.37922 199.000
40.39917 195.000
40.41912 212.000
40.43906 201.000
40.45901 197.000
40.47896 202.000
40.49890 206.000
40.51885 208.000
40.53880 185.000
40.55875 206.000
40.57869 226.000
40.59864 219.000
40.61859 200.000
40.63853 215.000
40.65848 212.000
40.67843 190.000
40.69837 202.000
40.71832 206.000
40.73827 218.000
40.75822 226.000
40.77816 214.000
40.79811 199.000
40.81806 222.000
40.83800 201.000
40.85795 196.000
40.87790 222.000
40.89784 245.000
40.91779 194.000
40.93774 234.000
40.95768 219.000
40.97763 203.000
40.99758 208.000
41.01753 227.000
41.03747 215.000
41.05742 216.000
41.07737 213.000
41.09731 246.000
41.11726 223.000
41.13721 212.000
41.15715 204.000
41.17710 233.000
41.19705 251.000
41.21700 237.000
41.23694 220.000
41.25689 217.000
41.27684 196.000
41.29678 257.000
41.31673 239.000
41.33668 252.000
41.35662 258.000
41.37657 247.000
41.39652 257.000
41.41646 273.000
41.43641 258.000
41.45636 297.000
41.47631 349.000
41.49625 365.000
41.51620 455.000
41.53615 473.000
41.55609 577.000
41.57604 611.000
41.59599 703.000
41.61593 668.000
41.63588 684.000
41.65583 677.000
41.67578 613.000
41.69572 587.000
41.71567 476.000
41.73562 445.000
41.75556 445.000
41.77551 365.000
41.79546 336.000
41.81540 321.000
41.83535 289.000
41.85530 261.000
41.87524 264.000
41.89519 254.000
41.91514 235.000
41.93509 234.000
41.95503 239.000
41.97498 218.000
41.99493 216.000
42.01487 221.000
42.03482 214.000
42.05477 231.000
42.07471 230.000
42.09466 220.000
42.11461 234.000
42.13456 205.000
42.15450 234.000
42.17445 225.000
42.19440 211.000
42.21434 234.000
42.23429 241.000
42.25424 252.000
42.27418 220.000
42.29413 234.000
42.31408 226.000
42.33403 251.000
42.35397 225.000
42.37392 234.000
42.39387 257.000
42.41381 221.000
42.43376 251.000
42.45371 217.000
42.47365 248.000
42.49360 234.000
42.51355 233.000
42.53349 236.000
42.55344 244.000
42.57339 221.000
42.59334 243.000
42.61328 235.000
42.63323 271.000
42.65318 270.000
42.67312 276.000
42.69307 290.000
42.71302 279.000
42.73296 331.000
42.75291 326.000
42.77286 332.000
42.79281 332.000
42.81275 379.000
42.83270 407.000
42.85265 452.000
42.87259 465.000
42.89254 462.000
42.91249 551.000
42.93243 532.000
42.95238 613.000
42.97233 608.000
42.99227 656.000
43.01222 624.000
43.03217 777.000
43.05212 768.000
43.07206 786.000
43.09201 833.000
43.11196 775.000
43.13190 807.000
43.15185 818.000
43.17180 874.000
43.19174 829.000
43.21169 927.000
43.23164 850.000
43.25159 819.000
43.27153 867.000
43.29148 757.000
43.31143 674.000
43.33137 652.000
43.35132 631.000
43.37127 579.000
43.39121 514.000
43.41116 483.000
43.43111 422.000
43.45105 360.000
43.47100 362.000
43.49095 271.000
43.51090 280.000
43.53084 270.000
43.55079 247.000
43.57074 230.000
43.59068 242.000
43.61063 256.000
43.63058 216.000
43.65052 205.000
43.67047 221.000
43.69042 230.000
43.71037 213.000
43.73031 221.000
43.75026 205.000
43.77021 207.000
43.79015 224.000
43.81010 230.000
43.83005 248.000
43.84999 210.000
43.86994 209.000
43.88989 209.000
43.90984 215.000
43.92978 193.000
43.94973 205.000
43.96968 194.000
43.98962 216.000
44.00957 188.000
44.02952 213.000
44.04946 196.000
44.06941 196.000
44.08936 206.000
44.10930 188.000
44.12925 216.000
44.14920 185.000
44.16915 190.000
44.18909 201.000
44.20904 203.000
44.22899 200.000
44.24893 194.000
44.26888 199.000
44.28883 190.000
44.30877 195.000
44.32872 246.000
44.34867 218.000
44.36862 223.000
44.38856 208.000
44.40851 218.000
44.42846 208.000
44.44840 214.000
44.46835 183.000
44.48830 190.000
44.50824 170.000
44.52819 208.000
44.54814 204.000
44.56808 179.000
44.58803 196.000
44.60798 216.000
44.62793 187.000
44.64787 199.000
44.66782 195.000
44.68777 173.000
44.70771 187.000
44.72766 189.000
44.74761 214.000
44.76755 189.000
44.78750 178.000
44.80745 193.000
44.82740 189.000
44.84734 205.000
44.86729 216.000
44.88724 200.000
44.90718 196.000
44.92713 212.000
44.94708 242.000
44.96702 206.000
44.98697 204.000
45.00692 218.000
45.02686 188.000
45.04681 233.000
45.06676 241.000
45.08671 196.000
45.10665 225.000
45.12660 215.000
45.14655 223.000
45.16649 169.000
45.18644 205.000
45.20639 188.000
45.22633 202.000
45.24628 209.000
45.26623 198.000
45.28618 189.000
45.30612 186.000
45.32607 217.000
45.34602 210.000
45.36596 182.000
45.38591 217.000
45.40586 211.000
45.42580 201.000
45.44575 216.000
45.46570 178.000
45.48565 200.000
45.50559 219.000
45.52554 211.000
45.54549 203.000
45.56543 204.000
45.58538 213.000
45.60533 194.000
45.62527 201.000
45.64522 185.000
45.66517 169.000
45.68511 162.000
45.70506 213.000
45.72501 171.000
45.74496 207.000
45.76490 220.000
45.78485 201.000
45.80480 199.000
45.82474 177.000
45.84469 205.000
45.86464 185.000
45.88458 198.000
45.90453 208.000
45.92448 197.000
45.94443 202.000
45.96437 220.000
45.98432 185.000
46.00427 204.000
46.02421 184.000
46.04416 205.000
46.06411 222.000
46.08405 219.000
46.10400 193.000
46.12395 218.000
46.14389 194.000
46.16384 210.000
46.18379 192.000
46.20374 209.000
46.22368 206.000
46.24363 183.000
46.26358 220.000
46.28352 197.000
46.30347 209.000
46.32342 210.000
46.34336 203.000
46.36331 178.000
46.38326 185.000
46.40321 179.000
46.42315 185.000
46.44310 207.000
46.46305 193.000
46.48299 186.000
46.50294 188.000
46.52289 202.000
46.54283 196.000
46.56278 195.000
46.58273 184.000
46.60267 189.000
46.62262 205.000
46.64257 207.000
46.66252 186.000
46.68246 198.000
46.70241 175.000
46.72236 156.000
46.74230 190.000
46.76225 200.000
46.78220 188.000
46.80214 173.000
46.82209 176.000
46.84204 190.000
46.86199 193.000
46.88193 191.000
46.90188 201.000
46.92183 200.000
46.94177 193.000
46.96172 175.000
46.98167 223.000
47.00161 191.000
47.02156 186.000
47.04151 178.000
47.06146 188.000
47.08140 183.000
47.10135 180.000
47.12130 203.000
47.14124 176.000
47.16119 173.000
47.18114 172.000
47.20108 197.000
47.22103 174.000
47.24098 206.000
47.26092 189.000
47.28087 219.000
47.30082 191.000
47.32077 190.000
47.34071 190.000
47.36066 222.000
47.38061 205.000
47.40055 194.000
47.42050 196.000
47.44045 178.000
47.46039 201.000
47.48034 210.000
47.50029 173.000
47.52024 215.000
47.54018 196.000
47.56013 212.000
47.58008 190.000
47.60002 209.000
47.61997 192.000
47.63992 205.000
47.65986 189.000
47.67981 202.000
47.69976 230.000
47.71970 216.000
47.73965 193.000
47.75960 226.000
47.77955 202.000
47.79949 198.000
47.81944 205.000
47.83939 213.000
47.85933 199.000
47.87928 220.000
47.89923 237.000
47.91917 199.000
47.93912 206.000
47.95907 228.000
47.97902 226.000
47.99896 216.000
48.01891 250.000
48.03886 188.000
48.05880 210.000
48.07875 220.000
48.09870 243.000
48.11864 247.000
48.13859 215.000
48.15854 246.000
48.17848 234.000
48.19843 257.000
48.21838 249.000
48.23833 230.000
48.25827 278.000
48.27822 242.000
48.29817 277.000
48.31811 299.000
48.33806 257.000
48.35801 269.000
48.37795 297.000
48.39790 301.000
48.41785 330.000
48.43780 305.000
48.45774 392.000
48.47769 458.000
48.49764 565.000
48.51758 613.000
48.53753 705.000
48.55748 674.000
48.57742 703.000
48.59737 677.000
48.61732 720.000
48.63726 725.000
48.65721 724.000
48.67716 676.000
48.69711 691.000
48.71705 672.000
48.73700 643.000
48.75695 567.000
48.77689 566.000
48.79684 528.000
48.81679 461.000
48.83673 437.000
48.85668 390.000
48.87663 368.000
48.89658 409.000
48.91652 318.000
48.93647 300.000
48.95642 269.000
48.97636 271.000
48.99631 269.000
49.01626 250.000
49.03620 276.000
49.05615 244.000
49.07610 239.000
49.09605 231.000
49.11599 266.000
49.13594 249.000
49.15589 203.000
49.17583 224.000
49.19578 217.000
49.21573 227.000
49.23567 205.000
49.25562 206.000
49.27557 243.000
49.29551 246.000
49.31546 247.000
49.33541 252.000
49.35536 249.000
49.37530 241.000
49.39525 211.000
49.41520 244.000
49.43514 231.000
49.45509 242.000
49.47504 249.000
49.49498 207.000
49.51493 220.000
49.53488 206.000
49.55483 224.000
49.57477 228.000
49.59472 210.000
49.61467 183.000
49.63461 225.000
49.65456 229.000
49.67451 219.000
49.69445 214.000
49.71440 221.000
49.73435 220.000
49.75429 187.000
49.77424 203.000
49.79419 200.000
49.81414 200.000
49.83408 209.000
49.85403 203.000
49.87398 204.000
49.89392 209.000
49.91387 194.000
49.93382 204.000
49.95376 197.000
49.97371 190.000
49.99366 213.000
50.01361 210.000
50.03355 200.000
50.05350 221.000
50.07345 214.000
50.09339 203.000
50.11334 230.000
50.13329 181.000
50.15323 221.000
50.17318 187.000
50.19313 185.000
50.21307 212.000
50.23302 174.000
50.25297 213.000
50.27292 192.000
50.29286 181.000
50.31281 185.000
50.33276 185.000
50.35270 194.000
50.37265 193.000
50.39260 177.000
50.41254 179.000
50.43249 182.000
50.45244 190.000
50.47239 195.000
50.49233 217.000
50.51228 190.000
50.53223 202.000
50.55217 187.000
50.57212 188.000
50.59207 198.000
50.61201 177.000
50.63196 196.000
50.65191 188.000
50.67186 196.000
50.69180 217.000
50.71175 187.000
50.73170 187.000
50.75164 196.000
50.77159 184.000
50.79154 206.000
50.81148 174.000
50.83143 182.000
50.85138 194.000
50.87132 196.000
50.89127 160.000
50.91122 193.000
50.93117 204.000
50.95111 193.000
50.97106 187.000
50.99101 172.000
51.01095 197.000
51.03090 197.000
51.05085 202.000
51.07079 205.000
51.09074 194.000
51.11069 165.000
51.13064 199.000
51.15058 223.000
51.17053 189.000
51.19048 184.000
51.21042 193.000
51.23037 215.000
51.25032 200.000
51.27026 200.000
51.29021 173.000
51.31016 193.000
51.33010 188.000
51.35005 194.000
51.37000 199.000
51.38995 182.000
51.40989 203.000
51.42984 214.000
51.44979 216.000
51.46973 184.000
51.48968 195.000
51.50963 166.000
51.52957 178.000
51.54952 207.000
51.56947 209.000
51.58942 190.000
51.60936 204.000
51.62931 191.000
51.64926 176.000
51.66920 185.000
51.68915 182.000
51.70910 205.000
51.72904 173.000
51.74899 192.000
51.76894 187.000
51.78888 190.000
51.80883 226.000
51.82878 191.000
51.84873 173.000
51.86867 218.000
51.88862 200.000
51.90857 201.000
51.92851 218.000
51.94846 218.000
51.96841 212.000
51.98835 184.000
52.00830 214.000
52.02825 209.000
52.04820 205.000
52.06814 222.000
52.08809 203.000
52.10804 226.000
52.12798 174.000
52.14793 192.000
52.16788 224.000
52.18782 176.000
52.20777 207.000
52.22772 216.000
52.24767 219.000
52.26761 206.000
52.28756 219.000
52.30751 196.000
52.32745 175.000
52.34740 217.000
52.36735 201.000
52.38729 183.000
52.40724 205.000
52.42719 178.000
52.44713 167.000
52.46708 194.000
52.48703 198.000
52.50698 207.000
52.52692 212.000
52.54687 210.000
52.56682 210.000
52.58676 212.000
52.60671 212.000
52.62666 197.000
52.64660 204.000
52.66655 185.000
52.68650 213.000
52.70645 178.000
52.72639 198.000
52.74634 202.000
52.76629 200.000
52.78623 185.000
52.80618 207.000
52.82613 202.000
52.84607 207.000
52.86602 212.000
52.88597 225.000
52.90591 223.000
52.92586 291.000
52.94581 278.000
52.96576 259.000
52.98570 281.000
53.00565 266.000
53.02560 276.000
53.04554 224.000
53.06549 282.000
53.08544 248.000
53.10538 252.000
53.12533 238.000
53.14528 237.000
53.16523 212.000
53.18517 243.000
53.20512 232.000
53.22507 253.000
53.24501 251.000
53.26496 226.000
53.28491 231.000
53.30485 225.000
53.32480 207.000
53.34475 213.000
53.36469 219.000
53.38464 242.000
53.40459 230.000
53.42454 215.000
53.44448 215.000
53.46443 215.000
53.48438 203.000
53.50432 213.000
53.52427 211.000
53.54422 238.000
53.56416 232.000
53.58411 220.000
53.60406 253.000
53.62401 262.000
53.64395 210.000
53.66390 234.000
53.68385 261.000
53.70379 270.000
53.72374 267.000
53.74369 245.000
53.76363 248.000
53.78358 258.000
53.80353 230.000
53.82348 223.000
53.84342 231.000
53.86337 230.000
53.88332 219.000
53.90326 242.000
53.92321 200.000
53.94316 220.000
53.96310 214.000
53.98305 192.000
54.00300 227.000
54.02294 182.000
54.04289 197.000
54.06284 204.000
54.08279 193.000
54.10273 205.000
54.12268 200.000
54.14263 199.000
54.16257 214.000
54.18252 214.000
54.20247 219.000
54.22241 202.000
54.24236 193.000
54.26231 191.000
54.28226 192.000
54.30220 203.000
54.32215 178.000
54.34210 197.000
54.36204 194.000
54.38199 206.000
54.40194 207.000
54.42188 195.000
54.44183 236.000
54.46178 199.000
54.48172 180.000
54.50167 189.000
54.52162 199.000
54.54157 184.000
54.56151 201.000
54.58146 181.000
54.60141 176.000
54.62135 205.000
54.64130 199.000
54.66125 200.000
54.68119 193.000
54.70114 179.000
54.72109 187.000
54.74104 214.000
54.76098 203.000
54.78093 200.000
54.80088 204.000
54.82082 202.000
54.84077 214.000
54.86072 202.000
54.88066 191.000
54.90061 206.000
54.92056 187.000
54.94050 168.000
54.96045 181.000
54.98040 185.000
55.00035 188.000
55.02029 185.000
55.04024 172.000
55.06019 188.000
55.08013 200.000
55.10008 183.000
55.12003 181.000
55.13997 187.000
55.15992 187.000
55.17987 198.000
55.19982 201.000
55.21976 178.000
55.23971 194.000
55.25966 218.000
55.27960 172.000
55.29955 179.000
55.31950 174.000
55.33944 192.000
55.35939 189.000
55.37934 207.000
55.39929 231.000
55.41923 216.000
55.43918 212.000
55.45913 199.000
55.47907 203.000
55.49902 187.000
55.51897 218.000
55.53891 189.000
55.55886 182.000
55.57881 157.000
55.59875 185.000
55.61870 197.000
55.63865 189.000
55.65860 192.000
55.67854 213.000
55.69849 203.000
55.71844 165.000
55.73838 201.000
55.75833 217.000
55.77828 217.000
55.79822 180.000
55.81817 204.000
55.83812 181.000
55.85807 177.000
55.87801 211.000
55.89796 182.000
55.91791 194.000
55.93785 173.000
55.95780 188.000
55.97775 183.000
55.99769 182.000
56.01764 188.000
56.03759 207.000
56.05753 174.000
56.07748 191.000
56.09743 205.000
56.11738 170.000
56.13732 206.000
56.15727 180.000
56.17722 198.000
56.19716 168.000
56.21711 178.000
56.23706 199.000
56.25700 186.000
56.27695 191.000
56.29690 188.000
56.31685 213.000
56.33679 205.000
56.35674 198.000
56.37669 215.000
56.39663 194.000
56.41658 198.000
56.43653 192.000
56.45647 152.000
56.47642 184.000
56.49637 183.000
56.51631 195.000
56.53626 195.000
56.55621 203.000
56.57616 227.000
56.59610 195.000
56.61605 187.000
56.63600 206.000
56.65594 190.000
56.67589 198.000
56.69584 201.000
56.71578 199.000
56.73573 215.000
56.75568 230.000
56.77563 209.000
56.79557 209.000
56.81552 194.000
56.83547 184.000
56.85541 219.000
56.87536 202.000
56.89531 210.000
56.91525 213.000
56.93520 223.000
56.95515 190.000
56.97510 227.000
56.99504 200.000
57.01499 233.000
57.03494 234.000
57.05488 230.000
57.07483 220.000
57.09478 252.000
57.11472 207.000
57.13467 289.000
57.15462 283.000
57.17456 303.000
57.19451 323.000
57.21446 335.000
57.23441 356.000
57.25435 323.000
57.27430 349.000
57.29425 314.000
57.31419 336.000
57.33414 354.000
57.35409 293.000
57.37403 311.000
57.39398 308.000
57.41393 315.000
57.43388 282.000
57.45382 301.000
57.47377 308.000
57.49372 284.000
57.51366 296.000
57.53361 335.000
57.55356 304.000
57.57350 313.000
57.59345 278.000
57.61340 296.000
57.63334 324.000
57.65329 307.000
57.67324 278.000
57.69319 278.000
57.71313 295.000
57.73308 253.000
57.75303 266.000
57.77297 266.000
57.79292 240.000
57.81287 277.000
57.83281 229.000
57.85276 207.000
57.87271 210.000
57.89266 235.000
57.91260 238.000
57.93255 258.000
57.95250 216.000
57.97244 224.000
57.99239 221.000
58.01234 232.000
58.03228 211.000
58.05223 213.000
58.07218 213.000
58.09212 255.000
58.11207 281.000
58.13202 248.000
58.15197 256.000
58.17191 240.000
58.19186 268.000
58.21181 258.000
58.23175 238.000
58.25170 265.000
58.27165 247.000
58.29159 243.000
58.31154 258.000
58.33149 232.000
58.35144 234.000
58.37138 218.000
58.39133 234.000
58.41128 234.000
58.43122 246.000
58.45117 231.000
58.47112 233.000
58.49106 232.000
58.51101 205.000
58.53096 193.000
58.55090 199.000
58.57085 214.000
58.59080 218.000
58.61075 220.000
58.63069 232.000
58.65064 193.000
58.67059 207.000
58.69053 172.000
58.71048 214.000
58.73043 196.000
58.75037 220.000
58.77032 201.000
58.79027 175.000
58.81022 207.000
58.83016 218.000
58.85011 190.000
58.87006 197.000
58.89000 184.000
58.90995 196.000
58.92990 220.000
58.94984 192.000
58.96979 197.000
58.98974 204.000
59.00969 207.000
59.02963 206.000
59.04958 219.000
59.06953 186.000
59.08947 182.000
59.10942 205.000
59.12937 202.000
59.14931 195.000
59.16926 186.000
59.18921 194.000
59.20915 214.000
59.22910 194.000
59.24905 194.000
59.26900 204.000
59.28894 204.000
59.30889 205.000
59.32884 192.000
59.34878 197.000
59.36873 185.000
59.38868 175.000
59.40862 200.000
59.42857 199.000
59.44852 190.000
59.46847 183.000
59.48841 189.000
59.50836 187.000
59.52831 219.000
59.54825 184.000
59.56820 204.000
59.58815 198.000
59.60809 203.000
59.62804 208.000
59.64799 210.000
59.66793 153.000
59.68788 175.000
59.70783 200.000
59.72778 209.000
59.74772 183.000
59.76767 173.000
59.78762 201.000
59.80756 188.000
59.82751 223.000
59.84746 208.000
59.86740 196.000
59.88735 177.000
59.90730 176.000
59.92725 204.000
59.94719 177.000
59.96714 194.000
59.98709 180.000
60.00703 205.000
60.02698 188.000
60.04693 200.000
60.06687 199.000
60.08682 190.000
60.10677 208.000
60.12671 174.000
60.14666 200.000
60.16661 214.000
60.18656 179.000
60.20650 209.000
60.22645 194.000
60.24640 203.000
60.26634 190.000
60.28629 212.000
60.30624 188.000
60.32618 196.000
60.34613 224.000
60.36608 189.000
60.38603 201.000
60.40597 184.000
60.42592 188.000
60.44587 209.000
60.46581 214.000
60.48576 224.000
60.50571 202.000
60.52565 217.000
60.54560 235.000
60.56555 199.000
60.58550 226.000
60.60544 214.000
60.62539 186.000
60.64534 209.000
60.66528 213.000
60.68523 198.000
60.70518 223.000
60.72512 205.000
60.74507 204.000
60.76502 201.000
60.78496 201.000
60.80491 193.000
60.82486 189.000
60.84481 203.000
60.86475 212.000
60.88470 198.000
60.90465 213.000
60.92459 204.000
60.94454 197.000
60.96449 201.000
60.98443 199.000
61.00438 209.000
61.02433 235.000
61.04428 204.000
61.06422 203.000
61.08417 218.000
61.10412 239.000
61.12406 199.000
61.14401 249.000
61.16396 224.000
61.18390 218.000
61.20385 235.000
61.22380 228.000
61.24374 238.000
61.26369 248.000
61.28364 266.000
61.30359 249.000
61.32353 240.000
61.34348 275.000
61.36343 237.000
61.38337 271.000
61.40332 300.000
61.42327 324.000
61.44321 316.000
61.46316 305.000
61.48311 303.000
61.50306 335.000
61.52300 307.000
61.54295 368.000
61.56290 326.000
61.58284 346.000
61.60279 328.000
61.62274 340.000
61.64268 314.000
61.66263 312.000
61.68258 345.000
61.70252 334.000
61.72247 327.000
61.74242 330.000
61.76237 340.000
61.78231 338.000
61.80226 371.000
61.82221 382.000
61.84215 444.000
61.86210 463.000
61.88205 444.000
61.90199 474.000
61.92194 516.000
61.94189 504.000
61.96184 481.000
61.98178 430.000
62.00173 428.000
62.02168 439.000
62.04162 450.000
62.06157 382.000
62.08152 402.000
62.10146 397.000
62.12141 396.000
62.14136 354.000
62.16131 342.000
62.18125 339.000
62.20120 364.000
62.22115 323.000
62.24109 301.000
62.26104 300.000
62.28099 329.000
62.30093 325.000
62.32088 351.000
62.34083 280.000
62.36077 325.000
62.38072 329.000
62.40067 324.000
62.42062 392.000
62.44056 371.000
62.46051 352.000
62.48046 440.000
62.50040 421.000
62.52035 480.000
62.54030 437.000
62.56024 423.000
62.58019 426.000
62.60014 515.000
62.62009 459.000
62.64003 450.000
62.65998 500.000
62.67993 483.000
62.69987 481.000
62.71982 478.000
62.73977 470.000
62.75971 451.000
62.77966 480.000
62.79961 540.000
62.81955 500.000
62.83950 546.000
62.85945 529.000
62.87940 501.000
62.89934 482.000
62.91929 477.000
62.93924 492.000
62.95918 447.000
62.97913 398.000
62.99908 411.000
63.01902 412.000
63.03897 432.000
63.05892 414.000
63.07887 355.000
63.09881 401.000
63.11876 377.000
63.13871 317.000
63.15865 327.000
63.17860 326.000
63.19855 298.000
63.21849 287.000
63.23844 270.000
63.25839 260.000
63.27833 282.000
63.29828 237.000
63.31823 249.000
63.33818 285.000
63.35812 264.000
63.37807 257.000
63.39802 218.000
63.41796 248.000
63.43791 224.000
63.45786 261.000
63.47780 231.000
63.49775 219.000
63.51770 238.000
63.53765 224.000
63.55759 214.000
63.57754 247.000
63.59749 234.000
63.61743 255.000
63.63738 258.000
63.65733 261.000
63.67727 280.000
63.69722 278.000
63.71717 280.000
63.73712 258.000
63.75706 287.000
63.77701 274.000
63.79696 262.000
63.81690 299.000
63.83685 269.000
63.85680 310.000
63.87674 292.000
63.89669 289.000
63.91664 286.000
63.93658 279.000
63.95653 308.000
63.97648 254.000
63.99643 249.000
64.01637 256.000
64.03632 279.000
64.05627 290.000
64.07621 314.000
64.09616 260.000
64.11611 255.000
64.13605 253.000
64.15600 239.000
64.17595 269.000
64.19590 272.000
64.21584 247.000
64.23579 273.000
64.25574 267.000
64.27568 261.000
64.29563 251.000
64.31558 247.000
64.33552 270.000
64.35547 218.000
64.37542 235.000
64.39536 242.000
64.41531 232.000
64.43526 236.000
64.45521 227.000
64.47515 220.000
64.49510 224.000
64.51505 229.000
64.53499 224.000
64.55494 197.000
64.57489 189.000
64.59483 213.000
64.61478 216.000
64.63473 206.000
64.65468 206.000
64.67462 219.000
64.69457 218.000
64.71452 218.000
64.73446 211.000
64.75441 188.000
64.77436 201.000
64.79430 211.000
64.81425 188.000
64.83420 222.000
64.85414 231.000
64.87409 190.000
64.89404 213.000
64.91399 195.000
64.93393 229.000
64.95388 181.000
64.97383 197.000
64.99377 223.000
65.01372 214.000
65.03367 197.000
65.05361 192.000
65.07356 229.000
65.09351 191.000
65.11346 215.000
65.13340 213.000
65.15335 181.000
65.17330 198.000
65.19324 206.000
65.21319 208.000
65.23314 193.000
65.25308 231.000
65.27303 212.000
65.29298 227.000
65.31293 213.000
65.33287 216.000
65.35282 222.000
65.37277 232.000
65.39271 226.000
65.41266 278.000
65.43261 262.000
65.45255 302.000
65.47250 273.000
65.49245 266.000
65.51239 297.000
65.53234 284.000
65.55229 268.000
65.57224 255.000
65.59218 293.000
65.61213 284.000
65.63208 311.000
65.65202 294.000
65.67197 275.000
65.69192 280.000
65.71186 285.000
65.73181 283.000
65.75176 284.000
65.77171 295.000
65.79165 288.000
65.81160 275.000
65.83155 261.000
65.85149 248.000
65.87144 265.000
65.89139 266.000
65.91133 280.000
65.93128 282.000
65.95123 260.000
65.97117 255.000
65.99112 305.000
66.01107 253.000
66.03102 270.000
66.05096 300.000
66.07091 295.000
66.09086 303.000
66.11080 304.000
66.13075 330.000
66.15070 319.000
66.17064 316.000
66.19059 365.000
66.21054 332.000
66.23049 355.000
66.25043 366.000
66.27038 350.000
66.29033 345.000
66.31027 331.000
66.33022 341.000
66.35017 320.000
66.37011 300.000
66.39006 302.000
66.41001 289.000
66.42995 284.000
66.44990 303.000
66.46985 251.000
66.48980 242.000
66.50974 265.000
66.52969 253.000
66.54964 247.000
66.56958 234.000
66.58953 262.000
66.60948 255.000
66.62942 245.000
66.64937 263.000
66.66932 245.000
66.68927 242.000
66.70921 221.000
66.72916 220.000
66.74911 244.000
66.76905 210.000
66.78900 198.000
66.80895 266.000
66.82889 216.000
66.84884 239.000
66.86879 221.000
66.88874 239.000
66.90868 223.000
66.92863 232.000
66.94858 263.000
66.96852 217.000
66.98847 254.000
67.00842 229.000
67.02836 214.000
67.04831 212.000
67.06826 207.000
67.08820 243.000
67.10815 243.000
67.12810 214.000
67.14805 204.000
67.16799 235.000
67.18794 222.000
67.20789 243.000
67.22783 225.000
67.24778 208.000
67.26773 229.000
67.28767 234.000
67.30762 230.000
67.32757 200.000
67.34752 190.000
67.36746 224.000
67.38741 220.000
67.40736 185.000
67.42730 225.000
67.44725 203.000
67.46720 193.000
67.48714 210.000
67.50709 223.000
67.52704 207.000
67.54698 229.000
67.56693 185.000
67.58688 205.000
67.60683 238.000
67.62677 216.000
67.64672 222.000
67.66667 234.000
67.68661 256.000
67.70656 231.000
67.72651 257.000
67.74645 279.000
67.76640 250.000
67.78635 244.000
67.80630 267.000
67.82624 304.000
67.84619 278.000
67.86614 290.000
67.88608 291.000
67.90603 295.000
67.92598 312.000
67.94592 300.000
67.96587 301.000
67.98582 292.000
68.00576 302.000
68.02571 270.000
68.04566 285.000
68.06561 250.000
68.08555 261.000
68.10550 277.000
68.12545 287.000
68.14539 269.000
68.16534 265.000
68.18529 229.000
68.20523 247.000
68.22518 268.000
68.24513 244.000
68.26508 240.000
68.28502 234.000
68.30497 246.000
68.32492 215.000
68.34486 253.000
68.36481 245.000
68.38476 207.000
68.40470 195.000
68.42465 225.000
68.44460 214.000
68.46455 214.000
68.48449 209.000
68.50444 216.000
68.52439 201.000
68.54433 238.000
68.56428 201.000
68.58423 209.000
68.60417 213.000
68.62412 205.000
68.64407 230.000
68.66401 222.000
68.68396 195.000
68.70391 204.000
68.72386 199.000
68.74380 209.000
68.76375 197.000
68.78370 233.000
68.80364 191.000
68.82359 198.000
68.84354 212.000
68.86348 219.000
68.88343 202.000
68.90338 207.000
68.92333 201.000
68.94327 201.000
68.96322 215.000
68.98317 192.000
69.00311 188.000
69.02306 202.000
69.04301 194.000
69.06295 212.000
69.08290 206.000
69.10285 219.000
69.12279 194.000
69.14274 197.000
69.16269 207.000
69.18264 193.000
69.20258 177.000
69.22253 196.000
69.24248 204.000
69.26242 168.000
69.28237 191.000
69.30232 171.000
69.32226 202.000
69.34221 197.000
69.36216 188.000
69.38211 192.000
69.40205 208.000
69.42200 186.000
69.44195 213.000
69.46189 195.000
69.48184 182.000
69.50179 171.000
69.52173 202.000
69.54168 176.000
69.56163 218.000
69.58157 183.000
69.60152 193.000
69.62147 195.000
69.64142 185.000
69.66136 183.000
69.68131 192.000
69.70126 186.000
69.72120 188.000
69.74115 165.000
69.76110 202.000
69.78104 187.000
69.80099 178.000
69.82094 190.000
69.84089 210.000
69.86083 220.000
69.88078 198.000
69.90073 198.000
69.92067 188.000
69.94062 198.000
69.96057 192.000
69.98051 191.000
70.00046 206.000
70.02041 192.000
70.04035 210.000
70.06030 203.000
70.08025 187.000
70.10020 190.000
70.12014 190.000
70.14009 177.000
70.16004 201.000
70.17998 182.000
70.19993 163.000
70.21988 179.000
70.23982 208.000
70.25977 200.000
70.27972 206.000
70.29967 195.000
70.31961 189.000
70.33956 170.000
70.35951 215.000
70.37945 206.000
70.39940 193.000
70.41935 198.000
70.43929 185.000
70.45924 222.000
70.47919 186.000
70.49914 191.000
70.51908 204.000
70.53903 178.000
70.55898 201.000
70.57892 191.000
70.59887 190.000
70.61882 192.000
70.63876 169.000
70.65871 195.000
70.67866 177.000
70.69860 197.000
70.71855 192.000
70.73850 194.000
70.75845 174.000
70.77839 205.000
70.79834 212.000
70.81829 211.000
70.83823 232.000
70.85818 192.000
70.87813 159.000
70.89807 170.000
70.91802 230.000
70.93797 204.000
70.95792 204.000
70.97786 210.000
70.99781 208.000
71.01776 188.000
71.03770 201.000
71.05765 204.000
71.07760 215.000
71.09754 198.000
71.11749 203.000
71.13744 192.000
71.15738 191.000
71.17733 207.000
71.19728 190.000
71.21723 198.000
71.23717 197.000
71.25712 208.000
71.27707 201.000
71.29701 189.000
71.31696 221.000
71.33691 191.000
71.35685 213.000
71.37680 211.000
71.39675 213.000
71.41670 183.000
71.43664 207.000
71.45659 188.000
71.47654 200.000
71.49648 181.000
71.51643 190.000
71.53638 207.000
71.55632 160.000
71.57627 243.000
71.59622 208.000
71.61616 188.000
71.63611 214.000
71.65606 201.000
71.67601 203.000
71.69595 198.000
71.71590 189.000
71.73585 184.000
71.75579 206.000
71.77574 187.000
71.79569 186.000
71.81563 205.000
71.83558 179.000
71.85553 187.000
71.87548 212.000
71.89542 229.000
71.91537 208.000
71.93532 196.000
71.95526 208.000
71.97521 192.000
71.99516 184.000
72.01510 203.000
72.03505 199.000
72.05500 193.000
72.07495 209.000
72.09489 181.000
72.11484 182.000
72.13479 203.000
72.15473 193.000
72.17468 238.000
72.19463 205.000
72.21457 202.000
72.23452 212.000
72.25447 228.000
72.27441 252.000
72.29436 201.000
72.31431 228.000
72.33426 200.000
72.35420 216.000
72.37415 219.000
72.39410 224.000
72.41404 230.000
72.43399 226.000
72.45394 220.000
72.47388 242.000
72.49383 224.000
72.51378 242.000
72.53373 206.000
72.55367 222.000
72.57362 225.000
72.59357 227.000
72.61351 213.000
72.63346 184.000
72.65341 225.000
72.67335 213.000
72.69330 228.000
72.71325 214.000
72.73319 217.000
72.75314 217.000
72.77309 200.000
72.79304 201.000
72.81298 223.000
72.83293 241.000
72.85288 230.000
72.87282 256.000
72.89277 232.000
72.91272 214.000
72.93266 202.000
72.95261 217.000
72.97256 249.000
72.99251 239.000
73.01245 218.000
73.03240 218.000
73.05235 216.000
73.07229 226.000
73.09224 211.000
73.11219 225.000
73.13213 247.000
73.15208 217.000
73.17203 229.000
73.19197 248.000
73.21192 240.000
73.23187 242.000
73.25182 230.000
73.27176 211.000
73.29171 228.000
73.31166 211.000
73.33160 218.000
73.35155 239.000
73.37150 222.000
73.39144 234.000
73.41139 262.000
73.43134 261.000
73.45129 250.000
73.47123 213.000
73.49118 246.000
73.51113 226.000
73.53107 234.000
73.55102 217.000
73.57097 220.000
73.59091 223.000
73.61086 185.000
73.63081 185.000
73.65076 207.000
73.67070 213.000
73.69065 225.000
73.71060 191.000
73.73054 209.000
73.75049 210.000
73.77044 181.000
73.79038 211.000
73.81033 232.000
73.83028 188.000
73.85022 209.000
73.87017 220.000
73.89012 178.000
73.91007 180.000
73.93001 195.000
73.94996 209.000
73.96991 202.000
73.98985 189.000
74.00980 198.000
74.02975 199.000
74.04969 191.000
74.06964 208.000
74.08959 190.000
74.10954 211.000
74.12948 193.000
74.14943 196.000
74.16938 226.000
74.18932 190.000
74.20927 227.000
74.22922 194.000
74.24916 211.000
74.26911 210.000
74.28906 200.000
74.30900 269.000
74.32895 211.000
74.34890 226.000
74.36885 222.000
74.38879 260.000
74.40874 276.000
74.42869 257.000
74.44863 224.000
74.46858 235.000
74.48853 211.000
74.50847 228.000
74.52842 217.000
74.54837 255.000
74.56832 235.000
74.58826 235.000
74.60821 235.000
74.62816 233.000
74.64810 229.000
74.66805 235.000
74.68800 223.000
74.70794 249.000
74.72789 228.000
74.74784 221.000
74.76778 227.000
74.78773 255.000
74.80768 236.000
74.82763 253.000
74.84757 238.000
74.86752 268.000
74.88747 235.000
74.90741 272.000
74.92736 295.000
74.94731 282.000
74.96725 300.000
74.98720 268.000
75.00715 294.000
75.02710 289.000
75.04704 288.000
75.06699 291.000
75.08694 322.000
75.10688 342.000
75.12683 286.000
75.14678 314.000
75.16672 313.000
75.18667 287.000
75.20662 288.000
75.22657 312.000
75.24651 293.000
75.26646 272.000
75.28641 311.000
75.30635 301.000
75.32630 323.000
75.34625 298.000
75.36619 269.000
75.38614 293.000
75.40609 263.000
75.42603 244.000
75.44598 288.000
75.46593 263.000
75.48588 254.000
75.50582 222.000
75.52577 221.000
75.54572 237.000
75.56566 242.000
75.58561 212.000
75.60556 219.000
75.62550 208.000
75.64545 207.000
75.66540 218.000
75.68535 228.000
75.70529 187.000
75.72524 250.000
75.74519 236.000
75.76513 205.000
75.78508 249.000
75.80503 211.000
75.82497 199.000
75.84492 209.000
75.86487 211.000
75.88481 220.000
75.90476 205.000
75.92471 197.000
75.94466 197.000
75.96460 189.000
75.98455 190.000
76.00450 223.000
76.02444 204.000
76.04439 192.000
76.06434 215.000
76.08428 214.000
76.10423 179.000
76.12418 211.000
76.14413 186.000
76.16407 178.000
76.18402 217.000
76.20397 203.000
76.22391 193.000
76.24386 205.000
76.26381 201.000
76.28375 175.000
76.30370 214.000
76.32365 183.000
76.34359 203.000
76.36354 191.000
76.38349 195.000
76.40344 182.000
76.42338 187.000
76.44333 201.000
76.46328 193.000
76.48322 190.000
76.50317 209.000
76.52312 206.000
76.54306 214.000
76.56301 205.000
76.58296 180.000
76.60291 209.000
76.62285 193.000
76.64280 206.000
76.66275 230.000
76.68269 195.000
76.70264 170.000
76.72259 196.000
76.74253 196.000
76.76248 192.000
76.78243 202.000
76.80238 194.000
76.82232 191.000
76.84227 219.000
76.86222 183.000
76.88216 200.000
76.90211 196.000
76.92206 203.000
76.94200 182.000
76.96195 194.000
76.98190 187.000
77.00184 201.000
77.02179 175.000
77.04174 183.000
77.06169 199.000
77.08163 207.000
77.10158 212.000
77.12153 200.000
77.14147 205.000
77.16142 178.000
77.18137 190.000
77.20131 195.000
77.22126 198.000
77.24121 187.000
77.26116 170.000
77.28110 209.000
77.30105 221.000
77.32100 220.000
77.34094 201.000
77.36089 227.000
77.38084 213.000
77.40078 203.000
77.42073 205.000
77.44068 221.000
77.46062 207.000
77.48057 251.000
77.50052 241.000
77.52047 241.000
77.54041 236.000
77.56036 222.000
77.58031 242.000
77.60025 245.000
77.62020 207.000
77.64015 226.000
77.66009 177.000
77.68004 202.000
77.69999 206.000
77.71994 192.000
77.73988 193.000
77.75983 215.000
77.77978 181.000
77.79972 212.000
77.81967 230.000
77.83962 188.000
77.85956 203.000
77.87951 201.000
77.89946 229.000
77.91940 209.000
77.93935 212.000
77.95930 218.000
77.97925 241.000
77.99919 217.000
78.01914 198.000
78.03909 224.000
78.05903 210.000
78.07898 233.000
78.09893 232.000
78.11887 243.000
78.13882 240.000
78.15877 243.000
78.17872 223.000
78.19866 248.000
78.21861 255.000
78.23856 223.000
78.25850 267.000
78.27845 262.000
78.29840 248.000
78.31834 269.000
78.33829 279.000
78.35824 296.000
78.37819 304.000
78.39813 263.000
78.41808 237.000
78.43803 258.000
78.45797 260.000
78.47792 243.000
78.49787 264.000
78.51781 231.000
78.53776 240.000
78.55771 229.000
78.57765 241.000
78.59760 255.000
78.61755 255.000
78.63750 235.000
78.65744 260.000
78.67739 225.000
78.69734 255.000
78.71728 232.000
78.73723 227.000
78.75718 228.000
78.77712 224.000
78.79707 207.000
78.81702 248.000
78.83697 214.000
78.85691 234.000
78.87686 236.000
78.89681 236.000
78.91675 226.000
78.93670 239.000
78.95665 231.000
78.97659 268.000
78.99654 275.000
79.01649 264.000
79.03643 298.000
79.05638 234.000
79.07633 224.000
79.09628 264.000
79.11622 230.000
79.13617 265.000
79.15612 278.000
79.17606 252.000
79.19601 238.000
79.21596 228.000
79.23590 227.000
79.25585 244.000
79.27580 235.000
79.29575 231.000
79.31569 245.000
79.33564 199.000
79.35559 209.000
79.37553 238.000
79.39548 190.000
79.41543 218.000
79.43537 222.000
79.45532 211.000
79.47527 214.000
79.49521 213.000
79.51516 219.000
79.53511 211.000
79.55506 211.000
79.57500 198.000
79.59495 192.000
79.61490 197.000
79.63484 210.000
79.65479 224.000
79.67474 221.000
79.69468 188.000
79.71463 205.000
79.73458 203.000
79.75453 218.000
79.77447 217.000
79.79442 188.000
79.81437 217.000
79.83431 196.000
79.85426 182.000
79.87421 204.000
79.89415 194.000
79.91410 206.000
79.93405 210.000
79.95399 167.000
79.97394 165.000
79.99389 184.000
80.01384 201.000
80.03378 191.000
80.05373 185.000
80.07368 213.000
80.09362 203.000
80.11357 211.000
80.13352 186.000
80.15346 202.000
80.17341 188.000
80.19336 181.000
80.21331 217.000
80.23325 197.000
80.25320 201.000
80.27315 201.000
80.29309 190.000
80.31304 213.000
80.33299 206.000
80.35293 174.000
80.37288 203.000
80.39283 191.000
80.41278 221.000
80.43272 196.000
80.45267 205.000
80.47262 195.000
80.49256 228.000
80.51251 185.000
80.53246 191.000
80.55240 179.000
80.57235 175.000
80.59230 208.000
80.61224 177.000
80.63219 188.000
80.65214 211.000
80.67209 189.000
80.69203 200.000
80.71198 179.000
80.73193 207.000
80.75187 183.000
80.77182 211.000
80.79177 208.000
80.81171 184.000
80.83166 210.000
80.85161 205.000
80.87156 197.000
80.89150 176.000
80.91145 178.000
80.93140 221.000
80.95134 209.000
80.97129 174.000
80.99124 176.000
81.01118 202.000
81.03113 181.000
81.05108 192.000
81.07102 181.000
81.09097 186.000
81.11092 200.000
81.13087 184.000
81.15081 211.000
81.17076 204.000
81.19071 191.000
81.21065 184.000
81.23060 166.000
81.25055 192.000
81.27049 205.000
81.29044 182.000
81.31039 189.000
81.33034 209.000
81.35028 199.000
81.37023 181.000
81.39018 179.000
81.41012 175.000
81.43007 188.000
81.45002 196.000
81.46996 216.000
81.48991 196.000
81.50986 180.000
81.52980 172.000
81.54975 199.000
81.56970 181.000
81.58965 200.000
81.60959 211.000
81.62954 172.000
81.64949 169.000
81.66943 208.000
81.68938 211.000
81.70933 187.000
81.72927 165.000
81.74922 189.000
81.76917 201.000
81.78912 181.000
81.80906 204.000
81.82901 186.000
81.84896 191.000
81.86890 185.000
81.88885 162.000
81.90880 183.000
81.92874 184.000
81.94869 197.000
81.96864 202.000
81.98859 178.000
82.00853 197.000
82.02848 200.000
82.04843 185.000
82.06837 201.000
82.08832 192.000
82.10827 184.000
82.12821 195.000
82.14816 207.000
82.16811 198.000
82.18805 208.000
82.20800 183.000
82.22795 205.000
82.24790 205.000
82.26784 165.000
82.28779 191.000
82.30774 192.000
82.32768 192.000
82.34763 215.000
82.36758 181.000
82.38752 218.000
82.40747 189.000
82.42742 242.000
82.44737 203.000
82.46731 205.000
82.48726 239.000
82.50721 221.000
82.52715 193.000
82.54710 189.000
82.56705 208.000
82.58699 223.000
82.60694 228.000
82.62689 168.000
82.64683 219.000
82.66678 232.000
82.68673 234.000
82.70668 236.000
82.72662 238.000
82.74657 223.000
82.76652 231.000
82.78646 184.000
82.80641 215.000
82.82636 189.000
82.84630 199.000
82.86625 197.000
82.88620 216.000
82.90615 230.000
82.92609 226.000
82.94604 213.000
82.96599 234.000
82.98593 210.000
83.00588 219.000
83.02583 189.000
83.04577 207.000
83.06572 230.000
83.08567 210.000
83.10561 213.000
83.12556 212.000
83.14551 228.000
83.16546 211.000
83.18540 227.000
83.20535 192.000
83.22530 209.000
83.24524 187.000
83.26519 223.000
83.28514 216.000
83.30508 182.000
83.32503 177.000
83.34498 219.000
83.36493 183.000
83.38487 180.000
83.40482 208.000
83.42477 201.000
83.44471 192.000
83.46466 199.000
83.48461 219.000
83.50455 223.000
83.52450 202.000
83.54445 191.000
83.56440 242.000
83.58434 214.000
83.60429 193.000
83.62424 218.000
83.64418 197.000
83.66413 214.000
83.68408 250.000
83.70402 196.000
83.72397 203.000
83.74392 197.000
83.76386 226.000
83.78381 204.000
83.80376 212.000
83.82371 220.000
83.84365 209.000
83.86360 201.000
83.88355 203.000
83.90349 196.000
83.92344 220.000
83.94339 230.000
83.96333 201.000
83.98328 222.000
84.00323 212.000
84.02318 214.000
84.04312 236.000
84.06307 202.000
84.08302 204.000
84.10296 245.000
84.12291 214.000
84.14286 231.000
84.16280 210.000
84.18275 228.000
84.20270 202.000
84.22264 232.000
84.24259 212.000
84.26254 247.000
84.28249 244.000
84.30243 231.000
84.32238 207.000
84.34233 219.000
84.36227 227.000
84.38222 227.000
84.40217 237.000
84.42211 207.000
84.44206 229.000
84.46201 214.000
84.48196 209.000
84.50190 222.000
84.52185 242.000
84.54180 212.000
84.56174 206.000
84.58169 215.000
84.60164 193.000
84.62158 231.000
84.64153 199.000
84.66148 200.000
84.68142 192.000
84.70137 213.000
84.72132 185.000
84.74127 228.000
84.76121 198.000
84.78116 186.000
84.80111 202.000
84.82105 227.000
84.84100 208.000
84.86095 184.000
84.88089 233.000
84.90084 186.000
84.92079 184.000
84.94074 221.000
84.96068 193.000
84.98063 195.000
85.00058 213.000
85.02052 203.000
85.04047 205.000
85.06042 200.000
85.08036 184.000
85.10031 212.000
85.12026 189.000
85.14021 176.000
85.16015 163.000
85.18010 181.000
85.20005 174.000
85.21999 177.000
85.23994 186.000
85.25989 161.000
85.27983 183.000
85.29978 208.000
85.31973 173.000
85.33967 196.000
85.35962 183.000
85.37957 207.000
85.39952 178.000
85.41946 190.000
85.43941 186.000
85.45936 166.000
85.47930 225.000
85.49925 163.000
85.51920 179.000
85.53914 182.000
85.55909 184.000
85.57904 158.000
85.59899 199.000
85.61893 199.000
85.63888 188.000
85.65883 179.000
85.67877 206.000
85.69872 172.000
85.71867 174.000
85.73861 197.000
85.75856 202.000
85.77851 162.000
85.79845 199.000
85.81840 163.000
85.83835 215.000
85.85830 212.000
85.87824 179.000
85.89819 181.000
85.91814 187.000
85.93808 197.000
85.95803 194.000
85.97798 181.000
85.99792 190.000
86.01787 200.000
86.03782 206.000
86.05777 192.000
86.07771 178.000
86.09766 147.000
86.11761 195.000
86.13755 222.000
86.15750 197.000
86.17745 201.000
86.19739 189.000
86.21734 186.000
86.23729 186.000
86.25723 194.000
86.27718 174.000
86.29713 182.000
86.31708 196.000
86.33702 194.000
86.35697 168.000
86.37692 194.000
86.39686 189.000
86.41681 215.000
86.43676 183.000
86.45670 168.000
86.47665 186.000
86.49660 189.000
86.51655 200.000
86.53649 189.000
86.55644 169.000
86.57639 191.000
86.59633 198.000
86.61628 178.000
86.63623 192.000
86.65617 189.000
86.67612 204.000
86.69607 193.000
86.71602 196.000
86.73596 204.000
86.75591 214.000
86.77586 205.000
86.79580 185.000
86.81575 177.000
86.83570 212.000
86.85564 219.000
86.87559 180.000
86.89554 213.000
86.91548 196.000
86.93543 206.000
86.95538 211.000
86.97533 208.000
86.99527 219.000
87.01522 202.000
87.03517 184.000
87.05511 208.000
87.07506 207.000
87.09501 213.000
87.11495 190.000
87.13490 204.000
87.15485 220.000
87.17480 219.000
87.19474 212.000
87.21469 236.000
87.23464 197.000
87.25458 207.000
87.27453 232.000
87.29448 240.000
87.31442 189.000
87.33437 219.000
87.35432 220.000
87.37426 229.000
87.39421 227.000
87.41416 196.000
87.43411 237.000
87.45405 218.000
87.47400 192.000
87.49395 227.000
87.51389 250.000
87.53384 200.000
87.55379 220.000
87.57373 211.000
87.59368 207.000
87.61363 216.000
87.63358 231.000
87.65352 222.000
87.67347 213.000
87.69342 195.000
87.71336 187.000
87.73331 209.000
87.75326 188.000
87.77320 221.000
87.79315 206.000
87.81310 181.000
87.83304 204.000
87.85299 215.000
87.87294 198.000
87.89289 203.000
87.91283 192.000
87.93278 164.000
87.95273 201.000
87.97267 208.000
87.99262 200.000
88.01257 203.000
88.03251 211.000
88.05246 173.000
88.07241 196.000
88.09236 186.000
88.11230 177.000
88.13225 197.000
88.15220 196.000
88.17214 196.000
88.19209 213.000
88.21204 182.000
88.23198 210.000
88.25193 181.000
88.27188 187.000
88.29183 198.000
88.31177 209.000
88.33172 179.000
88.35167 202.000
88.37161 171.000
88.39156 165.000
88.41151 189.000
88.43145 164.000
88.45140 197.000
88.47135 173.000
88.49129 181.000
88.51124 168.000
88.53119 178.000
88.55114 197.000
88.57108 187.000
88.59103 195.000
88.61098 181.000
88.63092 219.000
88.65087 196.000
88.67082 184.000
88.69076 193.000
88.71071 175.000
88.73066 192.000
88.75061 217.000
88.77055 188.000
88.79050 182.000
88.81045 190.000
88.83039 196.000
88.85034 179.000
88.87029 174.000
88.89023 175.000
88.91018 168.000
88.93013 161.000
88.95007 182.000
88.97002 171.000
88.98997 193.000
89.00992 210.000
89.02986 174.000
89.04981 214.000
89.06976 209.000
89.08970 178.000
89.10965 196.000
89.12960 186.000
89.14954 202.000
89.16949 184.000
89.18944 183.000
89.20939 183.000
89.22933 190.000
89.24928 205.000
89.26923 191.000
89.28917 200.000
89.30912 198.000
89.32907 180.000
89.34901 220.000
89.36896 211.000
89.38891 185.000
89.40885 188.000
89.42880 204.000
89.44875 226.000
89.46870 201.000
89.48864 195.000
89.50859 211.000
89.52854 220.000
89.54848 194.000
89.56843 197.000
89.58838 214.000
89.60832 197.000
89.62827 183.000
89.64822 208.000
89.66817 172.000
89.68811 205.000
89.70806 200.000
89.72801 201.000
89.74795 204.000
89.76790 184.000
89.78785 204.000
89.80779 187.000
89.82774 197.000
89.84769 218.000
89.86764 204.000
89.88758 203.000
89.90753 186.000
89.92748 208.000
89.94742 188.000
89.96737 193.000
89.98732 190.000
90.00726 215.000
