10.00000 115.000
10.01995 117.000
10.03989 127.000
10.05984 113.000
10.07979 103.000
10.09973 146.000
10.11968 112.000
10.13963 92.000
10.15958 111.000
10.17952 114.000
10.19947 133.000
10.21942 118.000
10.23936 151.000
10.25931 130.000
10.27926 123.000
10.29920 126.000
10.31915 117.000
10.33910 109.000
10.35905 127.000
10.37899 129.000
10.39894 119.000
10.41889 118.000
10.43883 117.000
10.45878 125.000
10.47873 100.000
10.49867 113.000
10.51862 134.000
10.53857 147.000
10.55851 136.000
10.57846 117.000
10.59841 145.000
10.61836 127.000
10.63830 125.000
10.65825 120.000
10.67820 130.000
10.69814 116.000
10.71809 112.000
10.73804 120.000
10.75798 109.000
10.77793 136.000
10.79788 129.000
10.81783 145.000
10.83777 157.000
10.85772 131.000
10.87767 136.000
10.89761 148.000
10.91756 144.000
10.93751 134.000
10.95745 138.000
10.97740 124.000
10.99735 140.000
11.01730 117.000
11.03724 124.000
11.05719 132.000
11.07714 127.000
11.09708 129.000
11.11703 133.000
11.13698 143.000
11.15692 115.000
11.17687 135.000
11.19682 119.000
11.21676 127.000
11.23671 126.000
11.25666 145.000
11.27661 119.000
11.29655 152.000
11.31650 129.000
11.33645 149.000
11.35639 138.000
11.37634 145.000
11.39629 131.000
11.41623 116.000
11.43618 124.000
11.45613 161.000
11.47608 120.000
11.49602 141.000
11.51597 129.000
11.53592 156.000
11.55586 135.000
11.57581 101.000
11.59576 137.000
11.61570 150.000
11.63565 144.000
11.65560 126.000
11.67554 135.000
11.69549 153.000
11.71544 142.000
11.73539 150.000
11.75533 138.000
11.77528 149.000
11.79523 151.000
11.81517 150.000
11.83512 167.000
11.85507 154.000
11.87501 138.000
11.89496 131.000
11.91491 162.000
11.93486 154.000
11.95480 140.000
11.97475 127.000
11.99470 171.000
12.01464 164.000
12.03459 150.000
12.05454 139.000
12.07448 151.000
12.09443 148.000
12.11438 149.000
12.13432 140.000
12.15427 159.000
12.17422 145.000
12.19417 138.000
12.21411 181.000
12.23406 165.000
12.25401 148.000
12.27395 173.000
12.29390 150.000
12.31385 167.000
12.33379 156.000
12.35374 152.000
12.37369 160.000
12.39364 144.000
12.41358 159.000
12.43353 158.000
12.45348 155.000
12.47342 138.000
12.49337 153.000
12.51332 147.000
12.53326 147.000
12.55321 155.000
12.57316 168.000
12.59311 202.000
12.61305 134.000
12.63300 155.000
12.65295 149.000
12.67289 158.000
12.69284 144.000
12.71279 155.000
12.73273 169.000
12.75268 154.000
12.77263 146.000
12.79257 160.000
12.81252 161.000
12.83247 171.000
12.85242 151.000
12.87236 161.000
12.89231 190.000
12.91226 176.000
12.93220 161.000
12.95215 144.000
12.97210 166.000
12.99204 168.000
13.01199 153.000
13.03194 163.000
13.05189 183.000
13.07183 178.000
13.09178 160.000
13.11173 160.000
13.13167 173.000
13.15162 161.000
13.17157 143.000
13.19151 188.000
13.21146 184.000
13.23141 174.000
13.25135 176.000
13.27130 165.000
13.29125 158.000
13.31120 159.000
13.33114 165.000
13.35109 187.000
13.37104 176.000
13.39098 163.000
13.41093 172.000
13.43088 171.000
13.45082 187.000
13.47077 194.000
13.49072 158.000
13.51067 182.000
13.53061 159.000
13.55056 157.000
13.57051 178.000
13.59045 171.000
13.61040 160.000
13.63035 192.000
13.65029 173.000
13.67024 155.000
13.69019 170.000
13.71013 206.000
13.73008 191.000
13.75003 169.000
13.76998 182.000
13.78992 178.000
13.80987 195.000
13.82982 201.000
13.84976 172.000
13.86971 186.000
13.88966 186.000
13.90960 178.000
13.92955 178.000
13.94950 203.000
13.96945 200.000
13.98939 194.000
14.00934 187.000
14.02929 176.000
14.04923 179.000
14.06918 192.000
14.08913 192.000
14.10907 187.000
14.12902 191.000
14.14897 186.000
14.16892 192.000
14.18886 193.000
14.20881 199.000
14.22876 197.000
14.24870 195.000
14.26865 173.000
14.28860 224.000
14.30854 182.000
14.32849 174.000
14.34844 185.000
14.36838 182.000
14.38833 223.000
14.40828 208.000
14.42823 196.000
14.44817 192.000
14.46812 193.000
14.48807 178.000
14.50801 199.000
14.52796 195.000
14.54791 192.000
14.56785 218.000
14.58780 179.000
14.60775 226.000
14.62770 201.000
14.64764 207.000
14.66759 219.000
14.68754 214.000
14.70748 221.000
14.72743 210.000
14.74738 221.000
14.76732 212.000
14.78727 190.000
14.80722 212.000
14.82716 208.000
14.84711 216.000
14.86706 206.000
14.88701 239.000
14.90695 186.000
14.92690 207.000
14.94685 205.000
14.96679 213.000
14.98674 194.000
15.00669 233.000
15.02663 226.000
15.04658 216.000
15.06653 214.000
15.08648 203.000
15.10642 239.000
15.12637 194.000
15.14632 232.000
15.16626 238.000
15.18621 222.000
15.20616 231.000
15.22610 231.000
15.24605 229.000
15.26600 242.000
15.28594 246.000
15.30589 212.000
15.32584 225.000
15.34579 250.000
15.36573 244.000
15.38568 220.000
15.40563 236.000
15.42557 234.000
15.44552 223.000
15.46547 251.000
15.48541 200.000
15.50536 207.000
15.52531 219.000
15.54526 240.000
15.56520 245.000
15.58515 204.000
15.60510 258.000
15.62504 233.000
15.64499 225.000
15.66494 220.000
15.68488 248.000
15.70483 216.000
15.72478 237.000
15.74472 229.000
15.76467 203.000
15.78462 255.000
15.80457 241.000
15.82451 233.000
15.84446 239.000
15.86441 243.000
15.88435 224.000
15.90430 236.000
15.92425 232.000
15.94419 244.000
15.96414 228.000
15.98409 262.000
16.00404 244.000
16.02398 294.000
16.04393 267.000
16.06388 247.000
16.08382 264.000
16.10377 241.000
16.12372 259.000
16.14366 276.000
16.16361 241.000
16.18356 243.000
16.20351 262.000
16.22345 266.000
16.24340 266.000
16.26335 256.000
16.28329 276.000
16.30324 265.000
16.32319 255.000
16.34313 245.000
16.36308 243.000
16.38303 277.000
16.40297 285.000
16.42292 245.000
16.44287 267.000
16.46282 280.000
16.48276 264.000
16.50271 286.000
16.52266 315.000
16.54260 269.000
16.56255 264.000
16.58250 260.000
16.60244 251.000
16.62239 280.000
16.64234 274.000
16.66229 259.000
16.68223 262.000
16.70218 270.000
16.72213 271.000
16.74207 250.000
16.76202 301.000
16.78197 286.000
16.80191 267.000
16.82186 265.000
16.84181 289.000
16.86175 290.000
16.88170 254.000
16.90165 266.000
16.92160 287.000
16.94154 287.000
16.96149 319.000
16.98144 269.000
17.00138 287.000
17.02133 253.000
17.04128 324.000
17.06122 303.000
17.08117 273.000
17.10112 292.000
17.12107 334.000
17.14101 310.000
17.16096 360.000
17.18091 309.000
17.20085 297.000
17.22080 318.000
17.24075 296.000
17.26069 305.000
17.28064 320.000
17.30059 279.000
17.32053 299.000
17.34048 331.000
17.36043 316.000
17.38038 297.000
17.40032 316.000
17.42027 301.000
17.44022 318.000
17.46016 312.000
17.48011 321.000
17.50006 297.000
17.52000 287.000
17.53995 296.000
17.55990 285.000
17.57985 304.000
17.59979 293.000
17.61974 328.000
17.63969 333.000
17.65963 307.000
17.67958 321.000
17.69953 286.000
17.71947 356.000
17.73942 330.000
17.75937 342.000
17.77932 329.000
17.79926 315.000
17.81921 334.000
17.83916 323.000
17.85910 337.000
17.87905 342.000
17.89900 327.000
17.91894 335.000
17.93889 319.000
17.95884 299.000
17.97878 338.000
17.99873 333.000
18.01868 327.000
18.03863 308.000
18.05857 357.000
18.07852 362.000
18.09847 363.000
18.11841 380.000
18.13836 320.000
18.15831 348.000
18.17825 355.000
18.19820 341.000
18.21815 352.000
18.23810 334.000
18.25804 345.000
18.27799 376.000
18.29794 351.000
18.31788 356.000
18.33783 357.000
18.35778 380.000
18.37772 358.000
18.39767 323.000
18.41762 296.000
18.43756 351.000
18.45751 389.000
18.47746 336.000
18.49741 354.000
18.51735 351.000
18.53730 362.000
18.55725 349.000
18.57719 369.000
18.59714 351.000
18.61709 353.000
18.63703 341.000
18.65698 371.000
18.67693 356.000
18.69688 374.000
18.71682 400.000
18.73677 383.000
18.75672 368.000
18.77666 363.000
18.79661 401.000
18.81656 382.000
18.83650 342.000
18.85645 432.000
18.87640 352.000
18.89634 385.000
18.91629 368.000
18.93624 402.000
18.95619 379.000
18.97613 405.000
18.99608 353.000
19.01603 394.000
19.03597 388.000
19.05592 381.000
19.07587 403.000
19.09581 362.000
19.11576 357.000
19.13571 379.000
19.15566 391.000
19.17560 409.000
19.19555 390.000
19.21550 361.000
19.23544 407.000
19.25539 381.000
19.27534 409.000
19.29528 392.000
19.31523 424.000
19.33518 418.000
19.35513 422.000
19.37507 419.000
19.39502 366.000
19.41497 392.000
19.43491 401.000
19.45486 430.000
19.47481 383.000
19.49475 451.000
19.51470 387.000
19.53465 392.000
19.55459 408.000
19.57454 415.000
19.59449 381.000
19.61444 416.000
19.63438 400.000
19.65433 382.000
19.67428 408.000
19.69422 442.000
19.71417 426.000
19.73412 439.000
19.75406 421.000
19.77401 440.000
19.79396 379.000
19.81391 435.000
19.83385 397.000
19.85380 400.000
19.87375 380.000
19.89369 417.000
19.91364 452.000
19.93359 397.000
19.95353 459.000
19.97348 389.000
19.99343 449.000
20.01337 470.000
20.03332 412.000
20.05327 444.000
20.07322 437.000
20.09316 469.000
20.11311 442.000
20.13306 385.000
20.15300 438.000
20.17295 380.000
20.19290 451.000
20.21284 426.000
20.23279 425.000
20.25274 418.000
20.27269 427.000
20.29263 488.000
20.31258 444.000
20.33253 476.000
20.35247 445.000
20.37242 439.000
20.39237 423.000
20.41231 456.000
20.43226 421.000
20.45221 508.000
20.47215 443.000
20.49210 484.000
20.51205 451.000
20.53200 460.000
20.55194 435.000
20.57189 437.000
20.59184 449.000
20.61178 446.000
20.63173 441.000
20.65168 491.000
20.67162 445.000
20.69157 431.000
20.71152 429.000
20.73147 449.000
20.75141 459.000
20.77136 497.000
20.79131 463.000
20.81125 467.000
20.83120 478.000
20.85115 435.000
20.87109 464.000
20.89104 443.000
20.91099 463.000
20.93094 480.000
20.95088 477.000
20.97083 476.000
20.99078 465.000
21.01072 461.000
21.03067 470.000
21.05062 475.000
21.07056 517.000
21.09051 455.000
21.11046 464.000
21.13040 458.000
21.15035 458.000
21.17030 442.000
21.19025 439.000
21.21019 475.000
21.23014 500.000
21.25009 478.000
21.27003 501.000
21.28998 478.000
21.30993 498.000
21.32987 490.000
21.34982 493.000
21.36977 436.000
21.38972 457.000
21.40966 511.000
21.42961 497.000
21.44956 459.000
21.46950 470.000
21.48945 477.000
21.50940 523.000
21.52934 465.000
21.54929 482.000
21.56924 479.000
21.58918 496.000
21.60913 498.000
21.62908 497.000
21.64903 495.000
21.66897 427.000
21.68892 506.000
21.70887 498.000
21.72881 468.000
21.74876 493.000
21.76871 494.000
21.78865 502.000
21.80860 491.000
21.82855 481.000
21.84850 519.000
21.86844 500.000
21.88839 470.000
21.90834 515.000
21.92828 502.000
21.94823 497.000
21.96818 467.000
21.98812 511.000
22.00807 499.000
22.02802 534.000
22.04796 497.000
22.06791 484.000
22.08786 466.000
22.10781 505.000
22.12775 526.000
22.14770 546.000
22.16765 450.000
22.18759 499.000
22.20754 527.000
22.22749 490.000
22.24743 512.000
22.26738 543.000
22.28733 500.000
22.30728 507.000
22.32722 540.000
22.34717 496.000
22.36712 494.000
22.38706 574.000
22.40701 548.000
22.42696 499.000
22.44690 537.000
22.46685 509.000
22.48680 515.000
22.50675 526.000
22.52669 535.000
22.54664 493.000
22.56659 553.000
22.58653 533.000
22.60648 509.000
22.62643 523.000
22.64637 520.000
22.66632 534.000
22.68627 501.000
22.70621 521.000
22.72616 529.000
22.74611 529.000
22.76606 528.000
22.78600 556.000
22.80595 558.000
22.82590 602.000
22.84584 520.000
22.86579 523.000
22.88574 538.000
22.90568 521.000
22.92563 533.000
22.94558 541.000
22.96553 510.000
22.98547 514.000
23.00542 577.000
23.02537 556.000
23.04531 549.000
23.06526 530.000
23.08521 539.000
23.10515 552.000
23.12510 540.000
23.14505 539.000
23.16499 553.000
23.18494 544.000
23.20489 575.000
23.22484 551.000
23.24478 526.000
23.26473 548.000
23.28468 569.000
23.30462 602.000
23.32457 561.000
23.34452 574.000
23.36446 550.000
23.38441 568.000
23.40436 563.000
23.42431 553.000
23.44425 512.000
23.46420 568.000
23.48415 580.000
23.50409 588.000
23.52404 594.000
23.54399 526.000
23.56393 531.000
23.58388 618.000
23.60383 592.000
23.62377 554.000
23.64372 575.000
23.66367 590.000
23.68362 550.000
23.70356 581.000
23.72351 591.000
23.74346 591.000
23.76340 572.000
23.78335 579.000
23.80330 557.000
23.82324 587.000
23.84319 547.000
23.86314 568.000
23.88309 592.000
23.90303 579.000
23.92298 613.000
23.94293 569.000
23.96287 610.000
23.98282 604.000
24.00277 570.000
24.02271 627.000
24.04266 577.000
24.06261 574.000
24.08256 603.000
24.10250 601.000
24.12245 546.000
24.14240 605.000
24.16234 594.000
24.18229 583.000
24.20224 542.000
24.22218 611.000
24.24213 582.000
24.26208 605.000
24.28202 582.000
24.30197 592.000
24.32192 655.000
24.34187 570.000
24.36181 577.000
24.38176 569.000
24.40171 637.000
24.42165 589.000
24.44160 578.000
24.46155 592.000
24.48149 568.000
24.50144 574.000
24.52139 606.000
24.54134 625.000
24.56128 592.000
24.58123 570.000
24.60118 595.000
24.62112 589.000
24.64107 640.000
24.66102 649.000
24.68096 617.000
24.70091 639.000
24.72086 635.000
24.74080 636.000
24.76075 619.000
24.78070 616.000
24.80065 655.000
24.82059 661.000
24.84054 664.000
24.86049 631.000
24.88043 648.000
24.90038 607.000
24.92033 634.000
24.94027 685.000
24.96022 621.000
24.98017 636.000
25.00012 659.000
25.02006 673.000
25.04001 664.000
25.05996 656.000
25.07990 653.000
25.09985 605.000
25.11980 599.000
25.13974 648.000
25.15969 623.000
25.17964 626.000
25.19958 644.000
25.21953 639.000
25.23948 596.000
25.25943 616.000
25.27937 691.000
25.29932 669.000
25.31927 674.000
25.33921 651.000
25.35916 657.000
25.37911 674.000
25.39905 682.000
25.41900 673.000
25.43895 652.000
25.45890 658.000
25.47884 618.000
25.49879 653.000
25.51874 635.000
25.53868 684.000
25.55863 669.000
25.57858 733.000
25.59852 654.000
25.61847 627.000
25.63842 648.000
25.65837 670.000
25.67831 723.000
25.69826 697.000
25.71821 584.000
25.73815 684.000
25.75810 714.000
25.77805 706.000
25.79799 653.000
25.81794 659.000
25.83789 682.000
25.85783 682.000
25.87778 691.000
25.89773 659.000
25.91768 720.000
25.93762 703.000
25.95757 685.000
25.97752 696.000
25.99746 706.000
26.01741 695.000
26.03736 685.000
26.05730 691.000
26.07725 704.000
26.09720 670.000
26.11715 678.000
26.13709 723.000
26.15704 637.000
26.17699 709.000
26.19693 641.000
26.21688 658.000
26.23683 653.000
26.25677 698.000
26.27672 705.000
26.29667 670.000
26.31661 659.000
26.33656 692.000
26.35651 729.000
26.37646 681.000
26.39640 673.000
26.41635 693.000
26.43630 770.000
26.45624 726.000
26.47619 710.000
26.49614 765.000
26.51608 728.000
26.53603 719.000
26.55598 707.000
26.57593 705.000
26.59587 785.000
26.61582 727.000
26.63577 749.000
26.65571 703.000
26.67566 730.000
26.69561 732.000
26.71555 755.000
26.73550 729.000
26.75545 730.000
26.77539 728.000
26.79534 747.000
26.81529 736.000
26.83524 732.000
26.85518 706.000
26.87513 735.000
26.89508 698.000
26.91502 721.000
26.93497 766.000
26.95492 751.000
26.97486 781.000
26.99481 755.000
27.01476 715.000
27.03471 737.000
27.05465 740.000
27.07460 731.000
27.09455 752.000
27.11449 771.000
27.13444 746.000
27.15439 755.000
27.17433 776.000
27.19428 740.000
27.21423 814.000
27.23417 725.000
27.25412 696.000
27.27407 742.000
27.29402 761.000
27.31396 743.000
27.33391 787.000
27.35386 700.000
27.37380 736.000
27.39375 766.000
27.41370 742.000
27.43364 756.000
27.45359 780.000
27.47354 752.000
27.49349 799.000
27.51343 774.000
27.53338 787.000
27.55333 730.000
27.57327 782.000
27.59322 750.000
27.61317 824.000
27.63311 781.000
27.65306 770.000
27.67301 778.000
27.69296 761.000
27.71290 771.000
27.73285 732.000
27.75280 756.000
27.77274 796.000
27.79269 783.000
27.81264 802.000
27.83258 773.000
27.85253 789.000
27.87248 731.000
27.89242 715.000
27.91237 803.000
27.93232 757.000
27.95227 801.000
27.97221 774.000
27.99216 814.000
28.01211 786.000
28.03205 789.000
28.05200 773.000
28.07195 790.000
28.09189 801.000
28.11184 798.000
28.13179 786.000
28.15174 777.000
28.17168 818.000
28.19163 762.000
28.21158 779.000
28.23152 767.000
28.25147 768.000
28.27142 793.000
28.29136 827.000
28.31131 841.000
28.33126 780.000
28.35120 835.000
28.37115 795.000
28.39110 809.000
28.41105 794.000
28.43099 808.000
28.45094 800.000
28.47089 745.000
28.49083 864.000
28.51078 809.000
28.53073 833.000
28.55067 797.000
28.57062 817.000
28.59057 746.000
28.61052 813.000
28.63046 780.000
28.65041 821.000
28.67036 795.000
28.69030 819.000
28.71025 841.000
28.73020 820.000
28.75014 824.000
28.77009 810.000
28.79004 814.000
28.80998 799.000
28.82993 821.000
28.84988 825.000
28.86983 794.000
28.88977 807.000
28.90972 807.000
28.92967 829.000
28.94961 769.000
28.96956 860.000
28.98951 761.000
29.00945 827.000
29.02940 812.000
29.04935 817.000
29.06930 814.000
29.08924 828.000
29.10919 853.000
29.12914 843.000
29.14908 858.000
29.16903 829.000
29.18898 826.000
29.20892 823.000
29.22887 863.000
29.24882 841.000
29.26877 810.000
29.28871 872.000
29.30866 820.000
29.32861 829.000
29.34855 833.000
29.36850 816.000
29.38845 828.000
29.40839 812.000
29.42834 832.000
29.44829 863.000
29.46823 852.000
29.48818 815.000
29.50813 834.000
29.52808 791.000
29.54802 819.000
29.56797 763.000
29.58792 872.000
29.60786 848.000
29.62781 828.000
29.64776 839.000
29.66770 814.000
29.68765 875.000
29.70760 826.000
29.72755 782.000
29.74749 846.000
29.76744 816.000
29.78739 857.000
29.80733 838.000
29.82728 811.000
29.84723 832.000
29.86717 822.000
29.88712 841.000
29.90707 832.000
29.92701 845.000
29.94696 793.000
29.96691 826.000
29.98686 820.000
30.00680 806.000
30.02675 838.000
30.04670 829.000
30.06664 846.000
30.08659 816.000
30.10654 750.000
30.12648 829.000
30.14643 845.000
30.16638 813.000
30.18633 842.000
30.20627 768.000
30.22622 825.000
30.24617 764.000
30.26611 809.000
30.28606 799.000
30.30601 862.000
30.32595 775.000
30.34590 777.000
30.36585 872.000
30.38579 807.000
30.40574 836.000
30.42569 801.000
30.44564 770.000
30.46558 843.000
30.48553 796.000
30.50548 830.000
30.52542 841.000
30.54537 812.000
30.56532 785.000
30.58526 785.000
30.60521 840.000
30.62516 818.000
30.64511 777.000
30.66505 804.000
30.68500 814.000
30.70495 801.000
30.72489 761.000
30.74484 734.000
30.76479 818.000
30.78473 787.000
30.80468 839.000
30.82463 807.000
30.84458 818.000
30.86452 811.000
30.88447 793.000
30.90442 779.000
30.92436 822.000
30.94431 822.000
30.96426 818.000
30.98420 780.000
31.00415 834.000
31.02410 810.000
31.04404 844.000
31.06399 809.000
31.08394 818.000
31.10389 862.000
31.12383 795.000
31.14378 788.000
31.16373 843.000
31.18367 803.000
31.20362 808.000
31.22357 843.000
31.24351 791.000
31.26346 795.000
31.28341 792.000
31.30336 807.000
31.32330 775.000
31.34325 794.000
31.36320 791.000
31.38314 814.000
31.40309 801.000
31.42304 811.000
31.44298 829.000
31.46293 822.000
31.48288 810.000
31.50282 784.000
31.52277 803.000
31.54272 799.000
31.56267 785.000
31.58261 803.000
31.60256 786.000
31.62251 780.000
31.64245 840.000
31.66240 809.000
31.68235 804.000
31.70229 787.000
31.72224 785.000
31.74219 830.000
31.76214 789.000
31.78208 833.000
31.80203 773.000
31.82198 840.000
31.84192 821.000
31.86187 797.000
31.88182 796.000
31.90176 840.000
31.92171 826.000
31.94166 856.000
31.96160 825.000
31.98155 853.000
32.00150 851.000
32.02145 806.000
32.04139 850.000
32.06134 849.000
32.08129 903.000
32.10123 882.000
32.12118 890.000
32.14113 917.000
32.16107 962.000
32.18102 952.000
32.20097 990.000
32.22092 910.000
32.24086 909.000
32.26081 923.000
32.28076 925.000
32.30070 864.000
32.32065 875.000
32.34060 858.000
32.36054 872.000
32.38049 835.000
32.40044 786.000
32.42039 864.000
32.44033 796.000
32.46028 789.000
32.48023 796.000
32.50017 737.000
32.52012 783.000
32.54007 846.000
32.56001 816.000
32.57996 770.000
32.59991 841.000
32.61985 757.000
32.63980 749.000
32.65975 789.000
32.67970 758.000
32.69964 715.000
32.71959 811.000
32.73954 793.000
32.75948 766.000
32.77943 741.000
32.79938 737.000
32.81932 753.000
32.83927 789.000
32.85922 782.000
32.87917 731.000
32.89911 800.000
32.91906 793.000
32.93901 739.000
32.95895 747.000
32.97890 751.000
32.99885 749.000
33.01879 771.000
33.03874 745.000
33.05869 792.000
33.07863 793.000
33.09858 795.000
33.11853 757.000
33.13848 784.000
33.15842 770.000
33.17837 775.000
33.19832 714.000
33.21826 744.000
33.23821 741.000
33.25816 782.000
33.27810 729.000
33.29805 718.000
33.31800 756.000
33.33795 730.000
33.35789 817.000
33.37784 710.000
33.39779 762.000
33.41773 769.000
33.43768 750.000
33.45763 761.000
33.47757 728.000
33.49752 742.000
33.51747 709.000
33.53741 735.000
33.55736 778.000
33.57731 731.000
33.59726 733.000
33.61720 712.000
33.63715 709.000
33.65710 719.000
33.67704 677.000
33.69699 762.000
33.71694 734.000
33.73688 744.000
33.75683 692.000
33.77678 759.000
33.79673 747.000
33.81667 728.000
33.83662 756.000
33.85657 700.000
33.87651 714.000
33.89646 740.000
33.91641 725.000
33.93635 713.000
33.95630 746.000
33.97625 740.000
33.99620 756.000
34.01614 674.000
34.03609 751.000
34.05604 740.000
34.07598 740.000
34.09593 749.000
34.11588 761.000
34.13582 755.000
34.15577 691.000
34.17572 784.000
34.19566 772.000
34.21561 755.000
34.23556 747.000
34.25551 712.000
34.27545 746.000
34.29540 740.000
34.31535 704.000
34.33529 732.000
34.35524 733.000
34.37519 708.000
34.39513 750.000
34.41508 783.000
34.43503 706.000
34.45498 763.000
34.47492 797.000
34.49487 832.000
34.51482 766.000
34.53476 783.000
34.55471 727.000
34.57466 795.000
34.59460 722.000
34.61455 770.000
34.63450 739.000
34.65444 809.000
34.67439 768.000
34.69434 804.000
34.71429 801.000
34.73423 831.000
34.75418 861.000
34.77413 805.000
34.79407 887.000
34.81402 853.000
34.83397 869.000
34.85391 900.000
34.87386 950.000
34.89381 906.000
34.91376 970.000
34.93370 1031.000
34.95365 1117.000
34.97360 1240.000
34.99354 1315.000
35.01349 1455.000
35.03344 1448.000
35.05338 1670.000
35.07333 1805.000
35.09328 1937.000
35.11322 2025.000
35.13317 2209.000
35.15312 2300.000
35.17307 2350.000
35.19301 2361.000
35.21296 2481.000
35.23291 2520.000
35.25285 2505.000
35.27280 2444.000
35.29275 2479.000
35.31269 2237.000
35.33264 2183.000
35.35259 1996.000
35.37254 1780.000
35.39248 1693.000
35.41243 1380.000
35.43238 1230.000
35.45232 1168.000
35.47227 1111.000
35.49222 1001.000
35.51216 897.000
35.53211 896.000
35.55206 867.000
35.57201 781.000
35.59195 810.000
35.61190 798.000
35.63185 752.000
35.65179 802.000
35.67174 728.000
35.69169 728.000
35.71163 753.000
35.73158 769.000
35.75153 805.000
35.77147 750.000
35.79142 773.000
35.81137 716.000
35.83132 747.000
35.85126 733.000
35.87121 793.000
35.89116 786.000
35.91110 744.000
35.93105 715.000
35.95100 742.000
35.97094 752.000
35.99089 691.000
36.01084 739.000
36.03079 727.000
36.05073 729.000
36.07068 750.000
36.09063 728.000
36.11057 741.000
36.13052 686.000
36.15047 772.000
36.17041 751.000
36.19036 763.000
36.21031 760.000
36.23025 763.000
36.25020 763.000
36.27015 764.000
36.29010 794.000
36.31004 760.000
36.32999 842.000
36.34994 801.000
36.36988 808.000
36.38983 789.000
36.40978 848.000
36.42972 834.000
36.44967 901.000
36.46962 917.000
36.48957 974.000
36.50951 1095.000
36.52946 1199.000
36.54941 1260.000
36.56935 1493.000
36.58930 1617.000
36.60925 1668.000
36.62919 1899.000
36.64914 2172.000
36.66909 2473.000
36.68903 2838.000
36.70898 3101.000
36.72893 3534.000
36.74888 4067.000
36.76882 4639.000
36.78877 5063.000
36.80872 5472.000
36.82866 5433.000
36.84861 5268.000
36.86856 4696.000
36.88850 4142.000
36.90845 3608.000
36.92840 3140.000
36.94835 2644.000
36.96829 2085.000
36.98824 1668.000
37.00819 1425.000
37.02813 1203.000
37.04808 974.000
37.06803 921.000
37.08797 859.000
37.10792 881.000
37.12787 774.000
37.14781 816.000
37.16776 820.000
37.18771 797.000
37.20766 808.000
37.22760 775.000
37.24755 766.000
37.26750 764.000
37.28744 769.000
37.30739 771.000
37.32734 752.000
37.34728 731.000
37.36723 727.000
37.38718 731.000
37.40713 754.000
37.42707 737.000
37.44702 800.000
37.46697 803.000
37.48691 724.000
37.50686 799.000
37.52681 785.000
37.54675 778.000
37.56670 785.000
37.58665 708.000
37.60660 711.000
37.62654 786.000
37.64649 755.000
37.66644 738.000
37.68638 758.000
37.70633 747.000
37.72628 784.000
37.74622 763.000
37.76617 791.000
37.78612 797.000
37.80606 750.000
37.82601 786.000
37.84596 786.000
37.86591 782.000
37.88585 813.000
37.90580 844.000
37.92575 830.000
37.94569 900.000
37.96564 852.000
37.98559 895.000
38.00553 924.000
38.02548 971.000
38.04543 959.000
38.06538 1081.000
38.08532 1090.000
38.10527 1136.000
38.12522 1252.000
38.14516 1323.000
38.16511 1465.000
38.18506 1550.000
38.20500 1601.000
38.22495 1687.000
38.24490 1937.000
38.26484 2038.000
38.28479 2219.000
38.30474 2396.000
38.32469 2428.000
38.34463 2441.000
38.36458 2533.000
38.38453 2492.000
38.40447 2504.000
38.42442 2447.000
38.44437 2436.000
38.46431 2206.000
38.48426 2069.000
38.50421 1895.000
38.52416 1668.000
38.54410 1613.000
38.56405 1589.000
38.58400 1456.000
38.60394 1373.000
38.62389 1433.000
38.64384 1290.000
38.66378 1165.000
38.68373 1240.000
38.70368 1214.000
38.72362 1246.000
38.74357 1108.000
38.76352 1135.000
38.78347 1079.000
38.80341 1016.000
38.82336 999.000
38.84331 905.000
38.86325 904.000
38.88320 919.000
38.90315 889.000
38.92309 762.000
38.94304 803.000
38.96299 789.000
38.98294 821.000
39.00288 711.000
39.02283 788.000
39.04278 804.000
39.06272 766.000
39.08267 706.000
39.10262 780.000
39.12256 741.000
39.14251 704.000
39.16246 718.000
39.18241 689.000
39.20235 718.000
39.22230 719.000
39.24225 719.000
39.26219 660.000
39.28214 685.000
39.30209 682.000
39.32203 746.000
39.34198 724.000
39.36193 690.000
39.38187 755.000
39.40182 739.000
39.42177 711.000
39.44172 696.000
39.46166 670.000
39.48161 700.000
39.50156 679.000
39.52150 731.000
39.54145 741.000
39.56140 719.000
39.58134 659.000
39.60129 735.000
39.62124 722.000
39.64119 718.000
39.66113 729.000
39.68108 728.000
39.70103 701.000
39.72097 726.000
39.74092 700.000
39.76087 686.000
39.78081 705.000
39.80076 712.000
39.82071 696.000
39.84065 662.000
39.86060 714.000
39.88055 708.000
39.90050 710.000
39.92044 701.000
39.94039 694.000
39.96034 632.000
39.98028 695.000
40.00023 722.000
40.02018 681.000
40.04012 732.000
40.06007 703.000
40.08002 657.000
40.09997 704.000
40.11991 657.000
40.13986 689.000
40.15981 712.000
40.17975 689.000
40.19970 720.000
40.21965 670.000
40.23959 736.000
40.25954 689.000
40.27949 677.000
40.29943 713.000
40.31938 712.000
40.33933 719.000
40.35928 698.000
40.37922 732.000
40.39917 743.000
40.41912 690.000
40.43906 651.000
40.45901 657.000
40.47896 650.000
40.49890 684.000
40.51885 718.000
40.53880 677.000
40.55875 701.000
40.57869 732.000
40.59864 685.000
40.61859 676.000
40.63853 689.000
40.65848 724.000
40.67843 707.000
40.69837 684.000
40.71832 685.000
40.73827 726.000
40.75822 672.000
40.77816 700.000
40.79811 700.000
40.81806 718.000
40.83800 712.000
40.85795 694.000
40.87790 690.000
40.89784 728.000
40.91779 758.000
40.93774 705.000
40.95768 712.000
40.97763 661.000
40.99758 625.000
41.01753 700.000
41.03747 730.000
41.05742 699.000
41.07737 737.000
41.09731 724.000
41.11726 704.000
41.13721 687.000
41.15715 723.000
41.17710 746.000
41.19705 695.000
41.21700 728.000
41.23694 702.000
41.25689 692.000
41.27684 750.000
41.29678 715.000
41.31673 711.000
41.33668 682.000
41.35662 699.000
41.37657 699.000
41.39652 736.000
41.41646 702.000
41.43641 672.000
41.45636 735.000
41.47631 699.000
41.49625 658.000
41.51620 714.000
41.53615 711.000
41.55609 724.000
41.57604 702.000
41.59599 739.000
41.61593 687.000
41.63588 747.000
41.65583 698.000
41.67578 743.000
41.69572 704.000
41.71567 740.000
41.73562 717.000
41.75556 775.000
41.77551 703.000
41.79546 709.000
41.81540 740.000
41.83535 754.000
41.85530 714.000
41.87524 716.000
41.89519 710.000
41.91514 799.000
41.93509 756.000
41.95503 694.000
41.97498 728.000
41.99493 796.000
42.01487 795.000
42.03482 781.000
42.05477 800.000
42.07471 807.000
42.09466 781.000
42.11461 836.000
42.13456 814.000
42.15450 805.000
42.17445 823.000
42.19440 867.000
42.21434 806.000
42.23429 897.000
42.25424 889.000
42.27418 898.000
42.29413 931.000
42.31408 949.000
42.33403 985.000
42.35397 1024.000
42.37392 1064.000
42.39387 1075.000
42.41381 1233.000
42.43376 1238.000
42.45371 1304.000
42.47365 1359.000
42.49360 1558.000
42.51355 1677.000
42.53349 1879.000
42.55344 2006.000
42.57339 2162.000
42.59334 2380.000
42.61328 2597.000
42.63323 2791.000
42.65318 3084.000
42.67312 3291.000
42.69307 3531.000
42.71302 3757.000
42.73296 4142.000
42.75291 4288.000
42.77286 4431.000
42.79281 4474.000
42.81275 4697.000
42.83270 4623.000
42.85265 4382.000
42.87259 4474.000
42.89254 4240.000
42.91249 4095.000
42.93243 3960.000
42.95238 3685.000
42.97233 3389.000
42.99227 3171.000
43.01222 2858.000
43.03217 2577.000
43.05212 2381.000
43.07206 2218.000
43.09201 2058.000
43.11196 1784.000
43.13190 1687.000
43.15185 1566.000
43.17180 1448.000
43.19174 1305.000
43.21169 1206.000
43.23164 1172.000
43.25159 1166.000
43.27153 1112.000
43.29148 995.000
43.31143 985.000
43.33137 848.000
43.35132 949.000
43.37127 874.000
43.39121 840.000
43.41116 811.000
43.43111 820.000
43.45105 811.000
43.47100 841.000
43.49095 854.000
43.51090 776.000
43.53084 776.000
43.55079 760.000
43.57074 787.000
43.59068 743.000
43.61063 743.000
43.63058 773.000
43.65052 714.000
43.67047 701.000
43.69042 697.000
43.71037 780.000
43.73031 745.000
43.75026 697.000
43.77021 747.000
43.79015 675.000
43.81010 691.000
43.83005 697.000
43.84999 662.000
43.86994 650.000
43.88989 727.000
43.90984 737.000
43.92978 678.000
43.94973 697.000
43.96968 701.000
43.98962 703.000
44.00957 705.000
44.02952 690.000
44.04946 673.000
44.06941 684.000
44.08936 673.000
44.10930 636.000
44.12925 716.000
44.14920 678.000
44.16915 699.000
44.18909 678.000
44.20904 700.000
44.22899 686.000
44.24893 697.000
44.26888 662.000
44.28883 712.000
44.30877 665.000
44.32872 648.000
44.34867 701.000
44.36862 708.000
44.38856 642.000
44.40851 676.000
44.42846 653.000
44.44840 651.000
44.46835 642.000
44.48830 667.000
44.50824 658.000
44.52819 663.000
44.54814 697.000
44.56808 695.000
44.58803 667.000
44.60798 653.000
44.62793 658.000
44.64787 645.000
44.66782 646.000
44.68777 665.000
44.70771 670.000
44.72766 673.000
44.74761 672.000
44.76755 726.000
44.78750 671.000
44.80745 649.000
44.82740 647.000
44.84734 695.000
44.86729 711.000
44.88724 664.000
44.90718 688.000
44.92713 638.000
44.94708 684.000
44.96702 662.000
44.98697 693.000
45.00692 634.000
45.02686 668.000
45.04681 660.000
45.06676 664.000
45.08671 694.000
45.10665 665.000
45.12660 663.000
45.14655 670.000
45.16649 691.000
45.18644 647.000
45.20639 681.000
45.22633 653.000
45.24628 630.000
45.26623 688.000
45.28618 666.000
45.30612 633.000
45.32607 621.000
45.34602 630.000
45.36596 629.000
45.38591 668.000
45.40586 662.000
45.42580 626.000
45.44575 599.000
45.46570 636.000
45.48565 615.000
45.50559 626.000
45.52554 640.000
45.54549 620.000
45.56543 625.000
45.58538 648.000
45.60533 673.000
45.62527 622.000
45.64522 637.000
45.66517 643.000
45.68511 592.000
45.70506 671.000
45.72501 694.000
45.74496 652.000
45.76490 624.000
45.78485 607.000
45.80480 666.000
45.82474 632.000
45.84469 664.000
45.86464 647.000
45.88458 666.000
45.90453 691.000
45.92448 679.000
45.94443 682.000
45.96437 643.000
45.98432 707.000
46.00427 676.000
46.02421 660.000
46.04416 667.000
46.06411 703.000
46.08405 694.000
46.10400 658.000
46.12395 619.000
46.14389 633.000
46.16384 615.000
46.18379 698.000
46.20374 610.000
46.22368 634.000
46.24363 710.000
46.26358 646.000
46.28352 612.000
46.30347 589.000
46.32342 625.000
46.34336 624.000
46.36331 637.000
46.38326 604.000
46.40321 673.000
46.42315 619.000
46.44310 628.000
46.46305 629.000
46.48299 616.000
46.50294 600.000
46.52289 627.000
46.54283 625.000
46.56278 605.000
46.58273 591.000
46.60267 610.000
46.62262 623.000
46.64257 610.000
46.66252 593.000
46.68246 577.000
46.70241 631.000
46.72236 621.000
46.74230 578.000
46.76225 656.000
46.78220 620.000
46.80214 611.000
46.82209 639.000
46.84204 596.000
46.86199 625.000
46.88193 607.000
46.90188 624.000
46.92183 601.000
46.94177 616.000
46.96172 625.000
46.98167 653.000
47.00161 557.000
47.02156 606.000
47.04151 583.000
47.06146 599.000
47.08140 646.000
47.10135 604.000
47.12130 623.000
47.14124 702.000
47.16119 635.000
47.18114 574.000
47.20108 617.000
47.22103 586.000
47.24098 583.000
47.26092 621.000
47.28087 604.000
47.30082 592.000
47.32077 623.000
47.34071 593.000
47.36066 597.000
47.38061 575.000
47.40055 606.000
47.42050 618.000
47.44045 615.000
47.46039 606.000
47.48034 656.000
47.50029 581.000
47.52024 563.000
47.54018 635.000
47.56013 591.000
47.58008 664.000
47.60002 612.000
47.61997 588.000
47.63992 589.000
47.65986 597.000
47.67981 626.000
47.69976 628.000
47.71970 619.000
47.73965 645.000
47.75960 566.000
47.77955 581.000
47.79949 614.000
47.81944 585.000
47.83939 619.000
47.85933 630.000
47.87928 633.000
47.89923 656.000
47.91917 589.000
47.93912 645.000
47.95907 625.000
47.97902 606.000
47.99896 567.000
48.01891 594.000
48.03886 605.000
48.05880 661.000
48.07875 606.000
48.09870 675.000
48.11864 637.000
48.13859 610.000
48.15854 609.000
48.17848 624.000
48.19843 716.000
48.21838 662.000
48.23833 603.000
48.25827 681.000
48.27822 672.000
48.29817 679.000
48.31811 756.000
48.33806 676.000
48.35801 698.000
48.37795 758.000
48.39790 807.000
48.41785 827.000
48.43780 826.000
48.45774 902.000
48.47769 903.000
48.49764 984.000
48.51758 948.000
48.53753 1029.000
48.55748 997.000
48.57742 1082.000
48.59737 1148.000
48.61732 1122.000
48.63726 1082.000
48.65721 1133.000
48.67716 1001.000
48.69711 1032.000
48.71705 946.000
48.73700 908.000
48.75695 932.000
48.77689 869.000
48.79684 844.000
48.81679 817.000
48.83673 804.000
48.85668 700.000
48.87663 744.000
48.89658 730.000
48.91652 706.000
48.93647 631.000
48.95642 658.000
48.97636 675.000
48.99631 673.000
49.01626 607.000
49.03620 606.000
49.05615 673.000
49.07610 613.000
49.09605 669.000
49.11599 658.000
49.13594 606.000
49.15589 643.000
49.17583 663.000
49.19578 593.000
49.21573 641.000
49.23567 643.000
49.25562 630.000
49.27557 618.000
49.29551 604.000
49.31546 594.000
49.33541 629.000
49.35536 625.000
49.37530 604.000
49.39525 646.000
49.41520 640.000
49.43514 598.000
49.45509 662.000
49.47504 627.000
49.49498 624.000
49.51493 614.000
49.53488 599.000
49.55483 629.000
49.57477 624.000
49.59472 584.000
49.61467 594.000
49.63461 606.000
49.65456 677.000
49.67451 642.000
49.69445 582.000
49.71440 588.000
49.73435 619.000
49.75429 605.000
49.77424 538.000
49.79419 589.000
49.81414 605.000
49.83408 623.000
49.85403 574.000
49.87398 641.000
49.89392 599.000
49.91387 554.000
49.93382 573.000
49.95376 578.000
49.97371 671.000
49.99366 636.000
50.01361 630.000
50.03355 629.000
50.05350 572.000
50.07345 564.000
50.09339 613.000
50.11334 588.000
50.13329 595.000
50.15323 567.000
50.17318 604.000
50.19313 596.000
50.21307 643.000
50.23302 663.000
50.25297 642.000
50.27292 598.000
50.29286 580.000
50.31281 612.000
50.33276 621.000
50.35270 577.000
50.37265 594.000
50.39260 585.000
50.41254 584.000
50.43249 575.000
50.45244 609.000
50.47239 565.000
50.49233 571.000
50.51228 595.000
50.53223 673.000
50.55217 563.000
50.57212 609.000
50.59207 595.000
50.61201 616.000
50.63196 555.000
50.65191 630.000
50.67186 610.000
50.69180 636.000
50.71175 587.000
50.73170 599.000
50.75164 577.000
50.77159 654.000
50.79154 626.000
50.81148 627.000
50.83143 599.000
50.85138 625.000
50.87132 657.000
50.89127 610.000
50.91122 610.000
50.93117 608.000
50.95111 640.000
50.97106 641.000
50.99101 597.000
51.01095 577.000
51.03090 623.000
51.05085 639.000
51.07079 607.000
51.09074 594.000
51.11069 629.000
51.13064 570.000
51.15058 652.000
51.17053 595.000
51.19048 639.000
51.21042 588.000
51.23037 557.000
51.25032 526.000
51.27026 558.000
51.29021 574.000
51.31016 581.000
51.33010 582.000
51.35005 579.000
51.37000 569.000
51.38995 590.000
51.40989 610.000
51.42984 562.000
51.44979 580.000
51.46973 548.000
51.48968 613.000
51.50963 566.000
51.52957 583.000
51.54952 587.000
51.56947 608.000
51.58942 605.000
51.60936 563.000
51.62931 608.000
51.64926 598.000
51.66920 573.000
51.68915 593.000
51.70910 571.000
51.72904 579.000
51.74899 615.000
51.76894 584.000
51.78888 583.000
51.80883 587.000
51.82878 597.000
51.84873 609.000
51.86867 596.000
51.88862 581.000
51.90857 574.000
51.92851 604.000
51.94846 586.000
51.96841 545.000
51.98835 579.000
52.00830 590.000
52.02825 616.000
52.04820 602.000
52.06814 593.000
52.08809 573.000
52.10804 585.000
52.12798 634.000
52.14793 560.000
52.16788 618.000
52.18782 612.000
52.20777 590.000
52.22772 620.000
52.24767 581.000
52.26761 532.000
52.28756 599.000
52.30751 600.000
52.32745 630.000
52.34740 576.000
52.36735 578.000
52.38729 587.000
52.40724 627.000
52.42719 617.000
52.44713 601.000
52.46708 613.000
52.48703 586.000
52.50698 592.000
52.52692 628.000
52.54687 599.000
52.56682 585.000
52.58676 649.000
52.60671 645.000
52.62666 646.000
52.64660 609.000
52.66655 633.000
52.68650 660.000
52.70645 597.000
52.72639 658.000
52.74634 610.000
52.76629 608.000
52.78623 596.000
52.80618 604.000
52.82613 632.000
52.84607 664.000
52.86602 702.000
52.88597 608.000
52.90591 632.000
52.92586 656.000
52.94581 699.000
52.96576 678.000
52.98570 620.000
53.00565 670.000
53.02560 690.000
53.04554 672.000
53.06549 710.000
53.08544 675.000
53.10538 678.000
53.12533 700.000
53.14528 706.000
53.16523 730.000
53.18517 695.000
53.20512 673.000
53.22507 700.000
53.24501 664.000
53.26496 649.000
53.28491 681.000
53.30485 686.000
53.32480 620.000
53.34475 626.000
53.36469 679.000
53.38464 676.000
53.40459 680.000
53.42454 627.000
53.44448 627.000
53.46443 656.000
53.48438 611.000
53.50432 600.000
53.52427 604.000
53.54422 615.000
53.56416 578.000
53.58411 592.000
53.60406 553.000
53.62401 600.000
53.64395 606.000
53.66390 615.000
53.68385 591.000
53.70379 616.000
53.72374 598.000
53.74369 574.000
53.76363 565.000
53.78358 639.000
53.80353 587.000
53.82348 566.000
53.84342 614.000
53.86337 567.000
53.88332 617.000
53.90326 559.000
53.92321 573.000
53.94316 586.000
53.96310 604.000
53.98305 547.000
54.00300 566.000
54.02294 594.000
54.04289 553.000
54.06284 560.000
54.08279 564.000
54.10273 633.000
54.12268 542.000
54.14263 561.000
54.16257 585.000
54.18252 593.000
54.20247 595.000
54.22241 610.000
54.24236 580.000
54.26231 592.000
54.28226 618.000
54.30220 570.000
54.32215 592.000
54.34210 554.000
54.36204 567.000
54.38199 556.000
54.40194 541.000
54.42188 563.000
54.44183 593.000
54.46178 616.000
54.48172 588.000
54.50167 606.000
54.52162 573.000
54.54157 610.000
54.56151 599.000
54.58146 566.000
54.60141 559.000
54.62135 596.000
54.64130 591.000
54.66125 588.000
54.68119 566.000
54.70114 601.000
54.72109 546.000
54.74104 554.000
54.76098 562.000
54.78093 568.000
54.80088 638.000
54.82082 609.000
54.84077 590.000
54.86072 600.000
54.88066 597.000
54.90061 574.000
54.92056 584.000
54.94050 651.000
54.96045 606.000
54.98040 576.000
55.00035 564.000
55.02029 599.000
55.04024 553.000
55.06019 577.000
55.08013 561.000
55.10008 575.000
55.12003 556.000
55.13997 550.000
55.15992 573.000
55.17987 607.000
55.19982 612.000
55.21976 563.000
55.23971 556.000
55.25966 594.000
55.27960 597.000
55.29955 614.000
55.31950 626.000
55.33944 619.000
55.35939 517.000
55.37934 540.000
55.39929 571.000
55.41923 614.000
55.43918 580.000
55.45913 549.000
55.47907 613.000
55.49902 557.000
55.51897 601.000
55.53891 588.000
55.55886 563.000
55.57881 575.000
55.59875 600.000
55.61870 555.000
55.63865 553.000
55.65860 604.000
55.67854 590.000
55.69849 580.000
55.71844 587.000
55.73838 556.000
55.75833 642.000
55.77828 539.000
55.79822 587.000
55.81817 565.000
55.83812 581.000
55.85807 517.000
55.87801 529.000
55.89796 618.000
55.91791 585.000
55.93785 587.000
55.95780 553.000
55.97775 606.000
55.99769 584.000
56.01764 603.000
56.03759 625.000
56.05753 570.000
56.07748 564.000
56.09743 559.000
56.11738 574.000
56.13732 612.000
56.15727 581.000
56.17722 613.000
56.19716 597.000
56.21711 572.000
56.23706 610.000
56.25700 570.000
56.27695 610.000
56.29690 622.000
56.31685 591.000
56.33679 637.000
56.35674 587.000
56.37669 624.000
56.39663 615.000
56.41658 611.000
56.43653 601.000
56.45647 586.000
56.47642 566.000
56.49637 624.000
56.51631 573.000
56.53626 575.000
56.55621 575.000
56.57616 589.000
56.59610 537.000
56.61605 645.000
56.63600 563.000
56.65594 587.000
56.67589 601.000
56.69584 577.000
56.71578 556.000
56.73573 562.000
56.75568 563.000
56.77563 604.000
56.79557 561.000
56.81552 578.000
56.83547 526.000
56.85541 539.000
56.87536 583.000
56.89531 608.000
56.91525 578.000
56.93520 556.000
56.95515 551.000
56.97510 582.000
56.99504 594.000
57.01499 564.000
57.03494 610.000
57.05488 579.000
57.07483 566.000
57.09478 599.000
57.11472 627.000
57.13467 593.000
57.15462 564.000
57.17456 555.000
57.19451 606.000
57.21446 636.000
57.23441 606.000
57.25435 582.000
57.27430 592.000
57.29425 560.000
57.31419 570.000
57.33414 585.000
57.35409 553.000
57.37403 581.000
57.39398 553.000
57.41393 589.000
57.43388 546.000
57.45382 557.000
57.47377 601.000
57.49372 593.000
57.51366 639.000
57.53361 618.000
57.55356 585.000
57.57350 612.000
57.59345 645.000
57.61340 640.000
57.63334 611.000
57.65329 605.000
57.67324 631.000
57.69319 654.000
57.71313 702.000
57.73308 651.000
57.75303 708.000
57.77297 729.000
57.79292 776.000
57.81287 734.000
57.83281 760.000
57.85276 796.000
57.87271 814.000
57.89266 786.000
57.91260 811.000
57.93255 827.000
57.95250 892.000
57.97244 772.000
57.99239 842.000
58.01234 844.000
58.03228 766.000
58.05223 775.000
58.07218 783.000
58.09212 716.000
58.11207 656.000
58.13202 705.000
58.15197 656.000
58.17191 668.000
58.19186 612.000
58.21181 634.000
58.23175 584.000
58.25170 591.000
58.27165 608.000
58.29159 618.000
58.31154 577.000
58.33149 578.000
58.35144 599.000
58.37138 626.000
58.39133 555.000
58.41128 551.000
58.43122 570.000
58.45117 626.000
58.47112 593.000
58.49106 599.000
58.51101 585.000
58.53096 574.000
58.55090 579.000
58.57085 547.000
58.59080 537.000
58.61075 644.000
58.63069 577.000
58.65064 571.000
58.67059 603.000
58.69053 586.000
58.71048 574.000
58.73043 550.000
58.75037 610.000
58.77032 543.000
58.79027 575.000
58.81022 547.000
58.83016 563.000
58.85011 588.000
58.87006 556.000
58.89000 585.000
58.90995 560.000
58.92990 657.000
58.94984 604.000
58.96979 588.000
58.98974 606.000
59.00969 586.000
59.02963 575.000
59.04958 555.000
59.06953 586.000
59.08947 564.000
59.10942 543.000
59.12937 548.000
59.14931 595.000
59.16926 604.000
59.18921 521.000
59.20915 586.000
59.22910 572.000
59.24905 590.000
59.26900 568.000
59.28894 559.000
59.30889 597.000
59.32884 563.000
59.34878 579.000
59.36873 575.000
59.38868 594.000
59.40862 561.000
59.42857 596.000
59.44852 620.000
59.46847 570.000
59.48841 608.000
59.50836 566.000
59.52831 540.000
59.54825 609.000
59.56820 562.000
59.58815 583.000
59.60809 598.000
59.62804 553.000
59.64799 567.000
59.66793 603.000
59.68788 558.000
59.70783 575.000
59.72778 613.000
59.74772 590.000
59.76767 558.000
59.78762 554.000
59.80756 553.000
59.82751 532.000
59.84746 587.000
59.86740 541.000
59.88735 561.000
59.90730 594.000
59.92725 608.000
59.94719 555.000
59.96714 569.000
59.98709 568.000
60.00703 597.000
60.02698 561.000
60.04693 585.000
60.06687 602.000
60.08682 577.000
60.10677 613.000
60.12671 598.000
60.14666 606.000
60.16661 615.000
60.18656 561.000
60.20650 562.000
60.22645 566.000
60.24640 570.000
60.26634 590.000
60.28629 573.000
60.30624 599.000
60.32618 588.000
60.34613 617.000
60.36608 595.000
60.38603 575.000
60.40597 606.000
60.42592 565.000
60.44587 607.000
60.46581 607.000
60.48576 639.000
60.50571 577.000
60.52565 549.000
60.54560 570.000
60.56555 589.000
60.58550 614.000
60.60544 625.000
60.62539 631.000
60.64534 633.000
60.66528 558.000
60.68523 588.000
60.70518 588.000
60.72512 582.000
60.74507 626.000
60.76502 620.000
60.78496 563.000
60.80491 585.000
60.82486 603.000
60.84481 590.000
60.86475 618.000
60.88470 614.000
60.90465 612.000
60.92459 609.000
60.94454 615.000
60.96449 637.000
60.98443 612.000
61.00438 582.000
61.02433 647.000
61.04428 659.000
61.06422 707.000
61.08417 652.000
61.10412 738.000
61.12406 729.000
61.14401 728.000
61.16396 825.000
61.18390 810.000
61.20385 830.000
61.22380 900.000
61.24374 952.000
61.26369 925.000
61.28364 949.000
61.30359 995.000
61.32353 1013.000
61.34348 970.000
61.36343 942.000
61.38337 922.000
61.40332 964.000
61.42327 840.000
61.44321 876.000
61.46316 826.000
61.48311 850.000
61.50306 845.000
61.52300 806.000
61.54295 808.000
61.56290 800.000
61.58284 728.000
61.60279 701.000
61.62274 701.000
61.64268 680.000
61.66263 711.000
61.68258 675.000
61.70252 691.000
61.72247 636.000
61.74242 639.000
61.76237 754.000
61.78231 676.000
61.80226 716.000
61.82221 689.000
61.84215 719.000
61.86210 747.000
61.88205 743.000
61.90199 760.000
61.92194 754.000
61.94189 823.000
61.96184 851.000
61.98178 898.000
62.00173 947.000
62.02168 1051.000
62.04162 1017.000
62.06157 1092.000
62.08152 1234.000
62.10146 1338.000
62.12141 1427.000
62.14136 1553.000
62.16131 1745.000
62.18125 1818.000
62.20120 1986.000
62.22115 2184.000
62.24109 2282.000
62.26104 2382.000
62.28099 2503.000
62.30093 2601.000
62.32088 2766.000
62.34083 2711.000
62.36077 2741.000
62.38072 2771.000
62.40067 2653.000
62.42062 2585.000
62.44056 2542.000
62.46051 2319.000
62.48046 2234.000
62.50040 2125.000
62.52035 1905.000
62.54030 1896.000
62.56024 1755.000
62.58019 1598.000
62.60014 1561.000
62.62009 1326.000
62.64003 1276.000
62.65998 1176.000
62.67993 1045.000
62.69987 999.000
62.71982 932.000
62.73977 888.000
62.75971 844.000
62.77966 836.000
62.79961 815.000
62.81955 788.000
62.83950 700.000
62.85945 736.000
62.87940 703.000
62.89934 695.000
62.91929 692.000
62.93924 689.000
62.95918 719.000
62.97913 644.000
62.99908 656.000
63.01902 654.000
63.03897 605.000
63.05892 619.000
63.07887 633.000
63.09881 649.000
63.11876 625.000
63.13871 653.000
63.15865 618.000
63.17860 634.000
63.19855 644.000
63.21849 622.000
63.23844 602.000
63.25839 636.000
63.27833 599.000
63.29828 627.000
63.31823 639.000
63.33818 602.000
63.35812 627.000
63.37807 577.000
63.39802 615.000
63.41796 633.000
63.43791 600.000
63.45786 607.000
63.47780 579.000
63.49775 602.000
63.51770 602.000
63.53765 596.000
63.55759 626.000
63.57754 576.000
63.59749 582.000
63.61743 623.000
63.63738 581.000
63.65733 615.000
63.67727 610.000
63.69722 567.000
63.71717 597.000
63.73712 609.000
63.75706 565.000
63.77701 626.000
63.79696 591.000
63.81690 580.000
63.83685 643.000
63.85680 589.000
63.87674 625.000
63.89669 590.000
63.91664 576.000
63.93658 595.000
63.95653 601.000
63.97648 591.000
63.99643 570.000
64.01637 578.000
64.03632 585.000
64.05627 600.000
64.07621 596.000
64.09616 616.000
64.11611 593.000
64.13605 560.000
64.15600 594.000
64.17595 616.000
64.19590 597.000
64.21584 565.000
64.23579 611.000
64.25574 552.000
64.27568 599.000
64.29563 621.000
64.31558 605.000
64.33552 594.000
64.35547 609.000
64.37542 606.000
64.39536 595.000
64.41531 552.000
64.43526 666.000
64.45521 568.000
64.47515 578.000
64.49510 587.000
64.51505 577.000
64.53499 592.000
64.55494 607.000
64.57489 612.000
64.59483 617.000
64.61478 603.000
64.63473 576.000
64.65468 637.000
64.67462 597.000
64.69457 563.000
64.71452 610.000
64.73446 586.000
64.75441 588.000
64.77436 662.000
64.79430 589.000
64.81425 601.000
64.83420 594.000
64.85414 621.000
64.87409 571.000
64.89404 586.000
64.91399 577.000
64.93393 562.000
64.95388 587.000
64.97383 619.000
64.99377 653.000
65.01372 566.000
65.03367 635.000
65.05361 622.000
65.07356 659.000
65.09351 674.000
65.11346 650.000
65.13340 659.000
65.15335 687.000
65.17330 672.000
65.19324 727.000
65.21319 732.000
65.23314 681.000
65.25308 707.000
65.27303 700.000
65.29298 709.000
65.31293 721.000
65.33287 702.000
65.35282 732.000
65.37277 709.000
65.39271 799.000
65.41266 756.000
65.43261 749.000
65.45255 758.000
65.47250 705.000
65.49245 746.000
65.51239 719.000
65.53234 707.000
65.55229 768.000
65.57224 741.000
65.59218 699.000
65.61213 719.000
65.63208 712.000
65.65202 683.000
65.67197 728.000
65.69192 682.000
65.71186 684.000
65.73181 691.000
65.75176 664.000
65.77171 681.000
65.79165 719.000
65.81160 650.000
65.83155 657.000
65.85149 670.000
65.87144 728.000
65.89139 702.000
65.91133 712.000
65.93128 718.000
65.95123 720.000
65.97117 763.000
65.99112 740.000
66.01107 799.000
66.03102 816.000
66.05096 768.000
66.07091 792.000
66.09086 810.000
66.11080 789.000
66.13075 849.000
66.15070 786.000
66.17064 874.000
66.19059 782.000
66.21054 840.000
66.23049 730.000
66.25043 776.000
66.27038 778.000
66.29033 715.000
66.31027 734.000
66.33022 724.000
66.35017 699.000
66.37011 697.000
66.39006 682.000
66.41001 654.000
66.42995 640.000
66.44990 641.000
66.46985 648.000
66.48980 645.000
66.50974 612.000
66.52969 626.000
66.54964 582.000
66.56958 570.000
66.58953 582.000
66.60948 634.000
66.62942 605.000
66.64937 601.000
66.66932 594.000
66.68927 600.000
66.70921 555.000
66.72916 552.000
66.74911 582.000
66.76905 587.000
66.78900 542.000
66.80895 559.000
66.82889 597.000
66.84884 548.000
66.86879 612.000
66.88874 563.000
66.90868 628.000
66.92863 574.000
66.94858 624.000
66.96852 593.000
66.98847 572.000
67.00842 571.000
67.02836 601.000
67.04831 590.000
67.06826 642.000
67.08820 652.000
67.10815 593.000
67.12810 601.000
67.14805 580.000
67.16799 640.000
67.18794 580.000
67.20789 602.000
67.22783 612.000
67.24778 572.000
67.26773 596.000
67.28767 651.000
67.30762 645.000
67.32757 660.000
67.34752 658.000
67.36746 694.000
67.38741 647.000
67.40736 694.000
67.42730 680.000
67.44725 699.000
67.46720 733.000
67.48714 736.000
67.50709 770.000
67.52704 770.000
67.54698 757.000
67.56693 792.000
67.58688 763.000
67.60683 736.000
67.62677 775.000
67.64672 820.000
67.66667 808.000
67.68661 806.000
67.70656 839.000
67.72651 804.000
67.74645 774.000
67.76640 833.000
67.78635 796.000
67.80630 832.000
67.82624 783.000
67.84619 809.000
67.86614 789.000
67.88608 749.000
67.90603 718.000
67.92598 745.000
67.94592 724.000
67.96587 728.000
67.98582 686.000
68.00576 671.000
68.02571 646.000
68.04566 691.000
68.06561 655.000
68.08555 700.000
68.10550 658.000
68.12545 672.000
68.14539 588.000
68.16534 624.000
68.18529 586.000
68.20523 556.000
68.22518 563.000
68.24513 580.000
68.26508 595.000
68.28502 620.000
68.30497 604.000
68.32492 511.000
68.34486 625.000
68.36481 578.000
68.38476 538.000
68.40470 532.000
68.42465 556.000
68.44460 588.000
68.46455 599.000
68.48449 536.000
68.50444 550.000
68.52439 511.000
68.54433 576.000
68.56428 535.000
68.58423 543.000
68.60417 550.000
68.62412 592.000
68.64407 571.000
68.66401 556.000
68.68396 589.000
68.70391 564.000
68.72386 573.000
68.74380 594.000
68.76375 529.000
68.78370 602.000
68.80364 573.000
68.82359 529.000
68.84354 528.000
68.86348 617.000
68.88343 541.000
68.90338 530.000
68.92333 576.000
68.94327 542.000
68.96322 567.000
68.98317 542.000
69.00311 561.000
69.02306 553.000
69.04301 577.000
69.06295 547.000
69.08290 553.000
69.10285 575.000
69.12279 564.000
69.14274 587.000
69.16269 587.000
69.18264 562.000
69.20258 555.000
69.22253 580.000
69.24248 538.000
69.26242 546.000
69.28237 588.000
69.30232 567.000
69.32226 528.000
69.34221 604.000
69.36216 552.000
69.38211 580.000
69.40205 572.000
69.42200 560.000
69.44195 535.000
69.46189 550.000
69.48184 517.000
69.50179 552.000
69.52173 547.000
69.54168 573.000
69.56163 552.000
69.58157 559.000
69.60152 535.000
69.62147 575.000
69.64142 567.000
69.66136 549.000
69.68131 566.000
69.70126 598.000
69.72120 560.000
69.74115 557.000
69.76110 544.000
69.78104 585.000
69.80099 515.000
69.82094 540.000
69.84089 525.000
69.86083 527.000
69.88078 553.000
69.90073 531.000
69.92067 573.000
69.94062 538.000
69.96057 562.000
69.98051 558.000
70.00046 563.000
70.02041 563.000
70.04035 561.000
70.06030 550.000
70.08025 561.000
70.10020 569.000
70.12014 546.000
70.14009 563.000
70.16004 512.000
70.17998 543.000
70.19993 592.000
70.21988 642.000
70.23982 539.000
70.25977 544.000
70.27972 503.000
70.29967 574.000
70.31961 575.000
70.33956 567.000
70.35951 554.000
70.37945 543.000
70.39940 559.000
70.41935 574.000
70.43929 534.000
70.45924 550.000
70.47919 540.000
70.49914 539.000
70.51908 552.000
70.53903 589.000
70.55898 531.000
70.57892 514.000
70.59887 604.000
70.61882 579.000
70.63876 552.000
70.65871 554.000
70.67866 543.000
70.69860 580.000
70.71855 543.000
70.73850 568.000
70.75845 532.000
70.77839 537.000
70.79834 539.000
70.81829 546.000
70.83823 590.000
70.85818 550.000
70.87813 557.000
70.89807 575.000
70.91802 604.000
70.93797 540.000
70.95792 547.000
70.97786 562.000
70.99781 563.000
71.01776 590.000
71.03770 556.000
71.05765 593.000
71.07760 582.000
71.09754 581.000
71.11749 592.000
71.13744 558.000
71.15738 571.000
71.17733 601.000
71.19728 522.000
71.21723 553.000
71.23717 540.000
71.25712 583.000
71.27707 527.000
71.29701 562.000
71.31696 541.000
71.33691 571.000
71.35685 536.000
71.37680 545.000
71.39675 555.000
71.41670 590.000
71.43664 531.000
71.45659 618.000
71.47654 600.000
71.49648 508.000
71.51643 465.000
71.53638 553.000
71.55632 594.000
71.57627 551.000
71.59622 526.000
71.61616 556.000
71.63611 546.000
71.65606 574.000
71.67601 553.000
71.69595 588.000
71.71590 586.000
71.73585 539.000
71.75579 561.000
71.77574 604.000
71.79569 582.000
71.81563 595.000
71.83558 587.000
71.85553 593.000
71.87548 589.000
71.89542 582.000
71.91537 644.000
71.93532 643.000
71.95526 595.000
71.97521 630.000
71.99516 660.000
72.01510 675.000
72.03505 642.000
72.05500 683.000
72.07495 664.000
72.09489 641.000
72.11484 683.000
72.13479 678.000
72.15473 634.000
72.17468 644.000
72.19463 670.000
72.21457 667.000
72.23452 629.000
72.25447 653.000
72.27441 618.000
72.29436 643.000
72.31431 626.000
72.33426 586.000
72.35420 614.000
72.37415 637.000
72.39410 631.000
72.41404 659.000
72.43399 616.000
72.45394 563.000
72.47388 571.000
72.49383 567.000
72.51378 611.000
72.53373 614.000
72.55367 575.000
72.57362 584.000
72.59357 620.000
72.61351 579.000
72.63346 575.000
72.65341 594.000
72.67335 571.000
72.69330 580.000
72.71325 548.000
72.73319 601.000
72.75314 516.000
72.77309 588.000
72.79304 556.000
72.81298 505.000
72.83293 535.000
72.85288 545.000
72.87282 619.000
72.89277 592.000
72.91272 588.000
72.93266 537.000
72.95261 569.000
72.97256 569.000
72.99251 550.000
73.01245 560.000
73.03240 563.000
73.05235 578.000
73.07229 545.000
73.09224 588.000
73.11219 568.000
73.13213 547.000
73.15208 608.000
73.17203 595.000
73.19197 573.000
73.21192 549.000
73.23187 560.000
73.25182 607.000
73.27176 537.000
73.29171 590.000
73.31166 533.000
73.33160 571.000
73.35155 536.000
73.37150 552.000
73.39144 565.000
73.41139 598.000
73.43134 557.000
73.45129 574.000
73.47123 545.000
73.49118 567.000
73.51113 580.000
73.53107 566.000
73.55102 564.000
73.57097 525.000
73.59091 574.000
73.61086 558.000
73.63081 609.000
73.65076 602.000
73.67070 525.000
73.69065 561.000
73.71060 565.000
73.73054 568.000
73.75049 598.000
73.77044 600.000
73.79038 585.000
73.81033 570.000
73.83028 573.000
73.85022 594.000
73.87017 577.000
73.89012 551.000
73.91007 632.000
73.93001 580.000
73.94996 570.000
73.96991 584.000
73.98985 583.000
74.00980 598.000
74.02975 562.000
74.04969 590.000
74.06964 627.000
74.08959 590.000
74.10954 604.000
74.12948 590.000
74.14943 639.000
74.16938 596.000
74.18932 639.000
74.20927 618.000
74.22922 654.000
74.24916 593.000
74.26911 638.000
74.28906 668.000
74.30900 618.000
74.32895 617.000
74.34890 664.000
74.36885 617.000
74.38879 723.000
74.40874 738.000
74.42869 710.000
74.44863 792.000
74.46858 750.000
74.48853 815.000
74.50847 784.000
74.52842 846.000
74.54837 857.000
74.56832 917.000
74.58826 917.000
74.60821 1036.000
74.62816 1014.000
74.64810 1051.000
74.66805 1095.000
74.68800 1197.000
74.70794 1141.000
74.72789 1195.000
74.74784 1175.000
74.76778 1233.000
74.78773 1255.000
74.80768 1293.000
74.82763 1288.000
74.84757 1246.000
74.86752 1282.000
74.88747 1223.000
74.90741 1219.000
74.92736 1261.000
74.94731 1178.000
74.96725 1190.000
74.98720 1161.000
75.00715 1153.000
75.02710 1150.000
75.04704 1073.000
75.06699 1074.000
75.08694 971.000
75.10688 996.000
75.12683 997.000
75.14678 953.000
75.16672 946.000
75.18667 958.000
75.20662 849.000
75.22657 802.000
75.24651 782.000
75.26646 747.000
75.28641 795.000
75.30635 760.000
75.32630 738.000
75.34625 726.000
75.36619 700.000
75.38614 685.000
75.40609 703.000
75.42603 672.000
75.44598 648.000
75.46593 662.000
75.48588 666.000
75.50582 597.000
75.52577 638.000
75.54572 611.000
75.56566 590.000
75.58561 609.000
75.60556 619.000
75.62550 641.000
75.64545 571.000
75.66540 628.000
75.68535 588.000
75.70529 599.000
75.72524 650.000
75.74519 581.000
75.76513 564.000
75.78508 606.000
75.80503 571.000
75.82497 510.000
75.84492 576.000
75.86487 570.000
75.88481 532.000
75.90476 565.000
75.92471 569.000
75.94466 653.000
75.96460 551.000
75.98455 559.000
76.00450 588.000
76.02444 619.000
76.04439 605.000
76.06434 568.000
76.08428 552.000
76.10423 622.000
76.12418 575.000
76.14413 558.000
76.16407 556.000
76.18402 600.000
76.20397 556.000
76.22391 527.000
76.24386 534.000
76.26381 550.000
76.28375 551.000
76.30370 564.000
76.32365 609.000
76.34359 543.000
76.36354 547.000
76.38349 592.000
76.40344 511.000
76.42338 534.000
76.44333 555.000
76.46328 613.000
76.48322 571.000
76.50317 602.000
76.52312 537.000
76.54306 524.000
76.56301 532.000
76.58296 528.000
76.60291 574.000
76.62285 529.000
76.64280 515.000
76.66275 555.000
76.68269 565.000
76.70264 543.000
76.72259 550.000
76.74253 584.000
76.76248 543.000
76.78243 550.000
76.80238 603.000
76.82232 527.000
76.84227 518.000
76.86222 518.000
76.88216 558.000
76.90211 544.000
76.92206 541.000
76.94200 568.000
76.96195 574.000
76.98190 573.000
77.00184 519.000
77.02179 569.000
77.04174 548.000
77.06169 580.000
77.08163 581.000
77.10158 535.000
77.12153 582.000
77.14147 549.000
77.16142 567.000
77.18137 591.000
77.20131 540.000
77.22126 518.000
77.24121 558.000
77.26116 503.000
77.28110 555.000
77.30105 563.000
77.32100 577.000
77.34094 532.000
77.36089 554.000
77.38084 554.000
77.40078 550.000
77.42073 595.000
77.44068 549.000
77.46062 547.000
77.48057 616.000
77.50052 567.000
77.52047 547.000
77.54041 514.000
77.56036 510.000
77.58031 610.000
77.60025 578.000
77.62020 541.000
77.64015 550.000
77.66009 558.000
77.68004 547.000
77.69999 593.000
77.71994 529.000
77.73988 543.000
77.75983 519.000
77.77978 565.000
77.79972 568.000
77.81967 532.000
77.83962 578.000
77.85956 564.000
77.87951 509.000
77.89946 531.000
77.91940 589.000
77.93935 585.000
77.95930 550.000
77.97925 561.000
77.99919 517.000
78.01914 588.000
78.03909 572.000
78.05903 551.000
78.07898 529.000
78.09893 557.000
78.11887 543.000
78.13882 530.000
78.15877 536.000
78.17872 559.000
78.19866 553.000
78.21861 582.000
78.23856 551.000
78.25850 569.000
78.27845 578.000
78.29840 529.000
78.31834 564.000
78.33829 578.000
78.35824 555.000
78.37819 637.000
78.39813 599.000
78.41808 589.000
78.43803 587.000
78.45797 618.000
78.47792 627.000
78.49787 634.000
78.51781 649.000
78.53776 648.000
78.55771 664.000
78.57765 751.000
78.59760 748.000
78.61755 763.000
78.63750 859.000
78.65744 883.000
78.67739 912.000
78.69734 1017.000
78.71728 1155.000
78.73723 1212.000
78.75718 1297.000
78.77712 1215.000
78.79707 1228.000
78.81702 1208.000
78.83697 1127.000
78.85691 1025.000
78.87686 1058.000
78.89681 984.000
78.91675 985.000
78.93670 923.000
78.95665 994.000
78.97659 988.000
78.99654 966.000
79.01649 947.000
79.03643 933.000
79.05638 817.000
79.07633 824.000
79.09628 804.000
79.11622 745.000
79.13617 745.000
79.15612 687.000
79.17606 646.000
79.19601 652.000
79.21596 641.000
79.23590 668.000
79.25585 620.000
79.27580 635.000
79.29575 578.000
79.31569 596.000
79.33564 609.000
79.35559 598.000
79.37553 595.000
79.39548 562.000
79.41543 575.000
79.43537 594.000
79.45532 600.000
79.47527 571.000
79.49521 581.000
79.51516 566.000
79.53511 586.000
79.55506 555.000
79.57500 535.000
79.59495 556.000
79.61490 553.000
79.63484 580.000
79.65479 576.000
79.67474 560.000
79.69468 578.000
79.71463 588.000
79.73458 574.000
79.75453 562.000
79.77447 590.000
79.79442 554.000
79.81437 563.000
79.83431 566.000
79.85426 567.000
79.87421 573.000
79.89415 560.000
79.91410 567.000
79.93405 560.000
79.95399 626.000
79.97394 608.000
79.99389 584.000
80.01384 570.000
80.03378 584.000
80.05373 563.000
80.07368 599.000
80.09362 613.000
80.11357 555.000
80.13352 579.000
80.15346 593.000
80.17341 561.000
80.19336 545.000
80.21331 559.000
80.23325 555.000
80.25320 542.000
80.27315 563.000
80.29309 569.000
80.31304 598.000
80.33299 582.000
80.35293 545.000
80.37288 565.000
80.39283 592.000
80.41278 535.000
80.43272 560.000
80.45267 569.000
80.47262 581.000
80.49256 555.000
80.51251 598.000
80.53246 532.000
80.55240 551.000
80.57235 509.000
80.59230 595.000
80.61224 554.000
80.63219 551.000
80.65214 581.000
80.67209 535.000
80.69203 516.000
80.71198 524.000
80.73193 556.000
80.75187 546.000
80.77182 520.000
80.79177 555.000
80.81171 576.000
80.83166 524.000
80.85161 531.000
80.87156 521.000
80.89150 547.000
80.91145 526.000
80.93140 537.000
80.95134 513.000
80.97129 571.000
80.99124 505.000
81.01118 520.000
81.03113 527.000
81.05108 569.000
81.07102 546.000
81.09097 551.000
81.11092 567.000
81.13087 540.000
81.15081 504.000
81.17076 538.000
81.19071 503.000
81.21065 546.000
81.23060 550.000
81.25055 539.000
81.27049 525.000
81.29044 528.000
81.31039 542.000
81.33034 530.000
81.35028 524.000
81.37023 531.000
81.39018 556.000
81.41012 574.000
81.43007 554.000
81.45002 550.000
81.46996 542.000
81.48991 535.000
81.50986 549.000
81.52980 553.000
81.54975 518.000
81.56970 518.000
81.58965 566.000
81.60959 563.000
81.62954 527.000
81.64949 568.000
81.66943 536.000
81.68938 571.000
81.70933 536.000
81.72927 522.000
81.74922 539.000
81.76917 522.000
81.78912 547.000
81.80906 551.000
81.82901 513.000
81.84896 565.000
81.86890 564.000
81.88885 522.000
81.90880 516.000
81.92874 591.000
81.94869 520.000
81.96864 545.000
81.98859 569.000
82.00853 598.000
82.02848 532.000
82.04843 533.000
82.06837 577.000
82.08832 592.000
82.10827 556.000
82.12821 527.000
82.14816 534.000
82.16811 566.000
82.18805 620.000
82.20800 572.000
82.22795 577.000
82.24790 565.000
82.26784 589.000
82.28779 571.000
82.30774 631.000
82.32768 620.000
82.34763 608.000
82.36758 637.000
82.38752 592.000
82.40747 611.000
82.42742 657.000
82.44737 614.000
82.46731 625.000
82.48726 650.000
82.50721 626.000
82.52715 657.000
82.54710 617.000
82.56705 607.000
82.58699 672.000
82.60694 600.000
82.62689 653.000
82.64683 611.000
82.66678 609.000
82.68673 629.000
82.70668 621.000
82.72662 599.000
82.74657 522.000
82.76652 602.000
82.78646 621.000
82.80641 592.000
82.82636 622.000
82.84630 579.000
82.86625 568.000
82.88620 560.000
82.90615 580.000
82.92609 545.000
82.94604 577.000
82.96599 606.000
82.98593 629.000
83.00588 580.000
83.02583 571.000
83.04577 566.000
83.06572 589.000
83.08567 572.000
83.10561 578.000
83.12556 554.000
83.14551 628.000
83.16546 551.000
83.18540 568.000
83.20535 557.000
83.22530 605.000
83.24524 629.000
83.26519 595.000
83.28514 570.000
83.30508 536.000
83.32503 563.000
83.34498 583.000
83.36493 546.000
83.38487 592.000
83.40482 607.000
83.42477 580.000
83.44471 590.000
83.46466 567.000
83.48461 570.000
83.50455 569.000
83.52450 606.000
83.54445 585.000
83.56440 598.000
83.58434 558.000
83.60429 583.000
83.62424 577.000
83.64418 576.000
83.66413 585.000
83.68408 578.000
83.70402 546.000
83.72397 583.000
83.74392 569.000
83.76386 590.000
83.78381 553.000
83.80376 556.000
83.82371 589.000
83.84365 589.000
83.86360 541.000
83.88355 579.000
83.90349 566.000
83.92344 518.000
83.94339 545.000
83.96333 522.000
83.98328 522.000
84.00323 567.000
84.02318 574.000
84.04312 547.000
84.06307 587.000
84.08302 537.000
84.10296 525.000
84.12291 558.000
84.14286 560.000
84.16280 552.000
84.18275 553.000
84.20270 551.000
84.22264 545.000
84.24259 520.000
84.26254 521.000
84.28249 537.000
84.30243 546.000
84.32238 531.000
84.34233 527.000
84.36227 535.000
84.38222 485.000
84.40217 570.000
84.42211 545.000
84.44206 533.000
84.46201 536.000
84.48196 528.000
84.50190 540.000
84.52185 530.000
84.54180 536.000
84.56174 538.000
84.58169 479.000
84.60164 546.000
84.62158 556.000
84.64153 561.000
84.66148 519.000
84.68142 517.000
84.70137 553.000
84.72132 536.000
84.74127 516.000
84.76121 519.000
84.78116 569.000
84.80111 504.000
84.82105 507.000
84.84100 525.000
84.86095 517.000
84.88089 565.000
84.90084 550.000
84.92079 570.000
84.94074 546.000
84.96068 577.000
84.98063 548.000
85.00058 500.000
85.02052 496.000
85.04047 530.000
85.06042 566.000
85.08036 566.000
85.10031 577.000
85.12026 543.000
85.14021 493.000
85.16015 536.000
85.18010 517.000
85.20005 543.000
85.21999 524.000
85.23994 508.000
85.25989 511.000
85.27983 541.000
85.29978 509.000
85.31973 544.000
85.33967 536.000
85.35962 535.000
85.37957 535.000
85.39952 510.000
85.41946 547.000
85.43941 540.000
85.45936 580.000
85.47930 513.000
85.49925 551.000
85.51920 596.000
85.53914 483.000
85.55909 559.000
85.57904 548.000
85.59899 557.000
85.61893 555.000
85.63888 537.000
85.65883 529.000
85.67877 544.000
85.69872 544.000
85.71867 545.000
85.73861 532.000
85.75856 533.000
85.77851 513.000
85.79845 517.000
85.81840 543.000
85.83835 535.000
85.85830 555.000
85.87824 509.000
85.89819 525.000
85.91814 547.000
85.93808 557.000
85.95803 527.000
85.97798 528.000
85.99792 548.000
86.01787 517.000
86.03782 509.000
86.05777 539.000
86.07771 538.000
86.09766 573.000
86.11761 492.000
86.13755 527.000
86.15750 495.000
86.17745 515.000
86.19739 501.000
86.21734 557.000
86.23729 513.000
86.25723 504.000
86.27718 577.000
86.29713 562.000
86.31708 527.000
86.33702 530.000
86.35697 556.000
86.37692 524.000
86.39686 548.000
86.41681 588.000
86.43676 546.000
86.45670 527.000
86.47665 520.000
86.49660 586.000
86.51655 543.000
86.53649 533.000
86.55644 576.000
86.57639 580.000
86.59633 572.000
86.61628 577.000
86.63623 514.000
86.65617 535.000
86.67612 552.000
86.69607 549.000
86.71602 578.000
86.73596 595.000
86.75591 525.000
86.77586 548.000
86.79580 566.000
86.81575 570.000
86.83570 555.000
86.85564 578.000
86.87559 530.000
86.89554 536.000
86.91548 554.000
86.93543 528.000
86.95538 579.000
86.97533 573.000
86.99527 524.000
87.01522 528.000
87.03517 509.000
87.05511 527.000
87.07506 522.000
87.09501 532.000
87.11495 624.000
87.13490 541.000
87.15485 516.000
87.17480 532.000
87.19474 563.000
87.21469 531.000
87.23464 565.000
87.25458 540.000
87.27453 543.000
87.29448 533.000
87.31442 519.000
87.33437 528.000
87.35432 539.000
87.37426 516.000
87.39421 521.000
87.41416 536.000
87.43411 493.000
87.45405 526.000
87.47400 519.000
87.49395 521.000
87.51389 528.000
87.53384 497.000
87.55379 524.000
87.57373 484.000
87.59368 557.000
87.61363 515.000
87.63358 552.000
87.65352 580.000
87.67347 547.000
87.69342 518.000
87.71336 505.000
87.73331 496.000
87.75326 544.000
87.77320 518.000
87.79315 530.000
87.81310 501.000
87.83304 554.000
87.85299 537.000
87.87294 494.000
87.89289 532.000
87.91283 529.000
87.93278 514.000
87.95273 500.000
87.97267 524.000
87.99262 520.000
88.01257 530.000
88.03251 553.000
88.05246 514.000
88.07241 526.000
88.09236 533.000
88.11230 540.000
88.13225 496.000
88.15220 586.000
88.17214 547.000
88.19209 530.000
88.21204 561.000
88.23198 566.000
88.25193 526.000
88.27188 508.000
88.29183 565.000
88.31177 486.000
88.33172 562.000
88.35167 512.000
88.37161 552.000
88.39156 575.000
88.41151 553.000
88.43145 523.000
88.45140 538.000
88.47135 557.000
88.49129 498.000
88.51124 534.000
88.53119 513.000
88.55114 497.000
88.57108 525.000
88.59103 537.000
88.61098 502.000
88.63092 550.000
88.65087 563.000
88.67082 509.000
88.69076 554.000
88.71071 513.000
88.73066 517.000
88.75061 521.000
88.77055 554.000
88.79050 493.000
88.81045 563.000
88.83039 549.000
88.85034 490.000
88.87029 549.000
88.89023 536.000
88.91018 546.000
88.93013 563.000
88.95007 505.000
88.97002 534.000
88.98997 539.000
89.00992 525.000
89.02986 586.000
89.04981 603.000
89.06976 632.000
89.08970 558.000
89.10965 521.000
89.12960 546.000
89.14954 585.000
89.16949 577.000
89.18944 588.000
89.20939 572.000
89.22933 542.000
89.24928 565.000
89.26923 513.000
89.28917 533.000
89.30912 544.000
89.32907 613.000
89.34901 514.000
89.36896 563.000
89.38891 566.000
89.40885 511.000
89.42880 600.000
89.44875 617.000
89.46870 565.000
89.48864 554.000
89.50859 579.000
89.52854 575.000
89.54848 577.000
89.56843 609.000
89.58838 570.000
89.60832 603.000
89.62827 577.000
89.64822 593.000
89.66817 593.000
89.68811 582.000
89.70806 558.000
89.72801 543.000
89.74795 551.000
89.76790 583.000
89.78785 578.000
89.80779 558.000
89.82774 539.000
89.84769 571.000
89.86764 534.000
89.88758 558.000
89.90753 575.000
89.92748 575.000
89.94742 540.000
89.96737 567.000
89.98732 563.000
90.00726 523.000
