10.00000 211.000
10.01995 198.000
10.03989 206.000
10.05984 183.000
10.07979 220.000
10.09973 212.000
10.11968 225.000
10.13963 203.000
10.15958 191.000
10.17952 201.000
10.19947 196.000
10.21942 204.000
10.23936 220.000
10.25931 186.000
10.27926 222.000
10.29920 195.000
10.31915 200.000
10.33910 223.000
10.35905 190.000
10.37899 232.000
10.39894 200.000
10.41889 216.000
10.43883 232.000
10.45878 210.000
10.47873 219.000
10.49867 236.000
10.51862 188.000
10.53857 231.000
10.55851 212.000
10.57846 215.000
10.59841 220.000
10.61836 224.000
10.63830 214.000
10.65825 177.000
10.67820 197.000
10.69814 208.000
10.71809 235.000
10.73804 195.000
10.75798 204.000
10.77793 196.000
10.79788 216.000
10.81783 200.000
10.83777 214.000
10.85772 232.000
10.87767 229.000
10.89761 184.000
10.91756 217.000
10.93751 229.000
10.95745 231.000
10.97740 215.000
10.99735 215.000
11.01730 210.000
11.03724 203.000
11.05719 237.000
11.07714 199.000
11.09708 214.000
11.11703 203.000
11.13698 231.000
11.15692 195.000
11.17687 219.000
11.19682 183.000
11.21676 197.000
11.23671 200.000
11.25666 235.000
11.27661 214.000
11.29655 201.000
11.31650 194.000
11.33645 207.000
11.35639 182.000
11.37634 252.000
11.39629 219.000
11.41623 212.000
11.43618 196.000
11.45613 214.000
11.47608 229.000
11.49602 236.000
11.51597 244.000
11.53592 227.000
11.55586 232.000
11.57581 216.000
11.59576 241.000
11.61570 201.000
11.63565 205.000
11.65560 203.000
11.67554 221.000
11.69549 227.000
11.71544 220.000
11.73539 221.000
11.75533 186.000
11.77528 220.000
11.79523 200.000
11.81517 239.000
11.83512 236.000
11.85507 192.000
11.87501 236.000
11.89496 207.000
11.91491 225.000
11.93486 232.000
11.95480 247.000
11.97475 215.000
11.99470 214.000
12.01464 231.000
12.03459 229.000
12.05454 249.000
12.07448 215.000
12.09443 223.000
12.11438 216.000
12.13432 221.000
12.15427 205.000
12.17422 205.000
12.19417 238.000
12.21411 219.000
12.23406 241.000
12.25401 227.000
12.27395 249.000
12.29390 226.000
12.31385 234.000
12.33379 195.000
12.35374 242.000
12.37369 219.000
12.39364 209.000
12.41358 206.000
12.43353 236.000
12.45348 228.000
12.47342 215.000
12.49337 243.000
12.51332 221.000
12.53326 258.000
12.55321 240.000
12.57316 230.000
12.59311 211.000
12.61305 245.000
12.63300 241.000
12.65295 225.000
12.67289 223.000
12.69284 235.000
12.71279 216.000
12.73273 223.000
12.75268 225.000
12.77263 243.000
12.79257 205.000
12.81252 245.000
12.83247 246.000
12.85242 226.000
12.87236 221.000
12.89231 208.000
12.91226 212.000
12.93220 211.000
12.95215 217.000
12.97210 193.000
12.99204 239.000
13.01199 235.000
13.03194 224.000
13.05189 210.000
13.07183 249.000
13.09178 249.000
13.11173 200.000
13.13167 213.000
13.15162 244.000
13.17157 213.000
13.19151 198.000
13.21146 227.000
13.23141 230.000
13.25135 241.000
13.27130 218.000
13.29125 223.000
13.31120 235.000
13.33114 243.000
13.35109 240.000
13.37104 217.000
13.39098 253.000
13.41093 203.000
13.43088 230.000
13.45082 214.000
13.47077 246.000
13.49072 231.000
13.51067 217.000
13.53061 224.000
13.55056 252.000
13.57051 252.000
13.59045 183.000
13.61040 201.000
13.63035 250.000
13.65029 210.000
13.67024 248.000
13.69019 208.000
13.71013 216.000
13.73008 216.000
13.75003 228.000
13.76998 250.000
13.78992 234.000
13.80987 230.000
13.82982 248.000
13.84976 217.000
13.86971 232.000
13.88966 224.000
13.90960 216.000
13.92955 220.000
13.94950 220.000
13.96945 210.000
13.98939 221.000
14.00934 243.000
14.02929 216.000
14.04923 222.000
14.06918 224.000
14.08913 209.000
14.10907 207.000
14.12902 244.000
14.14897 230.000
14.16892 229.000
14.18886 230.000
14.20881 212.000
14.22876 281.000
14.24870 222.000
14.26865 234.000
14.28860 220.000
14.30854 226.000
14.32849 210.000
14.34844 226.000
14.36838 214.000
14.38833 240.000
14.40828 227.000
14.42823 227.000
14.44817 234.000
14.46812 212.000
14.48807 248.000
14.50801 202.000
14.52796 231.000
14.54791 238.000
14.56785 217.000
14.58780 266.000
14.60775 236.000
14.62770 207.000
14.64764 190.000
14.66759 218.000
14.68754 244.000
14.70748 260.000
14.72743 219.000
14.74738 253.000
14.76732 221.000
14.78727 256.000
14.80722 210.000
14.82716 209.000
14.84711 218.000
14.86706 246.000
14.88701 243.000
14.90695 252.000
14.92690 222.000
14.94685 232.000
14.96679 221.000
14.98674 240.000
15.00669 228.000
15.02663 230.000
15.04658 243.000
15.06653 232.000
15.08648 255.000
15.10642 235.000
15.12637 211.000
15.14632 236.000
15.16626 240.000
15.18621 231.000
15.20616 243.000
15.22610 216.000
15.24605 218.000
15.26600 226.000
15.28594 222.000
15.30589 230.000
15.32584 227.000
15.34579 220.000
15.36573 214.000
15.38568 240.000
15.40563 246.000
15.42557 238.000
15.44552 222.000
15.46547 218.000
15.48541 230.000
15.50536 260.000
15.52531 235.000
15.54526 233.000
15.56520 263.000
15.58515 244.000
15.60510 221.000
15.62504 237.000
15.64499 267.000
15.66494 220.000
15.68488 208.000
15.70483 227.000
15.72478 242.000
15.74472 252.000
15.76467 214.000
15.78462 239.000
15.80457 209.000
15.82451 228.000
15.84446 236.000
15.86441 232.000
15.88435 219.000
15.90430 241.000
15.92425 231.000
15.94419 233.000
15.96414 226.000
15.98409 250.000
16.00404 220.000
16.02398 241.000
16.04393 243.000
16.06388 251.000
16.08382 216.000
16.10377 227.000
16.12372 232.000
16.14366 243.000
16.16361 232.000
16.18356 252.000
16.20351 229.000
16.22345 218.000
16.24340 237.000
16.26335 248.000
16.28329 249.000
16.30324 231.000
16.32319 249.000
16.34313 238.000
16.36308 231.000
16.38303 226.000
16.40297 245.000
16.42292 223.000
16.44287 221.000
16.46282 235.000
16.48276 234.000
16.50271 244.000
16.52266 235.000
16.54260 238.000
16.56255 217.000
16.58250 278.000
16.60244 245.000
16.62239 260.000
16.64234 264.000
16.66229 261.000
16.68223 222.000
16.70218 255.000
16.72213 237.000
16.74207 217.000
16.76202 244.000
16.78197 237.000
16.80191 249.000
16.82186 230.000
16.84181 230.000
16.86175 248.000
16.88170 225.000
16.90165 274.000
16.92160 243.000
16.94154 226.000
16.96149 261.000
16.98144 234.000
17.00138 231.000
17.02133 245.000
17.04128 234.000
17.06122 227.000
17.08117 216.000
17.10112 244.000
17.12107 255.000
17.14101 242.000
17.16096 255.000
17.18091 221.000
17.20085 227.000
17.22080 244.000
17.24075 226.000
17.26069 227.000
17.28064 241.000
17.30059 236.000
17.32053 228.000
17.34048 242.000
17.36043 215.000
17.38038 235.000
17.40032 236.000
17.42027 244.000
17.44022 272.000
17.46016 217.000
17.48011 245.000
17.50006 252.000
17.52000 235.000
17.53995 238.000
17.55990 236.000
17.57985 236.000
17.59979 256.000
17.61974 254.000
17.63969 239.000
17.65963 233.000
17.67958 229.000
17.69953 261.000
17.71947 229.000
17.73942 259.000
17.75937 240.000
17.77932 213.000
17.79926 266.000
17.81921 248.000
17.83916 232.000
17.85910 255.000
17.87905 247.000
17.89900 207.000
17.91894 235.000
17.93889 226.000
17.95884 225.000
17.97878 228.000
17.99873 230.000
18.01868 244.000
18.03863 241.000
18.05857 249.000
18.07852 246.000
18.09847 249.000
18.11841 244.000
18.13836 283.000
18.15831 284.000
18.17825 282.000
18.19820 306.000
18.21815 296.000
18.23810 293.000
18.25804 303.000
18.27799 268.000
18.29794 312.000
18.31788 207.000
18.33783 290.000
18.35778 244.000
18.37772 275.000
18.39767 262.000
18.41762 241.000
18.43756 225.000
18.45751 237.000
18.47746 214.000
18.49741 261.000
18.51735 226.000
18.53730 234.000
18.55725 222.000
18.57719 234.000
18.59714 242.000
18.61709 226.000
18.63703 241.000
18.65698 257.000
18.67693 261.000
18.69688 232.000
18.71682 221.000
18.73677 242.000
18.75672 256.000
18.77666 246.000
18.79661 240.000
18.81656 228.000
18.83650 246.000
18.85645 235.000
18.87640 240.000
18.89634 270.000
18.91629 234.000
18.93624 230.000
18.95619 231.000
18.97613 216.000
18.99608 240.000
19.01603 254.000
19.03597 234.000
19.05592 277.000
19.07587 229.000
19.09581 229.000
19.11576 249.000
19.13571 225.000
19.15566 249.000
19.17560 224.000
19.19555 259.000
19.21550 225.000
19.23544 226.000
19.25539 242.000
19.27534 247.000
19.29528 243.000
19.31523 256.000
19.33518 260.000
19.35513 250.000
19.37507 252.000
19.39502 227.000
19.41497 259.000
19.43491 257.000
19.45486 256.000
19.47481 242.000
19.49475 249.000
19.51470 236.000
19.53465 287.000
19.55459 259.000
19.57454 274.000
19.59449 254.000
19.61444 268.000
19.63438 253.000
19.65433 243.000
19.67428 264.000
19.69422 260.000
19.71417 252.000
19.73412 279.000
19.75406 256.000
19.77401 258.000
19.79396 293.000
19.81391 330.000
19.83385 395.000
19.85380 450.000
19.87375 495.000
19.89369 577.000
19.91364 624.000
19.93359 595.000
19.95353 554.000
19.97348 515.000
19.99343 407.000
20.01337 378.000
20.03332 360.000
20.05327 302.000
20.07322 343.000
20.09316 343.000
20.11311 317.000
20.13306 314.000
20.15300 335.000
20.17295 303.000
20.19290 265.000
20.21284 284.000
20.23279 281.000
20.25274 333.000
20.27269 339.000
20.29263 382.000
20.31258 398.000
20.33253 473.000
20.35247 517.000
20.37242 653.000
20.39237 696.000
20.41231 844.000
20.43226 879.000
20.45221 974.000
20.47215 1042.000
20.49210 1025.000
20.51205 1092.000
20.53200 1071.000
20.55194 1144.000
20.57189 1145.000
20.59184 996.000
20.61178 968.000
20.63173 845.000
20.65168 705.000
20.67162 577.000
20.69157 566.000
20.71152 508.000
20.73147 459.000
20.75141 447.000
20.77136 392.000
20.79131 386.000
20.81125 361.000
20.83120 362.000
20.85115 358.000
20.87109 341.000
20.89104 326.000
20.91099 327.000
20.93094 353.000
20.95088 328.000
20.97083 286.000
20.99078 283.000
21.01072 333.000
21.03067 302.000
21.05062 255.000
21.07056 283.000
21.09051 243.000
21.11046 247.000
21.13040 259.000
21.15035 222.000
21.17030 264.000
21.19025 236.000
21.21019 252.000
21.23014 241.000
21.25009 268.000
21.27003 239.000
21.28998 253.000
21.30993 238.000
21.32987 222.000
21.34982 234.000
21.36977 255.000
21.38972 260.000
21.40966 227.000
21.42961 246.000
21.44956 256.000
21.46950 263.000
21.48945 257.000
21.50940 249.000
21.52934 245.000
21.54929 249.000
21.56924 297.000
21.58918 231.000
21.60913 240.000
21.62908 254.000
21.64903 243.000
21.66897 235.000
21.68892 260.000
21.70887 222.000
21.72881 255.000
21.74876 262.000
21.76871 250.000
21.78865 236.000
21.80860 258.000
21.82855 272.000
21.84850 245.000
21.86844 231.000
21.88839 251.000
21.90834 270.000
21.92828 240.000
21.94823 260.000
21.96818 229.000
21.98812 269.000
22.00807 240.000
22.02802 242.000
22.04796 239.000
22.06791 243.000
22.08786 260.000
22.10781 238.000
22.12775 242.000
22.14770 245.000
22.16765 248.000
22.18759 247.000
22.20754 237.000
22.22749 264.000
22.24743 233.000
22.26738 243.000
22.28733 244.000
22.30728 262.000
22.32722 232.000
22.34717 255.000
22.36712 238.000
22.38706 244.000
22.40701 238.000
22.42696 238.000
22.44690 254.000
22.46685 240.000
22.48680 255.000
22.50675 244.000
22.52669 257.000
22.54664 251.000
22.56659 239.000
22.58653 256.000
22.60648 246.000
22.62643 248.000
22.64637 245.000
22.66632 232.000
22.68627 229.000
22.70621 247.000
22.72616 212.000
22.74611 232.000
22.76606 237.000
22.78600 241.000
22.80595 252.000
22.82590 248.000
22.84584 284.000
22.86579 254.000
22.88574 245.000
22.90568 232.000
22.92563 240.000
22.94558 261.000
22.96553 253.000
22.98547 255.000
23.00542 251.000
23.02537 228.000
23.04531 258.000
23.06526 253.000
23.08521 240.000
23.10515 245.000
23.12510 260.000
23.14505 270.000
23.16499 277.000
23.18494 223.000
23.20489 246.000
23.22484 254.000
23.24478 250.000
23.26473 234.000
23.28468 273.000
23.30462 240.000
23.32457 255.000
23.34452 256.000
23.36446 249.000
23.38441 256.000
23.40436 265.000
23.42431 235.000
23.44425 249.000
23.46420 269.000
23.48415 269.000
23.50409 242.000
23.52404 260.000
23.54399 238.000
23.56393 255.000
23.58388 253.000
23.60383 269.000
23.62377 262.000
23.64372 258.000
23.66367 265.000
23.68362 249.000
23.70356 262.000
23.72351 256.000
23.74346 227.000
23.76340 237.000
23.78335 279.000
23.80330 248.000
23.82324 266.000
23.84319 255.000
23.86314 263.000
23.88309 257.000
23.90303 238.000
23.92298 261.000
23.94293 259.000
23.96287 254.000
23.98282 263.000
24.00277 251.000
24.02271 250.000
24.04266 258.000
24.06261 273.000
24.08256 240.000
24.10250 220.000
24.12245 250.000
24.14240 296.000
24.16234 249.000
24.18229 242.000
24.20224 253.000
24.22218 225.000
24.24213 235.000
24.26208 243.000
24.28202 299.000
24.30197 264.000
24.32192 249.000
24.34187 271.000
24.36181 256.000
24.38176 257.000
24.40171 259.000
24.42165 258.000
24.44160 267.000
24.46155 241.000
24.48149 247.000
24.50144 252.000
24.52139 274.000
24.54134 308.000
24.56128 260.000
24.58123 282.000
24.60118 278.000
24.62112 304.000
24.64107 294.000
24.66102 272.000
24.68096 247.000
24.70091 300.000
24.72086 299.000
24.74080 247.000
24.76075 252.000
24.78070 264.000
24.80065 260.000
24.82059 267.000
24.84054 294.000
24.86049 263.000
24.88043 241.000
24.90038 273.000
24.92033 268.000
24.94027 270.000
24.96022 219.000
24.98017 276.000
25.00012 233.000
25.02006 262.000
25.04001 262.000
25.05996 271.000
25.07990 254.000
25.09985 265.000
25.11980 257.000
25.13974 291.000
25.15969 256.000
25.17964 279.000
25.19958 251.000
25.21953 271.000
25.23948 265.000
25.25943 247.000
25.27937 243.000
25.29932 231.000
25.31927 269.000
25.33921 276.000
25.35916 255.000
25.37911 285.000
25.39905 258.000
25.41900 253.000
25.43895 255.000
25.45890 263.000
25.47884 272.000
25.49879 263.000
25.51874 258.000
25.53868 263.000
25.55863 268.000
25.57858 252.000
25.59852 279.000
25.61847 275.000
25.63842 265.000
25.65837 264.000
25.67831 262.000
25.69826 295.000
25.71821 248.000
25.73815 285.000
25.75810 279.000
25.77805 273.000
25.79799 297.000
25.81794 288.000
25.83789 311.000
25.85783 296.000
25.87778 337.000
25.89773 313.000
25.91768 323.000
25.93762 370.000
25.95757 372.000
25.97752 382.000
25.99746 300.000
26.01741 309.000
26.03736 285.000
26.05730 300.000
26.07725 295.000
26.09720 289.000
26.11715 277.000
26.13709 296.000
26.15704 291.000
26.17699 288.000
26.19693 246.000
26.21688 247.000
26.23683 296.000
26.25677 247.000
26.27672 266.000
26.29667 282.000
26.31661 275.000
26.33656 266.000
26.35651 283.000
26.37646 294.000
26.39640 273.000
26.41635 281.000
26.43630 252.000
26.45624 277.000
26.47619 291.000
26.49614 265.000
26.51608 284.000
26.53603 282.000
26.55598 289.000
26.57593 270.000
26.59587 276.000
26.61582 257.000
26.63577 284.000
26.65571 302.000
26.67566 260.000
26.69561 259.000
26.71555 262.000
26.73550 286.000
26.75545 258.000
26.77539 271.000
26.79534 264.000
26.81529 287.000
26.83524 274.000
26.85518 278.000
26.87513 277.000
26.89508 268.000
26.91502 267.000
26.93497 253.000
26.95492 266.000
26.97486 291.000
26.99481 285.000
27.01476 259.000
27.03471 268.000
27.05465 293.000
27.07460 297.000
27.09455 261.000
27.11449 275.000
27.13444 279.000
27.15439 268.000
27.17433 301.000
27.19428 245.000
27.21423 241.000
27.23417 280.000
27.25412 291.000
27.27407 283.000
27.29402 305.000
27.31396 249.000
27.33391 286.000
27.35386 302.000
27.37380 253.000
27.39375 254.000
27.41370 300.000
27.43364 267.000
27.45359 315.000
27.47354 260.000
27.49349 272.000
27.51343 248.000
27.53338 233.000
27.55333 294.000
27.57327 296.000
27.59322 306.000
27.61317 279.000
27.63311 273.000
27.65306 275.000
27.67301 241.000
27.69296 255.000
27.71290 291.000
27.73285 265.000
27.75280 279.000
27.77274 270.000
27.79269 284.000
27.81264 276.000
27.83258 258.000
27.85253 291.000
27.87248 288.000
27.89242 262.000
27.91237 257.000
27.93232 262.000
27.95227 273.000
27.97221 276.000
27.99216 299.000
28.01211 269.000
28.03205 284.000
28.05200 270.000
28.07195 292.000
28.09189 316.000
28.11184 297.000
28.13179 303.000
28.15174 274.000
28.17168 296.000
28.19163 284.000
28.21158 301.000
28.23152 282.000
28.25147 263.000
28.27142 267.000
28.29136 292.000
28.31131 281.000
28.33126 274.000
28.35120 279.000
28.37115 260.000
28.39110 300.000
28.41105 290.000
28.43099 289.000
28.45094 257.000
28.47089 289.000
28.49083 274.000
28.51078 286.000
28.53073 270.000
28.55067 293.000
28.57062 284.000
28.59057 305.000
28.61052 289.000
28.63046 280.000
28.65041 263.000
28.67036 276.000
28.69030 272.000
28.71025 283.000
28.73020 267.000
28.75014 283.000
28.77009 274.000
28.79004 310.000
28.80998 278.000
28.82993 292.000
28.84988 271.000
28.86983 273.000
28.88977 316.000
28.90972 292.000
28.92967 270.000
28.94961 340.000
28.96956 293.000
28.98951 280.000
29.00945 285.000
29.02940 293.000
29.04935 282.000
29.06930 297.000
29.08924 279.000
29.10919 305.000
29.12914 284.000
29.14908 273.000
29.16903 310.000
29.18898 295.000
29.20892 287.000
29.22887 321.000
29.24882 296.000
29.26877 318.000
29.28871 319.000
29.30866 324.000
29.32861 318.000
29.34855 358.000
29.36850 408.000
29.38845 461.000
29.40839 526.000
29.42834 558.000
29.44829 593.000
29.46823 678.000
29.48818 667.000
29.50813 598.000
29.52808 538.000
29.54802 487.000
29.56797 430.000
29.58792 416.000
29.60786 407.000
29.62781 362.000
29.64776 323.000
29.66770 332.000
29.68765 326.000
29.70760 332.000
29.72755 298.000
29.74749 312.000
29.76744 339.000
29.78739 352.000
29.80733 359.000
29.82728 337.000
29.84723 363.000
29.86717 336.000
29.88712 361.000
29.90707 344.000
29.92701 388.000
29.94696 446.000
29.96691 410.000
29.98686 420.000
30.00680 454.000
30.02675 475.000
30.04670 377.000
30.06664 401.000
30.08659 413.000
30.10654 380.000
30.12648 316.000
30.14643 298.000
30.16638 294.000
30.18633 303.000
30.20627 286.000
30.22622 288.000
30.24617 254.000
30.26611 283.000
30.28606 316.000
30.30601 285.000
30.32595 333.000
30.34590 287.000
30.36585 301.000
30.38579 292.000
30.40574 294.000
30.42569 327.000
30.44564 316.000
30.46558 289.000
30.48553 316.000
30.50548 288.000
30.52542 324.000
30.54537 281.000
30.56532 299.000
30.58526 321.000
30.60521 298.000
30.62516 272.000
30.64511 356.000
30.66505 308.000
30.68500 295.000
30.70495 308.000
30.72489 319.000
30.74484 301.000
30.76479 316.000
30.78473 302.000
30.80468 297.000
30.82463 296.000
30.84458 288.000
30.86452 311.000
30.88447 308.000
30.90442 312.000
30.92436 318.000
30.94431 317.000
30.96426 296.000
30.98420 296.000
31.00415 273.000
31.02410 303.000
31.04404 277.000
31.06399 315.000
31.08394 301.000
31.10389 245.000
31.12383 314.000
31.14378 305.000
31.16373 295.000
31.18367 298.000
31.20362 319.000
31.22357 295.000
31.24351 314.000
31.26346 300.000
31.28341 304.000
31.30336 315.000
31.32330 313.000
31.34325 308.000
31.36320 310.000
31.38314 389.000
31.40309 399.000
31.42304 398.000
31.44298 467.000
31.46293 446.000
31.48288 488.000
31.50282 476.000
31.52277 497.000
31.54272 452.000
31.56267 448.000
31.58261 407.000
31.60256 425.000
31.62251 380.000
31.64245 333.000
31.66240 344.000
31.68235 336.000
31.70229 302.000
31.72224 353.000
31.74219 314.000
31.76214 334.000
31.78208 296.000
31.80203 288.000
31.82198 286.000
31.84192 294.000
31.86187 330.000
31.88182 292.000
31.90176 311.000
31.92171 307.000
31.94166 300.000
31.96160 321.000
31.98155 310.000
32.00150 297.000
32.02145 315.000
32.04139 306.000
32.06134 276.000
32.08129 284.000
32.10123 315.000
32.12118 295.000
32.14113 299.000
32.16107 307.000
32.18102 328.000
32.20097 349.000
32.22092 290.000
32.24086 293.000
32.26081 298.000
32.28076 301.000
32.30070 316.000
32.32065 322.000
32.34060 331.000
32.36054 365.000
32.38049 378.000
32.40044 377.000
32.42039 410.000
32.44033 451.000
32.46028 447.000
32.48023 503.000
32.50017 473.000
32.52012 471.000
32.54007 425.000
32.56001 411.000
32.57996 391.000
32.59991 362.000
32.61985 356.000
32.63980 284.000
32.65975 337.000
32.67970 307.000
32.69964 267.000
32.71959 321.000
32.73954 308.000
32.75948 295.000
32.77943 295.000
32.79938 319.000
32.81932 279.000
32.83927 307.000
32.85922 282.000
32.87917 307.000
32.89911 331.000
32.91906 306.000
32.93901 303.000
32.95895 333.000
32.97890 331.000
32.99885 363.000
33.01879 351.000
33.03874 361.000
33.05869 410.000
33.07863 457.000
33.09858 474.000
33.11853 498.000
33.13848 587.000
33.15842 680.000
33.17837 695.000
33.19832 787.000
33.21826 789.000
33.23821 776.000
33.25816 736.000
33.27810 675.000
33.29805 686.000
33.31800 563.000
33.33795 544.000
33.35789 543.000
33.37784 507.000
33.39779 468.000
33.41773 503.000
33.43768 452.000
33.45763 468.000
33.47757 449.000
33.49752 431.000
33.51747 464.000
33.53741 441.000
33.55736 450.000
33.57731 478.000
33.59726 465.000
33.61720 499.000
33.63715 460.000
33.65710 520.000
33.67704 598.000
33.69699 587.000
33.71694 631.000
33.73688 642.000
33.75683 739.000
33.77678 773.000
33.79673 798.000
33.81667 821.000
33.83662 906.000
33.85657 1003.000
33.87651 1167.000
33.89646 1207.000
33.91641 1267.000
33.93635 1298.000
33.95630 1230.000
33.97625 1148.000
33.99620 1014.000
34.01614 996.000
34.03609 921.000
34.05604 791.000
34.07598 751.000
34.09593 694.000
34.11588 649.000
34.13582 598.000
34.15577 580.000
34.17572 566.000
34.19566 510.000
34.21561 462.000
34.23556 485.000
34.25551 462.000
34.27545 425.000
34.29540 432.000
34.31535 424.000
34.33529 367.000
34.35524 374.000
34.37519 374.000
34.39513 341.000
34.41508 356.000
34.43503 368.000
34.45498 342.000
34.47492 374.000
34.49487 354.000
34.51482 317.000
34.53476 329.000
34.55471 328.000
34.57466 339.000
34.59460 325.000
34.61455 340.000
34.63450 318.000
34.65444 305.000
34.67439 292.000
34.69434 365.000
34.71429 341.000
34.73423 304.000
34.75418 329.000
34.77413 329.000
34.79407 336.000
34.81402 321.000
34.83397 322.000
34.85391 340.000
34.87386 338.000
34.89381 330.000
34.91376 396.000
34.93370 370.000
34.95365 405.000
34.97360 385.000
34.99354 393.000
35.01349 398.000
35.03344 365.000
35.05338 398.000
35.07333 382.000
35.09328 421.000
35.11322 436.000
35.13317 483.000
35.15312 489.000
35.17307 546.000
35.19301 568.000
35.21296 578.000
35.23291 654.000
35.25285 811.000
35.27280 874.000
35.29275 1027.000
35.31269 1132.000
35.33264 1361.000
35.35259 1497.000
35.37254 1666.000
35.39248 1716.000
35.41243 1895.000
35.43238 1988.000
35.45232 2108.000
35.47227 2294.000
35.49222 2264.000
35.51216 2057.000
35.53211 1975.000
35.55206 1754.000
35.57201 1518.000
35.59195 1307.000
35.61190 1093.000
35.63185 949.000
35.65179 836.000
35.67174 719.000
35.69169 613.000
35.71163 585.000
35.73158 535.000
35.75153 478.000
35.77147 450.000
35.79142 440.000
35.81137 391.000
35.83132 401.000
35.85126 423.000
35.87121 406.000
35.89116 358.000
35.91110 321.000
35.93105 341.000
35.95100 363.000
35.97094 327.000
35.99089 333.000
36.01084 329.000
36.03079 349.000
36.05073 333.000
36.07068 296.000
36.09063 277.000
36.11057 321.000
36.13052 326.000
36.15047 266.000
36.17041 314.000
36.19036 295.000
36.21031 365.000
36.23025 297.000
36.25020 301.000
36.27015 289.000
36.29010 294.000
36.31004 293.000
36.32999 289.000
36.34994 319.000
36.36988 301.000
36.38983 281.000
36.40978 295.000
36.42972 279.000
36.44967 277.000
36.46962 300.000
36.48957 301.000
36.50951 324.000
36.52946 292.000
36.54941 290.000
36.56935 246.000
36.58930 278.000
36.60925 267.000
36.62919 300.000
36.64914 265.000
36.66909 295.000
36.68903 284.000
36.70898 286.000
36.72893 283.000
36.74888 290.000
36.76882 291.000
36.78877 266.000
36.80872 304.000
36.82866 285.000
36.84861 286.000
36.86856 282.000
36.88850 287.000
36.90845 314.000
36.92840 337.000
36.94835 352.000
36.96829 326.000
36.98824 297.000
37.00819 336.000
37.02813 297.000
37.04808 306.000
37.06803 311.000
37.08797 329.000
37.10792 327.000
37.12787 298.000
37.14781 287.000
37.16776 305.000
37.18771 268.000
37.20766 309.000
37.22760 277.000
37.24755 248.000
37.26750 290.000
37.28744 317.000
37.30739 260.000
37.32734 276.000
37.34728 314.000
37.36723 272.000
37.38718 263.000
37.40713 255.000
37.42707 268.000
37.44702 293.000
37.46697 280.000
37.48691 253.000
37.50686 301.000
37.52681 276.000
37.54675 275.000
37.56670 275.000
37.58665 274.000
37.60660 266.000
37.62654 285.000
37.64649 301.000
37.66644 311.000
37.68638 306.000
37.70633 282.000
37.72628 298.000
37.74622 260.000
37.76617 282.000
37.78612 295.000
37.80606 303.000
37.82601 307.000
37.84596 337.000
37.86591 321.000
37.88585 295.000
37.90580 315.000
37.92575 319.000
37.94569 348.000
37.96564 337.000
37.98559 332.000
38.00553 343.000
38.02548 308.000
38.04543 303.000
38.06538 333.000
38.08532 327.000
38.10527 302.000
38.12522 372.000
38.14516 337.000
38.16511 329.000
38.18506 332.000
38.20500 329.000
38.22495 343.000
38.24490 367.000
38.26484 374.000
38.28479 377.000
38.30474 392.000
38.32469 399.000
38.34463 392.000
38.36458 373.000
38.38453 416.000
38.40447 413.000
38.42442 464.000
38.44437 449.000
38.46431 490.000
38.48426 486.000
38.50421 621.000
38.52416 658.000
38.54410 814.000
38.56405 844.000
38.58400 1091.000
38.60394 1295.000
38.62389 1486.000
38.64384 1704.000
38.66378 1797.000
38.68373 1948.000
38.70368 1961.000
38.72362 1874.000
38.74357 1728.000
38.76352 1637.000
38.78347 1577.000
38.80341 1381.000
38.82336 1279.000
38.84331 1211.000
38.86325 1144.000
38.88320 961.000
38.90315 803.000
38.92309 802.000
38.94304 709.000
38.96299 654.000
38.98294 557.000
39.00288 478.000
39.02283 485.000
39.04278 475.000
39.06272 394.000
39.08267 388.000
39.10262 350.000
39.12256 341.000
39.14251 319.000
39.16246 345.000
39.18241 335.000
39.20235 334.000
39.22230 323.000
39.24225 326.000
39.26219 307.000
39.28214 269.000
39.30209 310.000
39.32203 285.000
39.34198 327.000
39.36193 296.000
39.38187 342.000
39.40182 287.000
39.42177 297.000
39.44172 282.000
39.46166 318.000
39.48161 328.000
39.50156 255.000
39.52150 292.000
39.54145 283.000
39.56140 282.000
39.58134 253.000
39.60129 325.000
39.62124 288.000
39.64119 291.000
39.66113 276.000
39.68108 288.000
39.70103 257.000
39.72097 320.000
39.74092 275.000
39.76087 298.000
39.78081 317.000
39.80076 281.000
39.82071 277.000
39.84065 301.000
39.86060 286.000
39.88055 295.000
39.90050 265.000
39.92044 303.000
39.94039 281.000
39.96034 297.000
39.98028 281.000
40.00023 310.000
40.02018 261.000
40.04012 282.000
40.06007 277.000
40.08002 287.000
40.09997 314.000
40.11991 279.000
40.13986 296.000
40.15981 281.000
40.17975 300.000
40.19970 283.000
40.21965 301.000
40.23959 248.000
40.25954 269.000
40.27949 279.000
40.29943 289.000
40.31938 277.000
40.33933 271.000
40.35928 265.000
40.37922 313.000
40.39917 280.000
40.41912 297.000
40.43906 280.000
40.45901 289.000
40.47896 253.000
40.49890 286.000
40.51885 237.000
40.53880 232.000
40.55875 285.000
40.57869 257.000
40.59864 255.000
40.61859 240.000
40.63853 277.000
40.65848 286.000
40.67843 270.000
40.69837 247.000
40.71832 263.000
40.73827 271.000
40.75822 288.000
40.77816 254.000
40.79811 291.000
40.81806 317.000
40.83800 254.000
40.85795 256.000
40.87790 242.000
40.89784 271.000
40.91779 270.000
40.93774 283.000
40.95768 245.000
40.97763 278.000
40.99758 263.000
41.01753 226.000
41.03747 265.000
41.05742 263.000
41.07737 292.000
41.09731 294.000
41.11726 304.000
41.13721 270.000
41.15715 270.000
41.17710 270.000
41.19705 255.000
41.21700 307.000
41.23694 287.000
41.25689 254.000
41.27684 277.000
41.29678 289.000
41.31673 286.000
41.33668 269.000
41.35662 287.000
41.37657 291.000
41.39652 304.000
41.41646 281.000
41.43641 262.000
41.45636 264.000
41.47631 286.000
41.49625 248.000
41.51620 279.000
41.53615 227.000
41.55609 284.000
41.57604 260.000
41.59599 287.000
41.61593 282.000
41.63588 278.000
41.65583 272.000
41.67578 268.000
41.69572 241.000
41.71567 295.000
41.73562 290.000
41.75556 282.000
41.77551 287.000
41.79546 311.000
41.81540 262.000
41.83535 314.000
41.85530 305.000
41.87524 280.000
41.89519 272.000
41.91514 268.000
41.93509 318.000
41.95503 266.000
41.97498 278.000
41.99493 260.000
42.01487 269.000
42.03482 279.000
42.05477 293.000
42.07471 256.000
42.09466 277.000
42.11461 301.000
42.13456 314.000
42.15450 271.000
42.17445 244.000
42.19440 287.000
42.21434 301.000
42.23429 249.000
42.25424 302.000
42.27418 259.000
42.29413 304.000
42.31408 276.000
42.33403 269.000
42.35397 313.000
42.37392 272.000
42.39387 249.000
42.41381 251.000
42.43376 273.000
42.45371 291.000
42.47365 267.000
42.49360 285.000
42.51355 323.000
42.53349 280.000
42.55344 291.000
42.57339 257.000
42.59334 240.000
42.61328 276.000
42.63323 263.000
42.65318 284.000
42.67312 315.000
42.69307 266.000
42.71302 286.000
42.73296 291.000
42.75291 316.000
42.77286 279.000
42.79281 326.000
42.81275 300.000
42.83270 254.000
42.85265 305.000
42.87259 292.000
42.89254 300.000
42.91249 304.000
42.93243 326.000
42.95238 310.000
42.97233 335.000
42.99227 303.000
43.01222 325.000
43.03217 323.000
43.05212 304.000
43.07206 304.000
43.09201 286.000
43.11196 326.000
43.13190 280.000
43.15185 305.000
43.17180 291.000
43.19174 291.000
43.21169 265.000
43.23164 266.000
43.25159 271.000
43.27153 325.000
43.29148 286.000
43.31143 261.000
43.33137 266.000
43.35132 279.000
43.37127 257.000
43.39121 313.000
43.41116 266.000
43.43111 258.000
43.45105 257.000
43.47100 262.000
43.49095 282.000
43.51090 235.000
43.53084 254.000
43.55079 270.000
43.57074 235.000
43.59068 255.000
43.61063 272.000
43.63058 295.000
43.65052 266.000
43.67047 251.000
43.69042 258.000
43.71037 273.000
43.73031 277.000
43.75026 265.000
43.77021 242.000
43.79015 263.000
43.81010 244.000
43.83005 293.000
43.84999 251.000
43.86994 244.000
43.88989 279.000
43.90984 274.000
43.92978 258.000
43.94973 298.000
43.96968 268.000
43.98962 259.000
44.00957 261.000
44.02952 246.000
44.04946 258.000
44.06941 267.000
44.08936 260.000
44.10930 274.000
44.12925 258.000
44.14920 218.000
44.16915 282.000
44.18909 251.000
44.20904 264.000
44.22899 262.000
44.24893 244.000
44.26888 230.000
44.28883 259.000
44.30877 299.000
44.32872 274.000
44.34867 290.000
44.36862 284.000
44.38856 256.000
44.40851 273.000
44.42846 282.000
44.44840 293.000
44.46835 308.000
44.48830 309.000
44.50824 256.000
44.52819 294.000
44.54814 297.000
44.56808 269.000
44.58803 267.000
44.60798 281.000
44.62793 270.000
44.64787 270.000
44.66782 242.000
44.68777 278.000
44.70771 271.000
44.72766 282.000
44.74761 286.000
44.76755 255.000
44.78750 259.000
44.80745 246.000
44.82740 233.000
44.84734 277.000
44.86729 270.000
44.88724 299.000
44.90718 334.000
44.92713 325.000
44.94708 324.000
44.96702 358.000
44.98697 369.000
45.00692 348.000
45.02686 365.000
45.04681 367.000
45.06676 363.000
45.08671 302.000
45.10665 334.000
45.12660 303.000
45.14655 312.000
45.16649 288.000
45.18644 293.000
45.20639 283.000
45.22633 281.000
45.24628 265.000
45.26623 248.000
45.28618 292.000
45.30612 240.000
45.32607 255.000
45.34602 275.000
45.36596 268.000
45.38591 251.000
45.40586 241.000
45.42580 244.000
45.44575 254.000
45.46570 236.000
45.48565 282.000
45.50559 256.000
45.52554 221.000
45.54549 259.000
45.56543 264.000
45.58538 291.000
45.60533 240.000
45.62527 270.000
45.64522 267.000
45.66517 244.000
45.68511 273.000
45.70506 296.000
45.72501 240.000
45.74496 272.000
45.76490 283.000
45.78485 251.000
45.80480 255.000
45.82474 256.000
45.84469 328.000
45.86464 265.000
45.88458 257.000
45.90453 242.000
45.92448 256.000
45.94443 265.000
45.96437 262.000
45.98432 262.000
46.00427 272.000
46.02421 272.000
46.04416 266.000
46.06411 300.000
46.08405 258.000
46.10400 277.000
46.12395 281.000
46.14389 298.000
46.16384 287.000
46.18379 275.000
46.20374 285.000
46.22368 288.000
46.24363 346.000
46.26358 329.000
46.28352 293.000
46.30347 286.000
46.32342 304.000
46.34336 292.000
46.36331 312.000
46.38326 286.000
46.40321 328.000
46.42315 305.000
46.44310 336.000
46.46305 312.000
46.48299 353.000
46.50294 339.000
46.52289 314.000
46.54283 311.000
46.56278 289.000
46.58273 281.000
46.60267 265.000
46.62262 277.000
46.64257 269.000
46.66252 266.000
46.68246 268.000
46.70241 277.000
46.72236 262.000
46.74230 273.000
46.76225 298.000
46.78220 262.000
46.80214 274.000
46.82209 283.000
46.84204 275.000
46.86199 266.000
46.88193 257.000
46.90188 272.000
46.92183 257.000
46.94177 283.000
46.96172 268.000
46.98167 280.000
47.00161 285.000
47.02156 237.000
47.04151 262.000
47.06146 257.000
47.08140 267.000
47.10135 248.000
47.12130 271.000
47.14124 273.000
47.16119 252.000
47.18114 249.000
47.20108 268.000
47.22103 262.000
47.24098 241.000
47.26092 247.000
47.28087 280.000
47.30082 277.000
47.32077 276.000
47.34071 245.000
47.36066 260.000
47.38061 271.000
47.40055 255.000
47.42050 251.000
47.44045 277.000
47.46039 256.000
47.48034 278.000
47.50029 259.000
47.52024 271.000
47.54018 255.000
47.56013 233.000
47.58008 249.000
47.60002 225.000
47.61997 268.000
47.63992 299.000
47.65986 285.000
47.67981 254.000
47.69976 276.000
47.71970 262.000
47.73965 254.000
47.75960 277.000
47.77955 248.000
47.79949 258.000
47.81944 277.000
47.83939 265.000
47.85933 278.000
47.87928 243.000
47.89923 270.000
47.91917 260.000
47.93912 299.000
47.95907 275.000
47.97902 326.000
47.99896 280.000
48.01891 281.000
48.03886 270.000
48.05880 258.000
48.07875 285.000
48.09870 273.000
48.11864 260.000
48.13859 285.000
48.15854 294.000
48.17848 315.000
48.19843 255.000
48.21838 285.000
48.23833 294.000
48.25827 320.000
48.27822 312.000
48.29817 313.000
48.31811 302.000
48.33806 322.000
48.35801 345.000
48.37795 322.000
48.39790 291.000
48.41785 380.000
48.43780 363.000
48.45774 351.000
48.47769 376.000
48.49764 380.000
48.51758 371.000
48.53753 478.000
48.55748 458.000
48.57742 503.000
48.59737 546.000
48.61732 649.000
48.63726 652.000
48.65721 712.000
48.67716 709.000
48.69711 709.000
48.71705 659.000
48.73700 663.000
48.75695 585.000
48.77689 597.000
48.79684 539.000
48.81679 525.000
48.83673 465.000
48.85668 422.000
48.87663 425.000
48.89658 360.000
48.91652 412.000
48.93647 360.000
48.95642 331.000
48.97636 299.000
48.99631 303.000
49.01626 306.000
49.03620 291.000
49.05615 331.000
49.07610 313.000
49.09605 294.000
49.11599 281.000
49.13594 263.000
49.15589 298.000
49.17583 289.000
49.19578 260.000
49.21573 271.000
49.23567 249.000
49.25562 253.000
49.27557 271.000
49.29551 284.000
49.31546 263.000
49.33541 246.000
49.35536 288.000
49.37530 284.000
49.39525 241.000
49.41520 246.000
49.43514 271.000
49.45509 272.000
49.47504 271.000
49.49498 272.000
49.51493 283.000
49.53488 270.000
49.55483 252.000
49.57477 277.000
49.59472 251.000
49.61467 308.000
49.63461 253.000
49.65456 280.000
49.67451 312.000
49.69445 286.000
49.71440 281.000
49.73435 277.000
49.75429 299.000
49.77424 292.000
49.79419 312.000
49.81414 293.000
49.83408 290.000
49.85403 297.000
49.87398 301.000
49.89392 330.000
49.91387 282.000
49.93382 301.000
49.95376 269.000
49.97371 286.000
49.99366 319.000
50.01361 275.000
50.03355 249.000
50.05350 298.000
50.07345 278.000
50.09339 267.000
50.11334 286.000
50.13329 285.000
50.15323 256.000
50.17318 247.000
50.19313 259.000
50.21307 241.000
50.23302 267.000
50.25297 267.000
50.27292 278.000
50.29286 271.000
50.31281 273.000
50.33276 280.000
50.35270 251.000
50.37265 277.000
50.39260 277.000
50.41254 260.000
50.43249 278.000
50.45244 231.000
50.47239 265.000
50.49233 282.000
50.51228 273.000
50.53223 268.000
50.55217 257.000
50.57212 290.000
50.59207 279.000
50.61201 273.000
50.63196 268.000
50.65191 280.000
50.67186 294.000
50.69180 297.000
50.71175 284.000
50.73170 266.000
50.75164 254.000
50.77159 267.000
50.79154 275.000
50.81148 276.000
50.83143 259.000
50.85138 331.000
50.87132 308.000
50.89127 296.000
50.91122 330.000
50.93117 306.000
50.95111 289.000
50.97106 312.000
50.99101 300.000
51.01095 309.000
51.03090 318.000
51.05085 334.000
51.07079 304.000
51.09074 284.000
51.11069 293.000
51.13064 252.000
51.15058 272.000
51.17053 293.000
51.19048 312.000
51.21042 292.000
51.23037 292.000
51.25032 276.000
51.27026 298.000
51.29021 253.000
51.31016 272.000
51.33010 268.000
51.35005 275.000
51.37000 293.000
51.38995 266.000
51.40989 254.000
51.42984 272.000
51.44979 273.000
51.46973 251.000
51.48968 255.000
51.50963 259.000
51.52957 261.000
51.54952 265.000
51.56947 257.000
51.58942 273.000
51.60936 243.000
51.62931 260.000
51.64926 254.000
51.66920 249.000
51.68915 255.000
51.70910 228.000
51.72904 258.000
51.74899 255.000
51.76894 259.000
51.78888 262.000
51.80883 263.000
51.82878 265.000
51.84873 255.000
51.86867 276.000
51.88862 280.000
51.90857 267.000
51.92851 263.000
51.94846 274.000
51.96841 247.000
51.98835 241.000
52.00830 280.000
52.02825 259.000
52.04820 255.000
52.06814 273.000
52.08809 240.000
52.10804 245.000
52.12798 246.000
52.14793 278.000
52.16788 279.000
52.18782 267.000
52.20777 235.000
52.22772 292.000
52.24767 282.000
52.26761 283.000
52.28756 279.000
52.30751 267.000
52.32745 274.000
52.34740 284.000
52.36735 274.000
52.38729 240.000
52.40724 300.000
52.42719 304.000
52.44713 263.000
52.46708 266.000
52.48703 266.000
52.50698 249.000
52.52692 286.000
52.54687 275.000
52.56682 263.000
52.58676 258.000
52.60671 272.000
52.62666 305.000
52.64660 287.000
52.66655 301.000
52.68650 267.000
52.70645 243.000
52.72639 298.000
52.74634 256.000
52.76629 257.000
52.78623 309.000
52.80618 273.000
52.82613 279.000
52.84607 287.000
52.86602 264.000
52.88597 255.000
52.90591 301.000
52.92586 283.000
52.94581 305.000
52.96576 330.000
52.98570 316.000
53.00565 318.000
53.02560 303.000
53.04554 299.000
53.06549 296.000
53.08544 292.000
53.10538 270.000
53.12533 295.000
53.14528 306.000
53.16523 298.000
53.18517 338.000
53.20512 323.000
53.22507 327.000
53.24501 343.000
53.26496 348.000
53.28491 342.000
53.30485 321.000
53.32480 348.000
53.34475 341.000
53.36469 321.000
53.38464 407.000
53.40459 378.000
53.42454 396.000
53.44448 399.000
53.46443 378.000
53.48438 419.000
53.50432 375.000
53.52427 373.000
53.54422 347.000
53.56416 378.000
53.58411 368.000
53.60406 344.000
53.62401 308.000
53.64395 353.000
53.66390 315.000
53.68385 321.000
53.70379 319.000
53.72374 326.000
53.74369 310.000
53.76363 284.000
53.78358 292.000
53.80353 310.000
53.82348 318.000
53.84342 305.000
53.86337 327.000
53.88332 285.000
53.90326 287.000
53.92321 286.000
53.94316 261.000
53.96310 259.000
53.98305 280.000
54.00300 274.000
54.02294 289.000
54.04289 250.000
54.06284 260.000
54.08279 264.000
54.10273 225.000
54.12268 256.000
54.14263 245.000
54.16257 240.000
54.18252 269.000
54.20247 274.000
54.22241 288.000
54.24236 255.000
54.26231 273.000
54.28226 249.000
54.30220 286.000
54.32215 242.000
54.34210 271.000
54.36204 283.000
54.38199 269.000
54.40194 259.000
54.42188 256.000
54.44183 291.000
54.46178 243.000
54.48172 277.000
54.50167 255.000
54.52162 243.000
54.54157 262.000
54.56151 263.000
54.58146 278.000
54.60141 267.000
54.62135 247.000
54.64130 261.000
54.66125 300.000
54.68119 309.000
54.70114 263.000
54.72109 296.000
54.74104 273.000
54.76098 334.000
54.78093 319.000
54.80088 328.000
54.82082 347.000
54.84077 390.000
54.86072 398.000
54.88066 349.000
54.90061 364.000
54.92056 334.000
54.94050 339.000
54.96045 344.000
54.98040 350.000
55.00035 380.000
55.02029 303.000
55.04024 338.000
55.06019 296.000
55.08013 304.000
55.10008 321.000
55.12003 320.000
55.13997 296.000
55.15992 317.000
55.17987 307.000
55.19982 286.000
55.21976 290.000
55.23971 264.000
55.25966 276.000
55.27960 303.000
55.29955 270.000
55.31950 276.000
55.33944 287.000
55.35939 258.000
55.37934 278.000
55.39929 263.000
55.41923 276.000
55.43918 295.000
55.45913 273.000
55.47907 297.000
55.49902 257.000
55.51897 285.000
55.53891 301.000
55.55886 261.000
55.57881 292.000
55.59875 291.000
55.61870 283.000
55.63865 276.000
55.65860 280.000
55.67854 260.000
55.69849 266.000
55.71844 250.000
55.73838 296.000
55.75833 300.000
55.77828 248.000
55.79822 290.000
55.81817 302.000
55.83812 267.000
55.85807 252.000
55.87801 286.000
55.89796 278.000
55.91791 257.000
55.93785 257.000
55.95780 274.000
55.97775 266.000
55.99769 250.000
56.01764 268.000
56.03759 269.000
56.05753 251.000
56.07748 281.000
56.09743 269.000
56.11738 256.000
56.13732 266.000
56.15727 254.000
56.17722 292.000
56.19716 250.000
56.21711 257.000
56.23706 288.000
56.25700 300.000
56.27695 259.000
56.29690 282.000
56.31685 252.000
56.33679 249.000
56.35674 306.000
56.37669 265.000
56.39663 257.000
56.41658 260.000
56.43653 297.000
56.45647 260.000
56.47642 259.000
56.49637 303.000
56.51631 287.000
56.53626 308.000
56.55621 249.000
56.57616 275.000
56.59610 271.000
56.61605 307.000
56.63600 323.000
56.65594 306.000
56.67589 323.000
56.69584 307.000
56.71578 325.000
56.73573 323.000
56.75568 320.000
56.77563 344.000
56.79557 351.000
56.81552 358.000
56.83547 344.000
56.85541 328.000
56.87536 350.000
56.89531 344.000
56.91525 338.000
56.93520 331.000
56.95515 342.000
56.97510 348.000
56.99504 290.000
57.01499 312.000
57.03494 318.000
57.05488 313.000
57.07483 288.000
57.09478 283.000
57.11472 286.000
57.13467 278.000
57.15462 273.000
57.17456 271.000
57.19451 300.000
57.21446 269.000
57.23441 271.000
57.25435 266.000
57.27430 269.000
57.29425 306.000
57.31419 265.000
57.33414 271.000
57.35409 259.000
57.37403 282.000
57.39398 271.000
57.41393 240.000
57.43388 269.000
57.45382 300.000
57.47377 265.000
57.49372 293.000
57.51366 242.000
57.53361 284.000
57.55356 259.000
57.57350 263.000
57.59345 266.000
57.61340 296.000
57.63334 297.000
57.65329 300.000
57.67324 323.000
57.69319 305.000
57.71313 270.000
57.73308 307.000
57.75303 268.000
57.77297 301.000
57.79292 303.000
57.81287 278.000
57.83281 302.000
57.85276 289.000
57.87271 289.000
57.89266 284.000
57.91260 317.000
57.93255 297.000
57.95250 318.000
57.97244 321.000
57.99239 298.000
58.01234 302.000
58.03228 320.000
58.05223 338.000
58.07218 332.000
58.09212 353.000
58.11207 371.000
58.13202 370.000
58.15197 390.000
58.17191 369.000
58.19186 405.000
58.21181 408.000
58.23175 471.000
58.25170 469.000
58.27165 464.000
58.29159 424.000
58.31154 413.000
58.33149 408.000
58.35144 413.000
58.37138 375.000
58.39133 335.000
58.41128 361.000
58.43122 348.000
58.45117 341.000
58.47112 325.000
58.49106 328.000
58.51101 309.000
58.53096 273.000
58.55090 287.000
58.57085 292.000
58.59080 259.000
58.61075 297.000
58.63069 292.000
58.65064 300.000
58.67059 292.000
58.69053 293.000
58.71048 273.000
58.73043 280.000
58.75037 292.000
58.77032 275.000
58.79027 251.000
58.81022 271.000
58.83016 244.000
58.85011 258.000
58.87006 284.000
58.89000 240.000
58.90995 285.000
58.92990 260.000
58.94984 285.000
58.96979 263.000
58.98974 254.000
59.00969 258.000
59.02963 255.000
59.04958 267.000
59.06953 277.000
59.08947 244.000
59.10942 266.000
59.12937 261.000
59.14931 293.000
59.16926 269.000
59.18921 272.000
59.20915 243.000
59.22910 266.000
59.24905 261.000
59.26900 264.000
59.28894 276.000
59.30889 258.000
59.32884 269.000
59.34878 254.000
59.36873 281.000
59.38868 257.000
59.40862 264.000
59.42857 253.000
59.44852 266.000
59.46847 257.000
59.48841 285.000
59.50836 291.000
59.52831 264.000
59.54825 261.000
59.56820 304.000
59.58815 264.000
59.60809 286.000
59.62804 327.000
59.64799 272.000
59.66793 309.000
59.68788 338.000
59.70783 345.000
59.72778 298.000
59.74772 348.000
59.76767 336.000
59.78762 347.000
59.80756 399.000
59.82751 378.000
59.84746 399.000
59.86740 396.000
59.88735 373.000
59.90730 402.000
59.92725 381.000
59.94719 346.000
59.96714 351.000
59.98709 362.000
60.00703 368.000
60.02698 369.000
60.04693 311.000
60.06687 314.000
60.08682 336.000
60.10677 329.000
60.12671 309.000
60.14666 312.000
60.16661 329.000
60.18656 309.000
60.20650 317.000
60.22645 315.000
60.24640 341.000
60.26634 307.000
60.28629 300.000
60.30624 298.000
60.32618 362.000
60.34613 300.000
60.36608 350.000
60.38603 321.000
60.40597 303.000
60.42592 317.000
60.44587 325.000
60.46581 323.000
60.48576 330.000
60.50571 325.000
60.52565 365.000
60.54560 353.000
60.56555 337.000
60.58550 333.000
60.60544 364.000
60.62539 323.000
60.64534 309.000
60.66528 335.000
60.68523 335.000
60.70518 330.000
60.72512 315.000
60.74507 352.000
60.76502 312.000
60.78496 351.000
60.80491 338.000
60.82486 342.000
60.84481 318.000
60.86475 350.000
60.88470 382.000
60.90465 395.000
60.92459 347.000
60.94454 361.000
60.96449 384.000
60.98443 362.000
61.00438 402.000
61.02433 358.000
61.04428 361.000
61.06422 346.000
61.08417 363.000
61.10412 365.000
61.12406 414.000
61.14401 420.000
61.16396 403.000
61.18390 393.000
61.20385 385.000
61.22380 429.000
61.24374 409.000
61.26369 390.000
61.28364 449.000
61.30359 416.000
61.32353 449.000
61.34348 418.000
61.36343 446.000
61.38337 460.000
61.40332 498.000
61.42327 540.000
61.44321 602.000
61.46316 610.000
61.48311 614.000
61.50306 577.000
61.52300 557.000
61.54295 566.000
61.56290 489.000
61.58284 496.000
61.60279 476.000
61.62274 428.000
61.64268 500.000
61.66263 464.000
61.68258 441.000
61.70252 416.000
61.72247 417.000
61.74242 378.000
61.76237 372.000
61.78231 362.000
61.80226 346.000
61.82221 328.000
61.84215 314.000
61.86210 333.000
61.88205 300.000
61.90199 284.000
61.92194 324.000
61.94189 286.000
61.96184 299.000
61.98178 312.000
62.00173 320.000
62.02168 303.000
62.04162 292.000
62.06157 304.000
62.08152 324.000
62.10146 304.000
62.12141 364.000
62.14136 316.000
62.16131 302.000
62.18125 319.000
62.20120 382.000
62.22115 358.000
62.24109 349.000
62.26104 331.000
62.28099 398.000
62.30093 374.000
62.32088 435.000
62.34083 377.000
62.36077 414.000
62.38072 472.000
62.40067 446.000
62.42062 445.000
62.44056 462.000
62.46051 431.000
62.48046 398.000
62.50040 394.000
62.52035 430.000
62.54030 413.000
62.56024 384.000
62.58019 381.000
62.60014 385.000
62.62009 333.000
62.64003 357.000
62.65998 352.000
62.67993 324.000
62.69987 319.000
62.71982 281.000
62.73977 284.000
62.75971 310.000
62.77966 291.000
62.79961 297.000
62.81955 256.000
62.83950 287.000
62.85945 292.000
62.87940 251.000
62.89934 254.000
62.91929 243.000
62.93924 270.000
62.95918 231.000
62.97913 257.000
62.99908 282.000
63.01902 255.000
63.03897 277.000
63.05892 286.000
63.07887 266.000
63.09881 259.000
63.11876 271.000
63.13871 283.000
63.15865 249.000
63.17860 255.000
63.19855 256.000
63.21849 234.000
63.23844 244.000
63.25839 286.000
63.27833 302.000
63.29828 249.000
63.31823 261.000
63.33818 254.000
63.35812 274.000
63.37807 311.000
63.39802 287.000
63.41796 283.000
63.43791 284.000
63.45786 265.000
63.47780 258.000
63.49775 288.000
63.51770 274.000
63.53765 263.000
63.55759 255.000
63.57754 258.000
63.59749 235.000
63.61743 303.000
63.63738 292.000
63.65733 272.000
63.67727 265.000
63.69722 285.000
63.71717 284.000
63.73712 300.000
63.75706 325.000
63.77701 317.000
63.79696 297.000
63.81690 299.000
63.83685 302.000
63.85680 303.000
63.87674 286.000
63.89669 317.000
63.91664 288.000
63.93658 288.000
63.95653 265.000
63.97648 287.000
63.99643 275.000
64.01637 293.000
64.03632 243.000
64.05627 311.000
64.07621 307.000
64.09616 282.000
64.11611 288.000
64.13605 257.000
64.15600 261.000
64.17595 290.000
64.19590 301.000
64.21584 255.000
64.23579 278.000
64.25574 278.000
64.27568 257.000
64.29563 249.000
64.31558 262.000
64.33552 257.000
64.35547 248.000
64.37542 268.000
64.39536 233.000
64.41531 271.000
64.43526 237.000
64.45521 258.000
64.47515 244.000
64.49510 271.000
64.51505 284.000
64.53499 286.000
64.55494 291.000
64.57489 288.000
64.59483 287.000
64.61478 232.000
64.63473 273.000
64.65468 263.000
64.67462 276.000
64.69457 230.000
64.71452 234.000
64.73446 293.000
64.75441 275.000
64.77436 269.000
64.79430 272.000
64.81425 270.000
64.83420 285.000
64.85414 287.000
64.87409 254.000
64.89404 248.000
64.91399 281.000
64.93393 301.000
64.95388 302.000
64.97383 275.000
64.99377 291.000
65.01372 290.000
65.03367 294.000
65.05361 288.000
65.07356 301.000
65.09351 301.000
65.11346 287.000
65.13340 243.000
65.15335 280.000
65.17330 281.000
65.19324 294.000
65.21319 298.000
65.23314 323.000
65.25308 286.000
65.27303 306.000
65.29298 321.000
65.31293 325.000
65.33287 304.000
65.35282 305.000
65.37277 268.000
65.39271 299.000
65.41266 288.000
65.43261 338.000
65.45255 313.000
65.47250 340.000
65.49245 318.000
65.51239 337.000
65.53234 325.000
65.55229 343.000
65.57224 334.000
65.59218 374.000
65.61213 374.000
65.63208 436.000
65.65202 451.000
65.67197 452.000
65.69192 470.000
65.71186 466.000
65.73181 445.000
65.75176 441.000
65.77171 489.000
65.79165 486.000
65.81160 480.000
65.83155 488.000
65.85149 474.000
65.87144 460.000
65.89139 465.000
65.91133 447.000
65.93128 430.000
65.95123 420.000
65.97117 406.000
65.99112 438.000
66.01107 423.000
66.03102 408.000
66.05096 437.000
66.07091 480.000
66.09086 500.000
66.11080 500.000
66.13075 516.000
66.15070 510.000
66.17064 511.000
66.19059 530.000
66.21054 504.000
66.23049 475.000
66.25043 482.000
66.27038 473.000
66.29033 433.000
66.31027 458.000
66.33022 395.000
66.35017 447.000
66.37011 395.000
66.39006 400.000
66.41001 378.000
66.42995 401.000
66.44990 335.000
66.46985 343.000
66.48980 322.000
66.50974 280.000
66.52969 280.000
66.54964 281.000
66.56958 304.000
66.58953 270.000
66.60948 281.000
66.62942 302.000
66.64937 289.000
66.66932 268.000
66.68927 297.000
66.70921 285.000
66.72916 247.000
66.74911 280.000
66.76905 263.000
66.78900 278.000
66.80895 273.000
66.82889 257.000
66.84884 271.000
66.86879 270.000
66.88874 267.000
66.90868 252.000
66.92863 264.000
66.94858 275.000
66.96852 280.000
66.98847 273.000
67.00842 289.000
67.02836 266.000
67.04831 276.000
67.06826 266.000
67.08820 260.000
67.10815 259.000
67.12810 267.000
67.14805 282.000
67.16799 283.000
67.18794 275.000
67.20789 311.000
67.22783 277.000
67.24778 305.000
67.26773 321.000
67.28767 290.000
67.30762 294.000
67.32757 277.000
67.34752 242.000
67.36746 296.000
67.38741 247.000
67.40736 294.000
67.42730 287.000
67.44725 264.000
67.46720 276.000
67.48714 270.000
67.50709 292.000
67.52704 308.000
67.54698 261.000
67.56693 258.000
67.58688 299.000
67.60683 294.000
67.62677 315.000
67.64672 302.000
67.66667 295.000
67.68661 351.000
67.70656 329.000
67.72651 325.000
67.74645 345.000
67.76640 351.000
67.78635 357.000
67.80630 358.000
67.82624 362.000
67.84619 381.000
67.86614 390.000
67.88608 404.000
67.90603 426.000
67.92598 383.000
67.94592 410.000
67.96587 410.000
67.98582 448.000
68.00576 456.000
68.02571 447.000
68.04566 461.000
68.06561 506.000
68.08555 465.000
68.10550 484.000
68.12545 483.000
68.14539 421.000
68.16534 450.000
68.18529 429.000
68.20523 369.000
68.22518 383.000
68.24513 404.000
68.26508 374.000
68.28502 395.000
68.30497 355.000
68.32492 346.000
68.34486 368.000
68.36481 336.000
68.38476 302.000
68.40470 315.000
68.42465 291.000
68.44460 284.000
68.46455 284.000
68.48449 293.000
68.50444 271.000
68.52439 283.000
68.54433 270.000
68.56428 282.000
68.58423 264.000
68.60417 288.000
68.62412 283.000
68.64407 278.000
68.66401 303.000
68.68396 265.000
68.70391 262.000
68.72386 261.000
68.74380 245.000
68.76375 260.000
68.78370 290.000
68.80364 254.000
68.82359 278.000
68.84354 288.000
68.86348 269.000
68.88343 238.000
68.90338 266.000
68.92333 264.000
68.94327 269.000
68.96322 248.000
68.98317 272.000
69.00311 240.000
69.02306 250.000
69.04301 272.000
69.06295 242.000
69.08290 274.000
69.10285 270.000
69.12279 256.000
69.14274 242.000
69.16269 255.000
69.18264 250.000
69.20258 262.000
69.22253 239.000
69.24248 253.000
69.26242 249.000
69.28237 252.000
69.30232 247.000
69.32226 251.000
69.34221 257.000
69.36216 244.000
69.38211 221.000
69.40205 257.000
69.42200 251.000
69.44195 260.000
69.46189 237.000
69.48184 264.000
69.50179 232.000
69.52173 256.000
69.54168 270.000
69.56163 254.000
69.58157 223.000
69.60152 226.000
69.62147 256.000
69.64142 258.000
69.66136 266.000
69.68131 241.000
69.70126 263.000
69.72120 267.000
69.74115 239.000
69.76110 229.000
69.78104 272.000
69.80099 286.000
69.82094 270.000
69.84089 259.000
69.86083 231.000
69.88078 250.000
69.90073 267.000
69.92067 261.000
69.94062 303.000
69.96057 274.000
69.98051 270.000
70.00046 272.000
70.02041 252.000
70.04035 258.000
70.06030 273.000
70.08025 238.000
70.10020 249.000
70.12014 279.000
70.14009 261.000
70.16004 255.000
70.17998 253.000
70.19993 305.000
70.21988 261.000
70.23982 266.000
70.25977 269.000
70.27972 262.000
70.29967 259.000
70.31961 243.000
70.33956 265.000
70.35951 251.000
70.37945 263.000
70.39940 249.000
70.41935 291.000
70.43929 292.000
70.45924 254.000
70.47919 247.000
70.49914 251.000
70.51908 269.000
70.53903 268.000
70.55898 265.000
70.57892 283.000
70.59887 251.000
70.61882 280.000
70.63876 275.000
70.65871 247.000
70.67866 227.000
70.69860 255.000
70.71855 269.000
70.73850 273.000
70.75845 272.000
70.77839 258.000
70.79834 253.000
70.81829 260.000
70.83823 286.000
70.85818 273.000
70.87813 244.000
70.89807 272.000
70.91802 258.000
70.93797 262.000
70.95792 246.000
70.97786 261.000
70.99781 292.000
71.01776 249.000
71.03770 259.000
71.05765 255.000
71.07760 264.000
71.09754 291.000
71.11749 280.000
71.13744 271.000
71.15738 300.000
71.17733 267.000
71.19728 248.000
71.21723 247.000
71.23717 262.000
71.25712 300.000
71.27707 281.000
71.29701 242.000
71.31696 293.000
71.33691 293.000
71.35685 242.000
71.37680 239.000
71.39675 290.000
71.41670 269.000
71.43664 288.000
71.45659 317.000
71.47654 249.000
71.49648 274.000
71.51643 293.000
71.53638 284.000
71.55632 286.000
71.57627 266.000
71.59622 300.000
71.61616 297.000
71.63611 288.000
71.65606 271.000
71.67601 274.000
71.69595 249.000
71.71590 270.000
71.73585 310.000
71.75579 274.000
71.77574 292.000
71.79569 276.000
71.81563 271.000
71.83558 279.000
71.85553 250.000
71.87548 267.000
71.89542 262.000
71.91537 263.000
71.93532 265.000
71.95526 262.000
71.97521 284.000
71.99516 270.000
72.01510 243.000
72.03505 268.000
72.05500 264.000
72.07495 298.000
72.09489 280.000
72.11484 291.000
72.13479 272.000
72.15473 282.000
72.17468 291.000
72.19463 320.000
72.21457 304.000
72.23452 318.000
72.25447 322.000
72.27441 341.000
72.29436 331.000
72.31431 333.000
72.33426 385.000
72.35420 358.000
72.37415 351.000
72.39410 347.000
72.41404 314.000
72.43399 311.000
72.45394 313.000
72.47388 280.000
72.49383 338.000
72.51378 296.000
72.53373 321.000
72.55367 273.000
72.57362 298.000
72.59357 291.000
72.61351 313.000
72.63346 303.000
72.65341 308.000
72.67335 301.000
72.69330 261.000
72.71325 268.000
72.73319 252.000
72.75314 250.000
72.77309 278.000
72.79304 260.000
72.81298 251.000
72.83293 261.000
72.85288 221.000
72.87282 262.000
72.89277 258.000
72.91272 233.000
72.93266 259.000
72.95261 271.000
72.97256 256.000
72.99251 278.000
73.01245 271.000
73.03240 235.000
73.05235 268.000
73.07229 261.000
73.09224 242.000
73.11219 261.000
73.13213 246.000
73.15208 236.000
73.17203 232.000
73.19197 245.000
73.21192 275.000
73.23187 249.000
73.25182 257.000
73.27176 233.000
73.29171 281.000
73.31166 267.000
73.33160 251.000
73.35155 256.000
73.37150 285.000
73.39144 275.000
73.41139 254.000
73.43134 253.000
73.45129 236.000
73.47123 286.000
73.49118 266.000
73.51113 276.000
73.53107 242.000
73.55102 260.000
73.57097 269.000
73.59091 269.000
73.61086 252.000
73.63081 253.000
73.65076 284.000
73.67070 259.000
73.69065 293.000
73.71060 259.000
73.73054 282.000
73.75049 250.000
73.77044 289.000
73.79038 275.000
73.81033 274.000
73.83028 291.000
73.85022 273.000
73.87017 275.000
73.89012 263.000
73.91007 260.000
73.93001 281.000
73.94996 251.000
73.96991 304.000
73.98985 280.000
74.00980 298.000
74.02975 255.000
74.04969 276.000
74.06964 251.000
74.08959 271.000
74.10954 287.000
74.12948 281.000
74.14943 288.000
74.16938 270.000
74.18932 246.000
74.20927 248.000
74.22922 284.000
74.24916 266.000
74.26911 266.000
74.28906 253.000
74.30900 259.000
74.32895 263.000
74.34890 259.000
74.36885 259.000
74.38879 241.000
74.40874 233.000
74.42869 273.000
74.44863 270.000
74.46858 273.000
74.48853 296.000
74.50847 245.000
74.52842 299.000
74.54837 282.000
74.56832 262.000
74.58826 296.000
74.60821 247.000
74.62816 280.000
74.64810 263.000
74.66805 276.000
74.68800 282.000
74.70794 274.000
74.72789 296.000
74.74784 283.000
74.76778 272.000
74.78773 277.000
74.80768 309.000
74.82763 310.000
74.84757 320.000
74.86752 301.000
74.88747 328.000
74.90741 354.000
74.92736 332.000
74.94731 361.000
74.96725 372.000
74.98720 330.000
75.00715 339.000
75.02710 358.000
75.04704 342.000
75.06699 363.000
75.08694 383.000
75.10688 337.000
75.12683 349.000
75.14678 342.000
75.16672 371.000
75.18667 350.000
75.20662 359.000
75.22657 379.000
75.24651 312.000
75.26646 341.000
75.28641 329.000
75.30635 353.000
75.32630 323.000
75.34625 335.000
75.36619 277.000
75.38614 341.000
75.40609 299.000
75.42603 296.000
75.44598 321.000
75.46593 298.000
75.48588 298.000
75.50582 286.000
75.52577 285.000
75.54572 258.000
75.56566 283.000
75.58561 251.000
75.60556 260.000
75.62550 272.000
75.64545 256.000
75.66540 258.000
75.68535 228.000
75.70529 264.000
75.72524 270.000
75.74519 258.000
75.76513 259.000
75.78508 255.000
75.80503 252.000
75.82497 242.000
75.84492 276.000
75.86487 238.000
75.88481 256.000
75.90476 284.000
75.92471 260.000
75.94466 217.000
75.96460 248.000
75.98455 233.000
76.00450 264.000
76.02444 255.000
76.04439 256.000
76.06434 262.000
76.08428 286.000
76.10423 258.000
76.12418 269.000
76.14413 230.000
76.16407 235.000
76.18402 244.000
76.20397 240.000
76.22391 247.000
76.24386 254.000
76.26381 235.000
76.28375 271.000
76.30370 246.000
76.32365 278.000
76.34359 252.000
76.36354 235.000
76.38349 260.000
76.40344 234.000
76.42338 268.000
76.44333 269.000
76.46328 239.000
76.48322 245.000
76.50317 261.000
76.52312 278.000
76.54306 256.000
76.56301 276.000
76.58296 256.000
76.60291 256.000
76.62285 252.000
76.64280 281.000
76.66275 255.000
76.68269 268.000
76.70264 246.000
76.72259 268.000
76.74253 270.000
76.76248 263.000
76.78243 265.000
76.80238 269.000
76.82232 236.000
76.84227 227.000
76.86222 251.000
76.88216 242.000
76.90211 249.000
76.92206 257.000
76.94200 254.000
76.96195 221.000
76.98190 248.000
77.00184 256.000
77.02179 233.000
77.04174 263.000
77.06169 247.000
77.08163 208.000
77.10158 271.000
77.12153 247.000
77.14147 254.000
77.16142 244.000
77.18137 251.000
77.20131 281.000
77.22126 254.000
77.24121 270.000
77.26116 258.000
77.28110 255.000
77.30105 243.000
77.32100 252.000
77.34094 266.000
77.36089 233.000
77.38084 287.000
77.40078 270.000
77.42073 259.000
77.44068 249.000
77.46062 252.000
77.48057 263.000
77.50052 252.000
77.52047 239.000
77.54041 232.000
77.56036 263.000
77.58031 265.000
77.60025 256.000
77.62020 265.000
77.64015 230.000
77.66009 250.000
77.68004 255.000
77.69999 225.000
77.71994 259.000
77.73988 252.000
77.75983 255.000
77.77978 251.000
77.79972 239.000
77.81967 253.000
77.83962 230.000
77.85956 247.000
77.87951 251.000
77.89946 271.000
77.91940 228.000
77.93935 225.000
77.95930 259.000
77.97925 279.000
77.99919 271.000
78.01914 247.000
78.03909 246.000
78.05903 254.000
78.07898 233.000
78.09893 255.000
78.11887 255.000
78.13882 255.000
78.15877 260.000
78.17872 229.000
78.19866 261.000
78.21861 255.000
78.23856 237.000
78.25850 268.000
78.27845 270.000
78.29840 221.000
78.31834 255.000
78.33829 239.000
78.35824 248.000
78.37819 260.000
78.39813 264.000
78.41808 240.000
78.43803 257.000
78.45797 246.000
78.47792 262.000
78.49787 263.000
78.51781 236.000
78.53776 229.000
78.55771 242.000
78.57765 233.000
78.59760 269.000
78.61755 267.000
78.63750 258.000
78.65744 242.000
78.67739 274.000
78.69734 277.000
78.71728 279.000
78.73723 233.000
78.75718 270.000
78.77712 269.000
78.79707 266.000
78.81702 242.000
78.83697 264.000
78.85691 250.000
78.87686 230.000
78.89681 308.000
78.91675 244.000
78.93670 245.000
78.95665 259.000
78.97659 253.000
78.99654 295.000
79.01649 264.000
79.03643 253.000
79.05638 239.000
79.07633 246.000
79.09628 243.000
79.11622 257.000
79.13617 282.000
79.15612 229.000
79.17606 249.000
79.19601 255.000
79.21596 279.000
79.23590 243.000
79.25585 268.000
79.27580 248.000
79.29575 253.000
79.31569 221.000
79.33564 232.000
79.35559 242.000
79.37553 258.000
79.39548 250.000
79.41543 261.000
79.43537 250.000
79.45532 246.000
79.47527 265.000
79.49521 249.000
79.51516 269.000
79.53511 237.000
79.55506 224.000
79.57500 259.000
79.59495 255.000
79.61490 268.000
79.63484 255.000
79.65479 250.000
79.67474 289.000
79.69468 224.000
79.71463 277.000
79.73458 242.000
79.75453 273.000
79.77447 246.000
79.79442 261.000
79.81437 271.000
79.83431 243.000
79.85426 238.000
79.87421 250.000
79.89415 251.000
79.91410 253.000
79.93405 254.000
79.95399 274.000
79.97394 303.000
79.99389 258.000
80.01384 250.000
80.03378 267.000
80.05373 293.000
80.07368 279.000
80.09362 269.000
80.11357 280.000
80.13352 261.000
80.15346 285.000
80.17341 284.000
80.19336 267.000
80.21331 276.000
80.23325 278.000
80.25320 295.000
80.27315 277.000
80.29309 283.000
80.31304 288.000
80.33299 257.000
80.35293 263.000
80.37288 271.000
80.39283 254.000
80.41278 241.000
80.43272 268.000
80.45267 253.000
80.47262 270.000
80.49256 260.000
80.51251 266.000
80.53246 262.000
80.55240 256.000
80.57235 257.000
80.59230 254.000
80.61224 251.000
80.63219 216.000
80.65214 258.000
80.67209 254.000
80.69203 265.000
80.71198 254.000
80.73193 247.000
80.75187 236.000
80.77182 264.000
80.79177 249.000
80.81171 243.000
80.83166 247.000
80.85161 221.000
80.87156 287.000
80.89150 248.000
80.91145 256.000
80.93140 256.000
80.95134 229.000
80.97129 248.000
80.99124 275.000
81.01118 243.000
81.03113 257.000
81.05108 290.000
81.07102 257.000
81.09097 251.000
81.11092 251.000
81.13087 242.000
81.15081 253.000
81.17076 263.000
81.19071 262.000
81.21065 268.000
81.23060 256.000
81.25055 275.000
81.27049 273.000
81.29044 266.000
81.31039 243.000
81.33034 270.000
81.35028 232.000
81.37023 238.000
81.39018 264.000
81.41012 241.000
81.43007 231.000
81.45002 226.000
81.46996 256.000
81.48991 242.000
81.50986 283.000
81.52980 284.000
81.54975 264.000
81.56970 260.000
81.58965 282.000
81.60959 248.000
81.62954 241.000
81.64949 246.000
81.66943 243.000
81.68938 245.000
81.70933 208.000
81.72927 273.000
81.74922 257.000
81.76917 246.000
81.78912 237.000
81.80906 238.000
81.82901 263.000
81.84896 286.000
81.86890 281.000
81.88885 251.000
81.90880 246.000
81.92874 254.000
81.94869 235.000
81.96864 281.000
81.98859 262.000
82.00853 268.000
82.02848 270.000
82.04843 249.000
82.06837 250.000
82.08832 278.000
82.10827 283.000
82.12821 284.000
82.14816 289.000
82.16811 267.000
82.18805 259.000
82.20800 293.000
82.22795 283.000
82.24790 292.000
82.26784 315.000
82.28779 342.000
82.30774 301.000
82.32768 301.000
82.34763 302.000
82.36758 306.000
82.38752 302.000
82.40747 298.000
82.42742 269.000
82.44737 300.000
82.46731 310.000
82.48726 303.000
82.50721 282.000
82.52715 286.000
82.54710 279.000
82.56705 290.000
82.58699 304.000
82.60694 298.000
82.62689 296.000
82.64683 262.000
82.66678 292.000
82.68673 253.000
82.70668 252.000
82.72662 256.000
82.74657 281.000
82.76652 256.000
82.78646 290.000
82.80641 253.000
82.82636 277.000
82.84630 270.000
82.86625 318.000
82.88620 291.000
82.90615 284.000
82.92609 306.000
82.94604 277.000
82.96599 293.000
82.98593 311.000
83.00588 262.000
83.02583 297.000
83.04577 325.000
83.06572 307.000
83.08567 314.000
83.10561 315.000
83.12556 289.000
83.14551 278.000
83.16546 280.000
83.18540 298.000
83.20535 287.000
83.22530 340.000
83.24524 267.000
83.26519 322.000
83.28514 275.000
83.30508 295.000
83.32503 276.000
83.34498 286.000
83.36493 297.000
83.38487 316.000
83.40482 279.000
83.42477 316.000
83.44471 307.000
83.46466 307.000
83.48461 318.000
83.50455 303.000
83.52450 296.000
83.54445 291.000
83.56440 309.000
83.58434 308.000
83.60429 310.000
83.62424 311.000
83.64418 262.000
83.66413 292.000
83.68408 309.000
83.70402 281.000
83.72397 265.000
83.74392 287.000
83.76386 345.000
83.78381 259.000
83.80376 261.000
83.82371 270.000
83.84365 284.000
83.86360 293.000
83.88355 262.000
83.90349 284.000
83.92344 260.000
83.94339 251.000
83.96333 281.000
83.98328 291.000
84.00323 264.000
84.02318 266.000
84.04312 262.000
84.06307 250.000
84.08302 240.000
84.10296 269.000
84.12291 260.000
84.14286 261.000
84.16280 247.000
84.18275 221.000
84.20270 241.000
84.22264 273.000
84.24259 257.000
84.26254 250.000
84.28249 255.000
84.30243 242.000
84.32238 247.000
84.34233 277.000
84.36227 258.000
84.38222 244.000
84.40217 263.000
84.42211 249.000
84.44206 256.000
84.46201 255.000
84.48196 235.000
84.50190 258.000
84.52185 235.000
84.54180 297.000
84.56174 251.000
84.58169 262.000
84.60164 268.000
84.62158 268.000
84.64153 242.000
84.66148 293.000
84.68142 273.000
84.70137 255.000
84.72132 255.000
84.74127 265.000
84.76121 249.000
84.78116 249.000
84.80111 242.000
84.82105 277.000
84.84100 275.000
84.86095 249.000
84.88089 262.000
84.90084 261.000
84.92079 268.000
84.94074 235.000
84.96068 252.000
84.98063 322.000
85.00058 283.000
85.02052 249.000
85.04047 272.000
85.06042 249.000
85.08036 281.000
85.10031 256.000
85.12026 264.000
85.14021 254.000
85.16015 281.000
85.18010 246.000
85.20005 261.000
85.21999 280.000
85.23994 273.000
85.25989 257.000
85.27983 258.000
85.29978 265.000
85.31973 267.000
85.33967 254.000
85.35962 259.000
85.37957 238.000
85.39952 251.000
85.41946 247.000
85.43941 265.000
85.45936 223.000
85.47930 252.000
85.49925 246.000
85.51920 245.000
85.53914 266.000
85.55909 258.000
85.57904 228.000
85.59899 242.000
85.61893 229.000
85.63888 232.000
85.65883 266.000
85.67877 252.000
85.69872 247.000
85.71867 265.000
85.73861 256.000
85.75856 231.000
85.77851 294.000
85.79845 244.000
85.81840 247.000
85.83835 263.000
85.85830 247.000
85.87824 254.000
85.89819 244.000
85.91814 265.000
85.93808 231.000
85.95803 285.000
85.97798 270.000
85.99792 264.000
86.01787 276.000
86.03782 245.000
86.05777 284.000
86.07771 262.000
86.09766 261.000
86.11761 257.000
86.13755 245.000
86.15750 248.000
86.17745 278.000
86.19739 280.000
86.21734 267.000
86.23729 258.000
86.25723 259.000
86.27718 268.000
86.29713 272.000
86.31708 273.000
86.33702 258.000
86.35697 275.000
86.37692 280.000
86.39686 257.000
86.41681 284.000
86.43676 259.000
86.45670 266.000
86.47665 319.000
86.49660 279.000
86.51655 280.000
86.53649 272.000
86.55644 307.000
86.57639 268.000
86.59633 273.000
86.61628 270.000
86.63623 249.000
86.65617 253.000
86.67612 274.000
86.69607 275.000
86.71602 269.000
86.73596 275.000
86.75591 253.000
86.77586 290.000
86.79580 257.000
86.81575 253.000
86.83570 254.000
86.85564 240.000
86.87559 276.000
86.89554 258.000
86.91548 246.000
86.93543 253.000
86.95538 258.000
86.97533 266.000
86.99527 247.000
87.01522 259.000
87.03517 261.000
87.05511 235.000
87.07506 250.000
87.09501 239.000
87.11495 256.000
87.13490 255.000
87.15485 226.000
87.17480 278.000
87.19474 251.000
87.21469 259.000
87.23464 247.000
87.25458 233.000
87.27453 246.000
87.29448 274.000
87.31442 242.000
87.33437 263.000
87.35432 256.000
87.37426 273.000
87.39421 261.000
87.41416 241.000
87.43411 244.000
87.45405 255.000
87.47400 235.000
87.49395 251.000
87.51389 279.000
87.53384 265.000
87.55379 262.000
87.57373 264.000
87.59368 276.000
87.61363 266.000
87.63358 260.000
87.65352 278.000
87.67347 256.000
87.69342 219.000
87.71336 265.000
87.73331 249.000
87.75326 258.000
87.77320 243.000
87.79315 252.000
87.81310 252.000
87.83304 283.000
87.85299 281.000
87.87294 263.000
87.89289 266.000
87.91283 264.000
87.93278 246.000
87.95273 238.000
87.97267 272.000
87.99262 245.000
88.01257 253.000
88.03251 270.000
88.05246 250.000
88.07241 246.000
88.09236 249.000
88.11230 267.000
88.13225 224.000
88.15220 253.000
88.17214 261.000
88.19209 246.000
88.21204 242.000
88.23198 232.000
88.25193 263.000
88.27188 241.000
88.29183 258.000
88.31177 262.000
88.33172 216.000
88.35167 236.000
88.37161 259.000
88.39156 236.000
88.41151 266.000
88.43145 227.000
88.45140 262.000
88.47135 245.000
88.49129 235.000
88.51124 214.000
88.53119 226.000
88.55114 260.000
88.57108 248.000
88.59103 231.000
88.61098 243.000
88.63092 222.000
88.65087 253.000
88.67082 224.000
88.69076 266.000
88.71071 251.000
88.73066 239.000
88.75061 249.000
88.77055 226.000
88.79050 269.000
88.81045 265.000
88.83039 240.000
88.85034 271.000
88.87029 224.000
88.89023 242.000
88.91018 233.000
88.93013 261.000
88.95007 282.000
88.97002 284.000
88.98997 262.000
89.00992 230.000
89.02986 240.000
89.04981 267.000
89.06976 267.000
89.08970 246.000
89.10965 222.000
89.12960 230.000
89.14954 300.000
89.16949 216.000
89.18944 264.000
89.20939 280.000
89.22933 231.000
89.24928 268.000
89.26923 272.000
89.28917 274.000
89.30912 269.000
89.32907 255.000
89.34901 256.000
89.36896 249.000
89.38891 265.000
89.40885 266.000
89.42880 291.000
89.44875 276.000
89.46870 289.000
89.48864 270.000
89.50859 301.000
89.52854 299.000
89.54848 298.000
89.56843 292.000
89.58838 311.000
89.60832 288.000
89.62827 278.000
89.64822 276.000
89.66817 272.000
89.68811 299.000
89.70806 282.000
89.72801 319.000
89.74795 315.000
89.76790 299.000
89.78785 303.000
89.80779 334.000
89.82774 321.000
89.84769 268.000
89.86764 283.000
89.88758 300.000
89.90753 287.000
89.92748 291.000
89.94742 269.000
89.96737 288.000
89.98732 303.000
90.00726 302.000
