10.00000 108.000
10.01995 139.000
10.03989 129.000
10.05984 148.000
10.07979 142.000
10.09973 158.000
10.11968 127.000
10.13963 139.000
10.15958 129.000
10.17952 138.000
10.19947 139.000
10.21942 117.000
10.23936 143.000
10.25931 135.000
10.27926 157.000
10.29920 136.000
10.31915 135.000
10.33910 134.000
10.35905 147.000
10.37899 139.000
10.39894 132.000
10.41889 124.000
10.43883 150.000
10.45878 131.000
10.47873 139.000
10.49867 118.000
10.51862 159.000
10.53857 146.000
10.55851 151.000
10.57846 153.000
10.59841 139.000
10.61836 132.000
10.63830 127.000
10.65825 141.000
10.67820 140.000
10.69814 141.000
10.71809 158.000
10.73804 136.000
10.75798 149.000
10.77793 132.000
10.79788 141.000
10.81783 120.000
10.83777 134.000
10.85772 150.000
10.87767 124.000
10.89761 132.000
10.91756 147.000
10.93751 143.000
10.95745 141.000
10.97740 148.000
10.99735 129.000
11.01730 143.000
11.03724 148.000
11.05719 138.000
11.07714 154.000
11.09708 117.000
11.11703 148.000
11.13698 118.000
11.15692 160.000
11.17687 119.000
11.19682 163.000
11.21676 120.000
11.23671 144.000
11.25666 128.000
11.27661 149.000
11.29655 157.000
11.31650 139.000
11.33645 144.000
11.35639 131.000
11.37634 131.000
11.39629 161.000
11.41623 153.000
11.43618 138.000
11.45613 142.000
11.47608 135.000
11.49602 141.000
11.51597 128.000
11.53592 142.000
11.55586 147.000
11.57581 135.000
11.59576 154.000
11.61570 163.000
11.63565 153.000
11.65560 149.000
11.67554 158.000
11.69549 140.000
11.71544 124.000
11.73539 140.000
11.75533 124.000
11.77528 142.000
11.79523 132.000
11.81517 152.000
11.83512 148.000
11.85507 150.000
11.87501 137.000
11.89496 150.000
11.91491 147.000
11.93486 135.000
11.95480 153.000
11.97475 137.000
11.99470 130.000
12.01464 135.000
12.03459 151.000
12.05454 141.000
12.07448 141.000
12.09443 154.000
12.11438 166.000
12.13432 166.000
12.15427 161.000
12.17422 145.000
12.19417 155.000
12.21411 154.000
12.23406 139.000
12.25401 158.000
12.27395 152.000
12.29390 136.000
12.31385 146.000
12.33379 141.000
12.35374 154.000
12.37369 148.000
12.39364 141.000
12.41358 146.000
12.43353 145.000
12.45348 149.000
12.47342 162.000
12.49337 139.000
12.51332 148.000
12.53326 161.000
12.55321 169.000
12.57316 138.000
12.59311 155.000
12.61305 167.000
12.63300 148.000
12.65295 155.000
12.67289 158.000
12.69284 147.000
12.71279 172.000
12.73273 142.000
12.75268 155.000
12.77263 150.000
12.79257 158.000
12.81252 146.000
12.83247 152.000
12.85242 159.000
12.87236 153.000
12.89231 156.000
12.91226 149.000
12.93220 163.000
12.95215 171.000
12.97210 156.000
12.99204 148.000
13.01199 154.000
13.03194 144.000
13.05189 161.000
13.07183 122.000
13.09178 146.000
13.11173 137.000
13.13167 176.000
13.15162 161.000
13.17157 148.000
13.19151 133.000
13.21146 160.000
13.23141 162.000
13.25135 160.000
13.27130 164.000
13.29125 171.000
13.31120 154.000
13.33114 131.000
13.35109 143.000
13.37104 145.000
13.39098 153.000
13.41093 163.000
13.43088 153.000
13.45082 151.000
13.47077 157.000
13.49072 159.000
13.51067 139.000
13.53061 145.000
13.55056 137.000
13.57051 149.000
13.59045 158.000
13.61040 146.000
13.63035 171.000
13.65029 148.000
13.67024 146.000
13.69019 156.000
13.71013 160.000
13.73008 141.000
13.75003 151.000
13.76998 174.000
13.78992 142.000
13.80987 174.000
13.82982 183.000
13.84976 150.000
13.86971 159.000
13.88966 137.000
13.90960 164.000
13.92955 150.000
13.94950 158.000
13.96945 159.000
13.98939 161.000
14.00934 179.000
14.02929 171.000
14.04923 150.000
14.06918 144.000
14.08913 158.000
14.10907 142.000
14.12902 164.000
14.14897 161.000
14.16892 142.000
14.18886 140.000
14.20881 158.000
14.22876 162.000
14.24870 158.000
14.26865 140.000
14.28860 162.000
14.30854 153.000
14.32849 148.000
14.34844 148.000
14.36838 151.000
14.38833 156.000
14.40828 168.000
14.42823 160.000
14.44817 140.000
14.46812 197.000
14.48807 155.000
14.50801 170.000
14.52796 162.000
14.54791 165.000
14.56785 158.000
14.58780 154.000
14.60775 160.000
14.62770 156.000
14.64764 157.000
14.66759 165.000
14.68754 150.000
14.70748 182.000
14.72743 162.000
14.74738 182.000
14.76732 151.000
14.78727 174.000
14.80722 160.000
14.82716 162.000
14.84711 172.000
14.86706 177.000
14.88701 180.000
14.90695 151.000
14.92690 157.000
14.94685 178.000
14.96679 166.000
14.98674 153.000
15.00669 170.000
15.02663 168.000
15.04658 181.000
15.06653 182.000
15.08648 167.000
15.10642 162.000
15.12637 169.000
15.14632 173.000
15.16626 204.000
15.18621 175.000
15.20616 209.000
15.22610 186.000
15.24605 198.000
15.26600 179.000
15.28594 212.000
15.30589 215.000
15.32584 240.000
15.34579 243.000
15.36573 258.000
15.38568 319.000
15.40563 328.000
15.42557 412.000
15.44552 542.000
15.46547 652.000
15.48541 820.000
15.50536 902.000
15.52531 1117.000
15.54526 1316.000
15.56520 1401.000
15.58515 1486.000
15.60510 1446.000
15.62504 1423.000
15.64499 1139.000
15.66494 932.000
15.68488 674.000
15.70483 462.000
15.72478 345.000
15.74472 270.000
15.76467 230.000
15.78462 221.000
15.80457 199.000
15.82451 186.000
15.84446 198.000
15.86441 176.000
15.88435 199.000
15.90430 163.000
15.92425 156.000
15.94419 176.000
15.96414 166.000
15.98409 154.000
16.00404 183.000
16.02398 171.000
16.04393 172.000
16.06388 167.000
16.08382 185.000
16.10377 171.000
16.12372 190.000
16.14366 151.000
16.16361 159.000
16.18356 180.000
16.20351 159.000
16.22345 156.000
16.24340 172.000
16.26335 159.000
16.28329 179.000
16.30324 161.000
16.32319 188.000
16.34313 187.000
16.36308 145.000
16.38303 152.000
16.40297 161.000
16.42292 164.000
16.44287 167.000
16.46282 145.000
16.48276 174.000
16.50271 174.000
16.52266 167.000
16.54260 173.000
16.56255 164.000
16.58250 175.000
16.60244 163.000
16.62239 175.000
16.64234 174.000
16.66229 172.000
16.68223 180.000
16.70218 178.000
16.72213 155.000
16.74207 154.000
16.76202 170.000
16.78197 163.000
16.80191 175.000
16.82186 162.000
16.84181 149.000
16.86175 151.000
16.88170 164.000
16.90165 180.000
16.92160 140.000
16.94154 143.000
16.96149 147.000
16.98144 195.000
17.00138 153.000
17.02133 159.000
17.04128 170.000
17.06122 147.000
17.08117 147.000
17.10112 172.000
17.12107 167.000
17.14101 145.000
17.16096 176.000
17.18091 158.000
17.20085 169.000
17.22080 162.000
17.24075 160.000
17.26069 163.000
17.28064 158.000
17.30059 167.000
17.32053 176.000
17.34048 178.000
17.36043 192.000
17.38038 160.000
17.40032 179.000
17.42027 188.000
17.44022 165.000
17.46016 169.000
17.48011 187.000
17.50006 151.000
17.52000 168.000
17.53995 146.000
17.55990 160.000
17.57985 179.000
17.59979 183.000
17.61974 164.000
17.63969 161.000
17.65963 177.000
17.67958 167.000
17.69953 186.000
17.71947 157.000
17.73942 167.000
17.75937 179.000
17.77932 173.000
17.79926 178.000
17.81921 196.000
17.83916 174.000
17.85910 197.000
17.87905 196.000
17.89900 212.000
17.91894 220.000
17.93889 293.000
17.95884 276.000
17.97878 342.000
17.99873 368.000
18.01868 408.000
18.03863 466.000
18.05857 437.000
18.07852 432.000
18.09847 406.000
18.11841 347.000
18.13836 326.000
18.15831 286.000
18.17825 208.000
18.19820 192.000
18.21815 180.000
18.23810 166.000
18.25804 169.000
18.27799 179.000
18.29794 163.000
18.31788 168.000
18.33783 180.000
18.35778 182.000
18.37772 164.000
18.39767 183.000
18.41762 184.000
18.43756 157.000
18.45751 184.000
18.47746 169.000
18.49741 160.000
18.51735 149.000
18.53730 190.000
18.55725 177.000
18.57719 181.000
18.59714 184.000
18.61709 171.000
18.63703 166.000
18.65698 152.000
18.67693 164.000
18.69688 166.000
18.71682 152.000
18.73677 136.000
18.75672 182.000
18.77666 154.000
18.79661 163.000
18.81656 155.000
18.83650 160.000
18.85645 173.000
18.87640 162.000
18.89634 195.000
18.91629 165.000
18.93624 204.000
18.95619 191.000
18.97613 164.000
18.99608 171.000
19.01603 173.000
19.03597 166.000
19.05592 156.000
19.07587 182.000
19.09581 151.000
19.11576 182.000
19.13571 194.000
19.15566 184.000
19.17560 199.000
19.19555 149.000
19.21550 167.000
19.23544 177.000
19.25539 173.000
19.27534 167.000
19.29528 168.000
19.31523 156.000
19.33518 185.000
19.35513 165.000
19.37507 185.000
19.39502 177.000
19.41497 194.000
19.43491 169.000
19.45486 152.000
19.47481 185.000
19.49475 181.000
19.51470 164.000
19.53465 142.000
19.55459 182.000
19.57454 157.000
19.59449 168.000
19.61444 196.000
19.63438 162.000
19.65433 153.000
19.67428 160.000
19.69422 151.000
19.71417 188.000
19.73412 154.000
19.75406 167.000
19.77401 185.000
19.79396 165.000
19.81391 196.000
19.83385 179.000
19.85380 150.000
19.87375 155.000
19.89369 191.000
19.91364 149.000
19.93359 176.000
19.95353 174.000
19.97348 170.000
19.99343 184.000
20.01337 166.000
20.03332 157.000
20.05327 166.000
20.07322 187.000
20.09316 145.000
20.11311 165.000
20.13306 195.000
20.15300 169.000
20.17295 191.000
20.19290 169.000
20.21284 192.000
20.23279 163.000
20.25274 160.000
20.27269 181.000
20.29263 173.000
20.31258 174.000
20.33253 164.000
20.35247 188.000
20.37242 156.000
20.39237 147.000
20.41231 182.000
20.43226 170.000
20.45221 190.000
20.47215 179.000
20.49210 172.000
20.51205 186.000
20.53200 169.000
20.55194 178.000
20.57189 168.000
20.59184 177.000
20.61178 176.000
20.63173 183.000
20.65168 176.000
20.67162 160.000
20.69157 181.000
20.71152 175.000
20.73147 181.000
20.75141 179.000
20.77136 216.000
20.79131 192.000
20.81125 206.000
20.83120 183.000
20.85115 193.000
20.87109 202.000
20.89104 217.000
20.91099 199.000
20.93094 216.000
20.95088 205.000
20.97083 202.000
20.99078 212.000
21.01072 205.000
21.03067 176.000
21.05062 202.000
21.07056 179.000
21.09051 176.000
21.11046 182.000
21.13040 170.000
21.15035 151.000
21.17030 171.000
21.19025 177.000
21.21019 174.000
21.23014 165.000
21.25009 167.000
21.27003 145.000
21.28998 168.000
21.30993 163.000
21.32987 172.000
21.34982 198.000
21.36977 194.000
21.38972 172.000
21.40966 173.000
21.42961 166.000
21.44956 185.000
21.46950 176.000
21.48945 171.000
21.50940 186.000
21.52934 161.000
21.54929 175.000
21.56924 184.000
21.58918 161.000
21.60913 209.000
21.62908 176.000
21.64903 183.000
21.66897 166.000
21.68892 173.000
21.70887 169.000
21.72881 133.000
21.74876 166.000
21.76871 178.000
21.78865 198.000
21.80860 149.000
21.82855 181.000
21.84850 174.000
21.86844 172.000
21.88839 166.000
21.90834 197.000
21.92828 196.000
21.94823 171.000
21.96818 151.000
21.98812 175.000
22.00807 181.000
22.02802 198.000
22.04796 160.000
22.06791 203.000
22.08786 178.000
22.10781 168.000
22.12775 176.000
22.14770 183.000
22.16765 161.000
22.18759 168.000
22.20754 170.000
22.22749 200.000
22.24743 170.000
22.26738 161.000
22.28733 169.000
22.30728 179.000
22.32722 165.000
22.34717 201.000
22.36712 186.000
22.38706 191.000
22.40701 189.000
22.42696 186.000
22.44690 171.000
22.46685 161.000
22.48680 184.000
22.50675 196.000
22.52669 214.000
22.54664 184.000
22.56659 174.000
22.58653 173.000
22.60648 165.000
22.62643 162.000
22.64637 188.000
22.66632 203.000
22.68627 171.000
22.70621 185.000
22.72616 187.000
22.74611 194.000
22.76606 184.000
22.78600 206.000
22.80595 167.000
22.82590 193.000
22.84584 173.000
22.86579 161.000
22.88574 188.000
22.90568 140.000
22.92563 191.000
22.94558 178.000
22.96553 179.000
22.98547 187.000
23.00542 196.000
23.02537 180.000
23.04531 167.000
23.06526 183.000
23.08521 184.000
23.10515 201.000
23.12510 170.000
23.14505 167.000
23.16499 173.000
23.18494 198.000
23.20489 170.000
23.22484 189.000
23.24478 211.000
23.26473 179.000
23.28468 189.000
23.30462 186.000
23.32457 201.000
23.34452 192.000
23.36446 174.000
23.38441 197.000
23.40436 184.000
23.42431 194.000
23.44425 205.000
23.46420 184.000
23.48415 177.000
23.50409 174.000
23.52404 175.000
23.54399 166.000
23.56393 187.000
23.58388 188.000
23.60383 179.000
23.62377 200.000
23.64372 176.000
23.66367 166.000
23.68362 206.000
23.70356 181.000
23.72351 208.000
23.74346 190.000
23.76340 174.000
23.78335 182.000
23.80330 187.000
23.82324 184.000
23.84319 176.000
23.86314 192.000
23.88309 176.000
23.90303 179.000
23.92298 199.000
23.94293 173.000
23.96287 184.000
23.98282 200.000
24.00277 160.000
24.02271 201.000
24.04266 187.000
24.06261 205.000
24.08256 173.000
24.10250 176.000
24.12245 179.000
24.14240 207.000
24.16234 169.000
24.18229 194.000
24.20224 187.000
24.22218 187.000
24.24213 196.000
24.26208 190.000
24.28202 189.000
24.30197 187.000
24.32192 188.000
24.34187 186.000
24.36181 178.000
24.38176 179.000
24.40171 193.000
24.42165 195.000
24.44160 197.000
24.46155 187.000
24.48149 186.000
24.50144 187.000
24.52139 197.000
24.54134 162.000
24.56128 187.000
24.58123 190.000
24.60118 183.000
24.62112 205.000
24.64107 174.000
24.66102 197.000
24.68096 195.000
24.70091 186.000
24.72086 201.000
24.74080 203.000
24.76075 163.000
24.78070 204.000
24.80065 172.000
24.82059 210.000
24.84054 191.000
24.86049 184.000
24.88043 186.000
24.90038 211.000
24.92033 199.000
24.94027 211.000
24.96022 184.000
24.98017 209.000
25.00012 185.000
25.02006 198.000
25.04001 196.000
25.05996 200.000
25.07990 185.000
25.09985 176.000
25.11980 195.000
25.13974 193.000
25.15969 201.000
25.17964 206.000
25.19958 196.000
25.21953 186.000
25.23948 183.000
25.25943 199.000
25.27937 175.000
25.29932 184.000
25.31927 181.000
25.33921 188.000
25.35916 171.000
25.37911 228.000
25.39905 193.000
25.41900 210.000
25.43895 208.000
25.45890 229.000
25.47884 199.000
25.49879 189.000
25.51874 192.000
25.53868 186.000
25.55863 202.000
25.57858 205.000
25.59852 207.000
25.61847 208.000
25.63842 231.000
25.65837 219.000
25.67831 214.000
25.69826 207.000
25.71821 204.000
25.73815 199.000
25.75810 220.000
25.77805 194.000
25.79799 244.000
25.81794 199.000
25.83789 214.000
25.85783 214.000
25.87778 202.000
25.89773 218.000
25.91768 192.000
25.93762 218.000
25.95757 195.000
25.97752 214.000
25.99746 225.000
26.01741 225.000
26.03736 202.000
26.05730 207.000
26.07725 242.000
26.09720 220.000
26.11715 199.000
26.13709 185.000
26.15704 200.000
26.17699 195.000
26.19693 208.000
26.21688 182.000
26.23683 223.000
26.25677 214.000
26.27672 203.000
26.29667 216.000
26.31661 228.000
26.33656 206.000
26.35651 206.000
26.37646 223.000
26.39640 227.000
26.41635 219.000
26.43630 186.000
26.45624 217.000
26.47619 192.000
26.49614 210.000
26.51608 209.000
26.53603 208.000
26.55598 195.000
26.57593 233.000
26.59587 244.000
26.61582 234.000
26.63577 212.000
26.65571 208.000
26.67566 242.000
26.69561 206.000
26.71555 217.000
26.73550 209.000
26.75545 209.000
26.77539 238.000
26.79534 223.000
26.81529 198.000
26.83524 216.000
26.85518 193.000
26.87513 212.000
26.89508 224.000
26.91502 226.000
26.93497 241.000
26.95492 206.000
26.97486 199.000
26.99481 212.000
27.01476 208.000
27.03471 243.000
27.05465 211.000
27.07460 213.000
27.09455 231.000
27.11449 228.000
27.13444 264.000
27.15439 238.000
27.17433 261.000
27.19428 228.000
27.21423 243.000
27.23417 234.000
27.25412 214.000
27.27407 264.000
27.29402 235.000
27.31396 223.000
27.33391 210.000
27.35386 220.000
27.37380 216.000
27.39375 205.000
27.41370 212.000
27.43364 213.000
27.45359 234.000
27.47354 241.000
27.49349 232.000
27.51343 223.000
27.53338 231.000
27.55333 236.000
27.57327 235.000
27.59322 252.000
27.61317 246.000
27.63311 231.000
27.65306 232.000
27.67301 238.000
27.69296 204.000
27.71290 221.000
27.73285 220.000
27.75280 242.000
27.77274 230.000
27.79269 247.000
27.81264 247.000
27.83258 240.000
27.85253 217.000
27.87248 198.000
27.89242 235.000
27.91237 244.000
27.93232 245.000
27.95227 233.000
27.97221 257.000
27.99216 224.000
28.01211 240.000
28.03205 244.000
28.05200 228.000
28.07195 254.000
28.09189 251.000
28.11184 249.000
28.13179 215.000
28.15174 237.000
28.17168 229.000
28.19163 223.000
28.21158 265.000
28.23152 237.000
28.25147 253.000
28.27142 265.000
28.29136 271.000
28.31131 229.000
28.33126 241.000
28.35120 257.000
28.37115 241.000
28.39110 246.000
28.41105 240.000
28.43099 239.000
28.45094 261.000
28.47089 246.000
28.49083 251.000
28.51078 245.000
28.53073 241.000
28.55067 213.000
28.57062 244.000
28.59057 237.000
28.61052 245.000
28.63046 220.000
28.65041 229.000
28.67036 264.000
28.69030 204.000
28.71025 254.000
28.73020 261.000
28.75014 216.000
28.77009 226.000
28.79004 260.000
28.80998 204.000
28.82993 254.000
28.84988 258.000
28.86983 235.000
28.88977 246.000
28.90972 259.000
28.92967 253.000
28.94961 255.000
28.96956 260.000
28.98951 234.000
29.00945 264.000
29.02940 235.000
29.04935 275.000
29.06930 249.000
29.08924 233.000
29.10919 257.000
29.12914 241.000
29.14908 253.000
29.16903 219.000
29.18898 241.000
29.20892 238.000
29.22887 265.000
29.24882 253.000
29.26877 246.000
29.28871 239.000
29.30866 257.000
29.32861 273.000
29.34855 259.000
29.36850 274.000
29.38845 259.000
29.40839 264.000
29.42834 251.000
29.44829 232.000
29.46823 251.000
29.48818 248.000
29.50813 286.000
29.52808 260.000
29.54802 263.000
29.56797 284.000
29.58792 283.000
29.60786 343.000
29.62781 306.000
29.64776 343.000
29.66770 374.000
29.68765 430.000
29.70760 482.000
29.72755 531.000
29.74749 602.000
29.76744 653.000
29.78739 703.000
29.80733 703.000
29.82728 640.000
29.84723 611.000
29.86717 565.000
29.88712 452.000
29.90707 433.000
29.92701 341.000
29.94696 319.000
29.96691 283.000
29.98686 292.000
30.00680 259.000
30.02675 277.000
30.04670 260.000
30.06664 242.000
30.08659 277.000
30.10654 268.000
30.12648 238.000
30.14643 253.000
30.16638 227.000
30.18633 238.000
30.20627 273.000
30.22622 244.000
30.24617 251.000
30.26611 265.000
30.28606 254.000
30.30601 248.000
30.32595 279.000
30.34590 243.000
30.36585 266.000
30.38579 256.000
30.40574 238.000
30.42569 252.000
30.44564 259.000
30.46558 232.000
30.48553 244.000
30.50548 240.000
30.52542 257.000
30.54537 227.000
30.56532 262.000
30.58526 297.000
30.60521 251.000
30.62516 256.000
30.64511 287.000
30.66505 234.000
30.68500 256.000
30.70495 249.000
30.72489 249.000
30.74484 245.000
30.76479 260.000
30.78473 264.000
30.80468 262.000
30.82463 257.000
30.84458 252.000
30.86452 261.000
30.88447 248.000
30.90442 234.000
30.92436 257.000
30.94431 253.000
30.96426 272.000
30.98420 281.000
31.00415 279.000
31.02410 262.000
31.04404 285.000
31.06399 253.000
31.08394 274.000
31.10389 236.000
31.12383 254.000
31.14378 273.000
31.16373 250.000
31.18367 282.000
31.20362 251.000
31.22357 253.000
31.24351 244.000
31.26346 244.000
31.28341 252.000
31.30336 255.000
31.32330 272.000
31.34325 239.000
31.36320 287.000
31.38314 259.000
31.40309 262.000
31.42304 270.000
31.44298 273.000
31.46293 278.000
31.48288 257.000
31.50282 300.000
31.52277 331.000
31.54272 331.000
31.56267 347.000
31.58261 417.000
31.60256 370.000
31.62251 403.000
31.64245 465.000
31.66240 383.000
31.68235 394.000
31.70229 340.000
31.72224 338.000
31.74219 317.000
31.76214 319.000
31.78208 284.000
31.80203 268.000
31.82198 253.000
31.84192 235.000
31.86187 243.000
31.88182 308.000
31.90176 277.000
31.92171 288.000
31.94166 262.000
31.96160 238.000
31.98155 253.000
32.00150 239.000
32.02145 230.000
32.04139 240.000
32.06134 276.000
32.08129 256.000
32.10123 235.000
32.12118 264.000
32.14113 227.000
32.16107 252.000
32.18102 277.000
32.20097 277.000
32.22092 270.000
32.24086 269.000
32.26081 277.000
32.28076 269.000
32.30070 279.000
32.32065 306.000
32.34060 314.000
32.36054 277.000
32.38049 272.000
32.40044 282.000
32.42039 312.000
32.44033 292.000
32.46028 313.000
32.48023 268.000
32.50017 263.000
32.52012 257.000
32.54007 254.000
32.56001 265.000
32.57996 281.000
32.59991 261.000
32.61985 264.000
32.63980 213.000
32.65975 246.000
32.67970 221.000
32.69964 270.000
32.71959 235.000
32.73954 226.000
32.75948 251.000
32.77943 228.000
32.79938 236.000
32.81932 221.000
32.83927 234.000
32.85922 253.000
32.87917 255.000
32.89911 236.000
32.91906 253.000
32.93901 264.000
32.95895 258.000
32.97890 273.000
32.99885 251.000
33.01879 242.000
33.03874 227.000
33.05869 234.000
33.07863 237.000
33.09858 236.000
33.11853 239.000
33.13848 222.000
33.15842 252.000
33.17837 263.000
33.19832 229.000
33.21826 220.000
33.23821 251.000
33.25816 241.000
33.27810 228.000
33.29805 234.000
33.31800 234.000
33.33795 229.000
33.35789 250.000
33.37784 258.000
33.39779 257.000
33.41773 245.000
33.43768 195.000
33.45763 224.000
33.47757 259.000
33.49752 236.000
33.51747 290.000
33.53741 240.000
33.55736 252.000
33.57731 230.000
33.59726 252.000
33.61720 260.000
33.63715 224.000
33.65710 242.000
33.67704 248.000
33.69699 256.000
33.71694 265.000
33.73688 252.000
33.75683 242.000
33.77678 244.000
33.79673 250.000
33.81667 262.000
33.83662 253.000
33.85657 225.000
33.87651 252.000
33.89646 281.000
33.91641 223.000
33.93635 248.000
33.95630 237.000
33.97625 264.000
33.99620 273.000
34.01614 255.000
34.03609 292.000
34.05604 251.000
34.07598 222.000
34.09593 224.000
34.11588 249.000
34.13582 248.000
34.15577 231.000
34.17572 252.000
34.19566 271.000
34.21561 246.000
34.23556 250.000
34.25551 262.000
34.27545 241.000
34.29540 259.000
34.31535 263.000
34.33529 251.000
34.35524 233.000
34.37519 256.000
34.39513 284.000
34.41508 259.000
34.43503 255.000
34.45498 276.000
34.47492 290.000
34.49487 324.000
34.51482 267.000
34.53476 294.000
34.55471 305.000
34.57466 314.000
34.59460 248.000
34.61455 295.000
34.63450 278.000
34.65444 312.000
34.67439 304.000
34.69434 273.000
34.71429 296.000
34.73423 279.000
34.75418 286.000
34.77413 325.000
34.79407 312.000
34.81402 325.000
34.83397 325.000
34.85391 345.000
34.87386 333.000
34.89381 422.000
34.91376 450.000
34.93370 478.000
34.95365 579.000
34.97360 684.000
34.99354 859.000
35.01349 978.000
35.03344 1197.000
35.05338 1390.000
35.07333 1645.000
35.09328 1699.000
35.11322 1713.000
35.13317 1760.000
35.15312 1595.000
35.17307 1511.000
35.19301 1453.000
35.21296 1181.000
35.23291 1085.000
35.25285 947.000
35.27280 822.000
35.29275 877.000
35.31269 844.000
35.33264 848.000
35.35259 808.000
35.37254 936.000
35.39248 976.000
35.41243 1050.000
35.43238 1012.000
35.45232 934.000
35.47227 879.000
35.49222 827.000
35.51216 782.000
35.53211 682.000
35.55206 618.000
35.57201 528.000
35.59195 461.000
35.61190 438.000
35.63185 397.000
35.65179 331.000
35.67174 323.000
35.69169 295.000
35.71163 302.000
35.73158 272.000
35.75153 291.000
35.77147 260.000
35.79142 236.000
35.81137 228.000
35.83132 271.000
35.85126 289.000
35.87121 266.000
35.89116 242.000
35.91110 256.000
35.93105 250.000
35.95100 216.000
35.97094 247.000
35.99089 241.000
36.01084 212.000
36.03079 250.000
36.05073 239.000
36.07068 208.000
36.09063 241.000
36.11057 233.000
36.13052 207.000
36.15047 242.000
36.17041 204.000
36.19036 254.000
36.21031 247.000
36.23025 234.000
36.25020 256.000
36.27015 238.000
36.29010 236.000
36.31004 228.000
36.32999 253.000
36.34994 229.000
36.36988 255.000
36.38983 260.000
36.40978 244.000
36.42972 267.000
36.44967 248.000
36.46962 210.000
36.48957 255.000
36.50951 228.000
36.52946 280.000
36.54941 245.000
36.56935 234.000
36.58930 244.000
36.60925 244.000
36.62919 263.000
36.64914 302.000
36.66909 297.000
36.68903 336.000
36.70898 365.000
36.72893 356.000
36.74888 344.000
36.76882 373.000
36.78877 374.000
36.80872 339.000
36.82866 318.000
36.84861 306.000
36.86856 285.000
36.88850 250.000
36.90845 254.000
36.92840 258.000
36.94835 225.000
36.96829 235.000
36.98824 214.000
37.00819 221.000
37.02813 242.000
37.04808 222.000
37.06803 247.000
37.08797 213.000
37.10792 213.000
37.12787 225.000
37.14781 244.000
37.16776 236.000
37.18771 223.000
37.20766 242.000
37.22760 252.000
37.24755 217.000
37.26750 223.000
37.28744 204.000
37.30739 233.000
37.32734 205.000
37.34728 246.000
37.36723 204.000
37.38718 227.000
37.40713 234.000
37.42707 259.000
37.44702 184.000
37.46697 195.000
37.48691 235.000
37.50686 231.000
37.52681 239.000
37.54675 200.000
37.56670 209.000
37.58665 220.000
37.60660 206.000
37.62654 213.000
37.64649 187.000
37.66644 221.000
37.68638 211.000
37.70633 202.000
37.72628 209.000
37.74622 203.000
37.76617 194.000
37.78612 231.000
37.80606 226.000
37.82601 236.000
37.84596 237.000
37.86591 215.000
37.88585 250.000
37.90580 197.000
37.92575 222.000
37.94569 232.000
37.96564 202.000
37.98559 215.000
38.00553 233.000
38.02548 255.000
38.04543 215.000
38.06538 275.000
38.08532 243.000
38.10527 233.000
38.12522 217.000
38.14516 246.000
38.16511 234.000
38.18506 263.000
38.20500 263.000
38.22495 248.000
38.24490 274.000
38.26484 238.000
38.28479 273.000
38.30474 262.000
38.32469 272.000
38.34463 271.000
38.36458 282.000
38.38453 317.000
38.40447 321.000
38.42442 325.000
38.44437 424.000
38.46431 388.000
38.48426 453.000
38.50421 496.000
38.52416 557.000
38.54410 606.000
38.56405 735.000
38.58400 774.000
38.60394 810.000
38.62389 772.000
38.64384 761.000
38.66378 750.000
38.68373 665.000
38.70368 688.000
38.72362 634.000
38.74357 635.000
38.76352 576.000
38.78347 562.000
38.80341 577.000
38.82336 540.000
38.84331 548.000
38.86325 559.000
38.88320 559.000
38.90315 615.000
38.92309 641.000
38.94304 649.000
38.96299 660.000
38.98294 625.000
39.00288 657.000
39.02283 650.000
39.04278 615.000
39.06272 567.000
39.08267 506.000
39.10262 485.000
39.12256 434.000
39.14251 457.000
39.16246 347.000
39.18241 338.000
39.20235 313.000
39.22230 296.000
39.24225 287.000
39.26219 268.000
39.28214 243.000
39.30209 258.000
39.32203 228.000
39.34198 227.000
39.36193 219.000
39.38187 243.000
39.40182 227.000
39.42177 235.000
39.44172 207.000
39.46166 238.000
39.48161 218.000
39.50156 247.000
39.52150 201.000
39.54145 210.000
39.56140 205.000
39.58134 227.000
39.60129 230.000
39.62124 204.000
39.64119 213.000
39.66113 218.000
39.68108 218.000
39.70103 205.000
39.72097 248.000
39.74092 211.000
39.76087 212.000
39.78081 217.000
39.80076 233.000
39.82071 214.000
39.84065 216.000
39.86060 212.000
39.88055 215.000
39.90050 208.000
39.92044 226.000
39.94039 212.000
39.96034 207.000
39.98028 219.000
40.00023 190.000
40.02018 227.000
40.04012 197.000
40.06007 238.000
40.08002 191.000
40.09997 219.000
40.11991 212.000
40.13986 220.000
40.15981 186.000
40.17975 199.000
40.19970 190.000
40.21965 210.000
40.23959 225.000
40.25954 215.000
40.27949 199.000
40.29943 203.000
40.31938 212.000
40.33933 208.000
40.35928 198.000
40.37922 193.000
40.39917 196.000
40.41912 189.000
40.43906 201.000
40.45901 197.000
40.47896 209.000
40.49890 207.000
40.51885 225.000
40.53880 237.000
40.55875 178.000
40.57869 219.000
40.59864 218.000
40.61859 194.000
40.63853 198.000
40.65848 189.000
40.67843 216.000
40.69837 220.000
40.71832 222.000
40.73827 205.000
40.75822 219.000
40.77816 194.000
40.79811 231.000
40.81806 207.000
40.83800 212.000
40.85795 216.000
40.87790 186.000
40.89784 213.000
40.91779 211.000
40.93774 245.000
40.95768 198.000
40.97763 204.000
40.99758 192.000
41.01753 229.000
41.03747 184.000
41.05742 179.000
41.07737 221.000
41.09731 218.000
41.11726 197.000
41.13721 192.000
41.15715 186.000
41.17710 202.000
41.19705 208.000
41.21700 208.000
41.23694 222.000
41.25689 209.000
41.27684 182.000
41.29678 206.000
41.31673 214.000
41.33668 235.000
41.35662 220.000
41.37657 213.000
41.39652 209.000
41.41646 208.000
41.43641 189.000
41.45636 206.000
41.47631 197.000
41.49625 186.000
41.51620 220.000
41.53615 214.000
41.55609 209.000
41.57604 191.000
41.59599 196.000
41.61593 202.000
41.63588 204.000
41.65583 211.000
41.67578 205.000
41.69572 227.000
41.71567 195.000
41.73562 221.000
41.75556 224.000
41.77551 215.000
41.79546 188.000
41.81540 225.000
41.83535 184.000
41.85530 223.000
41.87524 200.000
41.89519 184.000
41.91514 204.000
41.93509 223.000
41.95503 198.000
41.97498 204.000
41.99493 189.000
42.01487 217.000
42.03482 206.000
42.05477 208.000
42.07471 222.000
42.09466 222.000
42.11461 205.000
42.13456 253.000
42.15450 208.000
42.17445 201.000
42.19440 199.000
42.21434 219.000
42.23429 230.000
42.25424 222.000
42.27418 187.000
42.29413 205.000
42.31408 207.000
42.33403 229.000
42.35397 232.000
42.37392 219.000
42.39387 256.000
42.41381 217.000
42.43376 242.000
42.45371 248.000
42.47365 232.000
42.49360 298.000
42.51355 249.000
42.53349 274.000
42.55344 307.000
42.57339 357.000
42.59334 379.000
42.61328 428.000
42.63323 454.000
42.65318 531.000
42.67312 512.000
42.69307 523.000
42.71302 546.000
42.73296 517.000
42.75291 516.000
42.77286 499.000
42.79281 436.000
42.81275 413.000
42.83270 400.000
42.85265 393.000
42.87259 381.000
42.89254 346.000
42.91249 288.000
42.93243 312.000
42.95238 315.000
42.97233 333.000
42.99227 329.000
43.01222 326.000
43.03217 380.000
43.05212 375.000
43.07206 375.000
43.09201 358.000
43.11196 339.000
43.13190 312.000
43.15185 298.000
43.17180 291.000
43.19174 281.000
43.21169 293.000
43.23164 294.000
43.25159 269.000
43.27153 239.000
43.29148 246.000
43.31143 220.000
43.33137 225.000
43.35132 243.000
43.37127 221.000
43.39121 219.000
43.41116 221.000
43.43111 215.000
43.45105 203.000
43.47100 203.000
43.49095 182.000
43.51090 180.000
43.53084 229.000
43.55079 191.000
43.57074 199.000
43.59068 165.000
43.61063 200.000
43.63058 184.000
43.65052 209.000
43.67047 175.000
43.69042 180.000
43.71037 200.000
43.73031 192.000
43.75026 190.000
43.77021 195.000
43.79015 183.000
43.81010 181.000
43.83005 195.000
43.84999 209.000
43.86994 189.000
43.88989 219.000
43.90984 190.000
43.92978 197.000
43.94973 216.000
43.96968 152.000
43.98962 200.000
44.00957 211.000
44.02952 196.000
44.04946 193.000
44.06941 187.000
44.08936 196.000
44.10930 185.000
44.12925 187.000
44.14920 184.000
44.16915 203.000
44.18909 170.000
44.20904 204.000
44.22899 183.000
44.24893 209.000
44.26888 211.000
44.28883 216.000
44.30877 180.000
44.32872 195.000
44.34867 188.000
44.36862 183.000
44.38856 191.000
44.40851 209.000
44.42846 222.000
44.44840 181.000
44.46835 187.000
44.48830 173.000
44.50824 194.000
44.52819 213.000
44.54814 184.000
44.56808 194.000
44.58803 205.000
44.60798 195.000
44.62793 209.000
44.64787 181.000
44.66782 194.000
44.68777 193.000
44.70771 197.000
44.72766 184.000
44.74761 202.000
44.76755 212.000
44.78750 190.000
44.80745 177.000
44.82740 189.000
44.84734 202.000
44.86729 205.000
44.88724 204.000
44.90718 182.000
44.92713 200.000
44.94708 200.000
44.96702 177.000
44.98697 194.000
45.00692 204.000
45.02686 183.000
45.04681 195.000
45.06676 216.000
45.08671 200.000
45.10665 193.000
45.12660 174.000
45.14655 205.000
45.16649 204.000
45.18644 192.000
45.20639 206.000
45.22633 187.000
45.24628 202.000
45.26623 180.000
45.28618 169.000
45.30612 206.000
45.32607 211.000
45.34602 193.000
45.36596 193.000
45.38591 181.000
45.40586 180.000
45.42580 190.000
45.44575 186.000
45.46570 173.000
45.48565 170.000
45.50559 224.000
45.52554 192.000
45.54549 205.000
45.56543 211.000
45.58538 211.000
45.60533 190.000
45.62527 181.000
45.64522 214.000
45.66517 171.000
45.68511 189.000
45.70506 199.000
45.72501 200.000
45.74496 200.000
45.76490 193.000
45.78485 218.000
45.80480 173.000
45.82474 195.000
45.84469 175.000
45.86464 202.000
45.88458 179.000
45.90453 154.000
45.92448 185.000
45.94443 223.000
45.96437 199.000
45.98432 210.000
46.00427 194.000
46.02421 194.000
46.04416 216.000
46.06411 230.000
46.08405 203.000
46.10400 197.000
46.12395 199.000
46.14389 197.000
46.16384 208.000
46.18379 181.000
46.20374 221.000
46.22368 200.000
46.24363 224.000
46.26358 192.000
46.28352 189.000
46.30347 189.000
46.32342 166.000
46.34336 200.000
46.36331 198.000
46.38326 158.000
46.40321 193.000
46.42315 188.000
46.44310 233.000
46.46305 185.000
46.48299 170.000
46.50294 211.000
46.52289 177.000
46.54283 206.000
46.56278 175.000
46.58273 209.000
46.60267 176.000
46.62262 205.000
46.64257 185.000
46.66252 183.000
46.68246 173.000
46.70241 193.000
46.72236 209.000
46.74230 211.000
46.76225 199.000
46.78220 198.000
46.80214 186.000
46.82209 180.000
46.84204 183.000
46.86199 198.000
46.88193 205.000
46.90188 177.000
46.92183 198.000
46.94177 192.000
46.96172 179.000
46.98167 184.000
47.00161 203.000
47.02156 184.000
47.04151 182.000
47.06146 161.000
47.08140 184.000
47.10135 192.000
47.12130 195.000
47.14124 182.000
47.16119 176.000
47.18114 190.000
47.20108 194.000
47.22103 185.000
47.24098 194.000
47.26092 171.000
47.28087 191.000
47.30082 207.000
47.32077 176.000
47.34071 196.000
47.36066 189.000
47.38061 171.000
47.40055 205.000
47.42050 190.000
47.44045 201.000
47.46039 209.000
47.48034 198.000
47.50029 201.000
47.52024 197.000
47.54018 189.000
47.56013 195.000
47.58008 192.000
47.60002 198.000
47.61997 211.000
47.63992 197.000
47.65986 176.000
47.67981 189.000
47.69976 197.000
47.71970 192.000
47.73965 212.000
47.75960 197.000
47.77955 177.000
47.79949 227.000
47.81944 206.000
47.83939 218.000
47.85933 209.000
47.87928 203.000
47.89923 236.000
47.91917 201.000
47.93912 224.000
47.95907 246.000
47.97902 212.000
47.99896 231.000
48.01891 227.000
48.03886 269.000
48.05880 263.000
48.07875 239.000
48.09870 257.000
48.11864 278.000
48.13859 303.000
48.15854 325.000
48.17848 357.000
48.19843 414.000
48.21838 432.000
48.23833 474.000
48.25827 463.000
48.27822 532.000
48.29817 573.000
48.31811 562.000
48.33806 489.000
48.35801 550.000
48.37795 487.000
48.39790 501.000
48.41785 432.000
48.43780 446.000
48.45774 443.000
48.47769 401.000
48.49764 381.000
48.51758 381.000
48.53753 344.000
48.55748 377.000
48.57742 328.000
48.59737 366.000
48.61732 341.000
48.63726 360.000
48.65721 342.000
48.67716 351.000
48.69711 294.000
48.71705 279.000
48.73700 287.000
48.75695 295.000
48.77689 260.000
48.79684 261.000
48.81679 225.000
48.83673 224.000
48.85668 208.000
48.87663 201.000
48.89658 213.000
48.91652 211.000
48.93647 204.000
48.95642 224.000
48.97636 199.000
48.99631 208.000
49.01626 211.000
49.03620 189.000
49.05615 187.000
49.07610 196.000
49.09605 189.000
49.11599 232.000
49.13594 180.000
49.15589 187.000
49.17583 184.000
49.19578 181.000
49.21573 182.000
49.23567 185.000
49.25562 174.000
49.27557 172.000
49.29551 166.000
49.31546 186.000
49.33541 185.000
49.35536 189.000
49.37530 173.000
49.39525 181.000
49.41520 202.000
49.43514 191.000
49.45509 194.000
49.47504 184.000
49.49498 174.000
49.51493 186.000
49.53488 185.000
49.55483 181.000
49.57477 179.000
49.59472 199.000
49.61467 189.000
49.63461 171.000
49.65456 177.000
49.67451 165.000
49.69445 194.000
49.71440 162.000
49.73435 166.000
49.75429 183.000
49.77424 187.000
49.79419 185.000
49.81414 179.000
49.83408 195.000
49.85403 199.000
49.87398 178.000
49.89392 190.000
49.91387 159.000
49.93382 192.000
49.95376 172.000
49.97371 151.000
49.99366 168.000
50.01361 193.000
50.03355 163.000
50.05350 164.000
50.07345 162.000
50.09339 187.000
50.11334 182.000
50.13329 185.000
50.15323 182.000
50.17318 187.000
50.19313 192.000
50.21307 179.000
50.23302 194.000
50.25297 188.000
50.27292 177.000
50.29286 172.000
50.31281 183.000
50.33276 198.000
50.35270 168.000
50.37265 167.000
50.39260 172.000
50.41254 199.000
50.43249 186.000
50.45244 196.000
50.47239 189.000
50.49233 189.000
50.51228 215.000
50.53223 183.000
50.55217 204.000
50.57212 182.000
50.59207 183.000
50.61201 199.000
50.63196 156.000
50.65191 170.000
50.67186 169.000
50.69180 169.000
50.71175 170.000
50.73170 197.000
50.75164 178.000
50.77159 170.000
50.79154 162.000
50.81148 180.000
50.83143 191.000
50.85138 168.000
50.87132 164.000
50.89127 189.000
50.91122 170.000
50.93117 200.000
50.95111 193.000
50.97106 159.000
50.99101 173.000
51.01095 184.000
51.03090 214.000
51.05085 184.000
51.07079 210.000
51.09074 155.000
51.11069 181.000
51.13064 209.000
51.15058 186.000
51.17053 167.000
51.19048 203.000
51.21042 172.000
51.23037 192.000
51.25032 182.000
51.27026 189.000
51.29021 173.000
51.31016 178.000
51.33010 165.000
51.35005 176.000
51.37000 169.000
51.38995 193.000
51.40989 188.000
51.42984 171.000
51.44979 176.000
51.46973 174.000
51.48968 176.000
51.50963 174.000
51.52957 196.000
51.54952 159.000
51.56947 203.000
51.58942 155.000
51.60936 193.000
51.62931 157.000
51.64926 187.000
51.66920 198.000
51.68915 170.000
51.70910 170.000
51.72904 190.000
51.74899 196.000
51.76894 167.000
51.78888 178.000
51.80883 182.000
51.82878 176.000
51.84873 198.000
51.86867 164.000
51.88862 190.000
51.90857 181.000
51.92851 183.000
51.94846 166.000
51.96841 172.000
51.98835 170.000
52.00830 161.000
52.02825 195.000
52.04820 190.000
52.06814 203.000
52.08809 207.000
52.10804 198.000
52.12798 170.000
52.14793 183.000
52.16788 189.000
52.18782 191.000
52.20777 164.000
52.22772 199.000
52.24767 153.000
52.26761 186.000
52.28756 177.000
52.30751 164.000
52.32745 185.000
52.34740 170.000
52.36735 211.000
52.38729 179.000
52.40724 177.000
52.42719 190.000
52.44713 199.000
52.46708 192.000
52.48703 200.000
52.50698 153.000
52.52692 181.000
52.54687 180.000
52.56682 164.000
52.58676 182.000
52.60671 195.000
52.62666 197.000
52.64660 174.000
52.66655 190.000
52.68650 194.000
52.70645 171.000
52.72639 177.000
52.74634 198.000
52.76629 190.000
52.78623 205.000
52.80618 222.000
52.82613 191.000
52.84607 212.000
52.86602 192.000
52.88597 213.000
52.90591 229.000
52.92586 271.000
52.94581 280.000
52.96576 275.000
52.98570 270.000
53.00565 287.000
53.02560 255.000
53.04554 255.000
53.06549 269.000
53.08544 268.000
53.10538 264.000
53.12533 228.000
53.14528 237.000
53.16523 227.000
53.18517 228.000
53.20512 231.000
53.22507 230.000
53.24501 239.000
53.26496 223.000
53.28491 202.000
53.30485 201.000
53.32480 223.000
53.34475 177.000
53.36469 199.000
53.38464 245.000
53.40459 226.000
53.42454 215.000
53.44448 229.000
53.46443 213.000
53.48438 199.000
53.50432 219.000
53.52427 213.000
53.54422 193.000
53.56416 215.000
53.58411 217.000
53.60406 213.000
53.62401 188.000
53.64395 213.000
53.66390 188.000
53.68385 190.000
53.70379 216.000
53.72374 189.000
53.74369 183.000
53.76363 155.000
53.78358 189.000
53.80353 176.000
53.82348 193.000
53.84342 201.000
53.86337 191.000
53.88332 192.000
53.90326 177.000
53.92321 218.000
53.94316 189.000
53.96310 191.000
53.98305 214.000
54.00300 189.000
54.02294 195.000
54.04289 178.000
54.06284 163.000
54.08279 161.000
54.10273 164.000
54.12268 170.000
54.14263 171.000
54.16257 169.000
54.18252 158.000
54.20247 179.000
54.22241 175.000
54.24236 177.000
54.26231 171.000
54.28226 168.000
54.30220 164.000
54.32215 180.000
54.34210 185.000
54.36204 197.000
54.38199 185.000
54.40194 184.000
54.42188 198.000
54.44183 176.000
54.46178 172.000
54.48172 169.000
54.50167 176.000
54.52162 176.000
54.54157 184.000
54.56151 168.000
54.58146 184.000
54.60141 181.000
54.62135 203.000
54.64130 177.000
54.66125 175.000
54.68119 181.000
54.70114 183.000
54.72109 184.000
54.74104 188.000
54.76098 169.000
54.78093 174.000
54.80088 161.000
54.82082 176.000
54.84077 177.000
54.86072 178.000
54.88066 176.000
54.90061 185.000
54.92056 167.000
54.94050 165.000
54.96045 180.000
54.98040 182.000
55.00035 155.000
55.02029 216.000
55.04024 206.000
55.06019 161.000
55.08013 189.000
55.10008 172.000
55.12003 167.000
55.13997 169.000
55.15992 180.000
55.17987 144.000
55.19982 183.000
55.21976 186.000
55.23971 177.000
55.25966 193.000
55.27960 161.000
55.29955 176.000
55.31950 187.000
55.33944 163.000
55.35939 177.000
55.37934 167.000
55.39929 184.000
55.41923 191.000
55.43918 183.000
55.45913 164.000
55.47907 195.000
55.49902 185.000
55.51897 174.000
55.53891 172.000
55.55886 170.000
55.57881 167.000
55.59875 199.000
55.61870 164.000
55.63865 183.000
55.65860 152.000
55.67854 158.000
55.69849 187.000
55.71844 179.000
55.73838 191.000
55.75833 149.000
55.77828 189.000
55.79822 195.000
55.81817 195.000
55.83812 166.000
55.85807 180.000
55.87801 179.000
55.89796 205.000
55.91791 209.000
55.93785 181.000
55.95780 205.000
55.97775 212.000
55.99769 177.000
56.01764 206.000
56.03759 220.000
56.05753 192.000
56.07748 184.000
56.09743 195.000
56.11738 219.000
56.13732 198.000
56.15727 197.000
56.17722 201.000
56.19716 211.000
56.21711 218.000
56.23706 229.000
56.25700 219.000
56.27695 269.000
56.29690 308.000
56.31685 297.000
56.33679 344.000
56.35674 338.000
56.37669 363.000
56.39663 420.000
56.41658 429.000
56.43653 439.000
56.45647 533.000
56.47642 524.000
56.49637 593.000
56.51631 538.000
56.53626 518.000
56.55621 467.000
56.57616 479.000
56.59610 440.000
56.61605 448.000
56.63600 460.000
56.65594 361.000
56.67589 378.000
56.69584 359.000
56.71578 326.000
56.73573 262.000
56.75568 251.000
56.77563 247.000
56.79557 227.000
56.81552 220.000
56.83547 210.000
56.85541 224.000
56.87536 213.000
56.89531 182.000
56.91525 200.000
56.93520 201.000
56.95515 181.000
56.97510 192.000
56.99504 214.000
57.01499 202.000
57.03494 203.000
57.05488 195.000
57.07483 180.000
57.09478 173.000
57.11472 188.000
57.13467 186.000
57.15462 170.000
57.17456 191.000
57.19451 163.000
57.21446 173.000
57.23441 189.000
57.25435 184.000
57.27430 177.000
57.29425 186.000
57.31419 192.000
57.33414 190.000
57.35409 200.000
57.37403 176.000
57.39398 202.000
57.41393 175.000
57.43388 175.000
57.45382 180.000
57.47377 176.000
57.49372 167.000
57.51366 214.000
57.53361 182.000
57.55356 189.000
57.57350 178.000
57.59345 191.000
57.61340 185.000
57.63334 202.000
57.65329 183.000
57.67324 201.000
57.69319 172.000
57.71313 210.000
57.73308 173.000
57.75303 191.000
57.77297 158.000
57.79292 193.000
57.81287 198.000
57.83281 188.000
57.85276 194.000
57.87271 191.000
57.89266 188.000
57.91260 173.000
57.93255 199.000
57.95250 174.000
57.97244 213.000
57.99239 181.000
58.01234 199.000
58.03228 211.000
58.05223 218.000
58.07218 212.000
58.09212 179.000
58.11207 229.000
58.13202 245.000
58.15197 262.000
58.17191 242.000
58.19186 265.000
58.21181 245.000
58.23175 208.000
58.25170 236.000
58.27165 244.000
58.29159 233.000
58.31154 224.000
58.33149 213.000
58.35144 225.000
58.37138 184.000
58.39133 198.000
58.41128 170.000
58.43122 188.000
58.45117 173.000
58.47112 188.000
58.49106 203.000
58.51101 175.000
58.53096 185.000
58.55090 196.000
58.57085 186.000
58.59080 158.000
58.61075 201.000
58.63069 194.000
58.65064 211.000
58.67059 174.000
58.69053 191.000
58.71048 165.000
58.73043 183.000
58.75037 182.000
58.77032 169.000
58.79027 206.000
58.81022 182.000
58.83016 191.000
58.85011 192.000
58.87006 186.000
58.89000 174.000
58.90995 174.000
58.92990 200.000
58.94984 171.000
58.96979 176.000
58.98974 189.000
59.00969 172.000
59.02963 179.000
59.04958 173.000
59.06953 162.000
59.08947 179.000
59.10942 141.000
59.12937 171.000
59.14931 162.000
59.16926 187.000
59.18921 163.000
59.20915 169.000
59.22910 181.000
59.24905 178.000
59.26900 170.000
59.28894 186.000
59.30889 184.000
59.32884 174.000
59.34878 185.000
59.36873 192.000
59.38868 176.000
59.40862 192.000
59.42857 203.000
59.44852 181.000
59.46847 160.000
59.48841 187.000
59.50836 183.000
59.52831 189.000
59.54825 192.000
59.56820 171.000
59.58815 156.000
59.60809 177.000
59.62804 218.000
59.64799 190.000
59.66793 194.000
59.68788 184.000
59.70783 171.000
59.72778 191.000
59.74772 162.000
59.76767 172.000
59.78762 155.000
59.80756 188.000
59.82751 183.000
59.84746 176.000
59.86740 176.000
59.88735 187.000
59.90730 186.000
59.92725 182.000
59.94719 209.000
59.96714 187.000
59.98709 163.000
60.00703 197.000
60.02698 168.000
60.04693 147.000
60.06687 171.000
60.08682 176.000
60.10677 187.000
60.12671 167.000
60.14666 190.000
60.16661 194.000
60.18656 194.000
60.20650 173.000
60.22645 167.000
60.24640 174.000
60.26634 169.000
60.28629 166.000
60.30624 165.000
60.32618 198.000
60.34613 185.000
60.36608 169.000
60.38603 193.000
60.40597 161.000
60.42592 194.000
60.44587 180.000
60.46581 191.000
60.48576 172.000
60.50571 185.000
60.52565 210.000
60.54560 191.000
60.56555 177.000
60.58550 196.000
60.60544 200.000
60.62539 186.000
60.64534 183.000
60.66528 169.000
60.68523 179.000
60.70518 181.000
60.72512 184.000
60.74507 169.000
60.76502 158.000
60.78496 168.000
60.80491 183.000
60.82486 194.000
60.84481 161.000
60.86475 208.000
60.88470 181.000
60.90465 191.000
60.92459 221.000
60.94454 175.000
60.96449 192.000
60.98443 203.000
61.00438 183.000
61.02433 186.000
61.04428 199.000
61.06422 219.000
61.08417 215.000
61.10412 228.000
61.12406 217.000
61.14401 229.000
61.16396 241.000
61.18390 251.000
61.20385 229.000
61.22380 269.000
61.24374 243.000
61.26369 265.000
61.28364 312.000
61.30359 323.000
61.32353 302.000
61.34348 337.000
61.36343 375.000
61.38337 417.000
61.40332 422.000
61.42327 431.000
61.44321 414.000
61.46316 415.000
61.48311 403.000
61.50306 392.000
61.52300 390.000
61.54295 366.000
61.56290 390.000
61.58284 319.000
61.60279 353.000
61.62274 331.000
61.64268 328.000
61.66263 331.000
61.68258 271.000
61.70252 249.000
61.72247 298.000
61.74242 283.000
61.76237 288.000
61.78231 310.000
61.80226 268.000
61.82221 277.000
61.84215 281.000
61.86210 323.000
61.88205 323.000
61.90199 392.000
61.92194 464.000
61.94189 450.000
61.96184 518.000
61.98178 548.000
62.00173 620.000
62.02168 684.000
62.04162 680.000
62.06157 640.000
62.08152 626.000
62.10146 545.000
62.12141 585.000
62.14136 528.000
62.16131 487.000
62.18125 517.000
62.20120 453.000
62.22115 431.000
62.24109 439.000
62.26104 380.000
62.28099 340.000
62.30093 325.000
62.32088 260.000
62.34083 262.000
62.36077 234.000
62.38072 221.000
62.40067 249.000
62.42062 215.000
62.44056 232.000
62.46051 193.000
62.48046 197.000
62.50040 189.000
62.52035 189.000
62.54030 209.000
62.56024 172.000
62.58019 174.000
62.60014 188.000
62.62009 191.000
62.64003 190.000
62.65998 210.000
62.67993 191.000
62.69987 199.000
62.71982 179.000
62.73977 198.000
62.75971 199.000
62.77966 176.000
62.79961 169.000
62.81955 181.000
62.83950 197.000
62.85945 193.000
62.87940 192.000
62.89934 183.000
62.91929 181.000
62.93924 166.000
62.95918 176.000
62.97913 165.000
62.99908 186.000
63.01902 173.000
63.03897 209.000
63.05892 181.000
63.07887 208.000
63.09881 164.000
63.11876 191.000
63.13871 153.000
63.15865 197.000
63.17860 190.000
63.19855 190.000
63.21849 197.000
63.23844 192.000
63.25839 202.000
63.27833 184.000
63.29828 185.000
63.31823 189.000
63.33818 198.000
63.35812 179.000
63.37807 183.000
63.39802 214.000
63.41796 190.000
63.43791 185.000
63.45786 196.000
63.47780 215.000
63.49775 217.000
63.51770 208.000
63.53765 218.000
63.55759 206.000
63.57754 211.000
63.59749 227.000
63.61743 236.000
63.63738 242.000
63.65733 266.000
63.67727 249.000
63.69722 276.000
63.71717 233.000
63.73712 278.000
63.75706 280.000
63.77701 279.000
63.79696 294.000
63.81690 278.000
63.83685 283.000
63.85680 293.000
63.87674 264.000
63.89669 276.000
63.91664 230.000
63.93658 287.000
63.95653 241.000
63.97648 246.000
63.99643 242.000
64.01637 218.000
64.03632 248.000
64.05627 222.000
64.07621 215.000
64.09616 206.000
64.11611 196.000
64.13605 195.000
64.15600 189.000
64.17595 206.000
64.19590 215.000
64.21584 188.000
64.23579 175.000
64.25574 194.000
64.27568 188.000
64.29563 190.000
64.31558 188.000
64.33552 197.000
64.35547 186.000
64.37542 209.000
64.39536 192.000
64.41531 184.000
64.43526 188.000
64.45521 196.000
64.47515 191.000
64.49510 194.000
64.51505 205.000
64.53499 164.000
64.55494 162.000
64.57489 187.000
64.59483 193.000
64.61478 181.000
64.63473 191.000
64.65468 176.000
64.67462 172.000
64.69457 188.000
64.71452 169.000
64.73446 173.000
64.75441 171.000
64.77436 172.000
64.79430 177.000
64.81425 186.000
64.83420 192.000
64.85414 170.000
64.87409 177.000
64.89404 197.000
64.91399 180.000
64.93393 184.000
64.95388 182.000
64.97383 187.000
64.99377 178.000
65.01372 174.000
65.03367 200.000
65.05361 183.000
65.07356 177.000
65.09351 192.000
65.11346 182.000
65.13340 198.000
65.15335 198.000
65.17330 189.000
65.19324 181.000
65.21319 177.000
65.23314 199.000
65.25308 200.000
65.27303 192.000
65.29298 202.000
65.31293 202.000
65.33287 203.000
65.35282 188.000
65.37277 211.000
65.39271 179.000
65.41266 182.000
65.43261 201.000
65.45255 222.000
65.47250 215.000
65.49245 197.000
65.51239 209.000
65.53234 202.000
65.55229 202.000
65.57224 216.000
65.59218 237.000
65.61213 200.000
65.63208 238.000
65.65202 213.000
65.67197 237.000
65.69192 223.000
65.71186 230.000
65.73181 222.000
65.75176 246.000
65.77171 258.000
65.79165 243.000
65.81160 246.000
65.83155 249.000
65.85149 245.000
65.87144 264.000
65.89139 253.000
65.91133 238.000
65.93128 238.000
65.95123 249.000
65.97117 275.000
65.99112 295.000
66.01107 275.000
66.03102 289.000
66.05096 306.000
66.07091 332.000
66.09086 349.000
66.11080 336.000
66.13075 309.000
66.15070 331.000
66.17064 338.000
66.19059 334.000
66.21054 303.000
66.23049 323.000
66.25043 301.000
66.27038 310.000
66.29033 316.000
66.31027 277.000
66.33022 294.000
66.35017 288.000
66.37011 250.000
66.39006 231.000
66.41001 240.000
66.42995 230.000
66.44990 218.000
66.46985 232.000
66.48980 218.000
66.50974 191.000
66.52969 171.000
66.54964 192.000
66.56958 191.000
66.58953 177.000
66.60948 198.000
66.62942 213.000
66.64937 191.000
66.66932 186.000
66.68927 172.000
66.70921 207.000
66.72916 180.000
66.74911 186.000
66.76905 174.000
66.78900 179.000
66.80895 187.000
66.82889 184.000
66.84884 185.000
66.86879 185.000
66.88874 169.000
66.90868 183.000
66.92863 173.000
66.94858 184.000
66.96852 196.000
66.98847 176.000
67.00842 206.000
67.02836 176.000
67.04831 192.000
67.06826 162.000
67.08820 145.000
67.10815 171.000
67.12810 154.000
67.14805 196.000
67.16799 159.000
67.18794 170.000
67.20789 181.000
67.22783 158.000
67.24778 196.000
67.26773 183.000
67.28767 195.000
67.30762 174.000
67.32757 227.000
67.34752 171.000
67.36746 169.000
67.38741 182.000
67.40736 177.000
67.42730 163.000
67.44725 187.000
67.46720 182.000
67.48714 186.000
67.50709 187.000
67.52704 207.000
67.54698 193.000
67.56693 189.000
67.58688 186.000
67.60683 173.000
67.62677 210.000
67.64672 196.000
67.66667 187.000
67.68661 178.000
67.70656 196.000
67.72651 212.000
67.74645 193.000
67.76640 220.000
67.78635 245.000
67.80630 215.000
67.82624 219.000
67.84619 215.000
67.86614 224.000
67.88608 233.000
67.90603 247.000
67.92598 249.000
67.94592 246.000
67.96587 250.000
67.98582 268.000
68.00576 244.000
68.02571 241.000
68.04566 241.000
68.06561 279.000
68.08555 241.000
68.10550 216.000
68.12545 194.000
68.14539 234.000
68.16534 236.000
68.18529 221.000
68.20523 211.000
68.22518 184.000
68.24513 227.000
68.26508 198.000
68.28502 198.000
68.30497 182.000
68.32492 192.000
68.34486 185.000
68.36481 192.000
68.38476 164.000
68.40470 168.000
68.42465 198.000
68.44460 168.000
68.46455 171.000
68.48449 171.000
68.50444 175.000
68.52439 165.000
68.54433 163.000
68.56428 177.000
68.58423 163.000
68.60417 169.000
68.62412 156.000
68.64407 200.000
68.66401 165.000
68.68396 175.000
68.70391 175.000
68.72386 169.000
68.74380 190.000
68.76375 187.000
68.78370 208.000
68.80364 216.000
68.82359 183.000
68.84354 174.000
68.86348 171.000
68.88343 166.000
68.90338 159.000
68.92333 169.000
68.94327 182.000
68.96322 164.000
68.98317 171.000
69.00311 190.000
69.02306 167.000
69.04301 172.000
69.06295 172.000
69.08290 170.000
69.10285 196.000
69.12279 171.000
69.14274 159.000
69.16269 169.000
69.18264 176.000
69.20258 156.000
69.22253 161.000
69.24248 169.000
69.26242 166.000
69.28237 177.000
69.30232 161.000
69.32226 166.000
69.34221 168.000
69.36216 182.000
69.38211 164.000
69.40205 168.000
69.42200 168.000
69.44195 153.000
69.46189 184.000
69.48184 190.000
69.50179 180.000
69.52173 187.000
69.54168 205.000
69.56163 144.000
69.58157 165.000
69.60152 187.000
69.62147 165.000
69.64142 149.000
69.66136 182.000
69.68131 182.000
69.70126 150.000
69.72120 168.000
69.74115 156.000
69.76110 141.000
69.78104 168.000
69.80099 183.000
69.82094 177.000
69.84089 175.000
69.86083 188.000
69.88078 171.000
69.90073 177.000
69.92067 160.000
69.94062 167.000
69.96057 146.000
69.98051 171.000
70.00046 177.000
70.02041 172.000
70.04035 178.000
70.06030 168.000
70.08025 162.000
70.10020 195.000
70.12014 177.000
70.14009 165.000
70.16004 171.000
70.17998 171.000
70.19993 174.000
70.21988 201.000
70.23982 184.000
70.25977 202.000
70.27972 169.000
70.29967 174.000
70.31961 203.000
70.33956 201.000
70.35951 207.000
70.37945 199.000
70.39940 168.000
70.41935 176.000
70.43929 212.000
70.45924 191.000
70.47919 189.000
70.49914 167.000
70.51908 181.000
70.53903 186.000
70.55898 173.000
70.57892 198.000
70.59887 168.000
70.61882 191.000
70.63876 190.000
70.65871 175.000
70.67866 187.000
70.69860 189.000
70.71855 197.000
70.73850 174.000
70.75845 173.000
70.77839 158.000
70.79834 193.000
70.81829 165.000
70.83823 179.000
70.85818 196.000
70.87813 184.000
70.89807 175.000
70.91802 174.000
70.93797 149.000
70.95792 192.000
70.97786 163.000
70.99781 163.000
71.01776 180.000
71.03770 173.000
71.05765 145.000
71.07760 172.000
71.09754 155.000
71.11749 177.000
71.13744 173.000
71.15738 186.000
71.17733 162.000
71.19728 151.000
71.21723 148.000
71.23717 152.000
71.25712 176.000
71.27707 190.000
71.29701 185.000
71.31696 143.000
71.33691 151.000
71.35685 168.000
71.37680 162.000
71.39675 169.000
71.41670 177.000
71.43664 184.000
71.45659 181.000
71.47654 160.000
71.49648 162.000
71.51643 175.000
71.53638 176.000
71.55632 166.000
71.57627 172.000
71.59622 158.000
71.61616 149.000
71.63611 168.000
71.65606 156.000
71.67601 181.000
71.69595 178.000
71.71590 175.000
71.73585 166.000
71.75579 148.000
71.77574 167.000
71.79569 168.000
71.81563 172.000
71.83558 177.000
71.85553 159.000
71.87548 177.000
71.89542 174.000
71.91537 165.000
71.93532 160.000
71.95526 167.000
71.97521 169.000
71.99516 195.000
72.01510 167.000
72.03505 190.000
72.05500 163.000
72.07495 161.000
72.09489 168.000
72.11484 170.000
72.13479 171.000
72.15473 141.000
72.17468 177.000
72.19463 205.000
72.21457 196.000
72.23452 181.000
72.25447 217.000
72.27441 179.000
72.29436 200.000
72.31431 198.000
72.33426 218.000
72.35420 223.000
72.37415 210.000
72.39410 197.000
72.41404 186.000
72.43399 193.000
72.45394 189.000
72.47388 178.000
72.49383 178.000
72.51378 165.000
72.53373 196.000
72.55367 181.000
72.57362 181.000
72.59357 183.000
72.61351 186.000
72.63346 176.000
72.65341 176.000
72.67335 183.000
72.69330 192.000
72.71325 187.000
72.73319 164.000
72.75314 189.000
72.77309 193.000
72.79304 186.000
72.81298 172.000
72.83293 199.000
72.85288 192.000
72.87282 235.000
72.89277 213.000
72.91272 218.000
72.93266 190.000
72.95261 211.000
72.97256 193.000
72.99251 189.000
73.01245 208.000
73.03240 187.000
73.05235 201.000
73.07229 228.000
73.09224 207.000
73.11219 208.000
73.13213 210.000
73.15208 218.000
73.17203 225.000
73.19197 189.000
73.21192 199.000
73.23187 243.000
73.25182 219.000
73.27176 230.000
73.29171 231.000
73.31166 267.000
73.33160 265.000
73.35155 244.000
73.37150 277.000
73.39144 287.000
73.41139 277.000
73.43134 240.000
73.45129 246.000
73.47123 249.000
73.49118 259.000
73.51113 241.000
73.53107 243.000
73.55102 259.000
73.57097 220.000
73.59091 229.000
73.61086 213.000
73.63081 223.000
73.65076 207.000
73.67070 214.000
73.69065 211.000
73.71060 211.000
73.73054 191.000
73.75049 180.000
73.77044 183.000
73.79038 173.000
73.81033 196.000
73.83028 169.000
73.85022 166.000
73.87017 165.000
73.89012 161.000
73.91007 185.000
73.93001 189.000
73.94996 177.000
73.96991 189.000
73.98985 185.000
74.00980 179.000
74.02975 178.000
74.04969 180.000
74.06964 204.000
74.08959 158.000
74.10954 167.000
74.12948 181.000
74.14943 198.000
74.16938 195.000
74.18932 179.000
74.20927 187.000
74.22922 200.000
74.24916 192.000
74.26911 183.000
74.28906 205.000
74.30900 198.000
74.32895 201.000
74.34890 211.000
74.36885 204.000
74.38879 220.000
74.40874 201.000
74.42869 242.000
74.44863 229.000
74.46858 199.000
74.48853 195.000
74.50847 173.000
74.52842 197.000
74.54837 195.000
74.56832 217.000
74.58826 204.000
74.60821 227.000
74.62816 201.000
74.64810 193.000
74.66805 215.000
74.68800 189.000
74.70794 199.000
74.72789 182.000
74.74784 192.000
74.76778 176.000
74.78773 217.000
74.80768 192.000
74.82763 201.000
74.84757 213.000
74.86752 232.000
74.88747 228.000
74.90741 224.000
74.92736 233.000
74.94731 217.000
74.96725 212.000
74.98720 184.000
75.00715 212.000
75.02710 187.000
75.04704 190.000
75.06699 191.000
75.08694 207.000
75.10688 204.000
75.12683 212.000
75.14678 217.000
75.16672 200.000
75.18667 213.000
75.20662 210.000
75.22657 200.000
75.24651 192.000
75.26646 226.000
75.28641 164.000
75.30635 200.000
75.32630 186.000
75.34625 190.000
75.36619 193.000
75.38614 195.000
75.40609 218.000
75.42603 205.000
75.44598 195.000
75.46593 211.000
75.48588 182.000
75.50582 186.000
75.52577 188.000
75.54572 187.000
75.56566 170.000
75.58561 188.000
75.60556 187.000
75.62550 169.000
75.64545 198.000
75.66540 185.000
75.68535 160.000
75.70529 164.000
75.72524 151.000
75.74519 164.000
75.76513 198.000
75.78508 167.000
75.80503 190.000
75.82497 165.000
75.84492 169.000
75.86487 176.000
75.88481 155.000
75.90476 184.000
75.92471 175.000
75.94466 158.000
75.96460 167.000
75.98455 154.000
76.00450 178.000
76.02444 190.000
76.04439 155.000
76.06434 178.000
76.08428 163.000
76.10423 159.000
76.12418 182.000
76.14413 151.000
76.16407 178.000
76.18402 186.000
76.20397 174.000
76.22391 166.000
76.24386 185.000
76.26381 145.000
76.28375 189.000
76.30370 175.000
76.32365 159.000
76.34359 156.000
76.36354 181.000
76.38349 160.000
76.40344 170.000
76.42338 177.000
76.44333 171.000
76.46328 174.000
76.48322 171.000
76.50317 185.000
76.52312 166.000
76.54306 170.000
76.56301 172.000
76.58296 158.000
76.60291 161.000
76.62285 182.000
76.64280 163.000
76.66275 184.000
76.68269 177.000
76.70264 176.000
76.72259 159.000
76.74253 159.000
76.76248 157.000
76.78243 163.000
76.80238 158.000
76.82232 194.000
76.84227 163.000
76.86222 183.000
76.88216 184.000
76.90211 183.000
76.92206 188.000
76.94200 185.000
76.96195 164.000
76.98190 165.000
77.00184 174.000
77.02179 164.000
77.04174 176.000
77.06169 185.000
77.08163 179.000
77.10158 166.000
77.12153 176.000
77.14147 164.000
77.16142 168.000
77.18137 192.000
77.20131 180.000
77.22126 171.000
77.24121 203.000
77.26116 203.000
77.28110 196.000
77.30105 186.000
77.32100 228.000
77.34094 218.000
77.36089 190.000
77.38084 180.000
77.40078 228.000
77.42073 230.000
77.44068 241.000
77.46062 221.000
77.48057 238.000
77.50052 245.000
77.52047 230.000
77.54041 222.000
77.56036 215.000
77.58031 225.000
77.60025 209.000
77.62020 226.000
77.64015 205.000
77.66009 234.000
77.68004 214.000
77.69999 235.000
77.71994 207.000
77.73988 196.000
77.75983 205.000
77.77978 196.000
77.79972 185.000
77.81967 188.000
77.83962 191.000
77.85956 186.000
77.87951 193.000
77.89946 184.000
77.91940 182.000
77.93935 174.000
77.95930 184.000
77.97925 161.000
77.99919 175.000
78.01914 187.000
78.03909 177.000
78.05903 206.000
78.07898 181.000
78.09893 186.000
78.11887 154.000
78.13882 150.000
78.15877 185.000
78.17872 178.000
78.19866 196.000
78.21861 170.000
78.23856 182.000
78.25850 181.000
78.27845 192.000
78.29840 182.000
78.31834 181.000
78.33829 204.000
78.35824 203.000
78.37819 187.000
78.39813 178.000
78.41808 201.000
78.43803 178.000
78.45797 181.000
78.47792 183.000
78.49787 220.000
78.51781 189.000
78.53776 164.000
78.55771 196.000
78.57765 169.000
78.59760 147.000
78.61755 177.000
78.63750 168.000
78.65744 189.000
78.67739 162.000
78.69734 189.000
78.71728 171.000
78.73723 176.000
78.75718 171.000
78.77712 174.000
78.79707 144.000
78.81702 165.000
78.83697 151.000
78.85691 161.000
78.87686 200.000
78.89681 166.000
78.91675 162.000
78.93670 169.000
78.95665 168.000
78.97659 182.000
78.99654 179.000
79.01649 175.000
79.03643 166.000
79.05638 196.000
79.07633 165.000
79.09628 165.000
79.11622 159.000
79.13617 150.000
79.15612 171.000
79.17606 162.000
79.19601 144.000
79.21596 178.000
79.23590 164.000
79.25585 156.000
79.27580 162.000
79.29575 181.000
79.31569 173.000
79.33564 141.000
79.35559 181.000
79.37553 169.000
79.39548 178.000
79.41543 160.000
79.43537 161.000
79.45532 165.000
79.47527 150.000
79.49521 189.000
79.51516 170.000
79.53511 163.000
79.55506 141.000
79.57500 165.000
79.59495 129.000
79.61490 188.000
79.63484 152.000
79.65479 196.000
79.67474 174.000
79.69468 178.000
79.71463 159.000
79.73458 172.000
79.75453 160.000
79.77447 183.000
79.79442 176.000
79.81437 177.000
79.83431 168.000
79.85426 171.000
79.87421 178.000
79.89415 173.000
79.91410 176.000
79.93405 162.000
79.95399 181.000
79.97394 170.000
79.99389 154.000
80.01384 178.000
80.03378 184.000
80.05373 184.000
80.07368 184.000
80.09362 172.000
80.11357 180.000
80.13352 175.000
80.15346 171.000
80.17341 163.000
80.19336 160.000
80.21331 182.000
80.23325 167.000
80.25320 168.000
80.27315 183.000
80.29309 180.000
80.31304 184.000
80.33299 184.000
80.35293 173.000
80.37288 184.000
80.39283 149.000
80.41278 173.000
80.43272 181.000
80.45267 173.000
80.47262 160.000
80.49256 175.000
80.51251 175.000
80.53246 186.000
80.55240 177.000
80.57235 172.000
80.59230 178.000
80.61224 173.000
80.63219 159.000
80.65214 152.000
80.67209 176.000
80.69203 139.000
80.71198 152.000
80.73193 172.000
80.75187 171.000
80.77182 147.000
80.79177 191.000
80.81171 166.000
80.83166 160.000
80.85161 154.000
80.87156 172.000
80.89150 162.000
80.91145 159.000
80.93140 168.000
80.95134 194.000
80.97129 164.000
80.99124 181.000
81.01118 137.000
81.03113 162.000
81.05108 162.000
81.07102 137.000
81.09097 164.000
81.11092 188.000
81.13087 173.000
81.15081 172.000
81.17076 147.000
81.19071 154.000
81.21065 177.000
81.23060 189.000
81.25055 166.000
81.27049 187.000
81.29044 187.000
81.31039 166.000
81.33034 180.000
81.35028 166.000
81.37023 173.000
81.39018 169.000
81.41012 187.000
81.43007 165.000
81.45002 171.000
81.46996 174.000
81.48991 158.000
81.50986 158.000
81.52980 159.000
81.54975 158.000
81.56970 171.000
81.58965 159.000
81.60959 152.000
81.62954 140.000
81.64949 172.000
81.66943 162.000
81.68938 151.000
81.70933 167.000
81.72927 180.000
81.74922 192.000
81.76917 178.000
81.78912 173.000
81.80906 154.000
81.82901 158.000
81.84896 164.000
81.86890 160.000
81.88885 156.000
81.90880 161.000
81.92874 150.000
81.94869 171.000
81.96864 186.000
81.98859 162.000
82.00853 151.000
82.02848 155.000
82.04843 182.000
82.06837 164.000
82.08832 162.000
82.10827 169.000
82.12821 171.000
82.14816 180.000
82.16811 185.000
82.18805 178.000
82.20800 194.000
82.22795 198.000
82.24790 177.000
82.26784 166.000
82.28779 147.000
82.30774 168.000
82.32768 184.000
82.34763 174.000
82.36758 168.000
82.38752 161.000
82.40747 188.000
82.42742 179.000
82.44737 172.000
82.46731 185.000
82.48726 163.000
82.50721 175.000
82.52715 178.000
82.54710 183.000
82.56705 175.000
82.58699 156.000
82.60694 189.000
82.62689 174.000
82.64683 189.000
82.66678 212.000
82.68673 167.000
82.70668 157.000
82.72662 149.000
82.74657 190.000
82.76652 174.000
82.78646 196.000
82.80641 157.000
82.82636 175.000
82.84630 173.000
82.86625 158.000
82.88620 182.000
82.90615 201.000
82.92609 176.000
82.94604 171.000
82.96599 185.000
82.98593 182.000
83.00588 190.000
83.02583 174.000
83.04577 173.000
83.06572 167.000
83.08567 186.000
83.10561 172.000
83.12556 186.000
83.14551 174.000
83.16546 180.000
83.18540 161.000
83.20535 175.000
83.22530 177.000
83.24524 178.000
83.26519 153.000
83.28514 196.000
83.30508 203.000
83.32503 197.000
83.34498 182.000
83.36493 171.000
83.38487 187.000
83.40482 193.000
83.42477 153.000
83.44471 169.000
83.46466 197.000
83.48461 199.000
83.50455 195.000
83.52450 193.000
83.54445 202.000
83.56440 172.000
83.58434 184.000
83.60429 182.000
83.62424 197.000
83.64418 193.000
83.66413 187.000
83.68408 181.000
83.70402 202.000
83.72397 186.000
83.74392 209.000
83.76386 182.000
83.78381 183.000
83.80376 206.000
83.82371 216.000
83.84365 220.000
83.86360 197.000
83.88355 195.000
83.90349 210.000
83.92344 205.000
83.94339 208.000
83.96333 199.000
83.98328 225.000
84.00323 201.000
84.02318 215.000
84.04312 212.000
84.06307 201.000
84.08302 183.000
84.10296 195.000
84.12291 197.000
84.14286 198.000
84.16280 200.000
84.18275 192.000
84.20270 190.000
84.22264 177.000
84.24259 178.000
84.26254 179.000
84.28249 206.000
84.30243 185.000
84.32238 170.000
84.34233 174.000
84.36227 171.000
84.38222 150.000
84.40217 169.000
84.42211 189.000
84.44206 195.000
84.46201 169.000
84.48196 164.000
84.50190 170.000
84.52185 189.000
84.54180 160.000
84.56174 158.000
84.58169 184.000
84.60164 182.000
84.62158 187.000
84.64153 170.000
84.66148 151.000
84.68142 182.000
84.70137 184.000
84.72132 166.000
84.74127 168.000
84.76121 158.000
84.78116 182.000
84.80111 148.000
84.82105 164.000
84.84100 166.000
84.86095 179.000
84.88089 167.000
84.90084 152.000
84.92079 170.000
84.94074 171.000
84.96068 173.000
84.98063 155.000
85.00058 187.000
85.02052 158.000
85.04047 164.000
85.06042 180.000
85.08036 184.000
85.10031 159.000
85.12026 164.000
85.14021 173.000
85.16015 159.000
85.18010 165.000
85.20005 175.000
85.21999 167.000
85.23994 153.000
85.25989 191.000
85.27983 174.000
85.29978 170.000
85.31973 167.000
85.33967 169.000
85.35962 159.000
85.37957 160.000
85.39952 153.000
85.41946 171.000
85.43941 173.000
85.45936 163.000
85.47930 180.000
85.49925 145.000
85.51920 175.000
85.53914 181.000
85.55909 173.000
85.57904 163.000
85.59899 160.000
85.61893 158.000
85.63888 171.000
85.65883 152.000
85.67877 155.000
85.69872 195.000
85.71867 158.000
85.73861 191.000
85.75856 188.000
85.77851 166.000
85.79845 161.000
85.81840 184.000
85.83835 178.000
85.85830 168.000
85.87824 176.000
85.89819 178.000
85.91814 185.000
85.93808 184.000
85.95803 197.000
85.97798 189.000
85.99792 179.000
86.01787 233.000
86.03782 200.000
86.05777 212.000
86.07771 193.000
86.09766 227.000
86.11761 198.000
86.13755 196.000
86.15750 193.000
86.17745 194.000
86.19739 169.000
86.21734 192.000
86.23729 173.000
86.25723 179.000
86.27718 185.000
86.29713 182.000
86.31708 210.000
86.33702 175.000
86.35697 203.000
86.37692 190.000
86.39686 195.000
86.41681 180.000
86.43676 192.000
86.45670 181.000
86.47665 193.000
86.49660 212.000
86.51655 177.000
86.53649 178.000
86.55644 168.000
86.57639 189.000
86.59633 197.000
86.61628 194.000
86.63623 199.000
86.65617 172.000
86.67612 168.000
86.69607 175.000
86.71602 203.000
86.73596 156.000
86.75591 179.000
86.77586 178.000
86.79580 188.000
86.81575 169.000
86.83570 165.000
86.85564 155.000
86.87559 169.000
86.89554 183.000
86.91548 157.000
86.93543 174.000
86.95538 184.000
86.97533 177.000
86.99527 165.000
87.01522 181.000
87.03517 178.000
87.05511 171.000
87.07506 155.000
87.09501 175.000
87.11495 182.000
87.13490 146.000
87.15485 173.000
87.17480 148.000
87.19474 161.000
87.21469 191.000
87.23464 177.000
87.25458 183.000
87.27453 141.000
87.29448 156.000
87.31442 161.000
87.33437 173.000
87.35432 162.000
87.37426 145.000
87.39421 175.000
87.41416 175.000
87.43411 175.000
87.45405 155.000
87.47400 154.000
87.49395 160.000
87.51389 154.000
87.53384 186.000
87.55379 166.000
87.57373 181.000
87.59368 157.000
87.61363 186.000
87.63358 172.000
87.65352 169.000
87.67347 157.000
87.69342 170.000
87.71336 165.000
87.73331 193.000
87.75326 160.000
87.77320 155.000
87.79315 173.000
87.81310 182.000
87.83304 166.000
87.85299 183.000
87.87294 154.000
87.89289 149.000
87.91283 158.000
87.93278 174.000
87.95273 170.000
87.97267 156.000
87.99262 155.000
88.01257 166.000
88.03251 157.000
88.05246 154.000
88.07241 149.000
88.09236 157.000
88.11230 170.000
88.13225 170.000
88.15220 171.000
88.17214 179.000
88.19209 167.000
88.21204 153.000
88.23198 134.000
88.25193 170.000
88.27188 155.000
88.29183 164.000
88.31177 181.000
88.33172 187.000
88.35167 199.000
88.37161 179.000
88.39156 184.000
88.41151 167.000
88.43145 177.000
88.45140 191.000
88.47135 168.000
88.49129 197.000
88.51124 182.000
88.53119 184.000
88.55114 195.000
88.57108 203.000
88.59103 163.000
88.61098 178.000
88.63092 154.000
88.65087 205.000
88.67082 200.000
88.69076 192.000
88.71071 199.000
88.73066 241.000
88.75061 232.000
88.77055 242.000
88.79050 227.000
88.81045 216.000
88.83039 224.000
88.85034 260.000
88.87029 247.000
88.89023 224.000
88.91018 268.000
88.93013 287.000
88.95007 263.000
88.97002 261.000
88.98997 252.000
89.00992 258.000
89.02986 225.000
89.04981 227.000
89.06976 225.000
89.08970 268.000
89.10965 242.000
89.12960 211.000
89.14954 216.000
89.16949 242.000
89.18944 209.000
89.20939 216.000
89.22933 213.000
89.24928 209.000
89.26923 222.000
89.28917 208.000
89.30912 194.000
89.32907 197.000
89.34901 194.000
89.36896 183.000
89.38891 215.000
89.40885 177.000
89.42880 198.000
89.44875 178.000
89.46870 184.000
89.48864 179.000
89.50859 171.000
89.52854 153.000
89.54848 180.000
89.56843 172.000
89.58838 177.000
89.60832 183.000
89.62827 175.000
89.64822 170.000
89.66817 164.000
89.68811 161.000
89.70806 156.000
89.72801 201.000
89.74795 191.000
89.76790 180.000
89.78785 184.000
89.80779 183.000
89.82774 192.000
89.84769 200.000
89.86764 166.000
89.88758 186.000
89.90753 179.000
89.92748 186.000
89.94742 157.000
89.96737 198.000
89.98732 149.000
90.00726 178.000
