10.00000 185.000
10.01995 194.000
10.03989 181.000
10.05984 144.000
10.07979 173.000
10.09973 170.000
10.11968 167.000
10.13963 170.000
10.15958 179.000
10.17952 162.000
10.19947 175.000
10.21942 176.000
10.23936 179.000
10.25931 158.000
10.27926 165.000
10.29920 176.000
10.31915 189.000
10.33910 191.000
10.35905 157.000
10.37899 185.000
10.39894 167.000
10.41889 180.000
10.43883 159.000
10.45878 173.000
10.47873 164.000
10.49867 175.000
10.51862 174.000
10.53857 169.000
10.55851 185.000
10.57846 158.000
10.59841 171.000
10.61836 151.000
10.63830 173.000
10.65825 193.000
10.67820 205.000
10.69814 165.000
10.71809 198.000
10.73804 144.000
10.75798 198.000
10.77793 160.000
10.79788 159.000
10.81783 161.000
10.83777 182.000
10.85772 197.000
10.87767 161.000
10.89761 156.000
10.91756 152.000
10.93751 187.000
10.95745 185.000
10.97740 159.000
10.99735 177.000
11.01730 172.000
11.03724 182.000
11.05719 161.000
11.07714 163.000
11.09708 188.000
11.11703 177.000
11.13698 176.000
11.15692 169.000
11.17687 172.000
11.19682 185.000
11.21676 169.000
11.23671 152.000
11.25666 185.000
11.27661 163.000
11.29655 161.000
11.31650 193.000
11.33645 169.000
11.35639 189.000
11.37634 169.000
11.39629 155.000
11.41623 154.000
11.43618 162.000
11.45613 182.000
11.47608 167.000
11.49602 175.000
11.51597 166.000
11.53592 175.000
11.55586 197.000
11.57581 167.000
11.59576 161.000
11.61570 151.000
11.63565 197.000
11.65560 187.000
11.67554 192.000
11.69549 181.000
11.71544 179.000
11.73539 173.000
11.75533 162.000
11.77528 178.000
11.79523 170.000
11.81517 171.000
11.83512 180.000
11.85507 160.000
11.87501 195.000
11.89496 163.000
11.91491 195.000
11.93486 152.000
11.95480 167.000
11.97475 157.000
11.99470 204.000
12.01464 155.000
12.03459 152.000
12.05454 165.000
12.07448 151.000
12.09443 159.000
12.11438 184.000
12.13432 184.000
12.15427 192.000
12.17422 175.000
12.19417 193.000
12.21411 181.000
12.23406 162.000
12.25401 171.000
12.27395 168.000
12.29390 177.000
12.31385 198.000
12.33379 182.000
12.35374 162.000
12.37369 162.000
12.39364 195.000
12.41358 164.000
12.43353 163.000
12.45348 172.000
12.47342 170.000
12.49337 179.000
12.51332 200.000
12.53326 168.000
12.55321 181.000
12.57316 166.000
12.59311 157.000
12.61305 172.000
12.63300 144.000
12.65295 175.000
12.67289 167.000
12.69284 190.000
12.71279 178.000
12.73273 160.000
12.75268 181.000
12.77263 165.000
12.79257 188.000
12.81252 160.000
12.83247 180.000
12.85242 181.000
12.87236 181.000
12.89231 183.000
12.91226 150.000
12.93220 169.000
12.95215 193.000
12.97210 171.000
12.99204 173.000
13.01199 166.000
13.03194 175.000
13.05189 170.000
13.07183 173.000
13.09178 157.000
13.11173 151.000
13.13167 170.000
13.15162 160.000
13.17157 167.000
13.19151 171.000
13.21146 187.000
13.23141 156.000
13.25135 158.000
13.27130 184.000
13.29125 182.000
13.31120 164.000
13.33114 173.000
13.35109 154.000
13.37104 183.000
13.39098 167.000
13.41093 155.000
13.43088 168.000
13.45082 171.000
13.47077 173.000
13.49072 171.000
13.51067 181.000
13.53061 168.000
13.55056 170.000
13.57051 162.000
13.59045 168.000
13.61040 172.000
13.63035 154.000
13.65029 185.000
13.67024 190.000
13.69019 161.000
13.71013 176.000
13.73008 168.000
13.75003 160.000
13.76998 159.000
13.78992 157.000
13.80987 167.000
13.82982 180.000
13.84976 202.000
13.86971 161.000
13.88966 166.000
13.90960 170.000
13.92955 160.000
13.94950 173.000
13.96945 179.000
13.98939 186.000
14.00934 199.000
14.02929 184.000
14.04923 164.000
14.06918 171.000
14.08913 181.000
14.10907 189.000
14.12902 148.000
14.14897 180.000
14.16892 173.000
14.18886 185.000
14.20881 186.000
14.22876 175.000
14.24870 165.000
14.26865 185.000
14.28860 180.000
14.30854 183.000
14.32849 168.000
14.34844 166.000
14.36838 210.000
14.38833 149.000
14.40828 187.000
14.42823 169.000
14.44817 173.000
14.46812 190.000
14.48807 153.000
14.50801 153.000
14.52796 181.000
14.54791 174.000
14.56785 175.000
14.58780 173.000
14.60775 183.000
14.62770 185.000
14.64764 169.000
14.66759 174.000
14.68754 178.000
14.70748 146.000
14.72743 172.000
14.74738 179.000
14.76732 148.000
14.78727 165.000
14.80722 165.000
14.82716 166.000
14.84711 172.000
14.86706 181.000
14.88701 180.000
14.90695 189.000
14.92690 176.000
14.94685 173.000
14.96679 170.000
14.98674 160.000
15.00669 186.000
15.02663 175.000
15.04658 192.000
15.06653 168.000
15.08648 185.000
15.10642 190.000
15.12637 199.000
15.14632 185.000
15.16626 211.000
15.18621 195.000
15.20616 184.000
15.22610 206.000
15.24605 201.000
15.26600 197.000
15.28594 192.000
15.30589 205.000
15.32584 198.000
15.34579 214.000
15.36573 191.000
15.38568 202.000
15.40563 203.000
15.42557 222.000
15.44552 216.000
15.46547 205.000
15.48541 216.000
15.50536 234.000
15.52531 225.000
15.54526 216.000
15.56520 258.000
15.58515 286.000
15.60510 302.000
15.62504 320.000
15.64499 388.000
15.66494 430.000
15.68488 558.000
15.70483 760.000
15.72478 1078.000
15.74472 1618.000
15.76467 2411.000
15.78462 3693.000
15.80457 4873.000
15.82451 5827.000
15.84446 6266.000
15.86441 5810.000
15.88435 4500.000
15.90430 3051.000
15.92425 1667.000
15.94419 936.000
15.96414 564.000
15.98409 444.000
16.00404 452.000
16.02398 454.000
16.04393 569.000
16.06388 752.000
16.08382 851.000
16.10377 1075.000
16.12372 1309.000
16.14366 1491.000
16.16361 1527.000
16.18356 1574.000
16.20351 1386.000
16.22345 1170.000
16.24340 953.000
16.26335 690.000
16.28329 519.000
16.30324 413.000
16.32319 304.000
16.34313 275.000
16.36308 239.000
16.38303 249.000
16.40297 253.000
16.42292 218.000
16.44287 220.000
16.46282 207.000
16.48276 208.000
16.50271 212.000
16.52266 192.000
16.54260 184.000
16.56255 182.000
16.58250 213.000
16.60244 169.000
16.62239 182.000
16.64234 188.000
16.66229 188.000
16.68223 181.000
16.70218 187.000
16.72213 210.000
16.74207 177.000
16.76202 202.000
16.78197 171.000
16.80191 179.000
16.82186 194.000
16.84181 183.000
16.86175 187.000
16.88170 176.000
16.90165 172.000
16.92160 189.000
16.94154 169.000
16.96149 160.000
16.98144 190.000
17.00138 165.000
17.02133 175.000
17.04128 171.000
17.06122 178.000
17.08117 153.000
17.10112 158.000
17.12107 176.000
17.14101 188.000
17.16096 178.000
17.18091 174.000
17.20085 166.000
17.22080 160.000
17.24075 173.000
17.26069 157.000
17.28064 178.000
17.30059 171.000
17.32053 145.000
17.34048 195.000
17.36043 170.000
17.38038 163.000
17.40032 187.000
17.42027 155.000
17.44022 166.000
17.46016 145.000
17.48011 158.000
17.50006 164.000
17.52000 210.000
17.53995 181.000
17.55990 165.000
17.57985 178.000
17.59979 184.000
17.61974 173.000
17.63969 185.000
17.65963 160.000
17.67958 178.000
17.69953 193.000
17.71947 166.000
17.73942 172.000
17.75937 172.000
17.77932 172.000
17.79926 144.000
17.81921 166.000
17.83916 168.000
17.85910 148.000
17.87905 169.000
17.89900 167.000
17.91894 172.000
17.93889 156.000
17.95884 179.000
17.97878 169.000
17.99873 189.000
18.01868 193.000
18.03863 175.000
18.05857 172.000
18.07852 146.000
18.09847 183.000
18.11841 186.000
18.13836 173.000
18.15831 149.000
18.17825 183.000
18.19820 174.000
18.21815 190.000
18.23810 151.000
18.25804 192.000
18.27799 185.000
18.29794 206.000
18.31788 181.000
18.33783 200.000
18.35778 246.000
18.37772 222.000
18.39767 212.000
18.41762 202.000
18.43756 194.000
18.45751 191.000
18.47746 157.000
18.49741 167.000
18.51735 162.000
18.53730 155.000
18.55725 174.000
18.57719 165.000
18.59714 181.000
18.61709 162.000
18.63703 163.000
18.65698 182.000
18.67693 168.000
18.69688 164.000
18.71682 140.000
18.73677 136.000
18.75672 149.000
18.77666 159.000
18.79661 176.000
18.81656 163.000
18.83650 150.000
18.85645 157.000
18.87640 170.000
18.89634 168.000
18.91629 162.000
18.93624 186.000
18.95619 166.000
18.97613 167.000
18.99608 150.000
19.01603 178.000
19.03597 152.000
19.05592 164.000
19.07587 169.000
19.09581 148.000
19.11576 144.000
19.13571 184.000
19.15566 155.000
19.17560 177.000
19.19555 154.000
19.21550 155.000
19.23544 152.000
19.25539 157.000
19.27534 172.000
19.29528 176.000
19.31523 190.000
19.33518 184.000
19.35513 161.000
19.37507 170.000
19.39502 189.000
19.41497 180.000
19.43491 169.000
19.45486 164.000
19.47481 181.000
19.49475 191.000
19.51470 161.000
19.53465 183.000
19.55459 201.000
19.57454 166.000
19.59449 161.000
19.61444 180.000
19.63438 155.000
19.65433 178.000
19.67428 159.000
19.69422 137.000
19.71417 179.000
19.73412 164.000
19.75406 167.000
19.77401 159.000
19.79396 153.000
19.81391 162.000
19.83385 161.000
19.85380 160.000
19.87375 147.000
19.89369 165.000
19.91364 191.000
19.93359 182.000
19.95353 179.000
19.97348 150.000
19.99343 162.000
20.01337 172.000
20.03332 180.000
20.05327 171.000
20.07322 178.000
20.09316 168.000
20.11311 160.000
20.13306 161.000
20.15300 165.000
20.17295 156.000
20.19290 160.000
20.21284 149.000
20.23279 159.000
20.25274 171.000
20.27269 151.000
20.29263 154.000
20.31258 154.000
20.33253 159.000
20.35247 146.000
20.37242 162.000
20.39237 171.000
20.41231 163.000
20.43226 182.000
20.45221 173.000
20.47215 184.000
20.49210 159.000
20.51205 160.000
20.53200 146.000
20.55194 175.000
20.57189 163.000
20.59184 153.000
20.61178 159.000
20.63173 172.000
20.65168 183.000
20.67162 180.000
20.69157 173.000
20.71152 186.000
20.73147 199.000
20.75141 195.000
20.77136 199.000
20.79131 224.000
20.81125 244.000
20.83120 252.000
20.85115 246.000
20.87109 230.000
20.89104 266.000
20.91099 247.000
20.93094 226.000
20.95088 189.000
20.97083 221.000
20.99078 224.000
21.01072 187.000
21.03067 156.000
21.05062 208.000
21.07056 199.000
21.09051 192.000
21.11046 192.000
21.13040 174.000
21.15035 186.000
21.17030 165.000
21.19025 192.000
21.21019 165.000
21.23014 148.000
21.25009 152.000
21.27003 168.000
21.28998 180.000
21.30993 162.000
21.32987 168.000
21.34982 151.000
21.36977 187.000
21.38972 182.000
21.40966 164.000
21.42961 188.000
21.44956 162.000
21.46950 178.000
21.48945 179.000
21.50940 169.000
21.52934 161.000
21.54929 176.000
21.56924 160.000
21.58918 156.000
21.60913 167.000
21.62908 169.000
21.64903 159.000
21.66897 147.000
21.68892 178.000
21.70887 184.000
21.72881 167.000
21.74876 149.000
21.76871 168.000
21.78865 159.000
21.80860 175.000
21.82855 166.000
21.84850 169.000
21.86844 172.000
21.88839 166.000
21.90834 150.000
21.92828 178.000
21.94823 154.000
21.96818 160.000
21.98812 145.000
22.00807 164.000
22.02802 171.000
22.04796 161.000
22.06791 164.000
22.08786 162.000
22.10781 163.000
22.12775 151.000
22.14770 167.000
22.16765 173.000
22.18759 166.000
22.20754 161.000
22.22749 153.000
22.24743 163.000
22.26738 151.000
22.28733 166.000
22.30728 157.000
22.32722 162.000
22.34717 183.000
22.36712 166.000
22.38706 169.000
22.40701 184.000
22.42696 168.000
22.44690 154.000
22.46685 151.000
22.48680 180.000
22.50675 169.000
22.52669 177.000
22.54664 162.000
22.56659 142.000
22.58653 169.000
22.60648 158.000
22.62643 170.000
22.64637 150.000
22.66632 149.000
22.68627 174.000
22.70621 169.000
22.72616 167.000
22.74611 182.000
22.76606 169.000
22.78600 152.000
22.80595 185.000
22.82590 176.000
22.84584 172.000
22.86579 150.000
22.88574 151.000
22.90568 151.000
22.92563 184.000
22.94558 151.000
22.96553 159.000
22.98547 174.000
23.00542 166.000
23.02537 168.000
23.04531 148.000
23.06526 199.000
23.08521 163.000
23.10515 159.000
23.12510 182.000
23.14505 174.000
23.16499 177.000
23.18494 156.000
23.20489 155.000
23.22484 172.000
23.24478 181.000
23.26473 177.000
23.28468 175.000
23.30462 174.000
23.32457 177.000
23.34452 168.000
23.36446 140.000
23.38441 203.000
23.40436 167.000
23.42431 181.000
23.44425 180.000
23.46420 155.000
23.48415 175.000
23.50409 145.000
23.52404 164.000
23.54399 171.000
23.56393 172.000
23.58388 159.000
23.60383 162.000
23.62377 184.000
23.64372 169.000
23.66367 178.000
23.68362 169.000
23.70356 173.000
23.72351 158.000
23.74346 152.000
23.76340 163.000
23.78335 186.000
23.80330 174.000
23.82324 177.000
23.84319 164.000
23.86314 171.000
23.88309 157.000
23.90303 155.000
23.92298 151.000
23.94293 181.000
23.96287 138.000
23.98282 149.000
24.00277 187.000
24.02271 179.000
24.04266 174.000
24.06261 185.000
24.08256 158.000
24.10250 178.000
24.12245 161.000
24.14240 157.000
24.16234 178.000
24.18229 163.000
24.20224 195.000
24.22218 159.000
24.24213 196.000
24.26208 170.000
24.28202 168.000
24.30197 163.000
24.32192 173.000
24.34187 171.000
24.36181 172.000
24.38176 168.000
24.40171 172.000
24.42165 162.000
24.44160 174.000
24.46155 179.000
24.48149 188.000
24.50144 146.000
24.52139 159.000
24.54134 170.000
24.56128 163.000
24.58123 173.000
24.60118 174.000
24.62112 171.000
24.64107 185.000
24.66102 182.000
24.68096 193.000
24.70091 170.000
24.72086 175.000
24.74080 165.000
24.76075 177.000
24.78070 156.000
24.80065 185.000
24.82059 178.000
24.84054 170.000
24.86049 176.000
24.88043 160.000
24.90038 163.000
24.92033 176.000
24.94027 176.000
24.96022 166.000
24.98017 171.000
25.00012 147.000
25.02006 182.000
25.04001 179.000
25.05996 176.000
25.07990 206.000
25.09985 190.000
25.11980 169.000
25.13974 187.000
25.15969 153.000
25.17964 174.000
25.19958 188.000
25.21953 181.000
25.23948 170.000
25.25943 164.000
25.27937 183.000
25.29932 167.000
25.31927 159.000
25.33921 167.000
25.35916 168.000
25.37911 171.000
25.39905 173.000
25.41900 173.000
25.43895 156.000
25.45890 137.000
25.47884 174.000
25.49879 188.000
25.51874 163.000
25.53868 171.000
25.55863 195.000
25.57858 154.000
25.59852 159.000
25.61847 176.000
25.63842 176.000
25.65837 182.000
25.67831 161.000
25.69826 205.000
25.71821 186.000
25.73815 163.000
25.75810 166.000
25.77805 178.000
25.79799 189.000
25.81794 161.000
25.83789 154.000
25.85783 175.000
25.87778 164.000
25.89773 168.000
25.91768 196.000
25.93762 168.000
25.95757 165.000
25.97752 167.000
25.99746 177.000
26.01741 178.000
26.03736 148.000
26.05730 160.000
26.07725 170.000
26.09720 134.000
26.11715 180.000
26.13709 171.000
26.15704 176.000
26.17699 191.000
26.19693 166.000
26.21688 182.000
26.23683 177.000
26.25677 173.000
26.27672 179.000
26.29667 178.000
26.31661 180.000
26.33656 158.000
26.35651 166.000
26.37646 172.000
26.39640 172.000
26.41635 155.000
26.43630 168.000
26.45624 160.000
26.47619 162.000
26.49614 171.000
26.51608 166.000
26.53603 190.000
26.55598 154.000
26.57593 203.000
26.59587 179.000
26.61582 191.000
26.63577 161.000
26.65571 186.000
26.67566 168.000
26.69561 179.000
26.71555 153.000
26.73550 177.000
26.75545 176.000
26.77539 180.000
26.79534 189.000
26.81529 162.000
26.83524 184.000
26.85518 174.000
26.87513 194.000
26.89508 180.000
26.91502 168.000
26.93497 185.000
26.95492 196.000
26.97486 158.000
26.99481 158.000
27.01476 194.000
27.03471 183.000
27.05465 161.000
27.07460 182.000
27.09455 175.000
27.11449 164.000
27.13444 175.000
27.15439 178.000
27.17433 191.000
27.19428 175.000
27.21423 196.000
27.23417 180.000
27.25412 171.000
27.27407 184.000
27.29402 196.000
27.31396 161.000
27.33391 171.000
27.35386 194.000
27.37380 176.000
27.39375 204.000
27.41370 184.000
27.43364 177.000
27.45359 185.000
27.47354 189.000
27.49349 177.000
27.51343 184.000
27.53338 172.000
27.55333 167.000
27.57327 177.000
27.59322 173.000
27.61317 205.000
27.63311 192.000
27.65306 177.000
27.67301 175.000
27.69296 180.000
27.71290 191.000
27.73285 183.000
27.75280 210.000
27.77274 197.000
27.79269 198.000
27.81264 149.000
27.83258 176.000
27.85253 170.000
27.87248 179.000
27.89242 161.000
27.91237 190.000
27.93232 168.000
27.95227 175.000
27.97221 175.000
27.99216 183.000
28.01211 174.000
28.03205 166.000
28.05200 168.000
28.07195 179.000
28.09189 177.000
28.11184 178.000
28.13179 150.000
28.15174 171.000
28.17168 176.000
28.19163 179.000
28.21158 171.000
28.23152 179.000
28.25147 202.000
28.27142 191.000
28.29136 169.000
28.31131 176.000
28.33126 178.000
28.35120 175.000
28.37115 163.000
28.39110 181.000
28.41105 140.000
28.43099 183.000
28.45094 159.000
28.47089 174.000
28.49083 186.000
28.51078 154.000
28.53073 187.000
28.55067 170.000
28.57062 207.000
28.59057 180.000
28.61052 167.000
28.63046 189.000
28.65041 166.000
28.67036 197.000
28.69030 197.000
28.71025 155.000
28.73020 175.000
28.75014 202.000
28.77009 182.000
28.79004 191.000
28.80998 177.000
28.82993 170.000
28.84988 182.000
28.86983 182.000
28.88977 214.000
28.90972 154.000
28.92967 174.000
28.94961 204.000
28.96956 169.000
28.98951 183.000
29.00945 172.000
29.02940 162.000
29.04935 182.000
29.06930 170.000
29.08924 168.000
29.10919 185.000
29.12914 195.000
29.14908 197.000
29.16903 190.000
29.18898 172.000
29.20892 163.000
29.22887 176.000
29.24882 187.000
29.26877 193.000
29.28871 190.000
29.30866 183.000
29.32861 193.000
29.34855 186.000
29.36850 181.000
29.38845 184.000
29.40839 177.000
29.42834 195.000
29.44829 185.000
29.46823 194.000
29.48818 193.000
29.50813 193.000
29.52808 184.000
29.54802 169.000
29.56797 185.000
29.58792 188.000
29.60786 174.000
29.62781 198.000
29.64776 169.000
29.66770 169.000
29.68765 165.000
29.70760 171.000
29.72755 190.000
29.74749 177.000
29.76744 162.000
29.78739 154.000
29.80733 172.000
29.82728 190.000
29.84723 169.000
29.86717 185.000
29.88712 191.000
29.90707 164.000
29.92701 174.000
29.94696 190.000
29.96691 185.000
29.98686 192.000
30.00680 179.000
30.02675 218.000
30.04670 203.000
30.06664 216.000
30.08659 235.000
30.10654 211.000
30.12648 224.000
30.14643 220.000
30.16638 270.000
30.18633 288.000
30.20627 285.000
30.22622 290.000
30.24617 270.000
30.26611 266.000
30.28606 252.000
30.30601 239.000
30.32595 227.000
30.34590 220.000
30.36585 230.000
30.38579 215.000
30.40574 212.000
30.42569 185.000
30.44564 173.000
30.46558 166.000
30.48553 196.000
30.50548 187.000
30.52542 193.000
30.54537 182.000
30.56532 179.000
30.58526 202.000
30.60521 193.000
30.62516 169.000
30.64511 193.000
30.66505 213.000
30.68500 160.000
30.70495 160.000
30.72489 157.000
30.74484 177.000
30.76479 176.000
30.78473 177.000
30.80468 189.000
30.82463 171.000
30.84458 173.000
30.86452 142.000
30.88447 206.000
30.90442 179.000
30.92436 191.000
30.94431 156.000
30.96426 203.000
30.98420 179.000
31.00415 186.000
31.02410 154.000
31.04404 195.000
31.06399 182.000
31.08394 163.000
31.10389 166.000
31.12383 208.000
31.14378 175.000
31.16373 169.000
31.18367 163.000
31.20362 192.000
31.22357 203.000
31.24351 177.000
31.26346 208.000
31.28341 192.000
31.30336 189.000
31.32330 181.000
31.34325 194.000
31.36320 185.000
31.38314 196.000
31.40309 185.000
31.42304 197.000
31.44298 210.000
31.46293 169.000
31.48288 184.000
31.50282 194.000
31.52277 190.000
31.54272 183.000
31.56267 205.000
31.58261 195.000
31.60256 176.000
31.62251 197.000
31.64245 191.000
31.66240 212.000
31.68235 203.000
31.70229 196.000
31.72224 170.000
31.74219 195.000
31.76214 196.000
31.78208 213.000
31.80203 214.000
31.82198 211.000
31.84192 250.000
31.86187 304.000
31.88182 282.000
31.90176 324.000
31.92171 384.000
31.94166 420.000
31.96160 455.000
31.98155 511.000
32.00150 590.000
32.02145 624.000
32.04139 654.000
32.06134 596.000
32.08129 599.000
32.10123 558.000
32.12118 464.000
32.14113 397.000
32.16107 341.000
32.18102 292.000
32.20097 255.000
32.22092 245.000
32.24086 224.000
32.26081 224.000
32.28076 236.000
32.30070 176.000
32.32065 191.000
32.34060 228.000
32.36054 185.000
32.38049 244.000
32.40044 239.000
32.42039 266.000
32.44033 295.000
32.46028 315.000
32.48023 313.000
32.50017 305.000
32.52012 325.000
32.54007 322.000
32.56001 299.000
32.57996 267.000
32.59991 284.000
32.61985 299.000
32.63980 284.000
32.65975 273.000
32.67970 347.000
32.69964 306.000
32.71959 277.000
32.73954 314.000
32.75948 284.000
32.77943 295.000
32.79938 269.000
32.81932 275.000
32.83927 267.000
32.85922 238.000
32.87917 273.000
32.89911 253.000
32.91906 235.000
32.93901 189.000
32.95895 197.000
32.97890 212.000
32.99885 184.000
33.01879 175.000
33.03874 177.000
33.05869 174.000
33.07863 161.000
33.09858 185.000
33.11853 176.000
33.13848 181.000
33.15842 166.000
33.17837 191.000
33.19832 177.000
33.21826 180.000
33.23821 178.000
33.25816 197.000
33.27810 212.000
33.29805 187.000
33.31800 176.000
33.33795 190.000
33.35789 184.000
33.37784 189.000
33.39779 169.000
33.41773 199.000
33.43768 177.000
33.45763 179.000
33.47757 172.000
33.49752 181.000
33.51747 191.000
33.53741 183.000
33.55736 210.000
33.57731 202.000
33.59726 169.000
33.61720 220.000
33.63715 190.000
33.65710 184.000
33.67704 186.000
33.69699 177.000
33.71694 197.000
33.73688 197.000
33.75683 175.000
33.77678 193.000
33.79673 177.000
33.81667 189.000
33.83662 195.000
33.85657 191.000
33.87651 184.000
33.89646 194.000
33.91641 208.000
33.93635 197.000
33.95630 180.000
33.97625 196.000
33.99620 200.000
34.01614 210.000
34.03609 192.000
34.05604 204.000
34.07598 182.000
34.09593 178.000
34.11588 227.000
34.13582 214.000
34.15577 194.000
34.17572 206.000
34.19566 219.000
34.21561 182.000
34.23556 226.000
34.25551 234.000
34.27545 253.000
34.29540 190.000
34.31535 277.000
34.33529 249.000
34.35524 298.000
34.37519 288.000
34.39513 285.000
34.41508 280.000
34.43503 279.000
34.45498 277.000
34.47492 241.000
34.49487 264.000
34.51482 280.000
34.53476 235.000
34.55471 241.000
34.57466 231.000
34.59460 233.000
34.61455 249.000
34.63450 224.000
34.65444 205.000
34.67439 200.000
34.69434 209.000
34.71429 228.000
34.73423 221.000
34.75418 218.000
34.77413 226.000
34.79407 204.000
34.81402 218.000
34.83397 208.000
34.85391 213.000
34.87386 185.000
34.89381 232.000
34.91376 221.000
34.93370 203.000
34.95365 212.000
34.97360 232.000
34.99354 202.000
35.01349 211.000
35.03344 199.000
35.05338 235.000
35.07333 218.000
35.09328 229.000
35.11322 239.000
35.13317 210.000
35.15312 228.000
35.17307 239.000
35.19301 237.000
35.21296 253.000
35.23291 256.000
35.25285 301.000
35.27280 324.000
35.29275 338.000
35.31269 418.000
35.33264 483.000
35.35259 559.000
35.37254 768.000
35.39248 930.000
35.41243 1085.000
35.43238 1222.000
35.45232 1387.000
35.47227 1650.000
35.49222 1872.000
35.51216 1959.000
35.53211 1899.000
35.55206 1827.000
35.57201 1842.000
35.59195 1705.000
35.61190 1596.000
35.63185 1369.000
35.65179 1130.000
35.67174 911.000
35.69169 760.000
35.71163 632.000
35.73158 525.000
35.75153 455.000
35.77147 355.000
35.79142 370.000
35.81137 301.000
35.83132 278.000
35.85126 290.000
35.87121 264.000
35.89116 242.000
35.91110 227.000
35.93105 217.000
35.95100 243.000
35.97094 242.000
35.99089 223.000
36.01084 198.000
36.03079 178.000
36.05073 193.000
36.07068 226.000
36.09063 209.000
36.11057 236.000
36.13052 206.000
36.15047 188.000
36.17041 242.000
36.19036 209.000
36.21031 202.000
36.23025 224.000
36.25020 189.000
36.27015 204.000
36.29010 198.000
36.31004 208.000
36.32999 231.000
36.34994 220.000
36.36988 230.000
36.38983 216.000
36.40978 240.000
36.42972 218.000
36.44967 213.000
36.46962 255.000
36.48957 221.000
36.50951 195.000
36.52946 211.000
36.54941 235.000
36.56935 231.000
36.58930 212.000
36.60925 222.000
36.62919 240.000
36.64914 249.000
36.66909 290.000
36.68903 285.000
36.70898 313.000
36.72893 317.000
36.74888 372.000
36.76882 371.000
36.78877 414.000
36.80872 400.000
36.82866 422.000
36.84861 391.000
36.86856 324.000
36.88850 365.000
36.90845 318.000
36.92840 331.000
36.94835 294.000
36.96829 260.000
36.98824 268.000
37.00819 258.000
37.02813 281.000
37.04808 227.000
37.06803 240.000
37.08797 266.000
37.10792 272.000
37.12787 269.000
37.14781 240.000
37.16776 284.000
37.18771 271.000
37.20766 279.000
37.22760 253.000
37.24755 239.000
37.26750 268.000
37.28744 230.000
37.30739 221.000
37.32734 213.000
37.34728 195.000
37.36723 229.000
37.38718 184.000
37.40713 223.000
37.42707 210.000
37.44702 183.000
37.46697 212.000
37.48691 189.000
37.50686 211.000
37.52681 185.000
37.54675 188.000
37.56670 179.000
37.58665 192.000
37.60660 174.000
37.62654 167.000
37.64649 192.000
37.66644 198.000
37.68638 206.000
37.70633 185.000
37.72628 199.000
37.74622 176.000
37.76617 207.000
37.78612 218.000
37.80606 198.000
37.82601 198.000
37.84596 191.000
37.86591 202.000
37.88585 194.000
37.90580 180.000
37.92575 194.000
37.94569 205.000
37.96564 178.000
37.98559 216.000
38.00553 205.000
38.02548 189.000
38.04543 219.000
38.06538 197.000
38.08532 229.000
38.10527 198.000
38.12522 209.000
38.14516 197.000
38.16511 201.000
38.18506 229.000
38.20500 209.000
38.22495 208.000
38.24490 209.000
38.26484 228.000
38.28479 229.000
38.30474 219.000
38.32469 225.000
38.34463 234.000
38.36458 239.000
38.38453 238.000
38.40447 236.000
38.42442 270.000
38.44437 296.000
38.46431 280.000
38.48426 326.000
38.50421 381.000
38.52416 377.000
38.54410 479.000
38.56405 576.000
38.58400 667.000
38.60394 843.000
38.62389 980.000
38.64384 1123.000
38.66378 1121.000
38.68373 1157.000
38.70368 1083.000
38.72362 1017.000
38.74357 1029.000
38.76352 981.000
38.78347 852.000
38.80341 808.000
38.82336 749.000
38.84331 641.000
38.86325 575.000
38.88320 608.000
38.90315 588.000
38.92309 608.000
38.94304 584.000
38.96299 712.000
38.98294 705.000
39.00288 820.000
39.02283 854.000
39.04278 954.000
39.06272 1068.000
39.08267 1102.000
39.10262 1028.000
39.12256 1043.000
39.14251 924.000
39.16246 849.000
39.18241 779.000
39.20235 726.000
39.22230 600.000
39.24225 546.000
39.26219 433.000
39.28214 392.000
39.30209 369.000
39.32203 326.000
39.34198 316.000
39.36193 241.000
39.38187 251.000
39.40182 279.000
39.42177 262.000
39.44172 243.000
39.46166 226.000
39.48161 223.000
39.50156 208.000
39.52150 212.000
39.54145 206.000
39.56140 200.000
39.58134 191.000
39.60129 215.000
39.62124 190.000
39.64119 194.000
39.66113 207.000
39.68108 198.000
39.70103 200.000
39.72097 210.000
39.74092 160.000
39.76087 206.000
39.78081 207.000
39.80076 200.000
39.82071 179.000
39.84065 203.000
39.86060 201.000
39.88055 197.000
39.90050 185.000
39.92044 189.000
39.94039 213.000
39.96034 214.000
39.98028 186.000
40.00023 188.000
40.02018 197.000
40.04012 193.000
40.06007 193.000
40.08002 182.000
40.09997 184.000
40.11991 217.000
40.13986 197.000
40.15981 188.000
40.17975 171.000
40.19970 164.000
40.21965 192.000
40.23959 185.000
40.25954 196.000
40.27949 204.000
40.29943 210.000
40.31938 192.000
40.33933 195.000
40.35928 197.000
40.37922 184.000
40.39917 199.000
40.41912 193.000
40.43906 174.000
40.45901 191.000
40.47896 184.000
40.49890 174.000
40.51885 169.000
40.53880 164.000
40.55875 175.000
40.57869 189.000
40.59864 195.000
40.61859 200.000
40.63853 175.000
40.65848 190.000
40.67843 171.000
40.69837 183.000
40.71832 188.000
40.73827 193.000
40.75822 171.000
40.77816 185.000
40.79811 167.000
40.81806 205.000
40.83800 175.000
40.85795 199.000
40.87790 181.000
40.89784 182.000
40.91779 190.000
40.93774 195.000
40.95768 198.000
40.97763 169.000
40.99758 194.000
41.01753 176.000
41.03747 205.000
41.05742 192.000
41.07737 187.000
41.09731 190.000
41.11726 180.000
41.13721 216.000
41.15715 201.000
41.17710 203.000
41.19705 198.000
41.21700 212.000
41.23694 191.000
41.25689 207.000
41.27684 179.000
41.29678 236.000
41.31673 249.000
41.33668 216.000
41.35662 219.000
41.37657 261.000
41.39652 325.000
41.41646 300.000
41.43641 325.000
41.45636 408.000
41.47631 480.000
41.49625 603.000
41.51620 742.000
41.53615 914.000
41.55609 1033.000
41.57604 1133.000
41.59599 1225.000
41.61593 1161.000
41.63588 1082.000
41.65583 933.000
41.67578 787.000
41.69572 748.000
41.71567 738.000
41.73562 643.000
41.75556 488.000
41.77551 377.000
41.79546 328.000
41.81540 245.000
41.83535 240.000
41.85530 222.000
41.87524 238.000
41.89519 224.000
41.91514 224.000
41.93509 212.000
41.95503 228.000
41.97498 223.000
41.99493 188.000
42.01487 204.000
42.03482 200.000
42.05477 216.000
42.07471 189.000
42.09466 196.000
42.11461 164.000
42.13456 192.000
42.15450 180.000
42.17445 193.000
42.19440 200.000
42.21434 188.000
42.23429 193.000
42.25424 185.000
42.27418 201.000
42.29413 192.000
42.31408 168.000
42.33403 185.000
42.35397 198.000
42.37392 179.000
42.39387 196.000
42.41381 163.000
42.43376 185.000
42.45371 195.000
42.47365 196.000
42.49360 177.000
42.51355 190.000
42.53349 203.000
42.55344 208.000
42.57339 182.000
42.59334 210.000
42.61328 178.000
42.63323 187.000
42.65318 198.000
42.67312 187.000
42.69307 192.000
42.71302 157.000
42.73296 194.000
42.75291 174.000
42.77286 192.000
42.79281 225.000
42.81275 223.000
42.83270 190.000
42.85265 221.000
42.87259 244.000
42.89254 218.000
42.91249 233.000
42.93243 214.000
42.95238 235.000
42.97233 255.000
42.99227 256.000
43.01222 261.000
43.03217 270.000
43.05212 319.000
43.07206 329.000
43.09201 328.000
43.11196 377.000
43.13190 408.000
43.15185 472.000
43.17180 554.000
43.19174 592.000
43.21169 652.000
43.23164 624.000
43.25159 611.000
43.27153 590.000
43.29148 514.000
43.31143 547.000
43.33137 533.000
43.35132 515.000
43.37127 471.000
43.39121 378.000
43.41116 382.000
43.43111 287.000
43.45105 312.000
43.47100 288.000
43.49095 273.000
43.51090 269.000
43.53084 231.000
43.55079 224.000
43.57074 221.000
43.59068 209.000
43.61063 189.000
43.63058 208.000
43.65052 205.000
43.67047 186.000
43.69042 175.000
43.71037 184.000
43.73031 182.000
43.75026 188.000
43.77021 176.000
43.79015 202.000
43.81010 190.000
43.83005 189.000
43.84999 195.000
43.86994 187.000
43.88989 167.000
43.90984 198.000
43.92978 153.000
43.94973 200.000
43.96968 177.000
43.98962 208.000
44.00957 199.000
44.02952 170.000
44.04946 180.000
44.06941 196.000
44.08936 190.000
44.10930 170.000
44.12925 165.000
44.14920 173.000
44.16915 170.000
44.18909 171.000
44.20904 175.000
44.22899 188.000
44.24893 176.000
44.26888 195.000
44.28883 210.000
44.30877 190.000
44.32872 185.000
44.34867 201.000
44.36862 200.000
44.38856 165.000
44.40851 208.000
44.42846 180.000
44.44840 177.000
44.46835 181.000
44.48830 190.000
44.50824 197.000
44.52819 183.000
44.54814 184.000
44.56808 180.000
44.58803 201.000
44.60798 162.000
44.62793 170.000
44.64787 181.000
44.66782 191.000
44.68777 193.000
44.70771 169.000
44.72766 190.000
44.74761 206.000
44.76755 172.000
44.78750 184.000
44.80745 189.000
44.82740 171.000
44.84734 221.000
44.86729 217.000
44.88724 200.000
44.90718 240.000
44.92713 217.000
44.94708 199.000
44.96702 218.000
44.98697 194.000
45.00692 225.000
45.02686 199.000
45.04681 201.000
45.06676 191.000
45.08671 202.000
45.10665 175.000
45.12660 161.000
45.14655 190.000
45.16649 188.000
45.18644 161.000
45.20639 185.000
45.22633 177.000
45.24628 176.000
45.26623 197.000
45.28618 187.000
45.30612 195.000
45.32607 170.000
45.34602 168.000
45.36596 185.000
45.38591 198.000
45.40586 171.000
45.42580 204.000
45.44575 176.000
45.46570 162.000
45.48565 175.000
45.50559 175.000
45.52554 180.000
45.54549 180.000
45.56543 179.000
45.58538 187.000
45.60533 192.000
45.62527 181.000
45.64522 198.000
45.66517 183.000
45.68511 190.000
45.70506 168.000
45.72501 201.000
45.74496 167.000
45.76490 188.000
45.78485 169.000
45.80480 193.000
45.82474 176.000
45.84469 166.000
45.86464 172.000
45.88458 162.000
45.90453 175.000
45.92448 192.000
45.94443 204.000
45.96437 204.000
45.98432 176.000
46.00427 180.000
46.02421 171.000
46.04416 149.000
46.06411 174.000
46.08405 174.000
46.10400 177.000
46.12395 177.000
46.14389 201.000
46.16384 211.000
46.18379 206.000
46.20374 196.000
46.22368 200.000
46.24363 194.000
46.26358 219.000
46.28352 187.000
46.30347 205.000
46.32342 178.000
46.34336 210.000
46.36331 198.000
46.38326 191.000
46.40321 189.000
46.42315 201.000
46.44310 187.000
46.46305 168.000
46.48299 196.000
46.50294 195.000
46.52289 177.000
46.54283 162.000
46.56278 177.000
46.58273 208.000
46.60267 183.000
46.62262 200.000
46.64257 207.000
46.66252 177.000
46.68246 188.000
46.70241 180.000
46.72236 185.000
46.74230 177.000
46.76225 185.000
46.78220 194.000
46.80214 168.000
46.82209 191.000
46.84204 194.000
46.86199 184.000
46.88193 163.000
46.90188 192.000
46.92183 195.000
46.94177 176.000
46.96172 192.000
46.98167 174.000
47.00161 217.000
47.02156 161.000
47.04151 201.000
47.06146 196.000
47.08140 195.000
47.10135 189.000
47.12130 168.000
47.14124 148.000
47.16119 192.000
47.18114 182.000
47.20108 184.000
47.22103 188.000
47.24098 175.000
47.26092 184.000
47.28087 182.000
47.30082 187.000
47.32077 159.000
47.34071 186.000
47.36066 165.000
47.38061 188.000
47.40055 195.000
47.42050 193.000
47.44045 205.000
47.46039 160.000
47.48034 172.000
47.50029 179.000
47.52024 181.000
47.54018 173.000
47.56013 185.000
47.58008 191.000
47.60002 176.000
47.61997 184.000
47.63992 159.000
47.65986 205.000
47.67981 160.000
47.69976 188.000
47.71970 195.000
47.73965 183.000
47.75960 194.000
47.77955 196.000
47.79949 167.000
47.81944 194.000
47.83939 175.000
47.85933 205.000
47.87928 190.000
47.89923 199.000
47.91917 185.000
47.93912 191.000
47.95907 186.000
47.97902 227.000
47.99896 197.000
48.01891 199.000
48.03886 191.000
48.05880 187.000
48.07875 193.000
48.09870 210.000
48.11864 179.000
48.13859 227.000
48.15854 203.000
48.17848 208.000
48.19843 216.000
48.21838 216.000
48.23833 237.000
48.25827 243.000
48.27822 250.000
48.29817 250.000
48.31811 251.000
48.33806 268.000
48.35801 283.000
48.37795 300.000
48.39790 342.000
48.41785 373.000
48.43780 427.000
48.45774 514.000
48.47769 605.000
48.49764 749.000
48.51758 843.000
48.53753 930.000
48.55748 938.000
48.57742 983.000
48.59737 939.000
48.61732 861.000
48.63726 851.000
48.65721 823.000
48.67716 846.000
48.69711 816.000
48.71705 740.000
48.73700 672.000
48.75695 634.000
48.77689 546.000
48.79684 552.000
48.81679 507.000
48.83673 457.000
48.85668 449.000
48.87663 436.000
48.89658 407.000
48.91652 378.000
48.93647 322.000
48.95642 313.000
48.97636 321.000
48.99631 263.000
49.01626 261.000
49.03620 230.000
49.05615 215.000
49.07610 224.000
49.09605 240.000
49.11599 203.000
49.13594 185.000
49.15589 208.000
49.17583 238.000
49.19578 200.000
49.21573 187.000
49.23567 192.000
49.25562 187.000
49.27557 182.000
49.29551 194.000
49.31546 196.000
49.33541 212.000
49.35536 191.000
49.37530 191.000
49.39525 201.000
49.41520 215.000
49.43514 221.000
49.45509 198.000
49.47504 198.000
49.49498 180.000
49.51493 182.000
49.53488 199.000
49.55483 189.000
49.57477 177.000
49.59472 203.000
49.61467 176.000
49.63461 174.000
49.65456 161.000
49.67451 190.000
49.69445 178.000
49.71440 183.000
49.73435 195.000
49.75429 180.000
49.77424 185.000
49.79419 193.000
49.81414 167.000
49.83408 161.000
49.85403 182.000
49.87398 183.000
49.89392 183.000
49.91387 178.000
49.93382 170.000
49.95376 175.000
49.97371 184.000
49.99366 198.000
50.01361 204.000
50.03355 175.000
50.05350 179.000
50.07345 176.000
50.09339 194.000
50.11334 174.000
50.13329 176.000
50.15323 188.000
50.17318 171.000
50.19313 214.000
50.21307 175.000
50.23302 182.000
50.25297 193.000
50.27292 167.000
50.29286 179.000
50.31281 167.000
50.33276 174.000
50.35270 185.000
50.37265 175.000
50.39260 148.000
50.41254 163.000
50.43249 188.000
50.45244 181.000
50.47239 181.000
50.49233 181.000
50.51228 162.000
50.53223 171.000
50.55217 157.000
50.57212 154.000
50.59207 167.000
50.61201 188.000
50.63196 182.000
50.65191 186.000
50.67186 184.000
50.69180 207.000
50.71175 173.000
50.73170 180.000
50.75164 177.000
50.77159 158.000
50.79154 184.000
50.81148 200.000
50.83143 160.000
50.85138 178.000
50.87132 166.000
50.89127 154.000
50.91122 174.000
50.93117 170.000
50.95111 172.000
50.97106 184.000
50.99101 178.000
51.01095 197.000
51.03090 162.000
51.05085 170.000
51.07079 182.000
51.09074 168.000
51.11069 176.000
51.13064 200.000
51.15058 159.000
51.17053 187.000
51.19048 176.000
51.21042 182.000
51.23037 195.000
51.25032 189.000
51.27026 182.000
51.29021 187.000
51.31016 194.000
51.33010 181.000
51.35005 177.000
51.37000 188.000
51.38995 177.000
51.40989 198.000
51.42984 184.000
51.44979 176.000
51.46973 203.000
51.48968 175.000
51.50963 187.000
51.52957 184.000
51.54952 188.000
51.56947 206.000
51.58942 177.000
51.60936 193.000
51.62931 166.000
51.64926 185.000
51.66920 155.000
51.68915 160.000
51.70910 175.000
51.72904 180.000
51.74899 176.000
51.76894 179.000
51.78888 180.000
51.80883 176.000
51.82878 150.000
51.84873 177.000
51.86867 184.000
51.88862 175.000
51.90857 173.000
51.92851 191.000
51.94846 176.000
51.96841 180.000
51.98835 174.000
52.00830 176.000
52.02825 205.000
52.04820 161.000
52.06814 176.000
52.08809 186.000
52.10804 188.000
52.12798 177.000
52.14793 216.000
52.16788 160.000
52.18782 161.000
52.20777 193.000
52.22772 171.000
52.24767 185.000
52.26761 185.000
52.28756 212.000
52.30751 160.000
52.32745 174.000
52.34740 171.000
52.36735 167.000
52.38729 170.000
52.40724 176.000
52.42719 181.000
52.44713 212.000
52.46708 189.000
52.48703 178.000
52.50698 198.000
52.52692 169.000
52.54687 176.000
52.56682 155.000
52.58676 180.000
52.60671 192.000
52.62666 178.000
52.64660 176.000
52.66655 155.000
52.68650 184.000
52.70645 225.000
52.72639 189.000
52.74634 210.000
52.76629 199.000
52.78623 230.000
52.80618 216.000
52.82613 219.000
52.84607 216.000
52.86602 259.000
52.88597 268.000
52.90591 299.000
52.92586 323.000
52.94581 307.000
52.96576 317.000
52.98570 331.000
53.00565 300.000
53.02560 311.000
53.04554 295.000
53.06549 308.000
53.08544 262.000
53.10538 245.000
53.12533 284.000
53.14528 253.000
53.16523 225.000
53.18517 233.000
53.20512 224.000
53.22507 258.000
53.24501 215.000
53.26496 210.000
53.28491 238.000
53.30485 236.000
53.32480 186.000
53.34475 221.000
53.36469 240.000
53.38464 227.000
53.40459 241.000
53.42454 247.000
53.44448 238.000
53.46443 245.000
53.48438 229.000
53.50432 231.000
53.52427 210.000
53.54422 247.000
53.56416 247.000
53.58411 223.000
53.60406 214.000
53.62401 224.000
53.64395 216.000
53.66390 232.000
53.68385 226.000
53.70379 223.000
53.72374 214.000
53.74369 220.000
53.76363 217.000
53.78358 189.000
53.80353 218.000
53.82348 203.000
53.84342 220.000
53.86337 216.000
53.88332 213.000
53.90326 184.000
53.92321 191.000
53.94316 192.000
53.96310 193.000
53.98305 186.000
54.00300 171.000
54.02294 200.000
54.04289 218.000
54.06284 185.000
54.08279 173.000
54.10273 163.000
54.12268 159.000
54.14263 195.000
54.16257 178.000
54.18252 155.000
54.20247 180.000
54.22241 167.000
54.24236 165.000
54.26231 165.000
54.28226 185.000
54.30220 177.000
54.32215 175.000
54.34210 175.000
54.36204 188.000
54.38199 178.000
54.40194 187.000
54.42188 178.000
54.44183 153.000
54.46178 191.000
54.48172 185.000
54.50167 189.000
54.52162 158.000
54.54157 173.000
54.56151 165.000
54.58146 183.000
54.60141 183.000
54.62135 199.000
54.64130 181.000
54.66125 161.000
54.68119 156.000
54.70114 162.000
54.72109 179.000
54.74104 166.000
54.76098 181.000
54.78093 190.000
54.80088 173.000
54.82082 182.000
54.84077 183.000
54.86072 148.000
54.88066 175.000
54.90061 178.000
54.92056 199.000
54.94050 180.000
54.96045 186.000
54.98040 188.000
55.00035 180.000
55.02029 167.000
55.04024 159.000
55.06019 170.000
55.08013 165.000
55.10008 196.000
55.12003 172.000
55.13997 153.000
55.15992 175.000
55.17987 190.000
55.19982 173.000
55.21976 168.000
55.23971 184.000
55.25966 186.000
55.27960 192.000
55.29955 187.000
55.31950 161.000
55.33944 154.000
55.35939 165.000
55.37934 184.000
55.39929 186.000
55.41923 190.000
55.43918 201.000
55.45913 174.000
55.47907 177.000
55.49902 168.000
55.51897 184.000
55.53891 193.000
55.55886 174.000
55.57881 199.000
55.59875 178.000
55.61870 200.000
55.63865 189.000
55.65860 180.000
55.67854 154.000
55.69849 191.000
55.71844 182.000
55.73838 155.000
55.75833 176.000
55.77828 156.000
55.79822 182.000
55.81817 170.000
55.83812 184.000
55.85807 171.000
55.87801 207.000
55.89796 169.000
55.91791 172.000
55.93785 177.000
55.95780 184.000
55.97775 182.000
55.99769 174.000
56.01764 181.000
56.03759 187.000
56.05753 167.000
56.07748 149.000
56.09743 179.000
56.11738 172.000
56.13732 175.000
56.15727 189.000
56.17722 167.000
56.19716 197.000
56.21711 151.000
56.23706 153.000
56.25700 202.000
56.27695 187.000
56.29690 178.000
56.31685 179.000
56.33679 169.000
56.35674 170.000
56.37669 191.000
56.39663 196.000
56.41658 195.000
56.43653 187.000
56.45647 203.000
56.47642 161.000
56.49637 193.000
56.51631 138.000
56.53626 208.000
56.55621 191.000
56.57616 173.000
56.59610 171.000
56.61605 191.000
56.63600 210.000
56.65594 185.000
56.67589 172.000
56.69584 185.000
56.71578 203.000
56.73573 178.000
56.75568 185.000
56.77563 170.000
56.79557 201.000
56.81552 185.000
56.83547 198.000
56.85541 182.000
56.87536 183.000
56.89531 186.000
56.91525 187.000
56.93520 172.000
56.95515 212.000
56.97510 175.000
56.99504 174.000
57.01499 205.000
57.03494 192.000
57.05488 210.000
57.07483 213.000
57.09478 251.000
57.11472 213.000
57.13467 236.000
57.15462 244.000
57.17456 263.000
57.19451 281.000
57.21446 291.000
57.23441 265.000
57.25435 246.000
57.27430 271.000
57.29425 272.000
57.31419 263.000
57.33414 275.000
57.35409 254.000
57.37403 311.000
57.39398 266.000
57.41393 280.000
57.43388 289.000
57.45382 273.000
57.47377 287.000
57.49372 315.000
57.51366 306.000
57.53361 366.000
57.55356 330.000
57.57350 323.000
57.59345 360.000
57.61340 363.000
57.63334 318.000
57.65329 336.000
57.67324 299.000
57.69319 320.000
57.71313 329.000
57.73308 303.000
57.75303 268.000
57.77297 228.000
57.79292 245.000
57.81287 256.000
57.83281 249.000
57.85276 216.000
57.87271 188.000
57.89266 193.000
57.91260 205.000
57.93255 194.000
57.95250 191.000
57.97244 209.000
57.99239 193.000
58.01234 235.000
58.03228 213.000
58.05223 229.000
58.07218 201.000
58.09212 210.000
58.11207 222.000
58.13202 266.000
58.15197 255.000
58.17191 272.000
58.19186 291.000
58.21181 310.000
58.23175 317.000
58.25170 308.000
58.27165 314.000
58.29159 273.000
58.31154 274.000
58.33149 257.000
58.35144 296.000
58.37138 259.000
58.39133 281.000
58.41128 312.000
58.43122 255.000
58.45117 233.000
58.47112 226.000
58.49106 223.000
58.51101 180.000
58.53096 204.000
58.55090 221.000
58.57085 209.000
58.59080 172.000
58.61075 181.000
58.63069 204.000
58.65064 192.000
58.67059 177.000
58.69053 166.000
58.71048 166.000
58.73043 178.000
58.75037 164.000
58.77032 212.000
58.79027 175.000
58.81022 192.000
58.83016 188.000
58.85011 190.000
58.87006 189.000
58.89000 207.000
58.90995 186.000
58.92990 209.000
58.94984 178.000
58.96979 155.000
58.98974 179.000
59.00969 167.000
59.02963 185.000
59.04958 173.000
59.06953 171.000
59.08947 176.000
59.10942 173.000
59.12937 193.000
59.14931 168.000
59.16926 171.000
59.18921 186.000
59.20915 193.000
59.22910 190.000
59.24905 179.000
59.26900 193.000
59.28894 162.000
59.30889 197.000
59.32884 184.000
59.34878 188.000
59.36873 177.000
59.38868 167.000
59.40862 185.000
59.42857 159.000
59.44852 174.000
59.46847 196.000
59.48841 192.000
59.50836 184.000
59.52831 189.000
59.54825 188.000
59.56820 168.000
59.58815 177.000
59.60809 164.000
59.62804 194.000
59.64799 189.000
59.66793 175.000
59.68788 167.000
59.70783 199.000
59.72778 177.000
59.74772 167.000
59.76767 185.000
59.78762 170.000
59.80756 189.000
59.82751 192.000
59.84746 165.000
59.86740 184.000
59.88735 201.000
59.90730 184.000
59.92725 180.000
59.94719 155.000
59.96714 187.000
59.98709 164.000
60.00703 201.000
60.02698 191.000
60.04693 215.000
60.06687 199.000
60.08682 169.000
60.10677 161.000
60.12671 201.000
60.14666 183.000
60.16661 193.000
60.18656 197.000
60.20650 169.000
60.22645 193.000
60.24640 157.000
60.26634 172.000
60.28629 180.000
60.30624 212.000
60.32618 192.000
60.34613 194.000
60.36608 182.000
60.38603 198.000
60.40597 167.000
60.42592 174.000
60.44587 193.000
60.46581 180.000
60.48576 187.000
60.50571 178.000
60.52565 180.000
60.54560 170.000
60.56555 164.000
60.58550 194.000
60.60544 184.000
60.62539 182.000
60.64534 173.000
60.66528 179.000
60.68523 186.000
60.70518 199.000
60.72512 195.000
60.74507 197.000
60.76502 204.000
60.78496 187.000
60.80491 197.000
60.82486 206.000
60.84481 189.000
60.86475 182.000
60.88470 199.000
60.90465 150.000
60.92459 199.000
60.94454 202.000
60.96449 207.000
60.98443 204.000
61.00438 196.000
61.02433 211.000
61.04428 181.000
61.06422 194.000
61.08417 187.000
61.10412 202.000
61.12406 203.000
61.14401 215.000
61.16396 185.000
61.18390 188.000
61.20385 199.000
61.22380 215.000
61.24374 244.000
61.26369 214.000
61.28364 212.000
61.30359 215.000
61.32353 222.000
61.34348 242.000
61.36343 228.000
61.38337 216.000
61.40332 274.000
61.42327 248.000
61.44321 318.000
61.46316 340.000
61.48311 341.000
61.50306 399.000
61.52300 394.000
61.54295 408.000
61.56290 367.000
61.58284 359.000
61.60279 383.000
61.62274 342.000
61.64268 382.000
61.66263 397.000
61.68258 443.000
61.70252 413.000
61.72247 426.000
61.74242 445.000
61.76237 476.000
61.78231 542.000
61.80226 510.000
61.82221 549.000
61.84215 543.000
61.86210 560.000
61.88205 523.000
61.90199 562.000
61.92194 536.000
61.94189 479.000
61.96184 465.000
61.98178 458.000
62.00173 420.000
62.02168 414.000
62.04162 358.000
62.06157 346.000
62.08152 382.000
62.10146 300.000
62.12141 299.000
62.14136 283.000
62.16131 240.000
62.18125 245.000
62.20120 207.000
62.22115 211.000
62.24109 194.000
62.26104 236.000
62.28099 203.000
62.30093 210.000
62.32088 217.000
62.34083 206.000
62.36077 222.000
62.38072 213.000
62.40067 211.000
62.42062 203.000
62.44056 216.000
62.46051 234.000
62.48046 243.000
62.50040 224.000
62.52035 224.000
62.54030 258.000
62.56024 250.000
62.58019 263.000
62.60014 246.000
62.62009 260.000
62.64003 284.000
62.65998 299.000
62.67993 260.000
62.69987 301.000
62.71982 303.000
62.73977 290.000
62.75971 348.000
62.77966 345.000
62.79961 358.000
62.81955 373.000
62.83950 395.000
62.85945 381.000
62.87940 446.000
62.89934 396.000
62.91929 377.000
62.93924 383.000
62.95918 376.000
62.97913 376.000
62.99908 409.000
63.01902 378.000
63.03897 358.000
63.05892 361.000
63.07887 350.000
63.09881 334.000
63.11876 327.000
63.13871 284.000
63.15865 282.000
63.17860 264.000
63.19855 265.000
63.21849 271.000
63.23844 222.000
63.25839 209.000
63.27833 226.000
63.29828 245.000
63.31823 221.000
63.33818 207.000
63.35812 206.000
63.37807 229.000
63.39802 230.000
63.41796 248.000
63.43791 211.000
63.45786 207.000
63.47780 217.000
63.49775 176.000
63.51770 246.000
63.53765 238.000
63.55759 259.000
63.57754 257.000
63.59749 284.000
63.61743 306.000
63.63738 290.000
63.65733 286.000
63.67727 328.000
63.69722 303.000
63.71717 288.000
63.73712 278.000
63.75706 273.000
63.77701 310.000
63.79696 310.000
63.81690 299.000
63.83685 294.000
63.85680 307.000
63.87674 296.000
63.89669 319.000
63.91664 286.000
63.93658 313.000
63.95653 303.000
63.97648 279.000
63.99643 283.000
64.01637 238.000
64.03632 258.000
64.05627 240.000
64.07621 225.000
64.09616 237.000
64.11611 226.000
64.13605 238.000
64.15600 198.000
64.17595 246.000
64.19590 202.000
64.21584 219.000
64.23579 212.000
64.25574 197.000
64.27568 197.000
64.29563 182.000
64.31558 199.000
64.33552 191.000
64.35547 194.000
64.37542 211.000
64.39536 185.000
64.41531 173.000
64.43526 193.000
64.45521 194.000
64.47515 204.000
64.49510 194.000
64.51505 200.000
64.53499 194.000
64.55494 193.000
64.57489 205.000
64.59483 182.000
64.61478 195.000
64.63473 178.000
64.65468 195.000
64.67462 204.000
64.69457 194.000
64.71452 204.000
64.73446 221.000
64.75441 198.000
64.77436 178.000
64.79430 222.000
64.81425 174.000
64.83420 202.000
64.85414 188.000
64.87409 190.000
64.89404 192.000
64.91399 164.000
64.93393 191.000
64.95388 209.000
64.97383 170.000
64.99377 200.000
65.01372 188.000
65.03367 186.000
65.05361 215.000
65.07356 197.000
65.09351 188.000
65.11346 192.000
65.13340 206.000
65.15335 214.000
65.17330 210.000
65.19324 210.000
65.21319 220.000
65.23314 211.000
65.25308 174.000
65.27303 219.000
65.29298 249.000
65.31293 227.000
65.33287 221.000
65.35282 248.000
65.37277 248.000
65.39271 240.000
65.41266 271.000
65.43261 231.000
65.45255 266.000
65.47250 279.000
65.49245 272.000
65.51239 267.000
65.53234 274.000
65.55229 267.000
65.57224 274.000
65.59218 283.000
65.61213 293.000
65.63208 319.000
65.65202 306.000
65.67197 316.000
65.69192 321.000
65.71186 294.000
65.73181 278.000
65.75176 278.000
65.77171 286.000
65.79165 308.000
65.81160 288.000
65.83155 301.000
65.85149 295.000
65.87144 256.000
65.89139 279.000
65.91133 301.000
65.93128 299.000
65.95123 296.000
65.97117 305.000
65.99112 286.000
66.01107 320.000
66.03102 323.000
66.05096 300.000
66.07091 327.000
66.09086 337.000
66.11080 410.000
66.13075 355.000
66.15070 350.000
66.17064 385.000
66.19059 389.000
66.21054 357.000
66.23049 427.000
66.25043 397.000
66.27038 399.000
66.29033 413.000
66.31027 421.000
66.33022 427.000
66.35017 404.000
66.37011 390.000
66.39006 334.000
66.41001 315.000
66.42995 305.000
66.44990 304.000
66.46985 310.000
66.48980 284.000
66.50974 295.000
66.52969 266.000
66.54964 268.000
66.56958 284.000
66.58953 247.000
66.60948 225.000
66.62942 235.000
66.64937 211.000
66.66932 232.000
66.68927 219.000
66.70921 207.000
66.72916 203.000
66.74911 200.000
66.76905 207.000
66.78900 234.000
66.80895 244.000
66.82889 238.000
66.84884 208.000
66.86879 225.000
66.88874 211.000
66.90868 224.000
66.92863 209.000
66.94858 228.000
66.96852 234.000
66.98847 221.000
67.00842 252.000
67.02836 243.000
67.04831 196.000
67.06826 230.000
67.08820 201.000
67.10815 254.000
67.12810 212.000
67.14805 213.000
67.16799 215.000
67.18794 217.000
67.20789 213.000
67.22783 217.000
67.24778 201.000
67.26773 191.000
67.28767 214.000
67.30762 216.000
67.32757 210.000
67.34752 207.000
67.36746 199.000
67.38741 218.000
67.40736 205.000
67.42730 209.000
67.44725 199.000
67.46720 213.000
67.48714 217.000
67.50709 211.000
67.52704 232.000
67.54698 210.000
67.56693 217.000
67.58688 223.000
67.60683 226.000
67.62677 206.000
67.64672 239.000
67.66667 259.000
67.68661 236.000
67.70656 223.000
67.72651 292.000
67.74645 240.000
67.76640 264.000
67.78635 275.000
67.80630 306.000
67.82624 329.000
67.84619 278.000
67.86614 291.000
67.88608 297.000
67.90603 338.000
67.92598 313.000
67.94592 306.000
67.96587 350.000
67.98582 339.000
68.00576 375.000
68.02571 341.000
68.04566 337.000
68.06561 338.000
68.08555 326.000
68.10550 272.000
68.12545 295.000
68.14539 304.000
68.16534 275.000
68.18529 290.000
68.20523 264.000
68.22518 250.000
68.24513 249.000
68.26508 239.000
68.28502 218.000
68.30497 239.000
68.32492 245.000
68.34486 244.000
68.36481 233.000
68.38476 218.000
68.40470 204.000
68.42465 219.000
68.44460 191.000
68.46455 203.000
68.48449 221.000
68.50444 188.000
68.52439 214.000
68.54433 218.000
68.56428 189.000
68.58423 230.000
68.60417 174.000
68.62412 187.000
68.64407 176.000
68.66401 194.000
68.68396 198.000
68.70391 175.000
68.72386 201.000
68.74380 210.000
68.76375 193.000
68.78370 199.000
68.80364 208.000
68.82359 203.000
68.84354 176.000
68.86348 218.000
68.88343 169.000
68.90338 197.000
68.92333 174.000
68.94327 200.000
68.96322 208.000
68.98317 192.000
69.00311 180.000
69.02306 195.000
69.04301 171.000
69.06295 200.000
69.08290 162.000
69.10285 194.000
69.12279 180.000
69.14274 157.000
69.16269 185.000
69.18264 181.000
69.20258 168.000
69.22253 179.000
69.24248 184.000
69.26242 186.000
69.28237 189.000
69.30232 205.000
69.32226 199.000
69.34221 181.000
69.36216 192.000
69.38211 183.000
69.40205 174.000
69.42200 186.000
69.44195 185.000
69.46189 178.000
69.48184 174.000
69.50179 179.000
69.52173 201.000
69.54168 174.000
69.56163 184.000
69.58157 170.000
69.60152 191.000
69.62147 195.000
69.64142 177.000
69.66136 182.000
69.68131 199.000
69.70126 175.000
69.72120 163.000
69.74115 185.000
69.76110 189.000
69.78104 190.000
69.80099 186.000
69.82094 200.000
69.84089 177.000
69.86083 161.000
69.88078 184.000
69.90073 180.000
69.92067 194.000
69.94062 180.000
69.96057 181.000
69.98051 181.000
70.00046 175.000
70.02041 179.000
70.04035 168.000
70.06030 194.000
70.08025 214.000
70.10020 180.000
70.12014 174.000
70.14009 179.000
70.16004 191.000
70.17998 164.000
70.19993 192.000
70.21988 176.000
70.23982 173.000
70.25977 179.000
70.27972 186.000
70.29967 189.000
70.31961 185.000
70.33956 181.000
70.35951 163.000
70.37945 188.000
70.39940 165.000
70.41935 153.000
70.43929 183.000
70.45924 167.000
70.47919 170.000
70.49914 175.000
70.51908 155.000
70.53903 188.000
70.55898 181.000
70.57892 189.000
70.59887 184.000
70.61882 196.000
70.63876 142.000
70.65871 202.000
70.67866 159.000
70.69860 166.000
70.71855 178.000
70.73850 180.000
70.75845 177.000
70.77839 156.000
70.79834 160.000
70.81829 167.000
70.83823 170.000
70.85818 182.000
70.87813 183.000
70.89807 180.000
70.91802 191.000
70.93797 166.000
70.95792 183.000
70.97786 182.000
70.99781 178.000
71.01776 209.000
71.03770 163.000
71.05765 182.000
71.07760 184.000
71.09754 165.000
71.11749 203.000
71.13744 172.000
71.15738 193.000
71.17733 184.000
71.19728 186.000
71.21723 202.000
71.23717 189.000
71.25712 180.000
71.27707 197.000
71.29701 171.000
71.31696 189.000
71.33691 182.000
71.35685 171.000
71.37680 187.000
71.39675 161.000
71.41670 214.000
71.43664 184.000
71.45659 180.000
71.47654 206.000
71.49648 170.000
71.51643 191.000
71.53638 169.000
71.55632 160.000
71.57627 174.000
71.59622 194.000
71.61616 204.000
71.63611 188.000
71.65606 171.000
71.67601 182.000
71.69595 182.000
71.71590 195.000
71.73585 198.000
71.75579 186.000
71.77574 176.000
71.79569 149.000
71.81563 185.000
71.83558 176.000
71.85553 157.000
71.87548 161.000
71.89542 174.000
71.91537 181.000
71.93532 189.000
71.95526 182.000
71.97521 176.000
71.99516 163.000
72.01510 183.000
72.03505 169.000
72.05500 188.000
72.07495 193.000
72.09489 187.000
72.11484 209.000
72.13479 180.000
72.15473 197.000
72.17468 192.000
72.19463 199.000
72.21457 216.000
72.23452 202.000
72.25447 210.000
72.27441 256.000
72.29436 243.000
72.31431 252.000
72.33426 244.000
72.35420 257.000
72.37415 256.000
72.39410 250.000
72.41404 255.000
72.43399 259.000
72.45394 229.000
72.47388 251.000
72.49383 214.000
72.51378 204.000
72.53373 236.000
72.55367 232.000
72.57362 247.000
72.59357 205.000
72.61351 241.000
72.63346 249.000
72.65341 209.000
72.67335 215.000
72.69330 255.000
72.71325 230.000
72.73319 231.000
72.75314 219.000
72.77309 223.000
72.79304 218.000
72.81298 249.000
72.83293 226.000
72.85288 234.000
72.87282 254.000
72.89277 216.000
72.91272 238.000
72.93266 234.000
72.95261 223.000
72.97256 239.000
72.99251 245.000
73.01245 223.000
73.03240 250.000
73.05235 251.000
73.07229 268.000
73.09224 246.000
73.11219 230.000
73.13213 253.000
73.15208 229.000
73.17203 249.000
73.19197 255.000
73.21192 235.000
73.23187 232.000
73.25182 244.000
73.27176 260.000
73.29171 253.000
73.31166 270.000
73.33160 224.000
73.35155 233.000
73.37150 208.000
73.39144 267.000
73.41139 219.000
73.43134 211.000
73.45129 238.000
73.47123 213.000
73.49118 245.000
73.51113 228.000
73.53107 230.000
73.55102 238.000
73.57097 210.000
73.59091 224.000
73.61086 211.000
73.63081 206.000
73.65076 200.000
73.67070 188.000
73.69065 207.000
73.71060 194.000
73.73054 185.000
73.75049 206.000
73.77044 212.000
73.79038 195.000
73.81033 194.000
73.83028 192.000
73.85022 167.000
73.87017 204.000
73.89012 178.000
73.91007 202.000
73.93001 193.000
73.94996 190.000
73.96991 157.000
73.98985 200.000
74.00980 213.000
74.02975 191.000
74.04969 198.000
74.06964 166.000
74.08959 178.000
74.10954 179.000
74.12948 187.000
74.14943 185.000
74.16938 176.000
74.18932 179.000
74.20927 192.000
74.22922 189.000
74.24916 198.000
74.26911 213.000
74.28906 213.000
74.30900 191.000
74.32895 199.000
74.34890 215.000
74.36885 205.000
74.38879 200.000
74.40874 202.000
74.42869 190.000
74.44863 211.000
74.46858 193.000
74.48853 211.000
74.50847 196.000
74.52842 200.000
74.54837 195.000
74.56832 212.000
74.58826 228.000
74.60821 215.000
74.62816 197.000
74.64810 195.000
74.66805 216.000
74.68800 207.000
74.70794 202.000
74.72789 204.000
74.74784 196.000
74.76778 212.000
74.78773 222.000
74.80768 194.000
74.82763 229.000
74.84757 213.000
74.86752 208.000
74.88747 237.000
74.90741 246.000
74.92736 257.000
74.94731 260.000
74.96725 286.000
74.98720 239.000
75.00715 240.000
75.02710 264.000
75.04704 234.000
75.06699 274.000
75.08694 248.000
75.10688 267.000
75.12683 236.000
75.14678 292.000
75.16672 287.000
75.18667 285.000
75.20662 300.000
75.22657 289.000
75.24651 263.000
75.26646 259.000
75.28641 278.000
75.30635 234.000
75.32630 279.000
75.34625 246.000
75.36619 258.000
75.38614 274.000
75.40609 255.000
75.42603 250.000
75.44598 263.000
75.46593 219.000
75.48588 238.000
75.50582 201.000
75.52577 220.000
75.54572 217.000
75.56566 218.000
75.58561 207.000
75.60556 192.000
75.62550 215.000
75.64545 185.000
75.66540 191.000
75.68535 208.000
75.70529 175.000
75.72524 186.000
75.74519 181.000
75.76513 201.000
75.78508 190.000
75.80503 190.000
75.82497 193.000
75.84492 175.000
75.86487 186.000
75.88481 176.000
75.90476 207.000
75.92471 180.000
75.94466 173.000
75.96460 201.000
75.98455 153.000
76.00450 214.000
76.02444 187.000
76.04439 170.000
76.06434 147.000
76.08428 173.000
76.10423 198.000
76.12418 160.000
76.14413 193.000
76.16407 187.000
76.18402 200.000
76.20397 202.000
76.22391 207.000
76.24386 190.000
76.26381 184.000
76.28375 197.000
76.30370 166.000
76.32365 174.000
76.34359 198.000
76.36354 182.000
76.38349 197.000
76.40344 206.000
76.42338 198.000
76.44333 189.000
76.46328 165.000
76.48322 181.000
76.50317 188.000
76.52312 186.000
76.54306 161.000
76.56301 209.000
76.58296 184.000
76.60291 170.000
76.62285 165.000
76.64280 191.000
76.66275 184.000
76.68269 176.000
76.70264 195.000
76.72259 179.000
76.74253 175.000
76.76248 174.000
76.78243 174.000
76.80238 186.000
76.82232 192.000
76.84227 182.000
76.86222 192.000
76.88216 159.000
76.90211 196.000
76.92206 216.000
76.94200 165.000
76.96195 175.000
76.98190 179.000
77.00184 201.000
77.02179 180.000
77.04174 174.000
77.06169 209.000
77.08163 194.000
77.10158 175.000
77.12153 191.000
77.14147 216.000
77.16142 206.000
77.18137 212.000
77.20131 219.000
77.22126 227.000
77.24121 227.000
77.26116 225.000
77.28110 204.000
77.30105 213.000
77.32100 236.000
77.34094 210.000
77.36089 254.000
77.38084 245.000
77.40078 224.000
77.42073 252.000
77.44068 229.000
77.46062 238.000
77.48057 238.000
77.50052 240.000
77.52047 223.000
77.54041 233.000
77.56036 216.000
77.58031 209.000
77.60025 237.000
77.62020 212.000
77.64015 237.000
77.66009 223.000
77.68004 217.000
77.69999 206.000
77.71994 215.000
77.73988 210.000
77.75983 223.000
77.77978 195.000
77.79972 214.000
77.81967 201.000
77.83962 232.000
77.85956 197.000
77.87951 214.000
77.89946 226.000
77.91940 199.000
77.93935 221.000
77.95930 194.000
77.97925 240.000
77.99919 255.000
78.01914 249.000
78.03909 253.000
78.05903 243.000
78.07898 255.000
78.09893 261.000
78.11887 292.000
78.13882 279.000
78.15877 312.000
78.17872 305.000
78.19866 272.000
78.21861 288.000
78.23856 290.000
78.25850 269.000
78.27845 291.000
78.29840 271.000
78.31834 264.000
78.33829 275.000
78.35824 274.000
78.37819 262.000
78.39813 282.000
78.41808 291.000
78.43803 289.000
78.45797 266.000
78.47792 267.000
78.49787 228.000
78.51781 233.000
78.53776 255.000
78.55771 219.000
78.57765 201.000
78.59760 204.000
78.61755 200.000
78.63750 190.000
78.65744 193.000
78.67739 202.000
78.69734 177.000
78.71728 200.000
78.73723 209.000
78.75718 199.000
78.77712 169.000
78.79707 191.000
78.81702 213.000
78.83697 189.000
78.85691 178.000
78.87686 179.000
78.89681 175.000
78.91675 190.000
78.93670 189.000
78.95665 210.000
78.97659 190.000
78.99654 189.000
79.01649 190.000
79.03643 186.000
79.05638 180.000
79.07633 174.000
79.09628 196.000
79.11622 205.000
79.13617 189.000
79.15612 195.000
79.17606 180.000
79.19601 212.000
79.21596 191.000
79.23590 197.000
79.25585 187.000
79.27580 204.000
79.29575 216.000
79.31569 173.000
79.33564 189.000
79.35559 207.000
79.37553 165.000
79.39548 197.000
79.41543 180.000
79.43537 202.000
79.45532 186.000
79.47527 188.000
79.49521 199.000
79.51516 198.000
79.53511 179.000
79.55506 188.000
79.57500 189.000
79.59495 183.000
79.61490 185.000
79.63484 175.000
79.65479 178.000
79.67474 191.000
79.69468 204.000
79.71463 173.000
79.73458 182.000
79.75453 180.000
79.77447 188.000
79.79442 182.000
79.81437 179.000
79.83431 178.000
79.85426 197.000
79.87421 183.000
79.89415 159.000
79.91410 194.000
79.93405 177.000
79.95399 187.000
79.97394 186.000
79.99389 197.000
80.01384 207.000
80.03378 200.000
80.05373 187.000
80.07368 191.000
80.09362 189.000
80.11357 201.000
80.13352 201.000
80.15346 203.000
80.17341 239.000
80.19336 218.000
80.21331 201.000
80.23325 213.000
80.25320 213.000
80.27315 191.000
80.29309 216.000
80.31304 203.000
80.33299 211.000
80.35293 188.000
80.37288 214.000
80.39283 178.000
80.41278 197.000
80.43272 190.000
80.45267 186.000
80.47262 183.000
80.49256 207.000
80.51251 187.000
80.53246 187.000
80.55240 201.000
80.57235 165.000
80.59230 197.000
80.61224 172.000
80.63219 177.000
80.65214 183.000
80.67209 171.000
80.69203 189.000
80.71198 181.000
80.73193 186.000
80.75187 197.000
80.77182 208.000
80.79177 178.000
80.81171 189.000
80.83166 179.000
80.85161 190.000
80.87156 174.000
80.89150 183.000
80.91145 170.000
80.93140 158.000
80.95134 211.000
80.97129 178.000
80.99124 145.000
81.01118 175.000
81.03113 169.000
81.05108 188.000
81.07102 168.000
81.09097 200.000
81.11092 196.000
81.13087 168.000
81.15081 185.000
81.17076 171.000
81.19071 180.000
81.21065 192.000
81.23060 166.000
81.25055 182.000
81.27049 209.000
81.29044 177.000
81.31039 184.000
81.33034 180.000
81.35028 152.000
81.37023 178.000
81.39018 180.000
81.41012 182.000
81.43007 186.000
81.45002 163.000
81.46996 154.000
81.48991 195.000
81.50986 202.000
81.52980 169.000
81.54975 181.000
81.56970 192.000
81.58965 177.000
81.60959 179.000
81.62954 187.000
81.64949 177.000
81.66943 185.000
81.68938 182.000
81.70933 178.000
81.72927 173.000
81.74922 187.000
81.76917 193.000
81.78912 194.000
81.80906 163.000
81.82901 187.000
81.84896 193.000
81.86890 205.000
81.88885 152.000
81.90880 162.000
81.92874 174.000
81.94869 168.000
81.96864 190.000
81.98859 206.000
82.00853 191.000
82.02848 195.000
82.04843 195.000
82.06837 173.000
82.08832 185.000
82.10827 210.000
82.12821 192.000
82.14816 179.000
82.16811 175.000
82.18805 190.000
82.20800 183.000
82.22795 206.000
82.24790 202.000
82.26784 205.000
82.28779 177.000
82.30774 205.000
82.32768 199.000
82.34763 197.000
82.36758 199.000
82.38752 205.000
82.40747 233.000
82.42742 214.000
82.44737 196.000
82.46731 214.000
82.48726 205.000
82.50721 183.000
82.52715 196.000
82.54710 204.000
82.56705 191.000
82.58699 221.000
82.60694 195.000
82.62689 202.000
82.64683 169.000
82.66678 199.000
82.68673 184.000
82.70668 225.000
82.72662 196.000
82.74657 197.000
82.76652 183.000
82.78646 206.000
82.80641 203.000
82.82636 224.000
82.84630 213.000
82.86625 202.000
82.88620 205.000
82.90615 219.000
82.92609 184.000
82.94604 213.000
82.96599 227.000
82.98593 202.000
83.00588 229.000
83.02583 174.000
83.04577 198.000
83.06572 202.000
83.08567 191.000
83.10561 187.000
83.12556 207.000
83.14551 231.000
83.16546 202.000
83.18540 217.000
83.20535 203.000
83.22530 200.000
83.24524 200.000
83.26519 200.000
83.28514 193.000
83.30508 214.000
83.32503 198.000
83.34498 214.000
83.36493 202.000
83.38487 165.000
83.40482 205.000
83.42477 192.000
83.44471 184.000
83.46466 185.000
83.48461 194.000
83.50455 194.000
83.52450 211.000
83.54445 192.000
83.56440 204.000
83.58434 209.000
83.60429 216.000
83.62424 175.000
83.64418 221.000
83.66413 203.000
83.68408 186.000
83.70402 212.000
83.72397 211.000
83.74392 210.000
83.76386 201.000
83.78381 202.000
83.80376 216.000
83.82371 190.000
83.84365 231.000
83.86360 214.000
83.88355 178.000
83.90349 211.000
83.92344 220.000
83.94339 256.000
83.96333 193.000
83.98328 244.000
84.00323 259.000
84.02318 234.000
84.04312 227.000
84.06307 237.000
84.08302 240.000
84.10296 242.000
84.12291 225.000
84.14286 208.000
84.16280 247.000
84.18275 223.000
84.20270 235.000
84.22264 228.000
84.24259 199.000
84.26254 220.000
84.28249 238.000
84.30243 227.000
84.32238 224.000
84.34233 215.000
84.36227 198.000
84.38222 199.000
84.40217 217.000
84.42211 191.000
84.44206 225.000
84.46201 193.000
84.48196 206.000
84.50190 214.000
84.52185 191.000
84.54180 207.000
84.56174 197.000
84.58169 205.000
84.60164 214.000
84.62158 179.000
84.64153 175.000
84.66148 210.000
84.68142 194.000
84.70137 187.000
84.72132 177.000
84.74127 190.000
84.76121 184.000
84.78116 179.000
84.80111 184.000
84.82105 193.000
84.84100 174.000
84.86095 199.000
84.88089 189.000
84.90084 189.000
84.92079 195.000
84.94074 180.000
84.96068 180.000
84.98063 193.000
85.00058 174.000
85.02052 196.000
85.04047 167.000
85.06042 175.000
85.08036 183.000
85.10031 156.000
85.12026 176.000
85.14021 167.000
85.16015 175.000
85.18010 190.000
85.20005 189.000
85.21999 193.000
85.23994 162.000
85.25989 184.000
85.27983 188.000
85.29978 176.000
85.31973 163.000
85.33967 181.000
85.35962 179.000
85.37957 176.000
85.39952 184.000
85.41946 187.000
85.43941 178.000
85.45936 198.000
85.47930 169.000
85.49925 158.000
85.51920 176.000
85.53914 191.000
85.55909 163.000
85.57904 196.000
85.59899 203.000
85.61893 184.000
85.63888 185.000
85.65883 192.000
85.67877 174.000
85.69872 176.000
85.71867 179.000
85.73861 179.000
85.75856 198.000
85.77851 172.000
85.79845 182.000
85.81840 182.000
85.83835 169.000
85.85830 177.000
85.87824 175.000
85.89819 157.000
85.91814 196.000
85.93808 152.000
85.95803 176.000
85.97798 172.000
85.99792 189.000
86.01787 194.000
86.03782 196.000
86.05777 190.000
86.07771 176.000
86.09766 182.000
86.11761 184.000
86.13755 174.000
86.15750 175.000
86.17745 177.000
86.19739 169.000
86.21734 173.000
86.23729 184.000
86.25723 185.000
86.27718 196.000
86.29713 216.000
86.31708 180.000
86.33702 172.000
86.35697 184.000
86.37692 181.000
86.39686 186.000
86.41681 208.000
86.43676 194.000
86.45670 187.000
86.47665 189.000
86.49660 196.000
86.51655 157.000
86.53649 201.000
86.55644 190.000
86.57639 176.000
86.59633 219.000
86.61628 220.000
86.63623 202.000
86.65617 215.000
86.67612 194.000
86.69607 242.000
86.71602 219.000
86.73596 221.000
86.75591 207.000
86.77586 214.000
86.79580 194.000
86.81575 187.000
86.83570 203.000
86.85564 201.000
86.87559 202.000
86.89554 197.000
86.91548 184.000
86.93543 212.000
86.95538 199.000
86.97533 200.000
86.99527 195.000
87.01522 202.000
87.03517 206.000
87.05511 182.000
87.07506 201.000
87.09501 196.000
87.11495 221.000
87.13490 188.000
87.15485 212.000
87.17480 211.000
87.19474 183.000
87.21469 215.000
87.23464 191.000
87.25458 210.000
87.27453 189.000
87.29448 205.000
87.31442 194.000
87.33437 196.000
87.35432 214.000
87.37426 186.000
87.39421 198.000
87.41416 218.000
87.43411 191.000
87.45405 218.000
87.47400 213.000
87.49395 170.000
87.51389 202.000
87.53384 197.000
87.55379 207.000
87.57373 203.000
87.59368 189.000
87.61363 203.000
87.63358 201.000
87.65352 182.000
87.67347 212.000
87.69342 220.000
87.71336 185.000
87.73331 191.000
87.75326 189.000
87.77320 168.000
87.79315 187.000
87.81310 216.000
87.83304 195.000
87.85299 162.000
87.87294 197.000
87.89289 180.000
87.91283 182.000
87.93278 168.000
87.95273 200.000
87.97267 174.000
87.99262 156.000
88.01257 173.000
88.03251 184.000
88.05246 148.000
88.07241 172.000
88.09236 192.000
88.11230 185.000
88.13225 167.000
88.15220 185.000
88.17214 192.000
88.19209 176.000
88.21204 193.000
88.23198 204.000
88.25193 184.000
88.27188 188.000
88.29183 165.000
88.31177 157.000
88.33172 178.000
88.35167 175.000
88.37161 182.000
88.39156 182.000
88.41151 168.000
88.43145 166.000
88.45140 188.000
88.47135 192.000
88.49129 174.000
88.51124 173.000
88.53119 190.000
88.55114 171.000
88.57108 189.000
88.59103 205.000
88.61098 186.000
88.63092 177.000
88.65087 183.000
88.67082 179.000
88.69076 176.000
88.71071 167.000
88.73066 162.000
88.75061 161.000
88.77055 188.000
88.79050 172.000
88.81045 180.000
88.83039 180.000
88.85034 197.000
88.87029 180.000
88.89023 185.000
88.91018 212.000
88.93013 197.000
88.95007 170.000
88.97002 191.000
88.98997 197.000
89.00992 202.000
89.02986 201.000
89.04981 185.000
89.06976 186.000
89.08970 167.000
89.10965 174.000
89.12960 179.000
89.14954 180.000
89.16949 190.000
89.18944 183.000
89.20939 165.000
89.22933 177.000
89.24928 221.000
89.26923 187.000
89.28917 190.000
89.30912 198.000
89.32907 193.000
89.34901 197.000
89.36896 176.000
89.38891 211.000
89.40885 192.000
89.42880 209.000
89.44875 190.000
89.46870 196.000
89.48864 192.000
89.50859 206.000
89.52854 200.000
89.54848 201.000
89.56843 212.000
89.58838 222.000
89.60832 188.000
89.62827 199.000
89.64822 178.000
89.66817 227.000
89.68811 189.000
89.70806 227.000
89.72801 198.000
89.74795 209.000
89.76790 191.000
89.78785 208.000
89.80779 212.000
89.82774 213.000
89.84769 192.000
89.86764 194.000
89.88758 209.000
89.90753 201.000
89.92748 213.000
89.94742 219.000
89.96737 201.000
89.98732 182.000
90.00726 200.000
