10.00000 159.000
10.01995 180.000
10.03989 157.000
10.05984 193.000
10.07979 185.000
10.09973 176.000
10.11968 179.000
10.13963 191.000
10.15958 178.000
10.17952 189.000
10.19947 164.000
10.21942 153.000
10.23936 167.000
10.25931 186.000
10.27926 166.000
10.29920 166.000
10.31915 174.000
10.33910 182.000
10.35905 171.000
10.37899 178.000
10.39894 182.000
10.41889 152.000
10.43883 184.000
10.45878 175.000
10.47873 164.000
10.49867 162.000
10.51862 180.000
10.53857 195.000
10.55851 170.000
10.57846 188.000
10.59841 171.000
10.61836 145.000
10.63830 168.000
10.65825 189.000
10.67820 172.000
10.69814 200.000
10.71809 174.000
10.73804 173.000
10.75798 149.000
10.77793 176.000
10.79788 181.000
10.81783 187.000
10.83777 170.000
10.85772 192.000
10.87767 200.000
10.89761 184.000
10.91756 159.000
10.93751 159.000
10.95745 185.000
10.97740 176.000
10.99735 162.000
11.01730 172.000
11.03724 173.000
11.05719 203.000
11.07714 174.000
11.09708 182.000
11.11703 153.000
11.13698 203.000
11.15692 175.000
11.17687 185.000
11.19682 164.000
11.21676 151.000
11.23671 177.000
11.25666 171.000
11.27661 164.000
11.29655 182.000
11.31650 181.000
11.33645 167.000
11.35639 189.000
11.37634 177.000
11.39629 168.000
11.41623 171.000
11.43618 186.000
11.45613 167.000
11.47608 186.000
11.49602 159.000
11.51597 169.000
11.53592 170.000
11.55586 171.000
11.57581 175.000
11.59576 175.000
11.61570 182.000
11.63565 150.000
11.65560 159.000
11.67554 169.000
11.69549 198.000
11.71544 181.000
11.73539 181.000
11.75533 188.000
11.77528 175.000
11.79523 174.000
11.81517 191.000
11.83512 185.000
11.85507 171.000
11.87501 176.000
11.89496 141.000
11.91491 181.000
11.93486 168.000
11.95480 172.000
11.97475 154.000
11.99470 170.000
12.01464 186.000
12.03459 181.000
12.05454 163.000
12.07448 162.000
12.09443 156.000
12.11438 175.000
12.13432 187.000
12.15427 183.000
12.17422 145.000
12.19417 169.000
12.21411 195.000
12.23406 164.000
12.25401 190.000
12.27395 177.000
12.29390 182.000
12.31385 187.000
12.33379 175.000
12.35374 179.000
12.37369 174.000
12.39364 185.000
12.41358 145.000
12.43353 174.000
12.45348 191.000
12.47342 199.000
12.49337 179.000
12.51332 178.000
12.53326 170.000
12.55321 181.000
12.57316 171.000
12.59311 167.000
12.61305 187.000
12.63300 167.000
12.65295 164.000
12.67289 183.000
12.69284 185.000
12.71279 198.000
12.73273 189.000
12.75268 161.000
12.77263 171.000
12.79257 187.000
12.81252 170.000
12.83247 159.000
12.85242 159.000
12.87236 166.000
12.89231 179.000
12.91226 188.000
12.93220 190.000
12.95215 185.000
12.97210 179.000
12.99204 158.000
13.01199 186.000
13.03194 159.000
13.05189 170.000
13.07183 157.000
13.09178 187.000
13.11173 153.000
13.13167 164.000
13.15162 157.000
13.17157 181.000
13.19151 202.000
13.21146 167.000
13.23141 170.000
13.25135 177.000
13.27130 178.000
13.29125 175.000
13.31120 172.000
13.33114 148.000
13.35109 163.000
13.37104 174.000
13.39098 183.000
13.41093 188.000
13.43088 168.000
13.45082 161.000
13.47077 191.000
13.49072 168.000
13.51067 173.000
13.53061 193.000
13.55056 203.000
13.57051 201.000
13.59045 183.000
13.61040 170.000
13.63035 168.000
13.65029 189.000
13.67024 150.000
13.69019 162.000
13.71013 182.000
13.73008 177.000
13.75003 203.000
13.76998 148.000
13.78992 180.000
13.80987 204.000
13.82982 196.000
13.84976 165.000
13.86971 189.000
13.88966 160.000
13.90960 176.000
13.92955 174.000
13.94950 167.000
13.96945 175.000
13.98939 177.000
14.00934 165.000
14.02929 183.000
14.04923 169.000
14.06918 173.000
14.08913 195.000
14.10907 168.000
14.12902 161.000
14.14897 167.000
14.16892 208.000
14.18886 204.000
14.20881 175.000
14.22876 167.000
14.24870 168.000
14.26865 188.000
14.28860 184.000
14.30854 185.000
14.32849 169.000
14.34844 187.000
14.36838 177.000
14.38833 164.000
14.40828 175.000
14.42823 173.000
14.44817 167.000
14.46812 190.000
14.48807 186.000
14.50801 171.000
14.52796 185.000
14.54791 161.000
14.56785 158.000
14.58780 167.000
14.60775 178.000
14.62770 171.000
14.64764 186.000
14.66759 191.000
14.68754 190.000
14.70748 170.000
14.72743 182.000
14.74738 176.000
14.76732 179.000
14.78727 190.000
14.80722 181.000
14.82716 154.000
14.84711 167.000
14.86706 185.000
14.88701 175.000
14.90695 179.000
14.92690 180.000
14.94685 186.000
14.96679 196.000
14.98674 169.000
15.00669 186.000
15.02663 178.000
15.04658 178.000
15.06653 201.000
15.08648 218.000
15.10642 192.000
15.12637 201.000
15.14632 222.000
15.16626 223.000
15.18621 192.000
15.20616 187.000
15.22610 203.000
15.24605 228.000
15.26600 212.000
15.28594 216.000
15.30589 209.000
15.32584 235.000
15.34579 208.000
15.36573 237.000
15.38568 221.000
15.40563 229.000
15.42557 223.000
15.44552 258.000
15.46547 247.000
15.48541 250.000
15.50536 237.000
15.52531 269.000
15.54526 280.000
15.56520 297.000
15.58515 317.000
15.60510 343.000
15.62504 424.000
15.64499 561.000
15.66494 662.000
15.68488 896.000
15.70483 1140.000
15.72478 1619.000
15.74472 2323.000
15.76467 3155.000
15.78462 3786.000
15.80457 4418.000
15.82451 5484.000
15.84446 5883.000
15.86441 5380.000
15.88435 4162.000
15.90430 2802.000
15.92425 1639.000
15.94419 929.000
15.96414 696.000
15.98409 602.000
16.00404 648.000
16.02398 785.000
16.04393 955.000
16.06388 1087.000
16.08382 1243.000
16.10377 1343.000
16.12372 1498.000
16.14366 1571.000
16.16361 1445.000
16.18356 1339.000
16.20351 1220.000
16.22345 942.000
16.24340 807.000
16.26335 672.000
16.28329 479.000
16.30324 378.000
16.32319 335.000
16.34313 245.000
16.36308 208.000
16.38303 235.000
16.40297 191.000
16.42292 218.000
16.44287 232.000
16.46282 205.000
16.48276 203.000
16.50271 204.000
16.52266 195.000
16.54260 206.000
16.56255 188.000
16.58250 177.000
16.60244 201.000
16.62239 202.000
16.64234 197.000
16.66229 199.000
16.68223 184.000
16.70218 183.000
16.72213 190.000
16.74207 177.000
16.76202 188.000
16.78197 198.000
16.80191 209.000
16.82186 167.000
16.84181 188.000
16.86175 174.000
16.88170 191.000
16.90165 196.000
16.92160 177.000
16.94154 174.000
16.96149 151.000
16.98144 172.000
17.00138 184.000
17.02133 171.000
17.04128 181.000
17.06122 202.000
17.08117 165.000
17.10112 180.000
17.12107 191.000
17.14101 177.000
17.16096 187.000
17.18091 185.000
17.20085 204.000
17.22080 175.000
17.24075 158.000
17.26069 183.000
17.28064 177.000
17.30059 156.000
17.32053 161.000
17.34048 183.000
17.36043 161.000
17.38038 170.000
17.40032 178.000
17.42027 194.000
17.44022 169.000
17.46016 159.000
17.48011 167.000
17.50006 159.000
17.52000 156.000
17.53995 178.000
17.55990 176.000
17.57985 164.000
17.59979 168.000
17.61974 204.000
17.63969 170.000
17.65963 174.000
17.67958 168.000
17.69953 176.000
17.71947 185.000
17.73942 173.000
17.75937 173.000
17.77932 188.000
17.79926 165.000
17.81921 172.000
17.83916 172.000
17.85910 166.000
17.87905 185.000
17.89900 161.000
17.91894 177.000
17.93889 168.000
17.95884 156.000
17.97878 151.000
17.99873 169.000
18.01868 167.000
18.03863 173.000
18.05857 197.000
18.07852 175.000
18.09847 166.000
18.11841 177.000
18.13836 187.000
18.15831 188.000
18.17825 151.000
18.19820 175.000
18.21815 194.000
18.23810 185.000
18.25804 196.000
18.27799 171.000
18.29794 227.000
18.31788 228.000
18.33783 252.000
18.35778 260.000
18.37772 244.000
18.39767 227.000
18.41762 216.000
18.43756 177.000
18.45751 188.000
18.47746 204.000
18.49741 173.000
18.51735 179.000
18.53730 154.000
18.55725 182.000
18.57719 175.000
18.59714 169.000
18.61709 169.000
18.63703 154.000
18.65698 155.000
18.67693 177.000
18.69688 160.000
18.71682 153.000
18.73677 153.000
18.75672 183.000
18.77666 153.000
18.79661 197.000
18.81656 187.000
18.83650 185.000
18.85645 183.000
18.87640 163.000
18.89634 169.000
18.91629 166.000
18.93624 191.000
18.95619 167.000
18.97613 173.000
18.99608 180.000
19.01603 177.000
19.03597 172.000
19.05592 171.000
19.07587 174.000
19.09581 171.000
19.11576 152.000
19.13571 176.000
19.15566 181.000
19.17560 155.000
19.19555 183.000
19.21550 167.000
19.23544 153.000
19.25539 165.000
19.27534 161.000
19.29528 163.000
19.31523 164.000
19.33518 167.000
19.35513 159.000
19.37507 161.000
19.39502 194.000
19.41497 161.000
19.43491 188.000
19.45486 176.000
19.47481 169.000
19.49475 167.000
19.51470 151.000
19.53465 189.000
19.55459 200.000
19.57454 158.000
19.59449 170.000
19.61444 175.000
19.63438 176.000
19.65433 186.000
19.67428 179.000
19.69422 170.000
19.71417 158.000
19.73412 161.000
19.75406 178.000
19.77401 174.000
19.79396 165.000
19.81391 172.000
19.83385 173.000
19.85380 160.000
19.87375 172.000
19.89369 175.000
19.91364 152.000
19.93359 180.000
19.95353 185.000
19.97348 170.000
19.99343 178.000
20.01337 165.000
20.03332 172.000
20.05327 145.000
20.07322 166.000
20.09316 147.000
20.11311 175.000
20.13306 182.000
20.15300 148.000
20.17295 180.000
20.19290 152.000
20.21284 184.000
20.23279 159.000
20.25274 195.000
20.27269 183.000
20.29263 171.000
20.31258 167.000
20.33253 164.000
20.35247 170.000
20.37242 182.000
20.39237 161.000
20.41231 203.000
20.43226 177.000
20.45221 145.000
20.47215 171.000
20.49210 178.000
20.51205 160.000
20.53200 178.000
20.55194 174.000
20.57189 194.000
20.59184 171.000
20.61178 183.000
20.63173 181.000
20.65168 184.000
20.67162 162.000
20.69157 186.000
20.71152 219.000
20.73147 201.000
20.75141 225.000
20.77136 264.000
20.79131 270.000
20.81125 322.000
20.83120 343.000
20.85115 346.000
20.87109 429.000
20.89104 376.000
20.91099 370.000
20.93094 335.000
20.95088 337.000
20.97083 333.000
20.99078 304.000
21.01072 341.000
21.03067 322.000
21.05062 271.000
21.07056 279.000
21.09051 258.000
21.11046 238.000
21.13040 211.000
21.15035 183.000
21.17030 204.000
21.19025 192.000
21.21019 188.000
21.23014 183.000
21.25009 161.000
21.27003 176.000
21.28998 180.000
21.30993 167.000
21.32987 182.000
21.34982 181.000
21.36977 192.000
21.38972 168.000
21.40966 176.000
21.42961 162.000
21.44956 164.000
21.46950 165.000
21.48945 204.000
21.50940 158.000
21.52934 152.000
21.54929 173.000
21.56924 168.000
21.58918 188.000
21.60913 177.000
21.62908 180.000
21.64903 195.000
21.66897 163.000
21.68892 189.000
21.70887 155.000
21.72881 177.000
21.74876 160.000
21.76871 172.000
21.78865 168.000
21.80860 152.000
21.82855 194.000
21.84850 195.000
21.86844 180.000
21.88839 169.000
21.90834 184.000
21.92828 181.000
21.94823 174.000
21.96818 183.000
21.98812 189.000
22.00807 177.000
22.02802 170.000
22.04796 177.000
22.06791 189.000
22.08786 143.000
22.10781 181.000
22.12775 148.000
22.14770 175.000
22.16765 167.000
22.18759 173.000
22.20754 177.000
22.22749 192.000
22.24743 181.000
22.26738 157.000
22.28733 165.000
22.30728 203.000
22.32722 158.000
22.34717 175.000
22.36712 171.000
22.38706 158.000
22.40701 183.000
22.42696 151.000
22.44690 176.000
22.46685 165.000
22.48680 167.000
22.50675 174.000
22.52669 192.000
22.54664 168.000
22.56659 189.000
22.58653 177.000
22.60648 160.000
22.62643 177.000
22.64637 166.000
22.66632 185.000
22.68627 147.000
22.70621 182.000
22.72616 177.000
22.74611 160.000
22.76606 148.000
22.78600 192.000
22.80595 173.000
22.82590 179.000
22.84584 161.000
22.86579 172.000
22.88574 170.000
22.90568 160.000
22.92563 183.000
22.94558 172.000
22.96553 179.000
22.98547 187.000
23.00542 190.000
23.02537 177.000
23.04531 161.000
23.06526 172.000
23.08521 176.000
23.10515 174.000
23.12510 175.000
23.14505 188.000
23.16499 160.000
23.18494 171.000
23.20489 155.000
23.22484 185.000
23.24478 169.000
23.26473 170.000
23.28468 163.000
23.30462 165.000
23.32457 185.000
23.34452 168.000
23.36446 172.000
23.38441 152.000
23.40436 191.000
23.42431 179.000
23.44425 189.000
23.46420 151.000
23.48415 154.000
23.50409 161.000
23.52404 216.000
23.54399 191.000
23.56393 175.000
23.58388 182.000
23.60383 174.000
23.62377 180.000
23.64372 173.000
23.66367 157.000
23.68362 189.000
23.70356 174.000
23.72351 163.000
23.74346 150.000
23.76340 173.000
23.78335 184.000
23.80330 156.000
23.82324 187.000
23.84319 186.000
23.86314 161.000
23.88309 175.000
23.90303 164.000
23.92298 191.000
23.94293 170.000
23.96287 170.000
23.98282 156.000
24.00277 162.000
24.02271 177.000
24.04266 191.000
24.06261 162.000
24.08256 197.000
24.10250 170.000
24.12245 172.000
24.14240 183.000
24.16234 171.000
24.18229 162.000
24.20224 166.000
24.22218 164.000
24.24213 161.000
24.26208 188.000
24.28202 183.000
24.30197 192.000
24.32192 184.000
24.34187 182.000
24.36181 163.000
24.38176 173.000
24.40171 179.000
24.42165 169.000
24.44160 163.000
24.46155 204.000
24.48149 188.000
24.50144 155.000
24.52139 171.000
24.54134 166.000
24.56128 171.000
24.58123 188.000
24.60118 166.000
24.62112 189.000
24.64107 164.000
24.66102 154.000
24.68096 177.000
24.70091 174.000
24.72086 166.000
24.74080 155.000
24.76075 172.000
24.78070 170.000
24.80065 180.000
24.82059 171.000
24.84054 200.000
24.86049 176.000
24.88043 177.000
24.90038 191.000
24.92033 168.000
24.94027 188.000
24.96022 178.000
24.98017 198.000
25.00012 193.000
25.02006 172.000
25.04001 173.000
25.05996 190.000
25.07990 157.000
25.09985 188.000
25.11980 168.000
25.13974 192.000
25.15969 188.000
25.17964 170.000
25.19958 187.000
25.21953 144.000
25.23948 190.000
25.25943 187.000
25.27937 171.000
25.29932 166.000
25.31927 177.000
25.33921 188.000
25.35916 172.000
25.37911 190.000
25.39905 182.000
25.41900 157.000
25.43895 176.000
25.45890 200.000
25.47884 163.000
25.49879 198.000
25.51874 192.000
25.53868 188.000
25.55863 189.000
25.57858 172.000
25.59852 175.000
25.61847 162.000
25.63842 180.000
25.65837 176.000
25.67831 181.000
25.69826 176.000
25.71821 167.000
25.73815 187.000
25.75810 165.000
25.77805 170.000
25.79799 196.000
25.81794 170.000
25.83789 193.000
25.85783 186.000
25.87778 194.000
25.89773 188.000
25.91768 185.000
25.93762 192.000
25.95757 154.000
25.97752 182.000
25.99746 187.000
26.01741 148.000
26.03736 180.000
26.05730 186.000
26.07725 192.000
26.09720 186.000
26.11715 193.000
26.13709 194.000
26.15704 171.000
26.17699 182.000
26.19693 177.000
26.21688 159.000
26.23683 212.000
26.25677 181.000
26.27672 175.000
26.29667 173.000
26.31661 177.000
26.33656 178.000
26.35651 186.000
26.37646 185.000
26.39640 176.000
26.41635 171.000
26.43630 186.000
26.45624 175.000
26.47619 168.000
26.49614 182.000
26.51608 178.000
26.53603 179.000
26.55598 188.000
26.57593 193.000
26.59587 182.000
26.61582 178.000
26.63577 162.000
26.65571 172.000
26.67566 202.000
26.69561 176.000
26.71555 185.000
26.73550 181.000
26.75545 173.000
26.77539 186.000
26.79534 179.000
26.81529 197.000
26.83524 178.000
26.85518 187.000
26.87513 196.000
26.89508 177.000
26.91502 193.000
26.93497 178.000
26.95492 163.000
26.97486 185.000
26.99481 191.000
27.01476 184.000
27.03471 184.000
27.05465 195.000
27.07460 171.000
27.09455 203.000
27.11449 183.000
27.13444 185.000
27.15439 170.000
27.17433 175.000
27.19428 199.000
27.21423 201.000
27.23417 171.000
27.25412 173.000
27.27407 174.000
27.29402 178.000
27.31396 191.000
27.33391 175.000
27.35386 181.000
27.37380 202.000
27.39375 205.000
27.41370 195.000
27.43364 175.000
27.45359 182.000
27.47354 162.000
27.49349 191.000
27.51343 184.000
27.53338 201.000
27.55333 198.000
27.57327 152.000
27.59322 178.000
27.61317 189.000
27.63311 186.000
27.65306 180.000
27.67301 191.000
27.69296 170.000
27.71290 199.000
27.73285 191.000
27.75280 188.000
27.77274 164.000
27.79269 161.000
27.81264 195.000
27.83258 191.000
27.85253 178.000
27.87248 187.000
27.89242 195.000
27.91237 176.000
27.93232 176.000
27.95227 185.000
27.97221 175.000
27.99216 186.000
28.01211 180.000
28.03205 172.000
28.05200 185.000
28.07195 186.000
28.09189 169.000
28.11184 161.000
28.13179 187.000
28.15174 198.000
28.17168 194.000
28.19163 168.000
28.21158 200.000
28.23152 168.000
28.25147 176.000
28.27142 186.000
28.29136 176.000
28.31131 196.000
28.33126 166.000
28.35120 186.000
28.37115 191.000
28.39110 175.000
28.41105 181.000
28.43099 154.000
28.45094 182.000
28.47089 166.000
28.49083 190.000
28.51078 194.000
28.53073 168.000
28.55067 189.000
28.57062 196.000
28.59057 202.000
28.61052 191.000
28.63046 179.000
28.65041 205.000
28.67036 201.000
28.69030 193.000
28.71025 152.000
28.73020 191.000
28.75014 182.000
28.77009 185.000
28.79004 176.000
28.80998 189.000
28.82993 194.000
28.84988 203.000
28.86983 171.000
28.88977 198.000
28.90972 164.000
28.92967 205.000
28.94961 176.000
28.96956 190.000
28.98951 203.000
29.00945 193.000
29.02940 207.000
29.04935 175.000
29.06930 173.000
29.08924 184.000
29.10919 213.000
29.12914 183.000
29.14908 203.000
29.16903 197.000
29.18898 169.000
29.20892 188.000
29.22887 194.000
29.24882 209.000
29.26877 189.000
29.28871 192.000
29.30866 165.000
29.32861 214.000
29.34855 210.000
29.36850 199.000
29.38845 221.000
29.40839 201.000
29.42834 217.000
29.44829 190.000
29.46823 197.000
29.48818 190.000
29.50813 179.000
29.52808 170.000
29.54802 221.000
29.56797 177.000
29.58792 183.000
29.60786 201.000
29.62781 197.000
29.64776 211.000
29.66770 173.000
29.68765 203.000
29.70760 180.000
29.72755 206.000
29.74749 208.000
29.76744 225.000
29.78739 178.000
29.80733 194.000
29.82728 196.000
29.84723 203.000
29.86717 199.000
29.88712 184.000
29.90707 209.000
29.92701 193.000
29.94696 201.000
29.96691 207.000
29.98686 209.000
30.00680 209.000
30.02675 213.000
30.04670 248.000
30.06664 240.000
30.08659 267.000
30.10654 264.000
30.12648 267.000
30.14643 279.000
30.16638 295.000
30.18633 313.000
30.20627 360.000
30.22622 377.000
30.24617 356.000
30.26611 332.000
30.28606 281.000
30.30601 254.000
30.32595 247.000
30.34590 240.000
30.36585 214.000
30.38579 217.000
30.40574 194.000
30.42569 186.000
30.44564 216.000
30.46558 208.000
30.48553 206.000
30.50548 205.000
30.52542 188.000
30.54537 196.000
30.56532 167.000
30.58526 220.000
30.60521 194.000
30.62516 217.000
30.64511 178.000
30.66505 227.000
30.68500 210.000
30.70495 188.000
30.72489 190.000
30.74484 196.000
30.76479 194.000
30.78473 211.000
30.80468 208.000
30.82463 196.000
30.84458 206.000
30.86452 192.000
30.88447 209.000
30.90442 186.000
30.92436 206.000
30.94431 179.000
30.96426 179.000
30.98420 192.000
31.00415 178.000
31.02410 188.000
31.04404 200.000
31.06399 198.000
31.08394 187.000
31.10389 199.000
31.12383 215.000
31.14378 205.000
31.16373 185.000
31.18367 179.000
31.20362 189.000
31.22357 221.000
31.24351 203.000
31.26346 195.000
31.28341 200.000
31.30336 191.000
31.32330 189.000
31.34325 191.000
31.36320 197.000
31.38314 186.000
31.40309 178.000
31.42304 192.000
31.44298 200.000
31.46293 197.000
31.48288 187.000
31.50282 224.000
31.52277 202.000
31.54272 182.000
31.56267 182.000
31.58261 190.000
31.60256 200.000
31.62251 188.000
31.64245 204.000
31.66240 237.000
31.68235 232.000
31.70229 207.000
31.72224 234.000
31.74219 206.000
31.76214 218.000
31.78208 249.000
31.80203 250.000
31.82198 264.000
31.84192 265.000
31.86187 323.000
31.88182 343.000
31.90176 384.000
31.92171 408.000
31.94166 455.000
31.96160 493.000
31.98155 551.000
32.00150 597.000
32.02145 635.000
32.04139 656.000
32.06134 626.000
32.08129 510.000
32.10123 461.000
32.12118 436.000
32.14113 342.000
32.16107 294.000
32.18102 264.000
32.20097 258.000
32.22092 225.000
32.24086 244.000
32.26081 225.000
32.28076 233.000
32.30070 252.000
32.32065 211.000
32.34060 207.000
32.36054 237.000
32.38049 270.000
32.40044 237.000
32.42039 265.000
32.44033 301.000
32.46028 303.000
32.48023 322.000
32.50017 336.000
32.52012 330.000
32.54007 360.000
32.56001 337.000
32.57996 387.000
32.59991 343.000
32.61985 330.000
32.63980 323.000
32.65975 313.000
32.67970 314.000
32.69964 294.000
32.71959 300.000
32.73954 268.000
32.75948 286.000
32.77943 303.000
32.79938 247.000
32.81932 246.000
32.83927 240.000
32.85922 259.000
32.87917 257.000
32.89911 204.000
32.91906 222.000
32.93901 209.000
32.95895 214.000
32.97890 217.000
32.99885 183.000
33.01879 185.000
33.03874 199.000
33.05869 184.000
33.07863 219.000
33.09858 189.000
33.11853 193.000
33.13848 184.000
33.15842 180.000
33.17837 194.000
33.19832 174.000
33.21826 160.000
33.23821 211.000
33.25816 208.000
33.27810 201.000
33.29805 192.000
33.31800 184.000
33.33795 203.000
33.35789 190.000
33.37784 209.000
33.39779 190.000
33.41773 191.000
33.43768 186.000
33.45763 171.000
33.47757 186.000
33.49752 202.000
33.51747 185.000
33.53741 193.000
33.55736 211.000
33.57731 209.000
33.59726 205.000
33.61720 205.000
33.63715 226.000
33.65710 206.000
33.67704 195.000
33.69699 191.000
33.71694 208.000
33.73688 197.000
33.75683 219.000
33.77678 215.000
33.79673 208.000
33.81667 189.000
33.83662 218.000
33.85657 196.000
33.87651 190.000
33.89646 198.000
33.91641 191.000
33.93635 183.000
33.95630 223.000
33.97625 194.000
33.99620 210.000
34.01614 201.000
34.03609 205.000
34.05604 214.000
34.07598 210.000
34.09593 206.000
34.11588 235.000
34.13582 226.000
34.15577 238.000
34.17572 261.000
34.19566 234.000
34.21561 237.000
34.23556 266.000
34.25551 296.000
34.27545 320.000
34.29540 299.000
34.31535 314.000
34.33529 384.000
34.35524 350.000
34.37519 398.000
34.39513 380.000
34.41508 436.000
34.43503 377.000
34.45498 407.000
34.47492 382.000
34.49487 372.000
34.51482 347.000
34.53476 366.000
34.55471 367.000
34.57466 358.000
34.59460 339.000
34.61455 352.000
34.63450 364.000
34.65444 312.000
34.67439 344.000
34.69434 314.000
34.71429 314.000
34.73423 293.000
34.75418 315.000
34.77413 269.000
34.79407 284.000
34.81402 273.000
34.83397 239.000
34.85391 258.000
34.87386 257.000
34.89381 258.000
34.91376 234.000
34.93370 220.000
34.95365 225.000
34.97360 219.000
34.99354 244.000
35.01349 218.000
35.03344 251.000
35.05338 231.000
35.07333 248.000
35.09328 269.000
35.11322 241.000
35.13317 250.000
35.15312 254.000
35.17307 277.000
35.19301 274.000
35.21296 295.000
35.23291 318.000
35.25285 325.000
35.27280 345.000
35.29275 371.000
35.31269 406.000
35.33264 462.000
35.35259 560.000
35.37254 714.000
35.39248 861.000
35.41243 949.000
35.43238 1122.000
35.45232 1266.000
35.47227 1370.000
35.49222 1615.000
35.51216 1835.000
35.53211 1839.000
35.55206 1780.000
35.57201 1742.000
35.59195 1751.000
35.61190 1748.000
35.63185 1596.000
35.65179 1259.000
35.67174 1121.000
35.69169 973.000
35.71163 855.000
35.73158 705.000
35.75153 564.000
35.77147 431.000
35.79142 419.000
35.81137 405.000
35.83132 362.000
35.85126 317.000
35.87121 287.000
35.89116 275.000
35.91110 266.000
35.93105 263.000
35.95100 269.000
35.97094 229.000
35.99089 230.000
36.01084 258.000
36.03079 249.000
36.05073 227.000
36.07068 234.000
36.09063 244.000
36.11057 226.000
36.13052 241.000
36.15047 227.000
36.17041 225.000
36.19036 213.000
36.21031 236.000
36.23025 217.000
36.25020 210.000
36.27015 202.000
36.29010 272.000
36.31004 227.000
36.32999 211.000
36.34994 202.000
36.36988 194.000
36.38983 210.000
36.40978 234.000
36.42972 239.000
36.44967 239.000
36.46962 248.000
36.48957 236.000
36.50951 201.000
36.52946 237.000
36.54941 238.000
36.56935 238.000
36.58930 239.000
36.60925 247.000
36.62919 262.000
36.64914 267.000
36.66909 247.000
36.68903 291.000
36.70898 316.000
36.72893 335.000
36.74888 360.000
36.76882 352.000
36.78877 386.000
36.80872 360.000
36.82866 394.000
36.84861 344.000
36.86856 352.000
36.88850 334.000
36.90845 343.000
36.92840 358.000
36.94835 299.000
36.96829 285.000
36.98824 253.000
37.00819 264.000
37.02813 261.000
37.04808 246.000
37.06803 241.000
37.08797 257.000
37.10792 250.000
37.12787 248.000
37.14781 238.000
37.16776 269.000
37.18771 285.000
37.20766 274.000
37.22760 294.000
37.24755 305.000
37.26750 227.000
37.28744 258.000
37.30739 255.000
37.32734 274.000
37.34728 229.000
37.36723 211.000
37.38718 188.000
37.40713 224.000
37.42707 216.000
37.44702 220.000
37.46697 208.000
37.48691 192.000
37.50686 207.000
37.52681 202.000
37.54675 206.000
37.56670 211.000
37.58665 215.000
37.60660 207.000
37.62654 202.000
37.64649 193.000
37.66644 178.000
37.68638 200.000
37.70633 219.000
37.72628 231.000
37.74622 220.000
37.76617 177.000
37.78612 224.000
37.80606 217.000
37.82601 224.000
37.84596 176.000
37.86591 209.000
37.88585 195.000
37.90580 216.000
37.92575 225.000
37.94569 220.000
37.96564 225.000
37.98559 204.000
38.00553 185.000
38.02548 237.000
38.04543 227.000
38.06538 228.000
38.08532 215.000
38.10527 220.000
38.12522 208.000
38.14516 226.000
38.16511 217.000
38.18506 228.000
38.20500 240.000
38.22495 244.000
38.24490 244.000
38.26484 235.000
38.28479 238.000
38.30474 236.000
38.32469 259.000
38.34463 257.000
38.36458 229.000
38.38453 253.000
38.40447 283.000
38.42442 276.000
38.44437 318.000
38.46431 292.000
38.48426 360.000
38.50421 346.000
38.52416 432.000
38.54410 413.000
38.56405 496.000
38.58400 579.000
38.60394 697.000
38.62389 818.000
38.64384 935.000
38.66378 1003.000
38.68373 1074.000
38.70368 1056.000
38.72362 973.000
38.74357 924.000
38.76352 834.000
38.78347 789.000
38.80341 718.000
38.82336 691.000
38.84331 613.000
38.86325 539.000
38.88320 553.000
38.90315 509.000
38.92309 545.000
38.94304 504.000
38.96299 517.000
38.98294 577.000
39.00288 559.000
39.02283 582.000
39.04278 582.000
39.06272 669.000
39.08267 646.000
39.10262 679.000
39.12256 696.000
39.14251 682.000
39.16246 645.000
39.18241 637.000
39.20235 640.000
39.22230 691.000
39.24225 624.000
39.26219 593.000
39.28214 560.000
39.30209 518.000
39.32203 507.000
39.34198 419.000
39.36193 379.000
39.38187 391.000
39.40182 374.000
39.42177 330.000
39.44172 298.000
39.46166 282.000
39.48161 280.000
39.50156 255.000
39.52150 249.000
39.54145 249.000
39.56140 224.000
39.58134 233.000
39.60129 214.000
39.62124 239.000
39.64119 225.000
39.66113 193.000
39.68108 234.000
39.70103 212.000
39.72097 194.000
39.74092 212.000
39.76087 202.000
39.78081 194.000
39.80076 205.000
39.82071 203.000
39.84065 186.000
39.86060 201.000
39.88055 173.000
39.90050 201.000
39.92044 183.000
39.94039 199.000
39.96034 209.000
39.98028 210.000
40.00023 224.000
40.02018 209.000
40.04012 195.000
40.06007 197.000
40.08002 154.000
40.09997 211.000
40.11991 204.000
40.13986 198.000
40.15981 193.000
40.17975 210.000
40.19970 184.000
40.21965 185.000
40.23959 176.000
40.25954 197.000
40.27949 185.000
40.29943 195.000
40.31938 207.000
40.33933 198.000
40.35928 198.000
40.37922 172.000
40.39917 202.000
40.41912 191.000
40.43906 189.000
40.45901 179.000
40.47896 197.000
40.49890 173.000
40.51885 198.000
40.53880 226.000
40.55875 204.000
40.57869 181.000
40.59864 200.000
40.61859 182.000
40.63853 186.000
40.65848 184.000
40.67843 202.000
40.69837 193.000
40.71832 190.000
40.73827 198.000
40.75822 182.000
40.77816 198.000
40.79811 177.000
40.81806 211.000
40.83800 189.000
40.85795 208.000
40.87790 217.000
40.89784 175.000
40.91779 177.000
40.93774 202.000
40.95768 187.000
40.97763 220.000
40.99758 189.000
41.01753 188.000
41.03747 178.000
41.05742 211.000
41.07737 214.000
41.09731 207.000
41.11726 196.000
41.13721 243.000
41.15715 218.000
41.17710 186.000
41.19705 208.000
41.21700 221.000
41.23694 231.000
41.25689 239.000
41.27684 257.000
41.29678 262.000
41.31673 260.000
41.33668 277.000
41.35662 264.000
41.37657 258.000
41.39652 295.000
41.41646 311.000
41.43641 346.000
41.45636 407.000
41.47631 425.000
41.49625 502.000
41.51620 631.000
41.53615 823.000
41.55609 942.000
41.57604 1068.000
41.59599 1118.000
41.61593 1139.000
41.63588 1061.000
41.65583 933.000
41.67578 873.000
41.69572 855.000
41.71567 713.000
41.73562 624.000
41.75556 546.000
41.77551 445.000
41.79546 378.000
41.81540 316.000
41.83535 261.000
41.85530 256.000
41.87524 254.000
41.89519 249.000
41.91514 230.000
41.93509 210.000
41.95503 239.000
41.97498 208.000
41.99493 243.000
42.01487 213.000
42.03482 203.000
42.05477 201.000
42.07471 213.000
42.09466 223.000
42.11461 209.000
42.13456 203.000
42.15450 197.000
42.17445 212.000
42.19440 178.000
42.21434 221.000
42.23429 209.000
42.25424 228.000
42.27418 218.000
42.29413 210.000
42.31408 189.000
42.33403 200.000
42.35397 200.000
42.37392 197.000
42.39387 184.000
42.41381 227.000
42.43376 217.000
42.45371 193.000
42.47365 194.000
42.49360 219.000
42.51355 207.000
42.53349 210.000
42.55344 205.000
42.57339 215.000
42.59334 208.000
42.61328 217.000
42.63323 196.000
42.65318 211.000
42.67312 204.000
42.69307 215.000
42.71302 186.000
42.73296 199.000
42.75291 202.000
42.77286 199.000
42.79281 207.000
42.81275 199.000
42.83270 235.000
42.85265 183.000
42.87259 225.000
42.89254 221.000
42.91249 210.000
42.93243 220.000
42.95238 215.000
42.97233 245.000
42.99227 232.000
43.01222 245.000
43.03217 250.000
43.05212 266.000
43.07206 278.000
43.09201 301.000
43.11196 327.000
43.13190 356.000
43.15185 386.000
43.17180 368.000
43.19174 442.000
43.21169 477.000
43.23164 499.000
43.25159 540.000
43.27153 539.000
43.29148 581.000
43.31143 570.000
43.33137 559.000
43.35132 518.000
43.37127 466.000
43.39121 483.000
43.41116 476.000
43.43111 424.000
43.45105 392.000
43.47100 325.000
43.49095 335.000
43.51090 290.000
43.53084 262.000
43.55079 263.000
43.57074 220.000
43.59068 259.000
43.61063 204.000
43.63058 240.000
43.65052 192.000
43.67047 222.000
43.69042 214.000
43.71037 220.000
43.73031 200.000
43.75026 206.000
43.77021 210.000
43.79015 204.000
43.81010 179.000
43.83005 156.000
43.84999 189.000
43.86994 192.000
43.88989 197.000
43.90984 202.000
43.92978 207.000
43.94973 178.000
43.96968 204.000
43.98962 174.000
44.00957 187.000
44.02952 196.000
44.04946 199.000
44.06941 180.000
44.08936 206.000
44.10930 175.000
44.12925 202.000
44.14920 195.000
44.16915 176.000
44.18909 202.000
44.20904 167.000
44.22899 171.000
44.24893 199.000
44.26888 192.000
44.28883 212.000
44.30877 177.000
44.32872 184.000
44.34867 167.000
44.36862 191.000
44.38856 181.000
44.40851 217.000
44.42846 186.000
44.44840 198.000
44.46835 163.000
44.48830 183.000
44.50824 192.000
44.52819 193.000
44.54814 192.000
44.56808 169.000
44.58803 180.000
44.60798 198.000
44.62793 179.000
44.64787 202.000
44.66782 222.000
44.68777 166.000
44.70771 176.000
44.72766 183.000
44.74761 185.000
44.76755 183.000
44.78750 211.000
44.80745 194.000
44.82740 182.000
44.84734 198.000
44.86729 200.000
44.88724 212.000
44.90718 213.000
44.92713 220.000
44.94708 219.000
44.96702 209.000
44.98697 226.000
45.00692 204.000
45.02686 210.000
45.04681 200.000
45.06676 225.000
45.08671 190.000
45.10665 190.000
45.12660 196.000
45.14655 172.000
45.16649 186.000
45.18644 179.000
45.20639 189.000
45.22633 172.000
45.24628 207.000
45.26623 180.000
45.28618 176.000
45.30612 200.000
45.32607 184.000
45.34602 183.000
45.36596 171.000
45.38591 201.000
45.40586 195.000
45.42580 175.000
45.44575 171.000
45.46570 170.000
45.48565 159.000
45.50559 199.000
45.52554 174.000
45.54549 162.000
45.56543 176.000
45.58538 175.000
45.60533 151.000
45.62527 200.000
45.64522 176.000
45.66517 159.000
45.68511 180.000
45.70506 175.000
45.72501 195.000
45.74496 173.000
45.76490 188.000
45.78485 165.000
45.80480 200.000
45.82474 181.000
45.84469 187.000
45.86464 173.000
45.88458 154.000
45.90453 176.000
45.92448 186.000
45.94443 215.000
45.96437 182.000
45.98432 172.000
46.00427 185.000
46.02421 179.000
46.04416 199.000
46.06411 162.000
46.08405 173.000
46.10400 203.000
46.12395 178.000
46.14389 185.000
46.16384 219.000
46.18379 198.000
46.20374 190.000
46.22368 219.000
46.24363 191.000
46.26358 176.000
46.28352 188.000
46.30347 217.000
46.32342 188.000
46.34336 188.000
46.36331 178.000
46.38326 191.000
46.40321 186.000
46.42315 173.000
46.44310 211.000
46.46305 170.000
46.48299 167.000
46.50294 176.000
46.52289 200.000
46.54283 197.000
46.56278 179.000
46.58273 190.000
46.60267 205.000
46.62262 199.000
46.64257 197.000
46.66252 163.000
46.68246 174.000
46.70241 199.000
46.72236 192.000
46.74230 187.000
46.76225 206.000
46.78220 189.000
46.80214 186.000
46.82209 175.000
46.84204 190.000
46.86199 184.000
46.88193 183.000
46.90188 184.000
46.92183 185.000
46.94177 155.000
46.96172 181.000
46.98167 171.000
47.00161 182.000
47.02156 171.000
47.04151 191.000
47.06146 196.000
47.08140 167.000
47.10135 213.000
47.12130 178.000
47.14124 178.000
47.16119 198.000
47.18114 187.000
47.20108 152.000
47.22103 166.000
47.24098 176.000
47.26092 174.000
47.28087 186.000
47.30082 194.000
47.32077 199.000
47.34071 185.000
47.36066 185.000
47.38061 183.000
47.40055 187.000
47.42050 181.000
47.44045 216.000
47.46039 199.000
47.48034 182.000
47.50029 198.000
47.52024 178.000
47.54018 186.000
47.56013 208.000
47.58008 173.000
47.60002 183.000
47.61997 177.000
47.63992 175.000
47.65986 179.000
47.67981 180.000
47.69976 179.000
47.71970 182.000
47.73965 205.000
47.75960 186.000
47.77955 166.000
47.79949 178.000
47.81944 168.000
47.83939 166.000
47.85933 191.000
47.87928 192.000
47.89923 164.000
47.91917 197.000
47.93912 200.000
47.95907 160.000
47.97902 215.000
47.99896 212.000
48.01891 222.000
48.03886 215.000
48.05880 208.000
48.07875 186.000
48.09870 195.000
48.11864 210.000
48.13859 211.000
48.15854 225.000
48.17848 217.000
48.19843 210.000
48.21838 237.000
48.23833 230.000
48.25827 206.000
48.27822 271.000
48.29817 234.000
48.31811 227.000
48.33806 263.000
48.35801 276.000
48.37795 278.000
48.39790 298.000
48.41785 305.000
48.43780 356.000
48.45774 373.000
48.47769 401.000
48.49764 469.000
48.51758 604.000
48.53753 616.000
48.55748 730.000
48.57742 710.000
48.59737 697.000
48.61732 704.000
48.63726 740.000
48.65721 757.000
48.67716 740.000
48.69711 764.000
48.71705 690.000
48.73700 684.000
48.75695 680.000
48.77689 660.000
48.79684 601.000
48.81679 575.000
48.83673 571.000
48.85668 528.000
48.87663 417.000
48.89658 406.000
48.91652 374.000
48.93647 365.000
48.95642 302.000
48.97636 316.000
48.99631 268.000
49.01626 256.000
49.03620 256.000
49.05615 231.000
49.07610 228.000
49.09605 213.000
49.11599 243.000
49.13594 234.000
49.15589 206.000
49.17583 225.000
49.19578 225.000
49.21573 215.000
49.23567 211.000
49.25562 228.000
49.27557 185.000
49.29551 214.000
49.31546 213.000
49.33541 215.000
49.35536 210.000
49.37530 231.000
49.39525 214.000
49.41520 223.000
49.43514 224.000
49.45509 216.000
49.47504 185.000
49.49498 219.000
49.51493 192.000
49.53488 197.000
49.55483 196.000
49.57477 207.000
49.59472 216.000
49.61467 187.000
49.63461 219.000
49.65456 192.000
49.67451 215.000
49.69445 170.000
49.71440 185.000
49.73435 192.000
49.75429 194.000
49.77424 174.000
49.79419 197.000
49.81414 184.000
49.83408 197.000
49.85403 195.000
49.87398 191.000
49.89392 201.000
49.91387 183.000
49.93382 211.000
49.95376 206.000
49.97371 190.000
49.99366 202.000
50.01361 170.000
50.03355 183.000
50.05350 197.000
50.07345 174.000
50.09339 179.000
50.11334 190.000
50.13329 205.000
50.15323 167.000
50.17318 179.000
50.19313 179.000
50.21307 160.000
50.23302 164.000
50.25297 177.000
50.27292 171.000
50.29286 192.000
50.31281 186.000
50.33276 176.000
50.35270 158.000
50.37265 178.000
50.39260 178.000
50.41254 177.000
50.43249 171.000
50.45244 188.000
50.47239 180.000
50.49233 194.000
50.51228 179.000
50.53223 159.000
50.55217 184.000
50.57212 192.000
50.59207 175.000
50.61201 193.000
50.63196 210.000
50.65191 181.000
50.67186 170.000
50.69180 159.000
50.71175 157.000
50.73170 169.000
50.75164 210.000
50.77159 168.000
50.79154 183.000
50.81148 165.000
50.83143 181.000
50.85138 173.000
50.87132 165.000
50.89127 195.000
50.91122 190.000
50.93117 168.000
50.95111 196.000
50.97106 179.000
50.99101 180.000
51.01095 181.000
51.03090 199.000
51.05085 155.000
51.07079 179.000
51.09074 188.000
51.11069 175.000
51.13064 197.000
51.15058 163.000
51.17053 190.000
51.19048 180.000
51.21042 192.000
51.23037 182.000
51.25032 165.000
51.27026 198.000
51.29021 165.000
51.31016 167.000
51.33010 193.000
51.35005 202.000
51.37000 189.000
51.38995 180.000
51.40989 183.000
51.42984 192.000
51.44979 189.000
51.46973 184.000
51.48968 189.000
51.50963 184.000
51.52957 205.000
51.54952 178.000
51.56947 176.000
51.58942 169.000
51.60936 186.000
51.62931 186.000
51.64926 202.000
51.66920 187.000
51.68915 161.000
51.70910 159.000
51.72904 173.000
51.74899 177.000
51.76894 175.000
51.78888 189.000
51.80883 186.000
51.82878 183.000
51.84873 201.000
51.86867 163.000
51.88862 178.000
51.90857 173.000
51.92851 150.000
51.94846 178.000
51.96841 170.000
51.98835 181.000
52.00830 193.000
52.02825 165.000
52.04820 142.000
52.06814 184.000
52.08809 172.000
52.10804 176.000
52.12798 170.000
52.14793 184.000
52.16788 180.000
52.18782 172.000
52.20777 187.000
52.22772 215.000
52.24767 192.000
52.26761 184.000
52.28756 164.000
52.30751 177.000
52.32745 155.000
52.34740 166.000
52.36735 174.000
52.38729 178.000
52.40724 204.000
52.42719 175.000
52.44713 166.000
52.46708 192.000
52.48703 165.000
52.50698 185.000
52.52692 207.000
52.54687 171.000
52.56682 163.000
52.58676 176.000
52.60671 193.000
52.62666 196.000
52.64660 197.000
52.66655 209.000
52.68650 207.000
52.70645 214.000
52.72639 209.000
52.74634 217.000
52.76629 252.000
52.78623 224.000
52.80618 209.000
52.82613 285.000
52.84607 258.000
52.86602 247.000
52.88597 306.000
52.90591 278.000
52.92586 237.000
52.94581 300.000
52.96576 312.000
52.98570 293.000
53.00565 293.000
53.02560 281.000
53.04554 261.000
53.06549 279.000
53.08544 263.000
53.10538 261.000
53.12533 284.000
53.14528 257.000
53.16523 214.000
53.18517 240.000
53.20512 205.000
53.22507 215.000
53.24501 218.000
53.26496 232.000
53.28491 216.000
53.30485 244.000
53.32480 228.000
53.34475 239.000
53.36469 220.000
53.38464 237.000
53.40459 228.000
53.42454 220.000
53.44448 247.000
53.46443 236.000
53.48438 229.000
53.50432 246.000
53.52427 218.000
53.54422 212.000
53.56416 216.000
53.58411 238.000
53.60406 248.000
53.62401 244.000
53.64395 216.000
53.66390 238.000
53.68385 250.000
53.70379 248.000
53.72374 239.000
53.74369 233.000
53.76363 217.000
53.78358 236.000
53.80353 205.000
53.82348 223.000
53.84342 223.000
53.86337 182.000
53.88332 207.000
53.90326 203.000
53.92321 216.000
53.94316 178.000
53.96310 207.000
53.98305 212.000
54.00300 173.000
54.02294 174.000
54.04289 194.000
54.06284 185.000
54.08279 184.000
54.10273 177.000
54.12268 187.000
54.14263 179.000
54.16257 169.000
54.18252 195.000
54.20247 199.000
54.22241 196.000
54.24236 193.000
54.26231 191.000
54.28226 186.000
54.30220 160.000
54.32215 206.000
54.34210 205.000
54.36204 214.000
54.38199 198.000
54.40194 173.000
54.42188 196.000
54.44183 212.000
54.46178 182.000
54.48172 190.000
54.50167 198.000
54.52162 199.000
54.54157 193.000
54.56151 183.000
54.58146 162.000
54.60141 176.000
54.62135 159.000
54.64130 181.000
54.66125 192.000
54.68119 163.000
54.70114 194.000
54.72109 184.000
54.74104 162.000
54.76098 187.000
54.78093 188.000
54.80088 180.000
54.82082 176.000
54.84077 174.000
54.86072 202.000
54.88066 180.000
54.90061 187.000
54.92056 157.000
54.94050 169.000
54.96045 186.000
54.98040 192.000
55.00035 149.000
55.02029 172.000
55.04024 169.000
55.06019 177.000
55.08013 167.000
55.10008 203.000
55.12003 191.000
55.13997 176.000
55.15992 184.000
55.17987 194.000
55.19982 193.000
55.21976 190.000
55.23971 196.000
55.25966 187.000
55.27960 178.000
55.29955 188.000
55.31950 157.000
55.33944 188.000
55.35939 205.000
55.37934 172.000
55.39929 205.000
55.41923 167.000
55.43918 187.000
55.45913 186.000
55.47907 182.000
55.49902 188.000
55.51897 181.000
55.53891 196.000
55.55886 172.000
55.57881 174.000
55.59875 187.000
55.61870 169.000
55.63865 169.000
55.65860 172.000
55.67854 185.000
55.69849 168.000
55.71844 179.000
55.73838 158.000
55.75833 192.000
55.77828 188.000
55.79822 158.000
55.81817 165.000
55.83812 198.000
55.85807 164.000
55.87801 169.000
55.89796 192.000
55.91791 188.000
55.93785 167.000
55.95780 174.000
55.97775 169.000
55.99769 194.000
56.01764 167.000
56.03759 187.000
56.05753 202.000
56.07748 188.000
56.09743 180.000
56.11738 159.000
56.13732 177.000
56.15727 182.000
56.17722 174.000
56.19716 191.000
56.21711 183.000
56.23706 183.000
56.25700 196.000
56.27695 212.000
56.29690 197.000
56.31685 190.000
56.33679 166.000
56.35674 192.000
56.37669 183.000
56.39663 177.000
56.41658 210.000
56.43653 183.000
56.45647 182.000
56.47642 199.000
56.49637 183.000
56.51631 194.000
56.53626 179.000
56.55621 213.000
56.57616 186.000
56.59610 174.000
56.61605 184.000
56.63600 195.000
56.65594 225.000
56.67589 200.000
56.69584 222.000
56.71578 166.000
56.73573 189.000
56.75568 191.000
56.77563 171.000
56.79557 191.000
56.81552 188.000
56.83547 210.000
56.85541 213.000
56.87536 183.000
56.89531 192.000
56.91525 187.000
56.93520 192.000
56.95515 227.000
56.97510 193.000
56.99504 178.000
57.01499 230.000
57.03494 225.000
57.05488 223.000
57.07483 229.000
57.09478 272.000
57.11472 258.000
57.13467 239.000
57.15462 255.000
57.17456 295.000
57.19451 258.000
57.21446 316.000
57.23441 324.000
57.25435 320.000
57.27430 342.000
57.29425 357.000
57.31419 320.000
57.33414 302.000
57.35409 326.000
57.37403 304.000
57.39398 304.000
57.41393 310.000
57.43388 345.000
57.45382 321.000
57.47377 316.000
57.49372 328.000
57.51366 359.000
57.53361 362.000
57.55356 357.000
57.57350 348.000
57.59345 336.000
57.61340 338.000
57.63334 318.000
57.65329 299.000
57.67324 306.000
57.69319 297.000
57.71313 284.000
57.73308 243.000
57.75303 246.000
57.77297 259.000
57.79292 222.000
57.81287 240.000
57.83281 219.000
57.85276 231.000
57.87271 230.000
57.89266 219.000
57.91260 217.000
57.93255 215.000
57.95250 201.000
57.97244 198.000
57.99239 216.000
58.01234 190.000
58.03228 211.000
58.05223 215.000
58.07218 223.000
58.09212 218.000
58.11207 221.000
58.13202 242.000
58.15197 238.000
58.17191 261.000
58.19186 260.000
58.21181 253.000
58.23175 256.000
58.25170 283.000
58.27165 271.000
58.29159 240.000
58.31154 266.000
58.33149 252.000
58.35144 268.000
58.37138 246.000
58.39133 237.000
58.41128 265.000
58.43122 227.000
58.45117 224.000
58.47112 237.000
58.49106 234.000
58.51101 192.000
58.53096 227.000
58.55090 186.000
58.57085 232.000
58.59080 199.000
58.61075 186.000
58.63069 192.000
58.65064 214.000
58.67059 178.000
58.69053 194.000
58.71048 213.000
58.73043 190.000
58.75037 185.000
58.77032 178.000
58.79027 183.000
58.81022 185.000
58.83016 190.000
58.85011 166.000
58.87006 184.000
58.89000 161.000
58.90995 183.000
58.92990 171.000
58.94984 214.000
58.96979 173.000
58.98974 209.000
59.00969 161.000
59.02963 193.000
59.04958 176.000
59.06953 185.000
59.08947 197.000
59.10942 158.000
59.12937 165.000
59.14931 151.000
59.16926 187.000
59.18921 161.000
59.20915 182.000
59.22910 165.000
59.24905 203.000
59.26900 194.000
59.28894 212.000
59.30889 182.000
59.32884 162.000
59.34878 188.000
59.36873 184.000
59.38868 177.000
59.40862 173.000
59.42857 168.000
59.44852 169.000
59.46847 207.000
59.48841 212.000
59.50836 155.000
59.52831 169.000
59.54825 183.000
59.56820 186.000
59.58815 196.000
59.60809 163.000
59.62804 191.000
59.64799 175.000
59.66793 185.000
59.68788 194.000
59.70783 168.000
59.72778 175.000
59.74772 180.000
59.76767 190.000
59.78762 215.000
59.80756 166.000
59.82751 169.000
59.84746 163.000
59.86740 180.000
59.88735 178.000
59.90730 209.000
59.92725 183.000
59.94719 170.000
59.96714 151.000
59.98709 188.000
60.00703 186.000
60.02698 183.000
60.04693 213.000
60.06687 199.000
60.08682 210.000
60.10677 188.000
60.12671 182.000
60.14666 213.000
60.16661 213.000
60.18656 172.000
60.20650 181.000
60.22645 174.000
60.24640 195.000
60.26634 193.000
60.28629 179.000
60.30624 190.000
60.32618 190.000
60.34613 187.000
60.36608 177.000
60.38603 196.000
60.40597 174.000
60.42592 194.000
60.44587 179.000
60.46581 173.000
60.48576 187.000
60.50571 184.000
60.52565 159.000
60.54560 209.000
60.56555 176.000
60.58550 173.000
60.60544 209.000
60.62539 178.000
60.64534 171.000
60.66528 181.000
60.68523 172.000
60.70518 165.000
60.72512 175.000
60.74507 158.000
60.76502 183.000
60.78496 157.000
60.80491 172.000
60.82486 211.000
60.84481 190.000
60.86475 199.000
60.88470 198.000
60.90465 221.000
60.92459 198.000
60.94454 195.000
60.96449 191.000
60.98443 194.000
61.00438 209.000
61.02433 208.000
61.04428 210.000
61.06422 208.000
61.08417 197.000
61.10412 203.000
61.12406 185.000
61.14401 218.000
61.16396 193.000
61.18390 199.000
61.20385 224.000
61.22380 214.000
61.24374 196.000
61.26369 186.000
61.28364 225.000
61.30359 223.000
61.32353 243.000
61.34348 225.000
61.36343 263.000
61.38337 249.000
61.40332 256.000
61.42327 249.000
61.44321 245.000
61.46316 331.000
61.48311 319.000
61.50306 351.000
61.52300 376.000
61.54295 397.000
61.56290 437.000
61.58284 369.000
61.60279 371.000
61.62274 364.000
61.64268 351.000
61.66263 368.000
61.68258 368.000
61.70252 391.000
61.72247 408.000
61.74242 446.000
61.76237 418.000
61.78231 400.000
61.80226 430.000
61.82221 431.000
61.84215 441.000
61.86210 455.000
61.88205 437.000
61.90199 450.000
61.92194 462.000
61.94189 403.000
61.96184 427.000
61.98178 391.000
62.00173 364.000
62.02168 350.000
62.04162 345.000
62.06157 307.000
62.08152 308.000
62.10146 291.000
62.12141 329.000
62.14136 301.000
62.16131 285.000
62.18125 267.000
62.20120 238.000
62.22115 251.000
62.24109 246.000
62.26104 244.000
62.28099 239.000
62.30093 230.000
62.32088 214.000
62.34083 228.000
62.36077 227.000
62.38072 208.000
62.40067 225.000
62.42062 220.000
62.44056 220.000
62.46051 234.000
62.48046 232.000
62.50040 245.000
62.52035 223.000
62.54030 199.000
62.56024 286.000
62.58019 243.000
62.60014 269.000
62.62009 250.000
62.64003 257.000
62.65998 263.000
62.67993 266.000
62.69987 265.000
62.71982 289.000
62.73977 305.000
62.75971 323.000
62.77966 339.000
62.79961 354.000
62.81955 378.000
62.83950 404.000
62.85945 426.000
62.87940 406.000
62.89934 427.000
62.91929 454.000
62.93924 393.000
62.95918 400.000
62.97913 391.000
62.99908 362.000
63.01902 397.000
63.03897 373.000
63.05892 371.000
63.07887 366.000
63.09881 359.000
63.11876 306.000
63.13871 332.000
63.15865 301.000
63.17860 303.000
63.19855 286.000
63.21849 256.000
63.23844 289.000
63.25839 278.000
63.27833 283.000
63.29828 231.000
63.31823 234.000
63.33818 211.000
63.35812 230.000
63.37807 235.000
63.39802 212.000
63.41796 190.000
63.43791 198.000
63.45786 191.000
63.47780 195.000
63.49775 224.000
63.51770 212.000
63.53765 201.000
63.55759 236.000
63.57754 239.000
63.59749 223.000
63.61743 216.000
63.63738 225.000
63.65733 250.000
63.67727 215.000
63.69722 218.000
63.71717 241.000
63.73712 263.000
63.75706 225.000
63.77701 256.000
63.79696 265.000
63.81690 289.000
63.83685 262.000
63.85680 258.000
63.87674 263.000
63.89669 274.000
63.91664 265.000
63.93658 269.000
63.95653 238.000
63.97648 252.000
63.99643 267.000
64.01637 238.000
64.03632 245.000
64.05627 247.000
64.07621 226.000
64.09616 250.000
64.11611 239.000
64.13605 246.000
64.15600 243.000
64.17595 239.000
64.19590 235.000
64.21584 232.000
64.23579 237.000
64.25574 214.000
64.27568 217.000
64.29563 215.000
64.31558 215.000
64.33552 237.000
64.35547 207.000
64.37542 258.000
64.39536 227.000
64.41531 218.000
64.43526 202.000
64.45521 227.000
64.47515 209.000
64.49510 214.000
64.51505 182.000
64.53499 177.000
64.55494 188.000
64.57489 193.000
64.59483 209.000
64.61478 195.000
64.63473 181.000
64.65468 180.000
64.67462 180.000
64.69457 197.000
64.71452 160.000
64.73446 200.000
64.75441 187.000
64.77436 176.000
64.79430 193.000
64.81425 169.000
64.83420 195.000
64.85414 173.000
64.87409 211.000
64.89404 192.000
64.91399 178.000
64.93393 184.000
64.95388 216.000
64.97383 197.000
64.99377 177.000
65.01372 207.000
65.03367 178.000
65.05361 190.000
65.07356 204.000
65.09351 185.000
65.11346 180.000
65.13340 199.000
65.15335 203.000
65.17330 206.000
65.19324 206.000
65.21319 203.000
65.23314 225.000
65.25308 220.000
65.27303 221.000
65.29298 217.000
65.31293 201.000
65.33287 202.000
65.35282 218.000
65.37277 227.000
65.39271 249.000
65.41266 239.000
65.43261 241.000
65.45255 278.000
65.47250 262.000
65.49245 273.000
65.51239 299.000
65.53234 265.000
65.55229 304.000
65.57224 315.000
65.59218 314.000
65.61213 296.000
65.63208 301.000
65.65202 279.000
65.67197 311.000
65.69192 281.000
65.71186 302.000
65.73181 307.000
65.75176 276.000
65.77171 308.000
65.79165 288.000
65.81160 302.000
65.83155 332.000
65.85149 281.000
65.87144 277.000
65.89139 259.000
65.91133 262.000
65.93128 264.000
65.95123 241.000
65.97117 284.000
65.99112 268.000
66.01107 251.000
66.03102 276.000
66.05096 274.000
66.07091 272.000
66.09086 264.000
66.11080 294.000
66.13075 278.000
66.15070 291.000
66.17064 301.000
66.19059 335.000
66.21054 331.000
66.23049 312.000
66.25043 323.000
66.27038 380.000
66.29033 346.000
66.31027 370.000
66.33022 359.000
66.35017 357.000
66.37011 335.000
66.39006 336.000
66.41001 318.000
66.42995 350.000
66.44990 303.000
66.46985 322.000
66.48980 297.000
66.50974 324.000
66.52969 297.000
66.54964 326.000
66.56958 270.000
66.58953 294.000
66.60948 258.000
66.62942 259.000
66.64937 249.000
66.66932 278.000
66.68927 219.000
66.70921 248.000
66.72916 271.000
66.74911 257.000
66.76905 244.000
66.78900 264.000
66.80895 238.000
66.82889 252.000
66.84884 247.000
66.86879 218.000
66.88874 272.000
66.90868 221.000
66.92863 226.000
66.94858 223.000
66.96852 230.000
66.98847 226.000
67.00842 268.000
67.02836 238.000
67.04831 230.000
67.06826 228.000
67.08820 210.000
67.10815 222.000
67.12810 222.000
67.14805 201.000
67.16799 208.000
67.18794 221.000
67.20789 205.000
67.22783 207.000
67.24778 197.000
67.26773 191.000
67.28767 207.000
67.30762 209.000
67.32757 194.000
67.34752 184.000
67.36746 204.000
67.38741 181.000
67.40736 202.000
67.42730 186.000
67.44725 230.000
67.46720 194.000
67.48714 195.000
67.50709 204.000
67.52704 211.000
67.54698 183.000
67.56693 197.000
67.58688 219.000
67.60683 206.000
67.62677 228.000
67.64672 229.000
67.66667 236.000
67.68661 245.000
67.70656 254.000
67.72651 245.000
67.74645 255.000
67.76640 225.000
67.78635 269.000
67.80630 277.000
67.82624 270.000
67.84619 293.000
67.86614 319.000
67.88608 303.000
67.90603 300.000
67.92598 299.000
67.94592 320.000
67.96587 337.000
67.98582 322.000
68.00576 287.000
68.02571 293.000
68.04566 308.000
68.06561 329.000
68.08555 294.000
68.10550 289.000
68.12545 278.000
68.14539 289.000
68.16534 292.000
68.18529 298.000
68.20523 273.000
68.22518 252.000
68.24513 271.000
68.26508 253.000
68.28502 288.000
68.30497 218.000
68.32492 242.000
68.34486 216.000
68.36481 237.000
68.38476 216.000
68.40470 225.000
68.42465 221.000
68.44460 216.000
68.46455 187.000
68.48449 204.000
68.50444 201.000
68.52439 216.000
68.54433 192.000
68.56428 207.000
68.58423 179.000
68.60417 206.000
68.62412 213.000
68.64407 174.000
68.66401 186.000
68.68396 190.000
68.70391 184.000
68.72386 212.000
68.74380 185.000
68.76375 198.000
68.78370 187.000
68.80364 190.000
68.82359 185.000
68.84354 193.000
68.86348 191.000
68.88343 171.000
68.90338 172.000
68.92333 186.000
68.94327 170.000
68.96322 184.000
68.98317 210.000
69.00311 179.000
69.02306 162.000
69.04301 165.000
69.06295 186.000
69.08290 199.000
69.10285 155.000
69.12279 189.000
69.14274 179.000
69.16269 203.000
69.18264 181.000
69.20258 196.000
69.22253 179.000
69.24248 196.000
69.26242 196.000
69.28237 164.000
69.30232 175.000
69.32226 178.000
69.34221 163.000
69.36216 181.000
69.38211 165.000
69.40205 175.000
69.42200 166.000
69.44195 175.000
69.46189 177.000
69.48184 161.000
69.50179 178.000
69.52173 168.000
69.54168 201.000
69.56163 169.000
69.58157 178.000
69.60152 176.000
69.62147 194.000
69.64142 196.000
69.66136 190.000
69.68131 160.000
69.70126 167.000
69.72120 175.000
69.74115 188.000
69.76110 167.000
69.78104 181.000
69.80099 207.000
69.82094 171.000
69.84089 183.000
69.86083 182.000
69.88078 184.000
69.90073 176.000
69.92067 180.000
69.94062 174.000
69.96057 189.000
69.98051 179.000
70.00046 200.000
70.02041 178.000
70.04035 192.000
70.06030 173.000
70.08025 171.000
70.10020 190.000
70.12014 164.000
70.14009 190.000
70.16004 185.000
70.17998 157.000
70.19993 182.000
70.21988 200.000
70.23982 164.000
70.25977 179.000
70.27972 175.000
70.29967 190.000
70.31961 166.000
70.33956 175.000
70.35951 191.000
70.37945 182.000
70.39940 184.000
70.41935 173.000
70.43929 154.000
70.45924 177.000
70.47919 169.000
70.49914 193.000
70.51908 180.000
70.53903 183.000
70.55898 184.000
70.57892 180.000
70.59887 186.000
70.61882 177.000
70.63876 184.000
70.65871 158.000
70.67866 177.000
70.69860 175.000
70.71855 178.000
70.73850 187.000
70.75845 182.000
70.77839 189.000
70.79834 184.000
70.81829 192.000
70.83823 203.000
70.85818 197.000
70.87813 173.000
70.89807 189.000
70.91802 158.000
70.93797 178.000
70.95792 165.000
70.97786 175.000
70.99781 164.000
71.01776 180.000
71.03770 204.000
71.05765 198.000
71.07760 172.000
71.09754 173.000
71.11749 188.000
71.13744 193.000
71.15738 193.000
71.17733 187.000
71.19728 188.000
71.21723 215.000
71.23717 173.000
71.25712 186.000
71.27707 199.000
71.29701 206.000
71.31696 193.000
71.33691 168.000
71.35685 171.000
71.37680 196.000
71.39675 168.000
71.41670 206.000
71.43664 183.000
71.45659 188.000
71.47654 165.000
71.49648 166.000
71.51643 180.000
71.53638 191.000
71.55632 192.000
71.57627 197.000
71.59622 179.000
71.61616 169.000
71.63611 179.000
71.65606 181.000
71.67601 196.000
71.69595 194.000
71.71590 171.000
71.73585 216.000
71.75579 180.000
71.77574 187.000
71.79569 212.000
71.81563 182.000
71.83558 174.000
71.85553 168.000
71.87548 181.000
71.89542 183.000
71.91537 170.000
71.93532 192.000
71.95526 176.000
71.97521 174.000
71.99516 162.000
72.01510 185.000
72.03505 148.000
72.05500 188.000
72.07495 182.000
72.09489 175.000
72.11484 198.000
72.13479 195.000
72.15473 179.000
72.17468 205.000
72.19463 204.000
72.21457 205.000
72.23452 214.000
72.25447 221.000
72.27441 190.000
72.29436 191.000
72.31431 204.000
72.33426 225.000
72.35420 260.000
72.37415 215.000
72.39410 234.000
72.41404 217.000
72.43399 235.000
72.45394 220.000
72.47388 214.000
72.49383 258.000
72.51378 251.000
72.53373 229.000
72.55367 202.000
72.57362 233.000
72.59357 226.000
72.61351 223.000
72.63346 208.000
72.65341 222.000
72.67335 228.000
72.69330 250.000
72.71325 232.000
72.73319 231.000
72.75314 239.000
72.77309 237.000
72.79304 236.000
72.81298 202.000
72.83293 199.000
72.85288 247.000
72.87282 232.000
72.89277 212.000
72.91272 232.000
72.93266 225.000
72.95261 240.000
72.97256 247.000
72.99251 245.000
73.01245 243.000
73.03240 229.000
73.05235 246.000
73.07229 244.000
73.09224 245.000
73.11219 263.000
73.13213 232.000
73.15208 206.000
73.17203 262.000
73.19197 233.000
73.21192 231.000
73.23187 220.000
73.25182 235.000
73.27176 225.000
73.29171 248.000
73.31166 229.000
73.33160 259.000
73.35155 215.000
73.37150 237.000
73.39144 231.000
73.41139 225.000
73.43134 253.000
73.45129 219.000
73.47123 228.000
73.49118 216.000
73.51113 238.000
73.53107 215.000
73.55102 244.000
73.57097 236.000
73.59091 214.000
73.61086 237.000
73.63081 206.000
73.65076 220.000
73.67070 195.000
73.69065 210.000
73.71060 209.000
73.73054 171.000
73.75049 205.000
73.77044 184.000
73.79038 218.000
73.81033 195.000
73.83028 180.000
73.85022 180.000
73.87017 163.000
73.89012 185.000
73.91007 147.000
73.93001 206.000
73.94996 165.000
73.96991 184.000
73.98985 175.000
74.00980 188.000
74.02975 174.000
74.04969 183.000
74.06964 212.000
74.08959 206.000
74.10954 187.000
74.12948 181.000
74.14943 184.000
74.16938 155.000
74.18932 214.000
74.20927 199.000
74.22922 169.000
74.24916 192.000
74.26911 184.000
74.28906 185.000
74.30900 209.000
74.32895 221.000
74.34890 197.000
74.36885 213.000
74.38879 236.000
74.40874 261.000
74.42869 224.000
74.44863 247.000
74.46858 217.000
74.48853 199.000
74.50847 207.000
74.52842 214.000
74.54837 201.000
74.56832 197.000
74.58826 226.000
74.60821 225.000
74.62816 208.000
74.64810 199.000
74.66805 197.000
74.68800 230.000
74.70794 225.000
74.72789 185.000
74.74784 209.000
74.76778 209.000
74.78773 218.000
74.80768 210.000
74.82763 242.000
74.84757 212.000
74.86752 195.000
74.88747 252.000
74.90741 245.000
74.92736 242.000
74.94731 275.000
74.96725 244.000
74.98720 227.000
75.00715 251.000
75.02710 259.000
75.04704 245.000
75.06699 224.000
75.08694 232.000
75.10688 235.000
75.12683 254.000
75.14678 274.000
75.16672 250.000
75.18667 246.000
75.20662 287.000
75.22657 257.000
75.24651 250.000
75.26646 240.000
75.28641 233.000
75.30635 270.000
75.32630 246.000
75.34625 250.000
75.36619 274.000
75.38614 248.000
75.40609 247.000
75.42603 238.000
75.44598 254.000
75.46593 220.000
75.48588 263.000
75.50582 222.000
75.52577 240.000
75.54572 220.000
75.56566 224.000
75.58561 206.000
75.60556 216.000
75.62550 202.000
75.64545 208.000
75.66540 216.000
75.68535 205.000
75.70529 192.000
75.72524 177.000
75.74519 190.000
75.76513 188.000
75.78508 180.000
75.80503 186.000
75.82497 187.000
75.84492 177.000
75.86487 192.000
75.88481 184.000
75.90476 196.000
75.92471 188.000
75.94466 158.000
75.96460 181.000
75.98455 177.000
76.00450 192.000
76.02444 173.000
76.04439 195.000
76.06434 199.000
76.08428 164.000
76.10423 172.000
76.12418 199.000
76.14413 192.000
76.16407 187.000
76.18402 169.000
76.20397 203.000
76.22391 173.000
76.24386 161.000
76.26381 202.000
76.28375 179.000
76.30370 169.000
76.32365 196.000
76.34359 174.000
76.36354 199.000
76.38349 184.000
76.40344 169.000
76.42338 180.000
76.44333 169.000
76.46328 172.000
76.48322 168.000
76.50317 179.000
76.52312 158.000
76.54306 204.000
76.56301 179.000
76.58296 191.000
76.60291 178.000
76.62285 170.000
76.64280 193.000
76.66275 186.000
76.68269 177.000
76.70264 177.000
76.72259 192.000
76.74253 192.000
76.76248 194.000
76.78243 175.000
76.80238 174.000
76.82232 193.000
76.84227 192.000
76.86222 167.000
76.88216 177.000
76.90211 183.000
76.92206 181.000
76.94200 184.000
76.96195 158.000
76.98190 186.000
77.00184 167.000
77.02179 163.000
77.04174 209.000
77.06169 170.000
77.08163 173.000
77.10158 185.000
77.12153 177.000
77.14147 194.000
77.16142 151.000
77.18137 163.000
77.20131 159.000
77.22126 173.000
77.24121 171.000
77.26116 185.000
77.28110 215.000
77.30105 183.000
77.32100 182.000
77.34094 198.000
77.36089 198.000
77.38084 182.000
77.40078 172.000
77.42073 206.000
77.44068 194.000
77.46062 180.000
77.48057 181.000
77.50052 194.000
77.52047 197.000
77.54041 193.000
77.56036 200.000
77.58031 174.000
77.60025 221.000
77.62020 211.000
77.64015 203.000
77.66009 195.000
77.68004 196.000
77.69999 217.000
77.71994 215.000
77.73988 219.000
77.75983 230.000
77.77978 216.000
77.79972 216.000
77.81967 220.000
77.83962 213.000
77.85956 230.000
77.87951 230.000
77.89946 215.000
77.91940 220.000
77.93935 235.000
77.95930 257.000
77.97925 252.000
77.99919 225.000
78.01914 264.000
78.03909 238.000
78.05903 254.000
78.07898 279.000
78.09893 253.000
78.11887 257.000
78.13882 261.000
78.15877 272.000
78.17872 300.000
78.19866 274.000
78.21861 228.000
78.23856 276.000
78.25850 262.000
78.27845 270.000
78.29840 292.000
78.31834 242.000
78.33829 280.000
78.35824 249.000
78.37819 259.000
78.39813 246.000
78.41808 250.000
78.43803 232.000
78.45797 218.000
78.47792 214.000
78.49787 223.000
78.51781 225.000
78.53776 223.000
78.55771 201.000
78.57765 213.000
78.59760 217.000
78.61755 204.000
78.63750 221.000
78.65744 217.000
78.67739 169.000
78.69734 179.000
78.71728 207.000
78.73723 202.000
78.75718 197.000
78.77712 195.000
78.79707 210.000
78.81702 173.000
78.83697 204.000
78.85691 179.000
78.87686 178.000
78.89681 185.000
78.91675 171.000
78.93670 200.000
78.95665 160.000
78.97659 169.000
78.99654 191.000
79.01649 181.000
79.03643 170.000
79.05638 169.000
79.07633 188.000
79.09628 182.000
79.11622 173.000
79.13617 169.000
79.15612 189.000
79.17606 183.000
79.19601 174.000
79.21596 171.000
79.23590 175.000
79.25585 176.000
79.27580 179.000
79.29575 194.000
79.31569 183.000
79.33564 187.000
79.35559 178.000
79.37553 192.000
79.39548 176.000
79.41543 211.000
79.43537 208.000
79.45532 193.000
79.47527 181.000
79.49521 190.000
79.51516 211.000
79.53511 180.000
79.55506 181.000
79.57500 205.000
79.59495 173.000
79.61490 173.000
79.63484 179.000
79.65479 199.000
79.67474 168.000
79.69468 177.000
79.71463 184.000
79.73458 188.000
79.75453 155.000
79.77447 181.000
79.79442 161.000
79.81437 165.000
79.83431 189.000
79.85426 167.000
79.87421 164.000
79.89415 192.000
79.91410 179.000
79.93405 183.000
79.95399 172.000
79.97394 223.000
79.99389 180.000
80.01384 191.000
80.03378 165.000
80.05373 167.000
80.07368 183.000
80.09362 166.000
80.11357 186.000
80.13352 177.000
80.15346 211.000
80.17341 196.000
80.19336 183.000
80.21331 197.000
80.23325 197.000
80.25320 182.000
80.27315 207.000
80.29309 207.000
80.31304 201.000
80.33299 215.000
80.35293 179.000
80.37288 190.000
80.39283 213.000
80.41278 170.000
80.43272 194.000
80.45267 198.000
80.47262 178.000
80.49256 200.000
80.51251 197.000
80.53246 208.000
80.55240 184.000
80.57235 185.000
80.59230 191.000
80.61224 195.000
80.63219 187.000
80.65214 205.000
80.67209 176.000
80.69203 202.000
80.71198 166.000
80.73193 185.000
80.75187 171.000
80.77182 206.000
80.79177 177.000
80.81171 182.000
80.83166 185.000
80.85161 168.000
80.87156 184.000
80.89150 201.000
80.91145 193.000
80.93140 193.000
80.95134 200.000
80.97129 166.000
80.99124 180.000
81.01118 158.000
81.03113 181.000
81.05108 170.000
81.07102 179.000
81.09097 165.000
81.11092 185.000
81.13087 168.000
81.15081 190.000
81.17076 176.000
81.19071 168.000
81.21065 196.000
81.23060 188.000
81.25055 196.000
81.27049 165.000
81.29044 177.000
81.31039 163.000
81.33034 186.000
81.35028 169.000
81.37023 171.000
81.39018 174.000
81.41012 172.000
81.43007 156.000
81.45002 163.000
81.46996 172.000
81.48991 176.000
81.50986 166.000
81.52980 168.000
81.54975 191.000
81.56970 160.000
81.58965 167.000
81.60959 188.000
81.62954 158.000
81.64949 184.000
81.66943 170.000
81.68938 180.000
81.70933 173.000
81.72927 165.000
81.74922 156.000
81.76917 182.000
81.78912 169.000
81.80906 173.000
81.82901 176.000
81.84896 172.000
81.86890 151.000
81.88885 176.000
81.90880 180.000
81.92874 182.000
81.94869 188.000
81.96864 188.000
81.98859 163.000
82.00853 161.000
82.02848 181.000
82.04843 158.000
82.06837 210.000
82.08832 173.000
82.10827 201.000
82.12821 183.000
82.14816 173.000
82.16811 179.000
82.18805 205.000
82.20800 161.000
82.22795 196.000
82.24790 178.000
82.26784 187.000
82.28779 186.000
82.30774 176.000
82.32768 183.000
82.34763 168.000
82.36758 214.000
82.38752 205.000
82.40747 200.000
82.42742 200.000
82.44737 195.000
82.46731 220.000
82.48726 194.000
82.50721 209.000
82.52715 222.000
82.54710 180.000
82.56705 198.000
82.58699 215.000
82.60694 200.000
82.62689 197.000
82.64683 195.000
82.66678 196.000
82.68673 196.000
82.70668 196.000
82.72662 193.000
82.74657 161.000
82.76652 192.000
82.78646 191.000
82.80641 204.000
82.82636 218.000
82.84630 210.000
82.86625 186.000
82.88620 210.000
82.90615 211.000
82.92609 186.000
82.94604 208.000
82.96599 196.000
82.98593 184.000
83.00588 182.000
83.02583 201.000
83.04577 205.000
83.06572 185.000
83.08567 183.000
83.10561 215.000
83.12556 219.000
83.14551 219.000
83.16546 218.000
83.18540 187.000
83.20535 179.000
83.22530 190.000
83.24524 184.000
83.26519 216.000
83.28514 210.000
83.30508 198.000
83.32503 168.000
83.34498 204.000
83.36493 204.000
83.38487 184.000
83.40482 169.000
83.42477 185.000
83.44471 199.000
83.46466 195.000
83.48461 205.000
83.50455 191.000
83.52450 198.000
83.54445 181.000
83.56440 186.000
83.58434 201.000
83.60429 174.000
83.62424 196.000
83.64418 188.000
83.66413 211.000
83.68408 209.000
83.70402 220.000
83.72397 208.000
83.74392 202.000
83.76386 214.000
83.78381 181.000
83.80376 199.000
83.82371 191.000
83.84365 218.000
83.86360 198.000
83.88355 212.000
83.90349 201.000
83.92344 204.000
83.94339 195.000
83.96333 211.000
83.98328 215.000
84.00323 201.000
84.02318 194.000
84.04312 228.000
84.06307 189.000
84.08302 211.000
84.10296 194.000
84.12291 194.000
84.14286 207.000
84.16280 212.000
84.18275 220.000
84.20270 192.000
84.22264 208.000
84.24259 201.000
84.26254 203.000
84.28249 190.000
84.30243 213.000
84.32238 201.000
84.34233 192.000
84.36227 220.000
84.38222 181.000
84.40217 211.000
84.42211 210.000
84.44206 202.000
84.46201 242.000
84.48196 202.000
84.50190 207.000
84.52185 205.000
84.54180 206.000
84.56174 187.000
84.58169 217.000
84.60164 171.000
84.62158 192.000
84.64153 204.000
84.66148 171.000
84.68142 203.000
84.70137 197.000
84.72132 184.000
84.74127 207.000
84.76121 176.000
84.78116 183.000
84.80111 191.000
84.82105 177.000
84.84100 160.000
84.86095 204.000
84.88089 182.000
84.90084 168.000
84.92079 202.000
84.94074 175.000
84.96068 189.000
84.98063 179.000
85.00058 152.000
85.02052 193.000
85.04047 183.000
85.06042 189.000
85.08036 189.000
85.10031 171.000
85.12026 175.000
85.14021 166.000
85.16015 211.000
85.18010 185.000
85.20005 166.000
85.21999 183.000
85.23994 174.000
85.25989 159.000
85.27983 186.000
85.29978 170.000
85.31973 156.000
85.33967 175.000
85.35962 146.000
85.37957 179.000
85.39952 194.000
85.41946 151.000
85.43941 193.000
85.45936 163.000
85.47930 186.000
85.49925 186.000
85.51920 167.000
85.53914 157.000
85.55909 158.000
85.57904 199.000
85.59899 174.000
85.61893 180.000
85.63888 178.000
85.65883 168.000
85.67877 176.000
85.69872 154.000
85.71867 179.000
85.73861 177.000
85.75856 169.000
85.77851 154.000
85.79845 182.000
85.81840 209.000
85.83835 186.000
85.85830 198.000
85.87824 165.000
85.89819 196.000
85.91814 177.000
85.93808 168.000
85.95803 175.000
85.97798 196.000
85.99792 179.000
86.01787 177.000
86.03782 172.000
86.05777 160.000
86.07771 174.000
86.09766 167.000
86.11761 159.000
86.13755 175.000
86.15750 163.000
86.17745 162.000
86.19739 189.000
86.21734 177.000
86.23729 176.000
86.25723 158.000
86.27718 176.000
86.29713 177.000
86.31708 182.000
86.33702 160.000
86.35697 168.000
86.37692 158.000
86.39686 191.000
86.41681 175.000
86.43676 185.000
86.45670 165.000
86.47665 163.000
86.49660 180.000
86.51655 185.000
86.53649 204.000
86.55644 191.000
86.57639 202.000
86.59633 183.000
86.61628 214.000
86.63623 183.000
86.65617 190.000
86.67612 192.000
86.69607 207.000
86.71602 192.000
86.73596 194.000
86.75591 201.000
86.77586 181.000
86.79580 184.000
86.81575 176.000
86.83570 192.000
86.85564 211.000
86.87559 187.000
86.89554 212.000
86.91548 202.000
86.93543 188.000
86.95538 215.000
86.97533 182.000
86.99527 218.000
87.01522 200.000
87.03517 184.000
87.05511 189.000
87.07506 215.000
87.09501 213.000
87.11495 208.000
87.13490 191.000
87.15485 195.000
87.17480 193.000
87.19474 199.000
87.21469 201.000
87.23464 197.000
87.25458 212.000
87.27453 210.000
87.29448 205.000
87.31442 221.000
87.33437 183.000
87.35432 215.000
87.37426 209.000
87.39421 196.000
87.41416 180.000
87.43411 211.000
87.45405 187.000
87.47400 215.000
87.49395 196.000
87.51389 196.000
87.53384 206.000
87.55379 191.000
87.57373 192.000
87.59368 199.000
87.61363 202.000
87.63358 179.000
87.65352 168.000
87.67347 189.000
87.69342 200.000
87.71336 183.000
87.73331 166.000
87.75326 180.000
87.77320 181.000
87.79315 178.000
87.81310 183.000
87.83304 178.000
87.85299 204.000
87.87294 196.000
87.89289 166.000
87.91283 182.000
87.93278 196.000
87.95273 185.000
87.97267 178.000
87.99262 186.000
88.01257 171.000
88.03251 204.000
88.05246 156.000
88.07241 183.000
88.09236 195.000
88.11230 171.000
88.13225 172.000
88.15220 186.000
88.17214 178.000
88.19209 152.000
88.21204 175.000
88.23198 211.000
88.25193 179.000
88.27188 195.000
88.29183 172.000
88.31177 167.000
88.33172 153.000
88.35167 179.000
88.37161 182.000
88.39156 152.000
88.41151 155.000
88.43145 161.000
88.45140 180.000
88.47135 180.000
88.49129 202.000
88.51124 177.000
88.53119 193.000
88.55114 185.000
88.57108 171.000
88.59103 193.000
88.61098 189.000
88.63092 179.000
88.65087 178.000
88.67082 168.000
88.69076 191.000
88.71071 162.000
88.73066 169.000
88.75061 181.000
88.77055 184.000
88.79050 167.000
88.81045 193.000
88.83039 192.000
88.85034 184.000
88.87029 181.000
88.89023 163.000
88.91018 163.000
88.93013 185.000
88.95007 185.000
88.97002 185.000
88.98997 190.000
89.00992 180.000
89.02986 162.000
89.04981 169.000
89.06976 189.000
89.08970 171.000
89.10965 186.000
89.12960 186.000
89.14954 188.000
89.16949 192.000
89.18944 191.000
89.20939 167.000
89.22933 143.000
89.24928 189.000
89.26923 182.000
89.28917 189.000
89.30912 178.000
89.32907 191.000
89.34901 202.000
89.36896 180.000
89.38891 218.000
89.40885 160.000
89.42880 174.000
89.44875 197.000
89.46870 209.000
89.48864 194.000
89.50859 190.000
89.52854 212.000
89.54848 205.000
89.56843 199.000
89.58838 209.000
89.60832 203.000
89.62827 201.000
89.64822 194.000
89.66817 198.000
89.68811 214.000
89.70806 222.000
89.72801 199.000
89.74795 191.000
89.76790 192.000
89.78785 207.000
89.80779 206.000
89.82774 205.000
89.84769 226.000
89.86764 223.000
89.88758 184.000
89.90753 202.000
89.92748 216.000
89.94742 219.000
89.96737 202.000
89.98732 226.000
90.00726 229.000
