10.00000 106.000
10.01995 114.000
10.03989 109.000
10.05984 108.000
10.07979 103.000
10.09973 110.000
10.11968 118.000
10.13963 101.000
10.15958 109.000
10.17952 121.000
10.19947 124.000
10.21942 118.000
10.23936 119.000
10.25931 113.000
10.27926 132.000
10.29920 128.000
10.31915 123.000
10.33910 114.000
10.35905 127.000
10.37899 135.000
10.39894 107.000
10.41889 105.000
10.43883 105.000
10.45878 108.000
10.47873 103.000
10.49867 102.000
10.51862 103.000
10.53857 112.000
10.55851 96.000
10.57846 126.000
10.59841 143.000
10.61836 112.000
10.63830 127.000
10.65825 93.000
10.67820 92.000
10.69814 131.000
10.71809 109.000
10.73804 102.000
10.75798 128.000
10.77793 107.000
10.79788 105.000
10.81783 113.000
10.83777 109.000
10.85772 86.000
10.87767 98.000
10.89761 125.000
10.91756 99.000
10.93751 109.000
10.95745 114.000
10.97740 113.000
10.99735 91.000
11.01730 117.000
11.03724 103.000
11.05719 112.000
11.07714 101.000
11.09708 107.000
11.11703 115.000
11.13698 109.000
11.15692 99.000
11.17687 114.000
11.19682 118.000
11.21676 112.000
11.23671 107.000
11.25666 111.000
11.27661 92.000
11.29655 105.000
11.31650 111.000
11.33645 102.000
11.35639 110.000
11.37634 113.000
11.39629 99.000
11.41623 107.000
11.43618 106.000
11.45613 113.000
11.47608 93.000
11.49602 120.000
11.51597 117.000
11.53592 101.000
11.55586 102.000
11.57581 93.000
11.59576 112.000
11.61570 106.000
11.63565 124.000
11.65560 123.000
11.67554 106.000
11.69549 100.000
11.71544 102.000
11.73539 133.000
11.75533 101.000
11.77528 110.000
11.79523 114.000
11.81517 114.000
11.83512 101.000
11.85507 112.000
11.87501 122.000
11.89496 103.000
11.91491 108.000
11.93486 102.000
11.95480 98.000
11.97475 110.000
11.99470 106.000
12.01464 96.000
12.03459 121.000
12.05454 111.000
12.07448 112.000
12.09443 117.000
12.11438 106.000
12.13432 117.000
12.15427 101.000
12.17422 100.000
12.19417 100.000
12.21411 105.000
12.23406 111.000
12.25401 93.000
12.27395 109.000
12.29390 110.000
12.31385 114.000
12.33379 87.000
12.35374 103.000
12.37369 106.000
12.39364 121.000
12.41358 91.000
12.43353 129.000
12.45348 101.000
12.47342 87.000
12.49337 103.000
12.51332 125.000
12.53326 100.000
12.55321 114.000
12.57316 113.000
12.59311 122.000
12.61305 119.000
12.63300 116.000
12.65295 112.000
12.67289 114.000
12.69284 119.000
12.71279 96.000
12.73273 104.000
12.75268 104.000
12.77263 129.000
12.79257 96.000
12.81252 106.000
12.83247 117.000
12.85242 112.000
12.87236 117.000
12.89231 103.000
12.91226 93.000
12.93220 132.000
12.95215 132.000
12.97210 102.000
12.99204 101.000
13.01199 98.000
13.03194 133.000
13.05189 106.000
13.07183 103.000
13.09178 89.000
13.11173 99.000
13.13167 131.000
13.15162 101.000
13.17157 97.000
13.19151 110.000
13.21146 111.000
13.23141 104.000
13.25135 92.000
13.27130 94.000
13.29125 96.000
13.31120 99.000
13.33114 100.000
13.35109 94.000
13.37104 124.000
13.39098 103.000
13.41093 103.000
13.43088 100.000
13.45082 104.000
13.47077 125.000
13.49072 120.000
13.51067 89.000
13.53061 102.000
13.55056 115.000
13.57051 102.000
13.59045 122.000
13.61040 113.000
13.63035 120.000
13.65029 105.000
13.67024 112.000
13.69019 113.000
13.71013 106.000
13.73008 113.000
13.75003 114.000
13.76998 104.000
13.78992 113.000
13.80987 125.000
13.82982 118.000
13.84976 102.000
13.86971 110.000
13.88966 95.000
13.90960 105.000
13.92955 122.000
13.94950 110.000
13.96945 114.000
13.98939 119.000
14.00934 100.000
14.02929 114.000
14.04923 110.000
14.06918 117.000
14.08913 130.000
14.10907 115.000
14.12902 108.000
14.14897 118.000
14.16892 122.000
14.18886 126.000
14.20881 126.000
14.22876 133.000
14.24870 122.000
14.26865 136.000
14.28860 124.000
14.30854 125.000
14.32849 144.000
14.34844 115.000
14.36838 144.000
14.38833 125.000
14.40828 160.000
14.42823 175.000
14.44817 158.000
14.46812 159.000
14.48807 177.000
14.50801 169.000
14.52796 195.000
14.54791 186.000
14.56785 245.000
14.58780 246.000
14.60775 232.000
14.62770 244.000
14.64764 254.000
14.66759 212.000
14.68754 207.000
14.70748 217.000
14.72743 174.000
14.74738 187.000
14.76732 181.000
14.78727 163.000
14.80722 150.000
14.82716 143.000
14.84711 137.000
14.86706 143.000
14.88701 148.000
14.90695 155.000
14.92690 123.000
14.94685 137.000
14.96679 136.000
14.98674 110.000
15.00669 145.000
15.02663 108.000
15.04658 125.000
15.06653 105.000
15.08648 127.000
15.10642 142.000
15.12637 127.000
15.14632 129.000
15.16626 131.000
15.18621 141.000
15.20616 116.000
15.22610 109.000
15.24605 115.000
15.26600 123.000
15.28594 128.000
15.30589 97.000
15.32584 110.000
15.34579 101.000
15.36573 124.000
15.38568 112.000
15.40563 112.000
15.42557 128.000
15.44552 100.000
15.46547 108.000
15.48541 129.000
15.50536 135.000
15.52531 113.000
15.54526 119.000
15.56520 120.000
15.58515 104.000
15.60510 123.000
15.62504 130.000
15.64499 123.000
15.66494 107.000
15.68488 125.000
15.70483 109.000
15.72478 92.000
15.74472 101.000
15.76467 124.000
15.78462 112.000
15.80457 127.000
15.82451 103.000
15.84446 118.000
15.86441 128.000
15.88435 132.000
15.90430 106.000
15.92425 115.000
15.94419 112.000
15.96414 105.000
15.98409 124.000
16.00404 87.000
16.02398 122.000
16.04393 106.000
16.06388 116.000
16.08382 99.000
16.10377 101.000
16.12372 102.000
16.14366 115.000
16.16361 109.000
16.18356 122.000
16.20351 138.000
16.22345 95.000
16.24340 111.000
16.26335 127.000
16.28329 124.000
16.30324 127.000
16.32319 106.000
16.34313 107.000
16.36308 103.000
16.38303 99.000
16.40297 104.000
16.42292 101.000
16.44287 125.000
16.46282 119.000
16.48276 111.000
16.50271 118.000
16.52266 114.000
16.54260 116.000
16.56255 99.000
16.58250 131.000
16.60244 133.000
16.62239 145.000
16.64234 125.000
16.66229 105.000
16.68223 137.000
16.70218 120.000
16.72213 126.000
16.74207 126.000
16.76202 139.000
16.78197 125.000
16.80191 129.000
16.82186 135.000
16.84181 127.000
16.86175 111.000
16.88170 128.000
16.90165 125.000
16.92160 124.000
16.94154 127.000
16.96149 139.000
16.98144 115.000
17.00138 134.000
17.02133 130.000
17.04128 153.000
17.06122 129.000
17.08117 150.000
17.10112 134.000
17.12107 147.000
17.14101 166.000
17.16096 154.000
17.18091 176.000
17.20085 155.000
17.22080 152.000
17.24075 146.000
17.26069 155.000
17.28064 158.000
17.30059 158.000
17.32053 143.000
17.34048 115.000
17.36043 164.000
17.38038 139.000
17.40032 120.000
17.42027 124.000
17.44022 134.000
17.46016 142.000
17.48011 136.000
17.50006 134.000
17.52000 128.000
17.53995 120.000
17.55990 128.000
17.57985 118.000
17.59979 136.000
17.61974 123.000
17.63969 108.000
17.65963 112.000
17.67958 132.000
17.69953 96.000
17.71947 122.000
17.73942 99.000
17.75937 129.000
17.77932 98.000
17.79926 125.000
17.81921 122.000
17.83916 121.000
17.85910 102.000
17.87905 107.000
17.89900 112.000
17.91894 126.000
17.93889 115.000
17.95884 119.000
17.97878 110.000
17.99873 119.000
18.01868 114.000
18.03863 111.000
18.05857 122.000
18.07852 124.000
18.09847 140.000
18.11841 126.000
18.13836 117.000
18.15831 116.000
18.17825 125.000
18.19820 118.000
18.21815 114.000
18.23810 139.000
18.25804 152.000
18.27799 146.000
18.29794 140.000
18.31788 176.000
18.33783 176.000
18.35778 161.000
18.37772 122.000
18.39767 135.000
18.41762 123.000
18.43756 133.000
18.45751 117.000
18.47746 115.000
18.49741 122.000
18.51735 127.000
18.53730 99.000
18.55725 98.000
18.57719 120.000
18.59714 115.000
18.61709 131.000
18.63703 115.000
18.65698 126.000
18.67693 115.000
18.69688 109.000
18.71682 110.000
18.73677 105.000
18.75672 88.000
18.77666 121.000
18.79661 126.000
18.81656 112.000
18.83650 97.000
18.85645 117.000
18.87640 121.000
18.89634 92.000
18.91629 106.000
18.93624 110.000
18.95619 104.000
18.97613 120.000
18.99608 117.000
19.01603 108.000
19.03597 108.000
19.05592 123.000
19.07587 111.000
19.09581 120.000
19.11576 113.000
19.13571 114.000
19.15566 109.000
19.17560 118.000
19.19555 92.000
19.21550 99.000
19.23544 116.000
19.25539 106.000
19.27534 96.000
19.29528 113.000
19.31523 95.000
19.33518 104.000
19.35513 130.000
19.37507 116.000
19.39502 109.000
19.41497 116.000
19.43491 120.000
19.45486 126.000
19.47481 118.000
19.49475 78.000
19.51470 96.000
19.53465 111.000
19.55459 118.000
19.57454 119.000
19.59449 94.000
19.61444 110.000
19.63438 108.000
19.65433 134.000
19.67428 102.000
19.69422 124.000
19.71417 106.000
19.73412 103.000
19.75406 121.000
19.77401 142.000
19.79396 133.000
19.81391 141.000
19.83385 129.000
19.85380 172.000
19.87375 163.000
19.89369 154.000
19.91364 152.000
19.93359 149.000
19.95353 156.000
19.97348 153.000
19.99343 124.000
20.01337 130.000
20.03332 114.000
20.05327 154.000
20.07322 109.000
20.09316 103.000
20.11311 122.000
20.13306 119.000
20.15300 130.000
20.17295 109.000
20.19290 127.000
20.21284 122.000
20.23279 134.000
20.25274 104.000
20.27269 134.000
20.29263 108.000
20.31258 142.000
20.33253 120.000
20.35247 140.000
20.37242 150.000
20.39237 145.000
20.41231 145.000
20.43226 187.000
20.45221 171.000
20.47215 183.000
20.49210 198.000
20.51205 206.000
20.53200 219.000
20.55194 225.000
20.57189 186.000
20.59184 162.000
20.61178 172.000
20.63173 146.000
20.65168 160.000
20.67162 149.000
20.69157 147.000
20.71152 133.000
20.73147 170.000
20.75141 134.000
20.77136 145.000
20.79131 130.000
20.81125 137.000
20.83120 133.000
20.85115 139.000
20.87109 131.000
20.89104 120.000
20.91099 116.000
20.93094 124.000
20.95088 106.000
20.97083 140.000
20.99078 110.000
21.01072 132.000
21.03067 112.000
21.05062 114.000
21.07056 115.000
21.09051 143.000
21.11046 112.000
21.13040 106.000
21.15035 109.000
21.17030 113.000
21.19025 121.000
21.21019 125.000
21.23014 119.000
21.25009 110.000
21.27003 95.000
21.28998 96.000
21.30993 102.000
21.32987 110.000
21.34982 110.000
21.36977 116.000
21.38972 122.000
21.40966 108.000
21.42961 106.000
21.44956 112.000
21.46950 119.000
21.48945 121.000
21.50940 115.000
21.52934 110.000
21.54929 125.000
21.56924 116.000
21.58918 110.000
21.60913 96.000
21.62908 98.000
21.64903 121.000
21.66897 120.000
21.68892 106.000
21.70887 89.000
21.72881 120.000
21.74876 118.000
21.76871 117.000
21.78865 115.000
21.80860 122.000
21.82855 131.000
21.84850 122.000
21.86844 135.000
21.88839 110.000
21.90834 120.000
21.92828 117.000
21.94823 111.000
21.96818 114.000
21.98812 125.000
22.00807 130.000
22.02802 120.000
22.04796 122.000
22.06791 101.000
22.08786 144.000
22.10781 123.000
22.12775 116.000
22.14770 120.000
22.16765 125.000
22.18759 101.000
22.20754 111.000
22.22749 111.000
22.24743 110.000
22.26738 131.000
22.28733 103.000
22.30728 119.000
22.32722 124.000
22.34717 117.000
22.36712 114.000
22.38706 88.000
22.40701 109.000
22.42696 104.000
22.44690 106.000
22.46685 115.000
22.48680 119.000
22.50675 126.000
22.52669 126.000
22.54664 125.000
22.56659 128.000
22.58653 112.000
22.60648 130.000
22.62643 128.000
22.64637 104.000
22.66632 115.000
22.68627 108.000
22.70621 126.000
22.72616 122.000
22.74611 97.000
22.76606 114.000
22.78600 115.000
22.80595 98.000
22.82590 129.000
22.84584 100.000
22.86579 104.000
22.88574 96.000
22.90568 91.000
22.92563 105.000
22.94558 105.000
22.96553 110.000
22.98547 108.000
23.00542 138.000
23.02537 117.000
23.04531 110.000
23.06526 110.000
23.08521 104.000
23.10515 100.000
23.12510 103.000
23.14505 99.000
23.16499 104.000
23.18494 117.000
23.20489 103.000
23.22484 108.000
23.24478 121.000
23.26473 131.000
23.28468 106.000
23.30462 110.000
23.32457 109.000
23.34452 125.000
23.36446 117.000
23.38441 118.000
23.40436 132.000
23.42431 106.000
23.44425 102.000
23.46420 116.000
23.48415 115.000
23.50409 113.000
23.52404 113.000
23.54399 108.000
23.56393 125.000
23.58388 111.000
23.60383 107.000
23.62377 134.000
23.64372 95.000
23.66367 113.000
23.68362 112.000
23.70356 110.000
23.72351 119.000
23.74346 132.000
23.76340 92.000
23.78335 120.000
23.80330 104.000
23.82324 117.000
23.84319 103.000
23.86314 108.000
23.88309 107.000
23.90303 115.000
23.92298 123.000
23.94293 120.000
23.96287 117.000
23.98282 130.000
24.00277 95.000
24.02271 121.000
24.04266 129.000
24.06261 99.000
24.08256 130.000
24.10250 105.000
24.12245 117.000
24.14240 119.000
24.16234 127.000
24.18229 114.000
24.20224 96.000
24.22218 139.000
24.24213 105.000
24.26208 119.000
24.28202 139.000
24.30197 120.000
24.32192 118.000
24.34187 104.000
24.36181 110.000
24.38176 105.000
24.40171 114.000
24.42165 106.000
24.44160 123.000
24.46155 115.000
24.48149 128.000
24.50144 108.000
24.52139 108.000
24.54134 92.000
24.56128 141.000
24.58123 96.000
24.60118 100.000
24.62112 125.000
24.64107 109.000
24.66102 112.000
24.68096 102.000
24.70091 120.000
24.72086 103.000
24.74080 107.000
24.76075 109.000
24.78070 108.000
24.80065 134.000
24.82059 109.000
24.84054 109.000
24.86049 129.000
24.88043 108.000
24.90038 95.000
24.92033 96.000
24.94027 120.000
24.96022 109.000
24.98017 113.000
25.00012 116.000
25.02006 111.000
25.04001 110.000
25.05996 131.000
25.07990 116.000
25.09985 108.000
25.11980 114.000
25.13974 136.000
25.15969 97.000
25.17964 116.000
25.19958 108.000
25.21953 117.000
25.23948 113.000
25.25943 114.000
25.27937 110.000
25.29932 139.000
25.31927 108.000
25.33921 112.000
25.35916 126.000
25.37911 129.000
25.39905 112.000
25.41900 120.000
25.43895 112.000
25.45890 135.000
25.47884 125.000
25.49879 121.000
25.51874 118.000
25.53868 119.000
25.55863 121.000
25.57858 113.000
25.59852 127.000
25.61847 128.000
25.63842 118.000
25.65837 141.000
25.67831 121.000
25.69826 134.000
25.71821 139.000
25.73815 116.000
25.75810 143.000
25.77805 144.000
25.79799 126.000
25.81794 134.000
25.83789 152.000
25.85783 115.000
25.87778 143.000
25.89773 127.000
25.91768 148.000
25.93762 114.000
25.95757 132.000
25.97752 135.000
25.99746 149.000
26.01741 149.000
26.03736 131.000
26.05730 145.000
26.07725 141.000
26.09720 133.000
26.11715 120.000
26.13709 143.000
26.15704 111.000
26.17699 129.000
26.19693 110.000
26.21688 125.000
26.23683 131.000
26.25677 136.000
26.27672 135.000
26.29667 143.000
26.31661 100.000
26.33656 131.000
26.35651 117.000
26.37646 128.000
26.39640 130.000
26.41635 112.000
26.43630 121.000
26.45624 120.000
26.47619 116.000
26.49614 125.000
26.51608 99.000
26.53603 126.000
26.55598 136.000
26.57593 138.000
26.59587 104.000
26.61582 147.000
26.63577 138.000
26.65571 94.000
26.67566 132.000
26.69561 116.000
26.71555 123.000
26.73550 110.000
26.75545 113.000
26.77539 140.000
26.79534 112.000
26.81529 139.000
26.83524 131.000
26.85518 125.000
26.87513 122.000
26.89508 136.000
26.91502 103.000
26.93497 144.000
26.95492 112.000
26.97486 116.000
26.99481 119.000
27.01476 118.000
27.03471 118.000
27.05465 139.000
27.07460 120.000
27.09455 126.000
27.11449 136.000
27.13444 112.000
27.15439 129.000
27.17433 127.000
27.19428 110.000
27.21423 122.000
27.23417 112.000
27.25412 140.000
27.27407 116.000
27.29402 121.000
27.31396 133.000
27.33391 126.000
27.35386 128.000
27.37380 140.000
27.39375 113.000
27.41370 137.000
27.43364 120.000
27.45359 140.000
27.47354 126.000
27.49349 140.000
27.51343 144.000
27.53338 122.000
27.55333 115.000
27.57327 146.000
27.59322 115.000
27.61317 123.000
27.63311 133.000
27.65306 133.000
27.67301 139.000
27.69296 116.000
27.71290 125.000
27.73285 134.000
27.75280 122.000
27.77274 131.000
27.79269 125.000
27.81264 121.000
27.83258 121.000
27.85253 133.000
27.87248 139.000
27.89242 116.000
27.91237 115.000
27.93232 126.000
27.95227 129.000
27.97221 155.000
27.99216 121.000
28.01211 126.000
28.03205 122.000
28.05200 116.000
28.07195 129.000
28.09189 149.000
28.11184 114.000
28.13179 136.000
28.15174 148.000
28.17168 122.000
28.19163 133.000
28.21158 138.000
28.23152 119.000
28.25147 117.000
28.27142 137.000
28.29136 122.000
28.31131 133.000
28.33126 114.000
28.35120 115.000
28.37115 133.000
28.39110 144.000
28.41105 136.000
28.43099 145.000
28.45094 111.000
28.47089 149.000
28.49083 138.000
28.51078 143.000
28.53073 124.000
28.55067 150.000
28.57062 154.000
28.59057 133.000
28.61052 156.000
28.63046 126.000
28.65041 123.000
28.67036 123.000
28.69030 131.000
28.71025 130.000
28.73020 133.000
28.75014 120.000
28.77009 133.000
28.79004 135.000
28.80998 113.000
28.82993 161.000
28.84988 163.000
28.86983 147.000
28.88977 133.000
28.90972 157.000
28.92967 137.000
28.94961 138.000
28.96956 136.000
28.98951 129.000
29.00945 156.000
29.02940 146.000
29.04935 155.000
29.06930 137.000
29.08924 169.000
29.10919 120.000
29.12914 160.000
29.14908 166.000
29.16903 144.000
29.18898 172.000
29.20892 176.000
29.22887 167.000
29.24882 193.000
29.26877 204.000
29.28871 190.000
29.30866 217.000
29.32861 209.000
29.34855 234.000
29.36850 250.000
29.38845 224.000
29.40839 227.000
29.42834 261.000
29.44829 265.000
29.46823 263.000
29.48818 248.000
29.50813 288.000
29.52808 307.000
29.54802 272.000
29.56797 270.000
29.58792 276.000
29.60786 256.000
29.62781 255.000
29.64776 245.000
29.66770 248.000
29.68765 245.000
29.70760 250.000
29.72755 215.000
29.74749 233.000
29.76744 187.000
29.78739 197.000
29.80733 195.000
29.82728 186.000
29.84723 179.000
29.86717 203.000
29.88712 175.000
29.90707 186.000
29.92701 207.000
29.94696 193.000
29.96691 196.000
29.98686 199.000
30.00680 213.000
30.02675 251.000
30.04670 241.000
30.06664 215.000
30.08659 243.000
30.10654 259.000
30.12648 258.000
30.14643 262.000
30.16638 311.000
30.18633 340.000
30.20627 329.000
30.22622 284.000
30.24617 301.000
30.26611 250.000
30.28606 263.000
30.30601 241.000
30.32595 239.000
30.34590 182.000
30.36585 185.000
30.38579 156.000
30.40574 146.000
30.42569 152.000
30.44564 136.000
30.46558 141.000
30.48553 138.000
30.50548 154.000
30.52542 179.000
30.54537 144.000
30.56532 140.000
30.58526 129.000
30.60521 142.000
30.62516 144.000
30.64511 141.000
30.66505 153.000
30.68500 144.000
30.70495 153.000
30.72489 144.000
30.74484 141.000
30.76479 138.000
30.78473 130.000
30.80468 147.000
30.82463 129.000
30.84458 130.000
30.86452 117.000
30.88447 135.000
30.90442 148.000
30.92436 131.000
30.94431 129.000
30.96426 132.000
30.98420 137.000
31.00415 132.000
31.02410 144.000
31.04404 129.000
31.06399 132.000
31.08394 139.000
31.10389 121.000
31.12383 147.000
31.14378 119.000
31.16373 147.000
31.18367 140.000
31.20362 144.000
31.22357 149.000
31.24351 135.000
31.26346 121.000
31.28341 138.000
31.30336 138.000
31.32330 147.000
31.34325 138.000
31.36320 139.000
31.38314 157.000
31.40309 145.000
31.42304 177.000
31.44298 156.000
31.46293 176.000
31.48288 150.000
31.50282 160.000
31.52277 156.000
31.54272 158.000
31.56267 169.000
31.58261 161.000
31.60256 136.000
31.62251 143.000
31.64245 159.000
31.66240 132.000
31.68235 160.000
31.70229 155.000
31.72224 156.000
31.74219 144.000
31.76214 148.000
31.78208 136.000
31.80203 122.000
31.82198 121.000
31.84192 143.000
31.86187 144.000
31.88182 140.000
31.90176 121.000
31.92171 138.000
31.94166 137.000
31.96160 134.000
31.98155 141.000
32.00150 105.000
32.02145 139.000
32.04139 135.000
32.06134 116.000
32.08129 135.000
32.10123 121.000
32.12118 127.000
32.14113 137.000
32.16107 115.000
32.18102 116.000
32.20097 131.000
32.22092 138.000
32.24086 154.000
32.26081 140.000
32.28076 140.000
32.30070 147.000
32.32065 139.000
32.34060 132.000
32.36054 124.000
32.38049 132.000
32.40044 134.000
32.42039 123.000
32.44033 114.000
32.46028 116.000
32.48023 128.000
32.50017 139.000
32.52012 125.000
32.54007 125.000
32.56001 123.000
32.57996 122.000
32.59991 138.000
32.61985 139.000
32.63980 126.000
32.65975 142.000
32.67970 130.000
32.69964 151.000
32.71959 136.000
32.73954 140.000
32.75948 132.000
32.77943 138.000
32.79938 154.000
32.81932 147.000
32.83927 145.000
32.85922 155.000
32.87917 146.000
32.89911 143.000
32.91906 162.000
32.93901 167.000
32.95895 153.000
32.97890 160.000
32.99885 163.000
33.01879 153.000
33.03874 143.000
33.05869 179.000
33.07863 171.000
33.09858 192.000
33.11853 184.000
33.13848 175.000
33.15842 193.000
33.17837 180.000
33.19832 220.000
33.21826 176.000
33.23821 188.000
33.25816 170.000
33.27810 166.000
33.29805 168.000
33.31800 156.000
33.33795 165.000
33.35789 156.000
33.37784 163.000
33.39779 137.000
33.41773 127.000
33.43768 151.000
33.45763 133.000
33.47757 151.000
33.49752 140.000
33.51747 149.000
33.53741 169.000
33.55736 155.000
33.57731 178.000
33.59726 173.000
33.61720 178.000
33.63715 174.000
33.65710 186.000
33.67704 174.000
33.69699 172.000
33.71694 178.000
33.73688 190.000
33.75683 215.000
33.77678 246.000
33.79673 230.000
33.81667 249.000
33.83662 264.000
33.85657 233.000
33.87651 291.000
33.89646 234.000
33.91641 249.000
33.93635 242.000
33.95630 227.000
33.97625 235.000
33.99620 212.000
34.01614 237.000
34.03609 239.000
34.05604 221.000
34.07598 225.000
34.09593 237.000
34.11588 204.000
34.13582 240.000
34.15577 225.000
34.17572 221.000
34.19566 198.000
34.21561 207.000
34.23556 236.000
34.25551 237.000
34.27545 239.000
34.29540 250.000
34.31535 223.000
34.33529 212.000
34.35524 224.000
34.37519 222.000
34.39513 237.000
34.41508 264.000
34.43503 223.000
34.45498 224.000
34.47492 250.000
34.49487 237.000
34.51482 235.000
34.53476 227.000
34.55471 215.000
34.57466 216.000
34.59460 217.000
34.61455 209.000
34.63450 225.000
34.65444 186.000
34.67439 213.000
34.69434 217.000
34.71429 233.000
34.73423 203.000
34.75418 243.000
34.77413 248.000
34.79407 259.000
34.81402 316.000
34.83397 317.000
34.85391 343.000
34.87386 328.000
34.89381 368.000
34.91376 383.000
34.93370 377.000
34.95365 384.000
34.97360 422.000
34.99354 436.000
35.01349 453.000
35.03344 480.000
35.05338 492.000
35.07333 483.000
35.09328 527.000
35.11322 540.000
35.13317 574.000
35.15312 566.000
35.17307 532.000
35.19301 546.000
35.21296 470.000
35.23291 423.000
35.25285 386.000
35.27280 382.000
35.29275 360.000
35.31269 346.000
35.33264 319.000
35.35259 304.000
35.37254 266.000
35.39248 275.000
35.41243 308.000
35.43238 325.000
35.45232 383.000
35.47227 372.000
35.49222 419.000
35.51216 450.000
35.53211 533.000
35.55206 622.000
35.57201 631.000
35.59195 691.000
35.61190 736.000
35.63185 684.000
35.65179 658.000
35.67174 577.000
35.69169 564.000
35.71163 480.000
35.73158 440.000
35.75153 389.000
35.77147 296.000
35.79142 300.000
35.81137 265.000
35.83132 281.000
35.85126 234.000
35.87121 256.000
35.89116 219.000
35.91110 217.000
35.93105 185.000
35.95100 217.000
35.97094 203.000
35.99089 176.000
36.01084 224.000
36.03079 200.000
36.05073 176.000
36.07068 212.000
36.09063 183.000
36.11057 210.000
36.13052 193.000
36.15047 232.000
36.17041 223.000
36.19036 214.000
36.21031 267.000
36.23025 289.000
36.25020 289.000
36.27015 328.000
36.29010 387.000
36.31004 445.000
36.32999 480.000
36.34994 510.000
36.36988 490.000
36.38983 525.000
36.40978 477.000
36.42972 420.000
36.44967 409.000
36.46962 348.000
36.48957 321.000
36.50951 319.000
36.52946 258.000
36.54941 241.000
36.56935 227.000
36.58930 208.000
36.60925 201.000
36.62919 188.000
36.64914 233.000
36.66909 210.000
36.68903 205.000
36.70898 171.000
36.72893 179.000
36.74888 169.000
36.76882 192.000
36.78877 192.000
36.80872 169.000
36.82866 194.000
36.84861 190.000
36.86856 204.000
36.88850 193.000
36.90845 249.000
36.92840 248.000
36.94835 234.000
36.96829 285.000
36.98824 322.000
37.00819 359.000
37.02813 363.000
37.04808 500.000
37.06803 565.000
37.08797 600.000
37.10792 605.000
37.12787 642.000
37.14781 634.000
37.16776 609.000
37.18771 615.000
37.20766 566.000
37.22760 540.000
37.24755 501.000
37.26750 429.000
37.28744 389.000
37.30739 358.000
37.32734 367.000
37.34728 348.000
37.36723 330.000
37.38718 352.000
37.40713 342.000
37.42707 342.000
37.44702 329.000
37.46697 334.000
37.48691 306.000
37.50686 335.000
37.52681 338.000
37.54675 296.000
37.56670 318.000
37.58665 279.000
37.60660 330.000
37.62654 265.000
37.64649 282.000
37.66644 276.000
37.68638 239.000
37.70633 233.000
37.72628 239.000
37.74622 205.000
37.76617 210.000
37.78612 192.000
37.80606 217.000
37.82601 209.000
37.84596 185.000
37.86591 218.000
37.88585 186.000
37.90580 200.000
37.92575 181.000
37.94569 199.000
37.96564 205.000
37.98559 182.000
38.00553 199.000
38.02548 189.000
38.04543 158.000
38.06538 164.000
38.08532 165.000
38.10527 157.000
38.12522 141.000
38.14516 159.000
38.16511 143.000
38.18506 154.000
38.20500 142.000
38.22495 153.000
38.24490 124.000
38.26484 138.000
38.28479 121.000
38.30474 150.000
38.32469 126.000
38.34463 128.000
38.36458 145.000
38.38453 139.000
38.40447 110.000
38.42442 123.000
38.44437 132.000
38.46431 121.000
38.48426 147.000
38.50421 148.000
38.52416 125.000
38.54410 142.000
38.56405 130.000
38.58400 112.000
38.60394 128.000
38.62389 123.000
38.64384 124.000
38.66378 115.000
38.68373 125.000
38.70368 126.000
38.72362 133.000
38.74357 125.000
38.76352 128.000
38.78347 133.000
38.80341 127.000
38.82336 130.000
38.84331 122.000
38.86325 122.000
38.88320 99.000
38.90315 151.000
38.92309 131.000
38.94304 129.000
38.96299 139.000
38.98294 124.000
39.00288 126.000
39.02283 146.000
39.04278 125.000
39.06272 129.000
39.08267 114.000
39.10262 136.000
39.12256 111.000
39.14251 111.000
39.16246 122.000
39.18241 139.000
39.20235 132.000
39.22230 126.000
39.24225 131.000
39.26219 124.000
39.28214 121.000
39.30209 135.000
39.32203 129.000
39.34198 129.000
39.36193 135.000
39.38187 116.000
39.40182 124.000
39.42177 121.000
39.44172 126.000
39.46166 104.000
39.48161 117.000
39.50156 126.000
39.52150 121.000
39.54145 143.000
39.56140 123.000
39.58134 109.000
39.60129 155.000
39.62124 143.000
39.64119 130.000
39.66113 122.000
39.68108 165.000
39.70103 127.000
39.72097 122.000
39.74092 136.000
39.76087 149.000
39.78081 167.000
39.80076 129.000
39.82071 149.000
39.84065 166.000
39.86060 134.000
39.88055 164.000
39.90050 158.000
39.92044 132.000
39.94039 138.000
39.96034 176.000
39.98028 132.000
40.00023 134.000
40.02018 122.000
40.04012 138.000
40.06007 134.000
40.08002 130.000
40.09997 156.000
40.11991 139.000
40.13986 141.000
40.15981 140.000
40.17975 153.000
40.19970 127.000
40.21965 135.000
40.23959 127.000
40.25954 145.000
40.27949 135.000
40.29943 134.000
40.31938 118.000
40.33933 156.000
40.35928 145.000
40.37922 141.000
40.39917 156.000
40.41912 140.000
40.43906 151.000
40.45901 138.000
40.47896 130.000
40.49890 158.000
40.51885 130.000
40.53880 141.000
40.55875 144.000
40.57869 149.000
40.59864 160.000
40.61859 162.000
40.63853 160.000
40.65848 154.000
40.67843 177.000
40.69837 169.000
40.71832 177.000
40.73827 184.000
40.75822 182.000
40.77816 197.000
40.79811 185.000
40.81806 192.000
40.83800 210.000
40.85795 228.000
40.87790 262.000
40.89784 282.000
40.91779 257.000
40.93774 296.000
40.95768 319.000
40.97763 349.000
40.99758 392.000
41.01753 369.000
41.03747 448.000
41.05742 487.000
41.07737 500.000
41.09731 480.000
41.11726 503.000
41.13721 553.000
41.15715 563.000
41.17710 577.000
41.19705 611.000
41.21700 607.000
41.23694 605.000
41.25689 584.000
41.27684 604.000
41.29678 643.000
41.31673 634.000
41.33668 624.000
41.35662 598.000
41.37657 590.000
41.39652 544.000
41.41646 550.000
41.43641 583.000
41.45636 511.000
41.47631 459.000
41.49625 482.000
41.51620 511.000
41.53615 479.000
41.55609 495.000
41.57604 505.000
41.59599 536.000
41.61593 552.000
41.63588 559.000
41.65583 628.000
41.67578 642.000
41.69572 707.000
41.71567 848.000
41.73562 898.000
41.75556 1024.000
41.77551 1061.000
41.79546 1096.000
41.81540 1122.000
41.83535 1075.000
41.85530 997.000
41.87524 951.000
41.89519 913.000
41.91514 772.000
41.93509 712.000
41.95503 596.000
41.97498 514.000
41.99493 449.000
42.01487 359.000
42.03482 326.000
42.05477 258.000
42.07471 250.000
42.09466 183.000
42.11461 244.000
42.13456 247.000
42.15450 182.000
42.17445 191.000
42.19440 205.000
42.21434 178.000
42.23429 190.000
42.25424 187.000
42.27418 164.000
42.29413 177.000
42.31408 138.000
42.33403 160.000
42.35397 159.000
42.37392 142.000
42.39387 153.000
42.41381 146.000
42.43376 144.000
42.45371 161.000
42.47365 169.000
42.49360 143.000
42.51355 151.000
42.53349 144.000
42.55344 163.000
42.57339 150.000
42.59334 183.000
42.61328 134.000
42.63323 141.000
42.65318 134.000
42.67312 145.000
42.69307 152.000
42.71302 151.000
42.73296 161.000
42.75291 197.000
42.77286 157.000
42.79281 158.000
42.81275 167.000
42.83270 184.000
42.85265 170.000
42.87259 165.000
42.89254 207.000
42.91249 215.000
42.93243 220.000
42.95238 266.000
42.97233 253.000
42.99227 336.000
43.01222 371.000
43.03217 449.000
43.05212 564.000
43.07206 591.000
43.09201 692.000
43.11196 760.000
43.13190 778.000
43.15185 808.000
43.17180 845.000
43.19174 856.000
43.21169 765.000
43.23164 776.000
43.25159 691.000
43.27153 658.000
43.29148 572.000
43.31143 462.000
43.33137 463.000
43.35132 386.000
43.37127 372.000
43.39121 311.000
43.41116 254.000
43.43111 247.000
43.45105 189.000
43.47100 191.000
43.49095 179.000
43.51090 158.000
43.53084 153.000
43.55079 176.000
43.57074 153.000
43.59068 153.000
43.61063 127.000
43.63058 142.000
43.65052 138.000
43.67047 151.000
43.69042 138.000
43.71037 137.000
43.73031 136.000
43.75026 136.000
43.77021 145.000
43.79015 125.000
43.81010 134.000
43.83005 136.000
43.84999 151.000
43.86994 128.000
43.88989 117.000
43.90984 135.000
43.92978 133.000
43.94973 136.000
43.96968 152.000
43.98962 119.000
44.00957 122.000
44.02952 121.000
44.04946 122.000
44.06941 119.000
44.08936 146.000
44.10930 173.000
44.12925 125.000
44.14920 131.000
44.16915 128.000
44.18909 128.000
44.20904 116.000
44.22899 117.000
44.24893 127.000
44.26888 126.000
44.28883 147.000
44.30877 128.000
44.32872 123.000
44.34867 125.000
44.36862 138.000
44.38856 132.000
44.40851 119.000
44.42846 147.000
44.44840 136.000
44.46835 149.000
44.48830 150.000
44.50824 132.000
44.52819 130.000
44.54814 119.000
44.56808 137.000
44.58803 122.000
44.60798 118.000
44.62793 129.000
44.64787 120.000
44.66782 116.000
44.68777 122.000
44.70771 136.000
44.72766 150.000
44.74761 130.000
44.76755 139.000
44.78750 116.000
44.80745 129.000
44.82740 145.000
44.84734 162.000
44.86729 140.000
44.88724 146.000
44.90718 166.000
44.92713 158.000
44.94708 129.000
44.96702 129.000
44.98697 149.000
45.00692 136.000
45.02686 151.000
45.04681 114.000
45.06676 145.000
45.08671 154.000
45.10665 132.000
45.12660 146.000
45.14655 151.000
45.16649 137.000
45.18644 148.000
45.20639 147.000
45.22633 130.000
45.24628 131.000
45.26623 142.000
45.28618 149.000
45.30612 134.000
45.32607 155.000
45.34602 136.000
45.36596 130.000
45.38591 125.000
45.40586 142.000
45.42580 150.000
45.44575 138.000
45.46570 149.000
45.48565 153.000
45.50559 152.000
45.52554 143.000
45.54549 152.000
45.56543 154.000
45.58538 171.000
45.60533 185.000
45.62527 172.000
45.64522 181.000
45.66517 181.000
45.68511 187.000
45.70506 174.000
45.72501 199.000
45.74496 200.000
45.76490 221.000
45.78485 223.000
45.80480 216.000
45.82474 253.000
45.84469 249.000
45.86464 249.000
45.88458 274.000
45.90453 253.000
45.92448 255.000
45.94443 252.000
45.96437 251.000
45.98432 270.000
46.00427 301.000
46.02421 243.000
46.04416 277.000
46.06411 266.000
46.08405 288.000
46.10400 259.000
46.12395 252.000
46.14389 256.000
46.16384 234.000
46.18379 238.000
46.20374 248.000
46.22368 249.000
46.24363 201.000
46.26358 241.000
46.28352 212.000
46.30347 186.000
46.32342 202.000
46.34336 194.000
46.36331 203.000
46.38326 213.000
46.40321 196.000
46.42315 187.000
46.44310 189.000
46.46305 172.000
46.48299 167.000
46.50294 167.000
46.52289 180.000
46.54283 176.000
46.56278 145.000
46.58273 163.000
46.60267 148.000
46.62262 127.000
46.64257 136.000
46.66252 128.000
46.68246 165.000
46.70241 156.000
46.72236 144.000
46.74230 129.000
46.76225 127.000
46.78220 136.000
46.80214 129.000
46.82209 134.000
46.84204 121.000
46.86199 140.000
46.88193 151.000
46.90188 126.000
46.92183 121.000
46.94177 121.000
46.96172 112.000
46.98167 132.000
47.00161 138.000
47.02156 137.000
47.04151 125.000
47.06146 122.000
47.08140 114.000
47.10135 148.000
47.12130 119.000
47.14124 115.000
47.16119 141.000
47.18114 118.000
47.20108 149.000
47.22103 134.000
47.24098 123.000
47.26092 118.000
47.28087 128.000
47.30082 133.000
47.32077 115.000
47.34071 124.000
47.36066 135.000
47.38061 144.000
47.40055 143.000
47.42050 110.000
47.44045 115.000
47.46039 132.000
47.48034 113.000
47.50029 147.000
47.52024 133.000
47.54018 119.000
47.56013 138.000
47.58008 158.000
47.60002 135.000
47.61997 147.000
47.63992 122.000
47.65986 140.000
47.67981 138.000
47.69976 137.000
47.71970 138.000
47.73965 166.000
47.75960 156.000
47.77955 156.000
47.79949 142.000
47.81944 164.000
47.83939 147.000
47.85933 153.000
47.87928 111.000
47.89923 141.000
47.91917 119.000
47.93912 139.000
47.95907 127.000
47.97902 111.000
47.99896 110.000
48.01891 143.000
48.03886 121.000
48.05880 146.000
48.07875 124.000
48.09870 135.000
48.11864 139.000
48.13859 128.000
48.15854 127.000
48.17848 139.000
48.19843 131.000
48.21838 147.000
48.23833 104.000
48.25827 145.000
48.27822 125.000
48.29817 117.000
48.31811 142.000
48.33806 111.000
48.35801 132.000
48.37795 118.000
48.39790 127.000
48.41785 114.000
48.43780 111.000
48.45774 98.000
48.47769 109.000
48.49764 117.000
48.51758 132.000
48.53753 117.000
48.55748 101.000
48.57742 127.000
48.59737 100.000
48.61732 104.000
48.63726 107.000
48.65721 109.000
48.67716 98.000
48.69711 120.000
48.71705 109.000
48.73700 127.000
48.75695 118.000
48.77689 113.000
48.79684 115.000
48.81679 113.000
48.83673 105.000
48.85668 115.000
48.87663 117.000
48.89658 93.000
48.91652 97.000
48.93647 101.000
48.95642 106.000
48.97636 113.000
48.99631 140.000
49.01626 104.000
49.03620 97.000
49.05615 102.000
49.07610 123.000
49.09605 102.000
49.11599 105.000
49.13594 95.000
49.15589 125.000
49.17583 112.000
49.19578 103.000
49.21573 118.000
49.23567 115.000
49.25562 106.000
49.27557 105.000
49.29551 117.000
49.31546 106.000
49.33541 125.000
49.35536 108.000
49.37530 109.000
49.39525 117.000
49.41520 110.000
49.43514 112.000
49.45509 104.000
49.47504 108.000
49.49498 111.000
49.51493 129.000
49.53488 100.000
49.55483 111.000
49.57477 110.000
49.59472 114.000
49.61467 116.000
49.63461 111.000
49.65456 113.000
49.67451 122.000
49.69445 101.000
49.71440 120.000
49.73435 103.000
49.75429 113.000
49.77424 130.000
49.79419 102.000
49.81414 113.000
49.83408 127.000
49.85403 95.000
49.87398 103.000
49.89392 121.000
49.91387 100.000
49.93382 108.000
49.95376 126.000
49.97371 127.000
49.99366 116.000
50.01361 99.000
50.03355 104.000
50.05350 92.000
50.07345 109.000
50.09339 104.000
50.11334 132.000
50.13329 120.000
50.15323 99.000
50.17318 114.000
50.19313 114.000
50.21307 86.000
50.23302 113.000
50.25297 100.000
50.27292 110.000
50.29286 104.000
50.31281 102.000
50.33276 99.000
50.35270 102.000
50.37265 105.000
50.39260 90.000
50.41254 119.000
50.43249 123.000
50.45244 108.000
50.47239 110.000
50.49233 89.000
50.51228 125.000
50.53223 108.000
50.55217 114.000
50.57212 119.000
50.59207 93.000
50.61201 121.000
50.63196 130.000
50.65191 108.000
50.67186 117.000
50.69180 106.000
50.71175 108.000
50.73170 115.000
50.75164 121.000
50.77159 126.000
50.79154 123.000
50.81148 113.000
50.83143 105.000
50.85138 138.000
50.87132 111.000
50.89127 97.000
50.91122 120.000
50.93117 118.000
50.95111 125.000
50.97106 131.000
50.99101 140.000
51.01095 106.000
51.03090 124.000
51.05085 121.000
51.07079 133.000
51.09074 121.000
51.11069 116.000
51.13064 126.000
51.15058 123.000
51.17053 117.000
51.19048 82.000
51.21042 119.000
51.23037 117.000
51.25032 118.000
51.27026 102.000
51.29021 110.000
51.31016 97.000
51.33010 118.000
51.35005 111.000
51.37000 100.000
51.38995 99.000
51.40989 115.000
51.42984 125.000
51.44979 121.000
51.46973 111.000
51.48968 92.000
51.50963 102.000
51.52957 100.000
51.54952 91.000
51.56947 94.000
51.58942 115.000
51.60936 100.000
51.62931 109.000
51.64926 105.000
51.66920 113.000
51.68915 114.000
51.70910 117.000
51.72904 97.000
51.74899 110.000
51.76894 111.000
51.78888 124.000
51.80883 107.000
51.82878 116.000
51.84873 117.000
51.86867 135.000
51.88862 128.000
51.90857 116.000
51.92851 112.000
51.94846 100.000
51.96841 133.000
51.98835 97.000
52.00830 118.000
52.02825 118.000
52.04820 122.000
52.06814 128.000
52.08809 113.000
52.10804 114.000
52.12798 113.000
52.14793 109.000
52.16788 122.000
52.18782 109.000
52.20777 102.000
52.22772 124.000
52.24767 134.000
52.26761 115.000
52.28756 129.000
52.30751 110.000
52.32745 127.000
52.34740 107.000
52.36735 112.000
52.38729 130.000
52.40724 118.000
52.42719 121.000
52.44713 117.000
52.46708 114.000
52.48703 113.000
52.50698 113.000
52.52692 112.000
52.54687 110.000
52.56682 101.000
52.58676 102.000
52.60671 110.000
52.62666 100.000
52.64660 115.000
52.66655 108.000
52.68650 109.000
52.70645 116.000
52.72639 111.000
52.74634 120.000
52.76629 100.000
52.78623 118.000
52.80618 103.000
52.82613 116.000
52.84607 119.000
52.86602 131.000
52.88597 110.000
52.90591 120.000
52.92586 117.000
52.94581 112.000
52.96576 111.000
52.98570 124.000
53.00565 115.000
53.02560 107.000
53.04554 118.000
53.06549 115.000
53.08544 121.000
53.10538 119.000
53.12533 110.000
53.14528 102.000
53.16523 118.000
53.18517 115.000
53.20512 116.000
53.22507 123.000
53.24501 121.000
53.26496 116.000
53.28491 110.000
53.30485 126.000
53.32480 124.000
53.34475 114.000
53.36469 118.000
53.38464 94.000
53.40459 109.000
53.42454 108.000
53.44448 137.000
53.46443 118.000
53.48438 135.000
53.50432 130.000
53.52427 121.000
53.54422 126.000
53.56416 139.000
53.58411 135.000
53.60406 147.000
53.62401 133.000
53.64395 139.000
53.66390 148.000
53.68385 149.000
53.70379 165.000
53.72374 159.000
53.74369 170.000
53.76363 167.000
53.78358 173.000
53.80353 150.000
53.82348 142.000
53.84342 159.000
53.86337 136.000
53.88332 144.000
53.90326 136.000
53.92321 125.000
53.94316 126.000
53.96310 122.000
53.98305 121.000
54.00300 125.000
54.02294 138.000
54.04289 116.000
54.06284 111.000
54.08279 117.000
54.10273 116.000
54.12268 107.000
54.14263 112.000
54.16257 132.000
54.18252 116.000
54.20247 105.000
54.22241 135.000
54.24236 116.000
54.26231 130.000
54.28226 134.000
54.30220 116.000
54.32215 110.000
54.34210 128.000
54.36204 124.000
54.38199 114.000
54.40194 131.000
54.42188 105.000
54.44183 151.000
54.46178 131.000
54.48172 115.000
54.50167 121.000
54.52162 105.000
54.54157 122.000
54.56151 138.000
54.58146 117.000
54.60141 137.000
54.62135 123.000
54.64130 125.000
54.66125 130.000
54.68119 120.000
54.70114 128.000
54.72109 131.000
54.74104 122.000
54.76098 133.000
54.78093 135.000
54.80088 139.000
54.82082 126.000
54.84077 136.000
54.86072 141.000
54.88066 117.000
54.90061 130.000
54.92056 113.000
54.94050 144.000
54.96045 151.000
54.98040 120.000
55.00035 146.000
55.02029 120.000
55.04024 128.000
55.06019 116.000
55.08013 133.000
55.10008 124.000
55.12003 122.000
55.13997 114.000
55.15992 104.000
55.17987 113.000
55.19982 106.000
55.21976 125.000
55.23971 94.000
55.25966 111.000
55.27960 121.000
55.29955 118.000
55.31950 112.000
55.33944 131.000
55.35939 110.000
55.37934 135.000
55.39929 124.000
55.41923 138.000
55.43918 107.000
55.45913 118.000
55.47907 111.000
55.49902 114.000
55.51897 111.000
55.53891 111.000
55.55886 124.000
55.57881 112.000
55.59875 122.000
55.61870 112.000
55.63865 109.000
55.65860 127.000
55.67854 108.000
55.69849 100.000
55.71844 135.000
55.73838 100.000
55.75833 110.000
55.77828 129.000
55.79822 115.000
55.81817 102.000
55.83812 122.000
55.85807 119.000
55.87801 127.000
55.89796 108.000
55.91791 111.000
55.93785 113.000
55.95780 114.000
55.97775 123.000
55.99769 99.000
56.01764 127.000
56.03759 133.000
56.05753 125.000
56.07748 115.000
56.09743 126.000
56.11738 124.000
56.13732 133.000
56.15727 107.000
56.17722 129.000
56.19716 97.000
56.21711 120.000
56.23706 116.000
56.25700 117.000
56.27695 110.000
56.29690 109.000
56.31685 140.000
56.33679 114.000
56.35674 114.000
56.37669 137.000
56.39663 121.000
56.41658 101.000
56.43653 122.000
56.45647 107.000
56.47642 129.000
56.49637 135.000
56.51631 107.000
56.53626 119.000
56.55621 109.000
56.57616 139.000
56.59610 105.000
56.61605 129.000
56.63600 94.000
56.65594 118.000
56.67589 102.000
56.69584 117.000
56.71578 123.000
56.73573 111.000
56.75568 120.000
56.77563 115.000
56.79557 137.000
56.81552 112.000
56.83547 124.000
56.85541 114.000
56.87536 114.000
56.89531 121.000
56.91525 129.000
56.93520 144.000
56.95515 126.000
56.97510 158.000
56.99504 133.000
57.01499 124.000
57.03494 137.000
57.05488 152.000
57.07483 153.000
57.09478 139.000
57.11472 167.000
57.13467 186.000
57.15462 166.000
57.17456 184.000
57.19451 209.000
57.21446 234.000
57.23441 238.000
57.25435 220.000
57.27430 231.000
57.29425 244.000
57.31419 243.000
57.33414 230.000
57.35409 210.000
57.37403 227.000
57.39398 214.000
57.41393 243.000
57.43388 236.000
57.45382 217.000
57.47377 207.000
57.49372 192.000
57.51366 206.000
57.53361 173.000
57.55356 184.000
57.57350 162.000
57.59345 174.000
57.61340 187.000
57.63334 176.000
57.65329 164.000
57.67324 161.000
57.69319 178.000
57.71313 169.000
57.73308 156.000
57.75303 176.000
57.77297 195.000
57.79292 170.000
57.81287 167.000
57.83281 160.000
57.85276 168.000
57.87271 169.000
57.89266 180.000
57.91260 180.000
57.93255 196.000
57.95250 161.000
57.97244 191.000
57.99239 166.000
58.01234 175.000
58.03228 183.000
58.05223 180.000
58.07218 178.000
58.09212 200.000
58.11207 168.000
58.13202 173.000
58.15197 161.000
58.17191 167.000
58.19186 160.000
58.21181 145.000
58.23175 167.000
58.25170 161.000
58.27165 183.000
58.29159 159.000
58.31154 172.000
58.33149 149.000
58.35144 150.000
58.37138 155.000
58.39133 162.000
58.41128 141.000
58.43122 162.000
58.45117 157.000
58.47112 152.000
58.49106 138.000
58.51101 123.000
58.53096 155.000
58.55090 161.000
58.57085 135.000
58.59080 140.000
58.61075 131.000
58.63069 120.000
58.65064 155.000
58.67059 155.000
58.69053 115.000
58.71048 169.000
58.73043 134.000
58.75037 139.000
58.77032 138.000
58.79027 135.000
58.81022 123.000
58.83016 135.000
58.85011 138.000
58.87006 151.000
58.89000 127.000
58.90995 148.000
58.92990 119.000
58.94984 102.000
58.96979 134.000
58.98974 144.000
59.00969 131.000
59.02963 129.000
59.04958 137.000
59.06953 120.000
59.08947 139.000
59.10942 129.000
59.12937 127.000
59.14931 153.000
59.16926 168.000
59.18921 142.000
59.20915 140.000
59.22910 134.000
59.24905 136.000
59.26900 138.000
59.28894 142.000
59.30889 145.000
59.32884 158.000
59.34878 167.000
59.36873 144.000
59.38868 152.000
59.40862 157.000
59.42857 165.000
59.44852 196.000
59.46847 156.000
59.48841 183.000
59.50836 168.000
59.52831 178.000
59.54825 204.000
59.56820 221.000
59.58815 224.000
59.60809 257.000
59.62804 272.000
59.64799 265.000
59.66793 248.000
59.68788 292.000
59.70783 282.000
59.72778 276.000
59.74772 296.000
59.76767 275.000
59.78762 300.000
59.80756 240.000
59.82751 277.000
59.84746 243.000
59.86740 233.000
59.88735 223.000
59.90730 231.000
59.92725 207.000
59.94719 199.000
59.96714 187.000
59.98709 195.000
60.00703 177.000
60.02698 148.000
60.04693 147.000
60.06687 173.000
60.08682 161.000
60.10677 153.000
60.12671 144.000
60.14666 144.000
60.16661 160.000
60.18656 133.000
60.20650 120.000
60.22645 146.000
60.24640 133.000
60.26634 157.000
60.28629 131.000
60.30624 156.000
60.32618 144.000
60.34613 137.000
60.36608 117.000
60.38603 141.000
60.40597 138.000
60.42592 135.000
60.44587 144.000
60.46581 144.000
60.48576 160.000
60.50571 127.000
60.52565 129.000
60.54560 148.000
60.56555 142.000
60.58550 136.000
60.60544 139.000
60.62539 129.000
60.64534 155.000
60.66528 130.000
60.68523 147.000
60.70518 133.000
60.72512 168.000
60.74507 140.000
60.76502 137.000
60.78496 133.000
60.80491 133.000
60.82486 111.000
60.84481 139.000
60.86475 141.000
60.88470 127.000
60.90465 150.000
60.92459 146.000
60.94454 145.000
60.96449 154.000
60.98443 138.000
61.00438 150.000
61.02433 141.000
61.04428 173.000
61.06422 153.000
61.08417 149.000
61.10412 154.000
61.12406 180.000
61.14401 184.000
61.16396 175.000
61.18390 165.000
61.20385 192.000
61.22380 178.000
61.24374 197.000
61.26369 181.000
61.28364 214.000
61.30359 177.000
61.32353 234.000
61.34348 215.000
61.36343 275.000
61.38337 284.000
61.40332 287.000
61.42327 341.000
61.44321 306.000
61.46316 352.000
61.48311 363.000
61.50306 384.000
61.52300 457.000
61.54295 461.000
61.56290 465.000
61.58284 486.000
61.60279 530.000
61.62274 532.000
61.64268 537.000
61.66263 515.000
61.68258 512.000
61.70252 461.000
61.72247 466.000
61.74242 427.000
61.76237 409.000
61.78231 409.000
61.80226 407.000
61.82221 359.000
61.84215 374.000
61.86210 320.000
61.88205 323.000
61.90199 288.000
61.92194 262.000
61.94189 202.000
61.96184 213.000
61.98178 184.000
62.00173 233.000
62.02168 232.000
62.04162 209.000
62.06157 219.000
62.08152 212.000
62.10146 211.000
62.12141 225.000
62.14136 177.000
62.16131 210.000
62.18125 195.000
62.20120 196.000
62.22115 189.000
62.24109 165.000
62.26104 205.000
62.28099 193.000
62.30093 180.000
62.32088 193.000
62.34083 191.000
62.36077 210.000
62.38072 189.000
62.40067 204.000
62.42062 180.000
62.44056 189.000
62.46051 197.000
62.48046 193.000
62.50040 242.000
62.52035 251.000
62.54030 232.000
62.56024 254.000
62.58019 255.000
62.60014 322.000
62.62009 317.000
62.64003 384.000
62.65998 366.000
62.67993 402.000
62.69987 434.000
62.71982 405.000
62.73977 392.000
62.75971 426.000
62.77966 459.000
62.79961 445.000
62.81955 423.000
62.83950 441.000
62.85945 418.000
62.87940 426.000
62.89934 445.000
62.91929 401.000
62.93924 423.000
62.95918 380.000
62.97913 363.000
62.99908 369.000
63.01902 329.000
63.03897 323.000
63.05892 270.000
63.07887 264.000
63.09881 274.000
63.11876 234.000
63.13871 203.000
63.15865 212.000
63.17860 192.000
63.19855 193.000
63.21849 176.000
63.23844 210.000
63.25839 171.000
63.27833 181.000
63.29828 152.000
63.31823 155.000
63.33818 144.000
63.35812 138.000
63.37807 149.000
63.39802 124.000
63.41796 127.000
63.43791 137.000
63.45786 157.000
63.47780 128.000
63.49775 135.000
63.51770 138.000
63.53765 129.000
63.55759 146.000
63.57754 132.000
63.59749 143.000
63.61743 145.000
63.63738 139.000
63.65733 143.000
63.67727 154.000
63.69722 120.000
63.71717 136.000
63.73712 137.000
63.75706 158.000
63.77701 163.000
63.79696 135.000
63.81690 153.000
63.83685 136.000
63.85680 128.000
63.87674 138.000
63.89669 145.000
63.91664 149.000
63.93658 127.000
63.95653 136.000
63.97648 120.000
63.99643 143.000
64.01637 134.000
64.03632 112.000
64.05627 117.000
64.07621 121.000
64.09616 144.000
64.11611 147.000
64.13605 129.000
64.15600 132.000
64.17595 129.000
64.19590 125.000
64.21584 118.000
64.23579 125.000
64.25574 140.000
64.27568 131.000
64.29563 139.000
64.31558 128.000
64.33552 103.000
64.35547 146.000
64.37542 139.000
64.39536 144.000
64.41531 136.000
64.43526 139.000
64.45521 146.000
64.47515 155.000
64.49510 150.000
64.51505 135.000
64.53499 134.000
64.55494 172.000
64.57489 146.000
64.59483 162.000
64.61478 152.000
64.63473 147.000
64.65468 162.000
64.67462 163.000
64.69457 173.000
64.71452 151.000
64.73446 166.000
64.75441 166.000
64.77436 195.000
64.79430 189.000
64.81425 171.000
64.83420 163.000
64.85414 185.000
64.87409 150.000
64.89404 169.000
64.91399 169.000
64.93393 172.000
64.95388 163.000
64.97383 167.000
64.99377 178.000
65.01372 150.000
65.03367 161.000
65.05361 176.000
65.07356 142.000
65.09351 159.000
65.11346 172.000
65.13340 159.000
65.15335 156.000
65.17330 158.000
65.19324 163.000
65.21319 151.000
65.23314 140.000
65.25308 132.000
65.27303 174.000
65.29298 150.000
65.31293 147.000
65.33287 145.000
65.35282 136.000
65.37277 159.000
65.39271 134.000
65.41266 154.000
65.43261 149.000
65.45255 139.000
65.47250 155.000
65.49245 146.000
65.51239 146.000
65.53234 141.000
65.55229 158.000
65.57224 153.000
65.59218 149.000
65.61213 130.000
65.63208 146.000
65.65202 124.000
65.67197 113.000
65.69192 121.000
65.71186 149.000
65.73181 116.000
65.75176 102.000
65.77171 127.000
65.79165 147.000
65.81160 124.000
65.83155 125.000
65.85149 116.000
65.87144 120.000
65.89139 131.000
65.91133 127.000
65.93128 119.000
65.95123 114.000
65.97117 123.000
65.99112 124.000
66.01107 131.000
66.03102 128.000
66.05096 98.000
66.07091 112.000
66.09086 125.000
66.11080 118.000
66.13075 87.000
66.15070 123.000
66.17064 112.000
66.19059 106.000
66.21054 109.000
66.23049 108.000
66.25043 127.000
66.27038 94.000
66.29033 122.000
66.31027 107.000
66.33022 123.000
66.35017 107.000
66.37011 110.000
66.39006 115.000
66.41001 130.000
66.42995 117.000
66.44990 119.000
66.46985 120.000
66.48980 105.000
66.50974 106.000
66.52969 123.000
66.54964 119.000
66.56958 123.000
66.58953 103.000
66.60948 118.000
66.62942 103.000
66.64937 134.000
66.66932 111.000
66.68927 120.000
66.70921 105.000
66.72916 116.000
66.74911 113.000
66.76905 107.000
66.78900 121.000
66.80895 88.000
66.82889 122.000
66.84884 107.000
66.86879 112.000
66.88874 101.000
66.90868 115.000
66.92863 114.000
66.94858 100.000
66.96852 116.000
66.98847 90.000
67.00842 114.000
67.02836 96.000
67.04831 96.000
67.06826 111.000
67.08820 106.000
67.10815 109.000
67.12810 122.000
67.14805 127.000
67.16799 106.000
67.18794 113.000
67.20789 131.000
67.22783 120.000
67.24778 106.000
67.26773 115.000
67.28767 106.000
67.30762 111.000
67.32757 98.000
67.34752 107.000
67.36746 129.000
67.38741 123.000
67.40736 114.000
67.42730 116.000
67.44725 118.000
67.46720 111.000
67.48714 120.000
67.50709 109.000
67.52704 114.000
67.54698 108.000
67.56693 117.000
67.58688 106.000
67.60683 121.000
67.62677 103.000
67.64672 125.000
67.66667 91.000
67.68661 103.000
67.70656 118.000
67.72651 106.000
67.74645 103.000
67.76640 109.000
67.78635 121.000
67.80630 106.000
67.82624 115.000
67.84619 113.000
67.86614 131.000
67.88608 96.000
67.90603 100.000
67.92598 117.000
67.94592 94.000
67.96587 129.000
67.98582 117.000
68.00576 129.000
68.02571 111.000
68.04566 120.000
68.06561 102.000
68.08555 107.000
68.10550 114.000
68.12545 118.000
68.14539 120.000
68.16534 118.000
68.18529 123.000
68.20523 137.000
68.22518 108.000
68.24513 98.000
68.26508 116.000
68.28502 110.000
68.30497 111.000
68.32492 109.000
68.34486 115.000
68.36481 128.000
68.38476 122.000
68.40470 105.000
68.42465 113.000
68.44460 105.000
68.46455 116.000
68.48449 115.000
68.50444 116.000
68.52439 110.000
68.54433 99.000
68.56428 112.000
68.58423 112.000
68.60417 107.000
68.62412 95.000
68.64407 100.000
68.66401 127.000
68.68396 103.000
68.70391 106.000
68.72386 111.000
68.74380 111.000
68.76375 102.000
68.78370 126.000
68.80364 116.000
68.82359 106.000
68.84354 132.000
68.86348 98.000
68.88343 107.000
68.90338 115.000
68.92333 117.000
68.94327 115.000
68.96322 105.000
68.98317 113.000
69.00311 123.000
69.02306 102.000
69.04301 87.000
69.06295 119.000
69.08290 126.000
69.10285 118.000
69.12279 88.000
69.14274 95.000
69.16269 104.000
69.18264 111.000
69.20258 112.000
69.22253 108.000
69.24248 106.000
69.26242 120.000
69.28237 103.000
69.30232 99.000
69.32226 117.000
69.34221 96.000
69.36216 90.000
69.38211 124.000
69.40205 119.000
69.42200 138.000
69.44195 118.000
69.46189 111.000
69.48184 111.000
69.50179 114.000
69.52173 111.000
69.54168 139.000
69.56163 126.000
69.58157 129.000
69.60152 136.000
69.62147 110.000
69.64142 108.000
69.66136 137.000
69.68131 137.000
69.70126 117.000
69.72120 106.000
69.74115 125.000
69.76110 131.000
69.78104 118.000
69.80099 126.000
69.82094 116.000
69.84089 146.000
69.86083 121.000
69.88078 144.000
69.90073 118.000
69.92067 144.000
69.94062 136.000
69.96057 128.000
69.98051 117.000
70.00046 149.000
70.02041 131.000
70.04035 120.000
70.06030 121.000
70.08025 119.000
70.10020 124.000
70.12014 133.000
70.14009 117.000
70.16004 141.000
70.17998 110.000
70.19993 109.000
70.21988 116.000
70.23982 108.000
70.25977 115.000
70.27972 129.000
70.29967 143.000
70.31961 113.000
70.33956 120.000
70.35951 122.000
70.37945 111.000
70.39940 110.000
70.41935 108.000
70.43929 116.000
70.45924 101.000
70.47919 111.000
70.49914 114.000
70.51908 100.000
70.53903 127.000
70.55898 104.000
70.57892 111.000
70.59887 109.000
70.61882 106.000
70.63876 120.000
70.65871 118.000
70.67866 120.000
70.69860 130.000
70.71855 102.000
70.73850 103.000
70.75845 114.000
70.77839 120.000
70.79834 105.000
70.81829 118.000
70.83823 119.000
70.85818 111.000
70.87813 113.000
70.89807 125.000
70.91802 124.000
70.93797 133.000
70.95792 137.000
70.97786 134.000
70.99781 132.000
71.01776 148.000
71.03770 152.000
71.05765 150.000
71.07760 145.000
71.09754 164.000
71.11749 150.000
71.13744 146.000
71.15738 150.000
71.17733 159.000
71.19728 151.000
71.21723 160.000
71.23717 144.000
71.25712 144.000
71.27707 133.000
71.29701 135.000
71.31696 147.000
71.33691 161.000
71.35685 132.000
71.37680 148.000
71.39675 142.000
71.41670 154.000
71.43664 137.000
71.45659 123.000
71.47654 137.000
71.49648 129.000
71.51643 128.000
71.53638 135.000
71.55632 137.000
71.57627 148.000
71.59622 142.000
71.61616 125.000
71.63611 150.000
71.65606 125.000
71.67601 115.000
71.69595 115.000
71.71590 107.000
71.73585 137.000
71.75579 101.000
71.77574 127.000
71.79569 145.000
71.81563 113.000
71.83558 132.000
71.85553 131.000
71.87548 112.000
71.89542 120.000
71.91537 110.000
71.93532 131.000
71.95526 123.000
71.97521 101.000
71.99516 125.000
72.01510 127.000
72.03505 113.000
72.05500 117.000
72.07495 122.000
72.09489 124.000
72.11484 121.000
72.13479 113.000
72.15473 117.000
72.17468 130.000
72.19463 106.000
72.21457 139.000
72.23452 135.000
72.25447 138.000
72.27441 113.000
72.29436 135.000
72.31431 122.000
72.33426 135.000
72.35420 128.000
72.37415 138.000
72.39410 118.000
72.41404 104.000
72.43399 138.000
72.45394 127.000
72.47388 144.000
72.49383 110.000
72.51378 140.000
72.53373 147.000
72.55367 131.000
72.57362 142.000
72.59357 160.000
72.61351 146.000
72.63346 179.000
72.65341 146.000
72.67335 153.000
72.69330 138.000
72.71325 163.000
72.73319 173.000
72.75314 168.000
72.77309 178.000
72.79304 156.000
72.81298 157.000
72.83293 185.000
72.85288 172.000
72.87282 194.000
72.89277 203.000
72.91272 214.000
72.93266 212.000
72.95261 185.000
72.97256 192.000
72.99251 200.000
73.01245 211.000
73.03240 202.000
73.05235 180.000
73.07229 170.000
73.09224 168.000
73.11219 160.000
73.13213 192.000
73.15208 158.000
73.17203 165.000
73.19197 168.000
73.21192 158.000
73.23187 156.000
73.25182 154.000
73.27176 154.000
73.29171 147.000
73.31166 116.000
73.33160 125.000
73.35155 150.000
73.37150 166.000
73.39144 143.000
73.41139 155.000
73.43134 119.000
73.45129 148.000
73.47123 134.000
73.49118 117.000
73.51113 150.000
73.53107 136.000
73.55102 144.000
73.57097 129.000
73.59091 120.000
73.61086 136.000
73.63081 140.000
73.65076 136.000
73.67070 154.000
73.69065 137.000
73.71060 142.000
73.73054 153.000
73.75049 173.000
73.77044 168.000
73.79038 158.000
73.81033 164.000
73.83028 157.000
73.85022 178.000
73.87017 178.000
73.89012 158.000
73.91007 167.000
73.93001 142.000
73.94996 149.000
73.96991 172.000
73.98985 139.000
74.00980 142.000
74.02975 146.000
74.04969 171.000
74.06964 156.000
74.08959 133.000
74.10954 152.000
74.12948 143.000
74.14943 150.000
74.16938 176.000
74.18932 145.000
74.20927 142.000
74.22922 147.000
74.24916 134.000
74.26911 144.000
74.28906 157.000
74.30900 156.000
74.32895 171.000
74.34890 154.000
74.36885 152.000
74.38879 145.000
74.40874 139.000
74.42869 161.000
74.44863 163.000
74.46858 166.000
74.48853 168.000
74.50847 175.000
74.52842 174.000
74.54837 160.000
74.56832 145.000
74.58826 154.000
74.60821 148.000
74.62816 145.000
74.64810 142.000
74.66805 163.000
74.68800 121.000
74.70794 152.000
74.72789 116.000
74.74784 146.000
74.76778 133.000
74.78773 146.000
74.80768 135.000
74.82763 127.000
74.84757 139.000
74.86752 146.000
74.88747 115.000
74.90741 134.000
74.92736 139.000
74.94731 152.000
74.96725 131.000
74.98720 136.000
75.00715 149.000
75.02710 131.000
75.04704 131.000
75.06699 128.000
75.08694 157.000
75.10688 158.000
75.12683 158.000
75.14678 166.000
75.16672 172.000
75.18667 186.000
75.20662 176.000
75.22657 155.000
75.24651 178.000
75.26646 196.000
75.28641 188.000
75.30635 190.000
75.32630 177.000
75.34625 199.000
75.36619 149.000
75.38614 179.000
75.40609 166.000
75.42603 138.000
75.44598 181.000
75.46593 158.000
75.48588 170.000
75.50582 158.000
75.52577 168.000
75.54572 147.000
75.56566 127.000
75.58561 150.000
75.60556 137.000
75.62550 133.000
75.64545 145.000
75.66540 106.000
75.68535 143.000
75.70529 114.000
75.72524 114.000
75.74519 137.000
75.76513 119.000
75.78508 115.000
75.80503 121.000
75.82497 108.000
75.84492 130.000
75.86487 122.000
75.88481 120.000
75.90476 120.000
75.92471 102.000
75.94466 119.000
75.96460 115.000
75.98455 112.000
76.00450 114.000
76.02444 105.000
76.04439 118.000
76.06434 116.000
76.08428 118.000
76.10423 117.000
76.12418 103.000
76.14413 116.000
76.16407 108.000
76.18402 123.000
76.20397 112.000
76.22391 123.000
76.24386 88.000
76.26381 115.000
76.28375 131.000
76.30370 111.000
76.32365 106.000
76.34359 110.000
76.36354 107.000
76.38349 119.000
76.40344 124.000
76.42338 104.000
76.44333 117.000
76.46328 101.000
76.48322 90.000
76.50317 108.000
76.52312 126.000
76.54306 117.000
76.56301 124.000
76.58296 132.000
76.60291 120.000
76.62285 122.000
76.64280 131.000
76.66275 139.000
76.68269 122.000
76.70264 144.000
76.72259 140.000
76.74253 133.000
76.76248 157.000
76.78243 132.000
76.80238 147.000
76.82232 141.000
76.84227 137.000
76.86222 186.000
76.88216 138.000
76.90211 128.000
76.92206 160.000
76.94200 120.000
76.96195 149.000
76.98190 154.000
77.00184 164.000
77.02179 155.000
77.04174 140.000
77.06169 147.000
77.08163 151.000
77.10158 166.000
77.12153 161.000
77.14147 148.000
77.16142 167.000
77.18137 153.000
77.20131 157.000
77.22126 159.000
77.24121 197.000
77.26116 175.000
77.28110 170.000
77.30105 174.000
77.32100 210.000
77.34094 189.000
77.36089 209.000
77.38084 186.000
77.40078 194.000
77.42073 194.000
77.44068 161.000
77.46062 188.000
77.48057 166.000
77.50052 177.000
77.52047 161.000
77.54041 171.000
77.56036 169.000
77.58031 129.000
77.60025 161.000
77.62020 117.000
77.64015 131.000
77.66009 163.000
77.68004 150.000
77.69999 128.000
77.71994 143.000
77.73988 123.000
77.75983 128.000
77.77978 124.000
77.79972 91.000
77.81967 116.000
77.83962 103.000
77.85956 131.000
77.87951 115.000
77.89946 111.000
77.91940 116.000
77.93935 121.000
77.95930 112.000
77.97925 108.000
77.99919 109.000
78.01914 106.000
78.03909 106.000
78.05903 96.000
78.07898 110.000
78.09893 105.000
78.11887 120.000
78.13882 100.000
78.15877 121.000
78.17872 125.000
78.19866 95.000
78.21861 90.000
78.23856 100.000
78.25850 91.000
78.27845 99.000
78.29840 100.000
78.31834 108.000
78.33829 111.000
78.35824 93.000
78.37819 97.000
78.39813 103.000
78.41808 90.000
78.43803 110.000
78.45797 76.000
78.47792 98.000
78.49787 99.000
78.51781 103.000
78.53776 105.000
78.55771 115.000
78.57765 121.000
78.59760 100.000
78.61755 126.000
78.63750 91.000
78.65744 86.000
78.67739 110.000
78.69734 108.000
78.71728 96.000
78.73723 116.000
78.75718 120.000
78.77712 104.000
78.79707 103.000
78.81702 122.000
78.83697 116.000
78.85691 135.000
78.87686 115.000
78.89681 118.000
78.91675 103.000
78.93670 112.000
78.95665 123.000
78.97659 143.000
78.99654 121.000
79.01649 137.000
79.03643 136.000
79.05638 131.000
79.07633 125.000
79.09628 147.000
79.11622 156.000
79.13617 146.000
79.15612 163.000
79.17606 163.000
79.19601 141.000
79.21596 155.000
79.23590 151.000
79.25585 173.000
79.27580 160.000
79.29575 161.000
79.31569 170.000
79.33564 162.000
79.35559 165.000
79.37553 166.000
79.39548 156.000
79.41543 170.000
79.43537 155.000
79.45532 165.000
79.47527 144.000
79.49521 146.000
79.51516 148.000
79.53511 144.000
79.55506 177.000
79.57500 121.000
79.59495 128.000
79.61490 136.000
79.63484 131.000
79.65479 134.000
79.67474 151.000
79.69468 127.000
79.71463 142.000
79.73458 140.000
79.75453 134.000
79.77447 120.000
79.79442 146.000
79.81437 135.000
79.83431 135.000
79.85426 118.000
79.87421 125.000
79.89415 117.000
79.91410 133.000
79.93405 130.000
79.95399 135.000
79.97394 114.000
79.99389 131.000
80.01384 126.000
80.03378 114.000
80.05373 116.000
80.07368 122.000
80.09362 142.000
80.11357 138.000
80.13352 128.000
80.15346 134.000
80.17341 110.000
80.19336 138.000
80.21331 120.000
80.23325 112.000
80.25320 120.000
80.27315 116.000
80.29309 132.000
80.31304 152.000
80.33299 131.000
80.35293 128.000
80.37288 108.000
80.39283 133.000
80.41278 108.000
80.43272 146.000
80.45267 133.000
80.47262 126.000
80.49256 106.000
80.51251 146.000
80.53246 113.000
80.55240 117.000
80.57235 105.000
80.59230 120.000
80.61224 121.000
80.63219 124.000
80.65214 122.000
80.67209 112.000
80.69203 109.000
80.71198 96.000
80.73193 117.000
80.75187 136.000
80.77182 118.000
80.79177 117.000
80.81171 98.000
80.83166 116.000
80.85161 98.000
80.87156 114.000
80.89150 104.000
80.91145 98.000
80.93140 96.000
80.95134 118.000
80.97129 106.000
80.99124 103.000
81.01118 98.000
81.03113 106.000
81.05108 99.000
81.07102 78.000
81.09097 93.000
81.11092 111.000
81.13087 121.000
81.15081 92.000
81.17076 98.000
81.19071 118.000
81.21065 108.000
81.23060 102.000
81.25055 99.000
81.27049 93.000
81.29044 126.000
81.31039 118.000
81.33034 101.000
81.35028 98.000
81.37023 126.000
81.39018 95.000
81.41012 93.000
81.43007 116.000
81.45002 100.000
81.46996 91.000
81.48991 108.000
81.50986 112.000
81.52980 111.000
81.54975 130.000
81.56970 104.000
81.58965 104.000
81.60959 97.000
81.62954 120.000
81.64949 106.000
81.66943 96.000
81.68938 94.000
81.70933 104.000
81.72927 100.000
81.74922 94.000
81.76917 93.000
81.78912 114.000
81.80906 117.000
81.82901 108.000
81.84896 91.000
81.86890 97.000
81.88885 102.000
81.90880 99.000
81.92874 94.000
81.94869 108.000
81.96864 109.000
81.98859 96.000
82.00853 107.000
82.02848 89.000
82.04843 118.000
82.06837 83.000
82.08832 97.000
82.10827 98.000
82.12821 104.000
82.14816 95.000
82.16811 108.000
82.18805 109.000
82.20800 86.000
82.22795 103.000
82.24790 97.000
82.26784 91.000
82.28779 118.000
82.30774 110.000
82.32768 102.000
82.34763 98.000
82.36758 89.000
82.38752 94.000
82.40747 107.000
82.42742 116.000
82.44737 94.000
82.46731 105.000
82.48726 93.000
82.50721 90.000
82.52715 96.000
82.54710 87.000
82.56705 101.000
82.58699 98.000
82.60694 105.000
82.62689 107.000
82.64683 100.000
82.66678 94.000
82.68673 122.000
82.70668 87.000
82.72662 111.000
82.74657 98.000
82.76652 87.000
82.78646 104.000
82.80641 97.000
82.82636 83.000
82.84630 100.000
82.86625 116.000
82.88620 92.000
82.90615 97.000
82.92609 108.000
82.94604 117.000
82.96599 107.000
82.98593 100.000
83.00588 88.000
83.02583 112.000
83.04577 109.000
83.06572 108.000
83.08567 113.000
83.10561 104.000
83.12556 94.000
83.14551 113.000
83.16546 100.000
83.18540 105.000
83.20535 99.000
83.22530 97.000
83.24524 86.000
83.26519 107.000
83.28514 103.000
83.30508 99.000
83.32503 90.000
83.34498 91.000
83.36493 98.000
83.38487 87.000
83.40482 108.000
83.42477 87.000
83.44471 101.000
83.46466 92.000
83.48461 114.000
83.50455 82.000
83.52450 132.000
83.54445 98.000
83.56440 100.000
83.58434 107.000
83.60429 98.000
83.62424 107.000
83.64418 109.000
83.66413 119.000
83.68408 106.000
83.70402 98.000
83.72397 90.000
83.74392 84.000
83.76386 102.000
83.78381 93.000
83.80376 99.000
83.82371 103.000
83.84365 91.000
83.86360 104.000
83.88355 105.000
83.90349 83.000
83.92344 97.000
83.94339 102.000
83.96333 92.000
83.98328 97.000
84.00323 74.000
84.02318 102.000
84.04312 101.000
84.06307 112.000
84.08302 125.000
84.10296 105.000
84.12291 111.000
84.14286 98.000
84.16280 104.000
84.18275 94.000
84.20270 111.000
84.22264 131.000
84.24259 88.000
84.26254 103.000
84.28249 108.000
84.30243 100.000
84.32238 105.000
84.34233 98.000
84.36227 107.000
84.38222 82.000
84.40217 107.000
84.42211 112.000
84.44206 106.000
84.46201 95.000
84.48196 106.000
84.50190 94.000
84.52185 102.000
84.54180 85.000
84.56174 106.000
84.58169 117.000
84.60164 99.000
84.62158 100.000
84.64153 104.000
84.66148 112.000
84.68142 107.000
84.70137 104.000
84.72132 104.000
84.74127 117.000
84.76121 126.000
84.78116 102.000
84.80111 90.000
84.82105 95.000
84.84100 105.000
84.86095 115.000
84.88089 92.000
84.90084 102.000
84.92079 101.000
84.94074 91.000
84.96068 100.000
84.98063 104.000
85.00058 113.000
85.02052 116.000
85.04047 118.000
85.06042 99.000
85.08036 110.000
85.10031 88.000
85.12026 101.000
85.14021 104.000
85.16015 98.000
85.18010 110.000
85.20005 97.000
85.21999 102.000
85.23994 112.000
85.25989 103.000
85.27983 119.000
85.29978 89.000
85.31973 112.000
85.33967 99.000
85.35962 106.000
85.37957 96.000
85.39952 94.000
85.41946 93.000
85.43941 103.000
85.45936 87.000
85.47930 110.000
85.49925 103.000
85.51920 100.000
85.53914 84.000
85.55909 101.000
85.57904 84.000
85.59899 94.000
85.61893 97.000
85.63888 100.000
85.65883 100.000
85.67877 104.000
85.69872 103.000
85.71867 85.000
85.73861 103.000
85.75856 114.000
85.77851 98.000
85.79845 116.000
85.81840 77.000
85.83835 90.000
85.85830 101.000
85.87824 102.000
85.89819 99.000
85.91814 98.000
85.93808 103.000
85.95803 103.000
85.97798 90.000
85.99792 103.000
86.01787 98.000
86.03782 98.000
86.05777 120.000
86.07771 100.000
86.09766 100.000
86.11761 96.000
86.13755 88.000
86.15750 112.000
86.17745 114.000
86.19739 82.000
86.21734 97.000
86.23729 90.000
86.25723 94.000
86.27718 98.000
86.29713 102.000
86.31708 109.000
86.33702 114.000
86.35697 89.000
86.37692 107.000
86.39686 86.000
86.41681 97.000
86.43676 92.000
86.45670 114.000
86.47665 102.000
86.49660 111.000
86.51655 103.000
86.53649 114.000
86.55644 104.000
86.57639 104.000
86.59633 105.000
86.61628 116.000
86.63623 80.000
86.65617 100.000
86.67612 93.000
86.69607 110.000
86.71602 104.000
86.73596 97.000
86.75591 103.000
86.77586 115.000
86.79580 109.000
86.81575 104.000
86.83570 123.000
86.85564 112.000
86.87559 121.000
86.89554 106.000
86.91548 106.000
86.93543 100.000
86.95538 113.000
86.97533 109.000
86.99527 100.000
87.01522 106.000
87.03517 114.000
87.05511 116.000
87.07506 98.000
87.09501 94.000
87.11495 111.000
87.13490 98.000
87.15485 120.000
87.17480 107.000
87.19474 96.000
87.21469 122.000
87.23464 116.000
87.25458 110.000
87.27453 123.000
87.29448 104.000
87.31442 105.000
87.33437 107.000
87.35432 90.000
87.37426 103.000
87.39421 86.000
87.41416 122.000
87.43411 108.000
87.45405 110.000
87.47400 122.000
87.49395 111.000
87.51389 110.000
87.53384 113.000
87.55379 120.000
87.57373 104.000
87.59368 111.000
87.61363 98.000
87.63358 116.000
87.65352 98.000
87.67347 110.000
87.69342 113.000
87.71336 121.000
87.73331 98.000
87.75326 109.000
87.77320 120.000
87.79315 107.000
87.81310 108.000
87.83304 102.000
87.85299 92.000
87.87294 90.000
87.89289 113.000
87.91283 107.000
87.93278 114.000
87.95273 115.000
87.97267 105.000
87.99262 111.000
88.01257 111.000
88.03251 96.000
88.05246 79.000
88.07241 100.000
88.09236 108.000
88.11230 92.000
88.13225 100.000
88.15220 121.000
88.17214 93.000
88.19209 116.000
88.21204 100.000
88.23198 100.000
88.25193 91.000
88.27188 109.000
88.29183 101.000
88.31177 94.000
88.33172 99.000
88.35167 92.000
88.37161 96.000
88.39156 95.000
88.41151 95.000
88.43145 97.000
88.45140 120.000
88.47135 96.000
88.49129 104.000
88.51124 98.000
88.53119 101.000
88.55114 118.000
88.57108 114.000
88.59103 94.000
88.61098 111.000
88.63092 106.000
88.65087 111.000
88.67082 104.000
88.69076 106.000
88.71071 111.000
88.73066 101.000
88.75061 86.000
88.77055 103.000
88.79050 92.000
88.81045 104.000
88.83039 102.000
88.85034 91.000
88.87029 99.000
88.89023 115.000
88.91018 112.000
88.93013 95.000
88.95007 111.000
88.97002 90.000
88.98997 102.000
89.00992 97.000
89.02986 106.000
89.04981 116.000
89.06976 100.000
89.08970 116.000
89.10965 108.000
89.12960 118.000
89.14954 105.000
89.16949 119.000
89.18944 109.000
89.20939 110.000
89.22933 105.000
89.24928 114.000
89.26923 102.000
89.28917 107.000
89.30912 113.000
89.32907 117.000
89.34901 104.000
89.36896 107.000
89.38891 94.000
89.40885 116.000
89.42880 114.000
89.44875 99.000
89.46870 96.000
89.48864 96.000
89.50859 117.000
89.52854 108.000
89.54848 92.000
89.56843 114.000
89.58838 129.000
89.60832 145.000
89.62827 129.000
89.64822 111.000
89.66817 123.000
89.68811 92.000
89.70806 110.000
89.72801 106.000
89.74795 131.000
89.76790 126.000
89.78785 109.000
89.80779 125.000
89.82774 129.000
89.84769 114.000
89.86764 95.000
89.88758 145.000
89.90753 101.000
89.92748 112.000
89.94742 108.000
89.96737 110.000
89.98732 117.000
90.00726 119.000
