10.00000 370.000
10.01995 355.000
10.03989 397.000
10.05984 381.000
10.07979 374.000
10.09973 380.000
10.11968 380.000
10.13963 371.000
10.15958 394.000
10.17952 370.000
10.19947 345.000
10.21942 348.000
10.23936 392.000
10.25931 390.000
10.27926 350.000
10.29920 425.000
10.31915 412.000
10.33910 410.000
10.35905 374.000
10.37899 400.000
10.39894 420.000
10.41889 370.000
10.43883 372.000
10.45878 385.000
10.47873 385.000
10.49867 372.000
10.51862 434.000
10.53857 376.000
10.55851 390.000
10.57846 431.000
10.59841 424.000
10.61836 374.000
10.63830 428.000
10.65825 386.000
10.67820 396.000
10.69814 407.000
10.71809 375.000
10.73804 380.000
10.75798 348.000
10.77793 407.000
10.79788 398.000
10.81783 382.000
10.83777 354.000
10.85772 383.000
10.87767 388.000
10.89761 363.000
10.91756 393.000
10.93751 383.000
10.95745 378.000
10.97740 382.000
10.99735 378.000
11.01730 402.000
11.03724 363.000
11.05719 384.000
11.07714 406.000
11.09708 384.000
11.11703 402.000
11.13698 413.000
11.15692 391.000
11.17687 390.000
11.19682 401.000
11.21676 380.000
11.23671 377.000
11.25666 376.000
11.27661 362.000
11.29655 432.000
11.31650 401.000
11.33645 364.000
11.35639 399.000
11.37634 366.000
11.39629 412.000
11.41623 394.000
11.43618 377.000
11.45613 400.000
11.47608 362.000
11.49602 404.000
11.51597 389.000
11.53592 417.000
11.55586 417.000
11.57581 447.000
11.59576 385.000
11.61570 418.000
11.63565 400.000
11.65560 413.000
11.67554 424.000
11.69549 409.000
11.71544 394.000
11.73539 370.000
11.75533 395.000
11.77528 411.000
11.79523 412.000
11.81517 369.000
11.83512 415.000
11.85507 372.000
11.87501 419.000
11.89496 402.000
11.91491 402.000
11.93486 430.000
11.95480 404.000
11.97475 445.000
11.99470 402.000
12.01464 373.000
12.03459 400.000
12.05454 386.000
12.07448 369.000
12.09443 418.000
12.11438 419.000
12.13432 421.000
12.15427 394.000
12.17422 368.000
12.19417 408.000
12.21411 432.000
12.23406 417.000
12.25401 418.000
12.27395 427.000
12.29390 413.000
12.31385 433.000
12.33379 417.000
12.35374 377.000
12.37369 412.000
12.39364 422.000
12.41358 383.000
12.43353 404.000
12.45348 420.000
12.47342 443.000
12.49337 442.000
12.51332 417.000
12.53326 458.000
12.55321 418.000
12.57316 384.000
12.59311 408.000
12.61305 401.000
12.63300 455.000
12.65295 416.000
12.67289 411.000
12.69284 428.000
12.71279 428.000
12.73273 416.000
12.75268 422.000
12.77263 413.000
12.79257 414.000
12.81252 409.000
12.83247 435.000
12.85242 411.000
12.87236 428.000
12.89231 414.000
12.91226 416.000
12.93220 396.000
12.95215 419.000
12.97210 434.000
12.99204 436.000
13.01199 364.000
13.03194 456.000
13.05189 418.000
13.07183 437.000
13.09178 403.000
13.11173 424.000
13.13167 382.000
13.15162 399.000
13.17157 419.000
13.19151 426.000
13.21146 399.000
13.23141 402.000
13.25135 412.000
13.27130 403.000
13.29125 413.000
13.31120 418.000
13.33114 478.000
13.35109 413.000
13.37104 430.000
13.39098 402.000
13.41093 441.000
13.43088 439.000
13.45082 442.000
13.47077 390.000
13.49072 448.000
13.51067 417.000
13.53061 388.000
13.55056 421.000
13.57051 420.000
13.59045 447.000
13.61040 410.000
13.63035 424.000
13.65029 406.000
13.67024 452.000
13.69019 393.000
13.71013 447.000
13.73008 450.000
13.75003 416.000
13.76998 437.000
13.78992 441.000
13.80987 429.000
13.82982 436.000
13.84976 403.000
13.86971 380.000
13.88966 407.000
13.90960 379.000
13.92955 427.000
13.94950 448.000
13.96945 410.000
13.98939 425.000
14.00934 412.000
14.02929 430.000
14.04923 412.000
14.06918 401.000
14.08913 438.000
14.10907 457.000
14.12902 430.000
14.14897 423.000
14.16892 447.000
14.18886 406.000
14.20881 389.000
14.22876 409.000
14.24870 410.000
14.26865 431.000
14.28860 430.000
14.30854 435.000
14.32849 413.000
14.34844 420.000
14.36838 424.000
14.38833 409.000
14.40828 407.000
14.42823 439.000
14.44817 442.000
14.46812 420.000
14.48807 410.000
14.50801 403.000
14.52796 431.000
14.54791 394.000
14.56785 421.000
14.58780 392.000
14.60775 420.000
14.62770 458.000
14.64764 385.000
14.66759 446.000
14.68754 445.000
14.70748 404.000
14.72743 424.000
14.74738 422.000
14.76732 425.000
14.78727 434.000
14.80722 411.000
14.82716 411.000
14.84711 426.000
14.86706 451.000
14.88701 420.000
14.90695 431.000
14.92690 423.000
14.94685 411.000
14.96679 447.000
14.98674 453.000
15.00669 416.000
15.02663 413.000
15.04658 416.000
15.06653 456.000
15.08648 372.000
15.10642 434.000
15.12637 440.000
15.14632 459.000
15.16626 408.000
15.18621 440.000
15.20616 383.000
15.22610 417.000
15.24605 405.000
15.26600 429.000
15.28594 470.000
15.30589 435.000
15.32584 437.000
15.34579 423.000
15.36573 429.000
15.38568 455.000
15.40563 461.000
15.42557 433.000
15.44552 453.000
15.46547 441.000
15.48541 406.000
15.50536 402.000
15.52531 439.000
15.54526 406.000
15.56520 460.000
15.58515 429.000
15.60510 410.000
15.62504 462.000
15.64499 459.000
15.66494 420.000
15.68488 460.000
15.70483 435.000
15.72478 464.000
15.74472 481.000
15.76467 480.000
15.78462 519.000
15.80457 516.000
15.82451 490.000
15.84446 465.000
15.86441 496.000
15.88435 449.000
15.90430 378.000
15.92425 449.000
15.94419 408.000
15.96414 453.000
15.98409 488.000
16.00404 433.000
16.02398 480.000
16.04393 446.000
16.06388 423.000
16.08382 427.000
16.10377 395.000
16.12372 408.000
16.14366 470.000
16.16361 462.000
16.18356 440.000
16.20351 441.000
16.22345 451.000
16.24340 416.000
16.26335 439.000
16.28329 420.000
16.30324 424.000
16.32319 430.000
16.34313 463.000
16.36308 467.000
16.38303 448.000
16.40297 458.000
16.42292 446.000
16.44287 421.000
16.46282 447.000
16.48276 455.000
16.50271 476.000
16.52266 460.000
16.54260 413.000
16.56255 467.000
16.58250 424.000
16.60244 462.000
16.62239 458.000
16.64234 440.000
16.66229 456.000
16.68223 464.000
16.70218 442.000
16.72213 405.000
16.74207 431.000
16.76202 436.000
16.78197 411.000
16.80191 444.000
16.82186 432.000
16.84181 468.000
16.86175 486.000
16.88170 446.000
16.90165 486.000
16.92160 433.000
16.94154 402.000
16.96149 457.000
16.98144 439.000
17.00138 434.000
17.02133 417.000
17.04128 492.000
17.06122 420.000
17.08117 443.000
17.10112 431.000
17.12107 464.000
17.14101 450.000
17.16096 407.000
17.18091 444.000
17.20085 405.000
17.22080 485.000
17.24075 424.000
17.26069 456.000
17.28064 457.000
17.30059 487.000
17.32053 423.000
17.34048 460.000
17.36043 420.000
17.38038 478.000
17.40032 447.000
17.42027 428.000
17.44022 455.000
17.46016 436.000
17.48011 425.000
17.50006 448.000
17.52000 390.000
17.53995 449.000
17.55990 452.000
17.57985 445.000
17.59979 441.000
17.61974 493.000
17.63969 438.000
17.65963 424.000
17.67958 433.000
17.69953 484.000
17.71947 430.000
17.73942 454.000
17.75937 457.000
17.77932 476.000
17.79926 453.000
17.81921 448.000
17.83916 478.000
17.85910 401.000
17.87905 432.000
17.89900 454.000
17.91894 449.000
17.93889 431.000
17.95884 425.000
17.97878 451.000
17.99873 427.000
18.01868 468.000
18.03863 455.000
18.05857 442.000
18.07852 481.000
18.09847 415.000
18.11841 470.000
18.13836 420.000
18.15831 486.000
18.17825 426.000
18.19820 449.000
18.21815 484.000
18.23810 470.000
18.25804 474.000
18.27799 491.000
18.29794 521.000
18.31788 544.000
18.33783 589.000
18.35778 672.000
18.37772 683.000
18.39767 595.000
18.41762 575.000
18.43756 500.000
18.45751 443.000
18.47746 480.000
18.49741 467.000
18.51735 505.000
18.53730 486.000
18.55725 466.000
18.57719 470.000
18.59714 464.000
18.61709 454.000
18.63703 486.000
18.65698 467.000
18.67693 448.000
18.69688 446.000
18.71682 477.000
18.73677 446.000
18.75672 514.000
18.77666 474.000
18.79661 437.000
18.81656 442.000
18.83650 444.000
18.85645 466.000
18.87640 466.000
18.89634 475.000
18.91629 459.000
18.93624 447.000
18.95619 455.000
18.97613 462.000
18.99608 448.000
19.01603 450.000
19.03597 457.000
19.05592 427.000
19.07587 449.000
19.09581 465.000
19.11576 501.000
19.13571 429.000
19.15566 457.000
19.17560 444.000
19.19555 457.000
19.21550 458.000
19.23544 461.000
19.25539 466.000
19.27534 461.000
19.29528 472.000
19.31523 430.000
19.33518 476.000
19.35513 471.000
19.37507 449.000
19.39502 467.000
19.41497 455.000
19.43491 453.000
19.45486 432.000
19.47481 443.000
19.49475 458.000
19.51470 440.000
19.53465 507.000
19.55459 479.000
19.57454 458.000
19.59449 429.000
19.61444 462.000
19.63438 462.000
19.65433 438.000
19.67428 487.000
19.69422 478.000
19.71417 449.000
19.73412 465.000
19.75406 486.000
19.77401 443.000
19.79396 465.000
19.81391 497.000
19.83385 499.000
19.85380 432.000
19.87375 457.000
19.89369 474.000
19.91364 478.000
19.93359 484.000
19.95353 470.000
19.97348 476.000
19.99343 500.000
20.01337 453.000
20.03332 456.000
20.05327 482.000
20.07322 508.000
20.09316 454.000
20.11311 421.000
20.13306 440.000
20.15300 445.000
20.17295 469.000
20.19290 458.000
20.21284 456.000
20.23279 466.000
20.25274 467.000
20.27269 460.000
20.29263 456.000
20.31258 496.000
20.33253 488.000
20.35247 467.000
20.37242 467.000
20.39237 467.000
20.41231 458.000
20.43226 491.000
20.45221 479.000
20.47215 475.000
20.49210 461.000
20.51205 469.000
20.53200 448.000
20.55194 457.000
20.57189 478.000
20.59184 466.000
20.61178 480.000
20.63173 470.000
20.65168 476.000
20.67162 492.000
20.69157 463.000
20.71152 507.000
20.73147 456.000
20.75141 500.000
20.77136 496.000
20.79131 536.000
20.81125 498.000
20.83120 573.000
20.85115 533.000
20.87109 555.000
20.89104 608.000
20.91099 660.000
20.93094 748.000
20.95088 860.000
20.97083 930.000
20.99078 1044.000
21.01072 956.000
21.03067 987.000
21.05062 897.000
21.07056 891.000
21.09051 787.000
21.11046 687.000
21.13040 611.000
21.15035 589.000
21.17030 542.000
21.19025 561.000
21.21019 518.000
21.23014 521.000
21.25009 463.000
21.27003 521.000
21.28998 483.000
21.30993 464.000
21.32987 475.000
21.34982 493.000
21.36977 471.000
21.38972 446.000
21.40966 485.000
21.42961 460.000
21.44956 490.000
21.46950 487.000
21.48945 504.000
21.50940 481.000
21.52934 451.000
21.54929 461.000
21.56924 484.000
21.58918 499.000
21.60913 501.000
21.62908 467.000
21.64903 541.000
21.66897 473.000
21.68892 496.000
21.70887 481.000
21.72881 507.000
21.74876 556.000
21.76871 495.000
21.78865 466.000
21.80860 497.000
21.82855 486.000
21.84850 447.000
21.86844 428.000
21.88839 516.000
21.90834 514.000
21.92828 492.000
21.94823 475.000
21.96818 475.000
21.98812 500.000
22.00807 448.000
22.02802 486.000
22.04796 478.000
22.06791 461.000
22.08786 486.000
22.10781 473.000
22.12775 485.000
22.14770 482.000
22.16765 462.000
22.18759 469.000
22.20754 505.000
22.22749 477.000
22.24743 518.000
22.26738 466.000
22.28733 459.000
22.30728 466.000
22.32722 519.000
22.34717 489.000
22.36712 483.000
22.38706 477.000
22.40701 507.000
22.42696 488.000
22.44690 478.000
22.46685 493.000
22.48680 507.000
22.50675 498.000
22.52669 520.000
22.54664 470.000
22.56659 503.000
22.58653 482.000
22.60648 462.000
22.62643 521.000
22.64637 470.000
22.66632 489.000
22.68627 479.000
22.70621 485.000
22.72616 515.000
22.74611 458.000
22.76606 500.000
22.78600 490.000
22.80595 496.000
22.82590 485.000
22.84584 570.000
22.86579 508.000
22.88574 526.000
22.90568 474.000
22.92563 477.000
22.94558 474.000
22.96553 479.000
22.98547 444.000
23.00542 517.000
23.02537 500.000
23.04531 492.000
23.06526 476.000
23.08521 500.000
23.10515 489.000
23.12510 476.000
23.14505 483.000
23.16499 459.000
23.18494 488.000
23.20489 495.000
23.22484 467.000
23.24478 515.000
23.26473 515.000
23.28468 474.000
23.30462 502.000
23.32457 503.000
23.34452 479.000
23.36446 494.000
23.38441 453.000
23.40436 497.000
23.42431 475.000
23.44425 501.000
23.46420 513.000
23.48415 483.000
23.50409 487.000
23.52404 496.000
23.54399 455.000
23.56393 458.000
23.58388 500.000
23.60383 498.000
23.62377 486.000
23.64372 500.000
23.66367 463.000
23.68362 540.000
23.70356 415.000
23.72351 497.000
23.74346 491.000
23.76340 474.000
23.78335 470.000
23.80330 502.000
23.82324 497.000
23.84319 458.000
23.86314 492.000
23.88309 470.000
23.90303 478.000
23.92298 513.000
23.94293 470.000
23.96287 468.000
23.98282 463.000
24.00277 485.000
24.02271 538.000
24.04266 485.000
24.06261 485.000
24.08256 489.000
24.10250 510.000
24.12245 504.000
24.14240 499.000
24.16234 526.000
24.18229 505.000
24.20224 510.000
24.22218 503.000
24.24213 496.000
24.26208 530.000
24.28202 497.000
24.30197 518.000
24.32192 493.000
24.34187 482.000
24.36181 523.000
24.38176 532.000
24.40171 538.000
24.42165 519.000
24.44160 519.000
24.46155 485.000
24.48149 486.000
24.50144 512.000
24.52139 537.000
24.54134 510.000
24.56128 493.000
24.58123 488.000
24.60118 525.000
24.62112 493.000
24.64107 506.000
24.66102 525.000
24.68096 515.000
24.70091 548.000
24.72086 509.000
24.74080 501.000
24.76075 481.000
24.78070 529.000
24.80065 527.000
24.82059 519.000
24.84054 527.000
24.86049 500.000
24.88043 530.000
24.90038 514.000
24.92033 466.000
24.94027 496.000
24.96022 504.000
24.98017 509.000
25.00012 474.000
25.02006 500.000
25.04001 500.000
25.05996 516.000
25.07990 511.000
25.09985 545.000
25.11980 529.000
25.13974 521.000
25.15969 549.000
25.17964 539.000
25.19958 524.000
25.21953 483.000
25.23948 508.000
25.25943 483.000
25.27937 542.000
25.29932 480.000
25.31927 497.000
25.33921 513.000
25.35916 555.000
25.37911 514.000
25.39905 491.000
25.41900 518.000
25.43895 479.000
25.45890 509.000
25.47884 495.000
25.49879 539.000
25.51874 480.000
25.53868 544.000
25.55863 509.000
25.57858 503.000
25.59852 534.000
25.61847 533.000
25.63842 505.000
25.65837 486.000
25.67831 528.000
25.69826 517.000
25.71821 518.000
25.73815 514.000
25.75810 531.000
25.77805 507.000
25.79799 532.000
25.81794 541.000
25.83789 536.000
25.85783 527.000
25.87778 518.000
25.89773 548.000
25.91768 519.000
25.93762 503.000
25.95757 530.000
25.97752 552.000
25.99746 551.000
26.01741 489.000
26.03736 509.000
26.05730 566.000
26.07725 567.000
26.09720 501.000
26.11715 542.000
26.13709 535.000
26.15704 545.000
26.17699 549.000
26.19693 538.000
26.21688 523.000
26.23683 519.000
26.25677 573.000
26.27672 539.000
26.29667 589.000
26.31661 565.000
26.33656 562.000
26.35651 555.000
26.37646 530.000
26.39640 518.000
26.41635 528.000
26.43630 531.000
26.45624 530.000
26.47619 522.000
26.49614 528.000
26.51608 554.000
26.53603 538.000
26.55598 563.000
26.57593 583.000
26.59587 564.000
26.61582 562.000
26.63577 544.000
26.65571 564.000
26.67566 536.000
26.69561 544.000
26.71555 543.000
26.73550 575.000
26.75545 547.000
26.77539 533.000
26.79534 547.000
26.81529 576.000
26.83524 561.000
26.85518 536.000
26.87513 535.000
26.89508 557.000
26.91502 565.000
26.93497 509.000
26.95492 511.000
26.97486 530.000
26.99481 569.000
27.01476 554.000
27.03471 504.000
27.05465 547.000
27.07460 537.000
27.09455 553.000
27.11449 560.000
27.13444 547.000
27.15439 564.000
27.17433 570.000
27.19428 595.000
27.21423 515.000
27.23417 534.000
27.25412 539.000
27.27407 542.000
27.29402 578.000
27.31396 556.000
27.33391 549.000
27.35386 559.000
27.37380 562.000
27.39375 542.000
27.41370 600.000
27.43364 558.000
27.45359 518.000
27.47354 542.000
27.49349 512.000
27.51343 570.000
27.53338 575.000
27.55333 563.000
27.57327 559.000
27.59322 548.000
27.61317 525.000
27.63311 563.000
27.65306 559.000
27.67301 578.000
27.69296 573.000
27.71290 519.000
27.73285 578.000
27.75280 578.000
27.77274 558.000
27.79269 510.000
27.81264 581.000
27.83258 530.000
27.85253 591.000
27.87248 542.000
27.89242 557.000
27.91237 536.000
27.93232 582.000
27.95227 602.000
27.97221 558.000
27.99216 557.000
28.01211 595.000
28.03205 567.000
28.05200 569.000
28.07195 566.000
28.09189 570.000
28.11184 537.000
28.13179 522.000
28.15174 569.000
28.17168 540.000
28.19163 555.000
28.21158 529.000
28.23152 630.000
28.25147 553.000
28.27142 553.000
28.29136 537.000
28.31131 547.000
28.33126 532.000
28.35120 548.000
28.37115 559.000
28.39110 595.000
28.41105 556.000
28.43099 591.000
28.45094 562.000
28.47089 562.000
28.49083 579.000
28.51078 595.000
28.53073 628.000
28.55067 607.000
28.57062 616.000
28.59057 595.000
28.61052 525.000
28.63046 540.000
28.65041 602.000
28.67036 566.000
28.69030 582.000
28.71025 573.000
28.73020 580.000
28.75014 586.000
28.77009 549.000
28.79004 567.000
28.80998 573.000
28.82993 562.000
28.84988 606.000
28.86983 597.000
28.88977 558.000
28.90972 549.000
28.92967 549.000
28.94961 557.000
28.96956 569.000
28.98951 553.000
29.00945 592.000
29.02940 553.000
29.04935 575.000
29.06930 552.000
29.08924 604.000
29.10919 538.000
29.12914 580.000
29.14908 563.000
29.16903 601.000
29.18898 595.000
29.20892 570.000
29.22887 571.000
29.24882 577.000
29.26877 573.000
29.28871 596.000
29.30866 599.000
29.32861 539.000
29.34855 570.000
29.36850 537.000
29.38845 563.000
29.40839 587.000
29.42834 602.000
29.44829 600.000
29.46823 591.000
29.48818 559.000
29.50813 601.000
29.52808 616.000
29.54802 567.000
29.56797 554.000
29.58792 618.000
29.60786 633.000
29.62781 609.000
29.64776 588.000
29.66770 590.000
29.68765 614.000
29.70760 595.000
29.72755 590.000
29.74749 570.000
29.76744 590.000
29.78739 530.000
29.80733 567.000
29.82728 591.000
29.84723 619.000
29.86717 617.000
29.88712 574.000
29.90707 562.000
29.92701 590.000
29.94696 601.000
29.96691 604.000
29.98686 589.000
30.00680 600.000
30.02675 622.000
30.04670 608.000
30.06664 604.000
30.08659 618.000
30.10654 653.000
30.12648 640.000
30.14643 664.000
30.16638 663.000
30.18633 782.000
30.20627 833.000
30.22622 989.000
30.24617 1103.000
30.26611 1044.000
30.28606 899.000
30.30601 858.000
30.32595 871.000
30.34590 786.000
30.36585 734.000
30.38579 648.000
30.40574 659.000
30.42569 625.000
30.44564 565.000
30.46558 589.000
30.48553 627.000
30.50548 630.000
30.52542 612.000
30.54537 578.000
30.56532 602.000
30.58526 617.000
30.60521 585.000
30.62516 593.000
30.64511 583.000
30.66505 581.000
30.68500 624.000
30.70495 618.000
30.72489 626.000
30.74484 639.000
30.76479 534.000
30.78473 607.000
30.80468 542.000
30.82463 584.000
30.84458 583.000
30.86452 603.000
30.88447 578.000
30.90442 582.000
30.92436 608.000
30.94431 636.000
30.96426 608.000
30.98420 617.000
31.00415 582.000
31.02410 582.000
31.04404 620.000
31.06399 568.000
31.08394 586.000
31.10389 583.000
31.12383 588.000
31.14378 598.000
31.16373 570.000
31.18367 631.000
31.20362 632.000
31.22357 622.000
31.24351 585.000
31.26346 677.000
31.28341 617.000
31.30336 639.000
31.32330 606.000
31.34325 602.000
31.36320 580.000
31.38314 592.000
31.40309 652.000
31.42304 655.000
31.44298 563.000
31.46293 549.000
31.48288 617.000
31.50282 600.000
31.52277 591.000
31.54272 571.000
31.56267 541.000
31.58261 585.000
31.60256 593.000
31.62251 585.000
31.64245 587.000
31.66240 507.000
31.68235 592.000
31.70229 566.000
31.72224 578.000
31.74219 580.000
31.76214 618.000
31.78208 585.000
31.80203 609.000
31.82198 608.000
31.84192 634.000
31.86187 582.000
31.88182 614.000
31.90176 598.000
31.92171 586.000
31.94166 588.000
31.96160 612.000
31.98155 607.000
32.00150 599.000
32.02145 617.000
32.04139 652.000
32.06134 610.000
32.08129 612.000
32.10123 610.000
32.12118 529.000
32.14113 601.000
32.16107 616.000
32.18102 641.000
32.20097 614.000
32.22092 654.000
32.24086 657.000
32.26081 694.000
32.28076 645.000
32.30070 721.000
32.32065 705.000
32.34060 737.000
32.36054 784.000
32.38049 891.000
32.40044 947.000
32.42039 995.000
32.44033 1029.000
32.46028 988.000
32.48023 855.000
32.50017 835.000
32.52012 832.000
32.54007 748.000
32.56001 696.000
32.57996 702.000
32.59991 636.000
32.61985 607.000
32.63980 616.000
32.65975 603.000
32.67970 591.000
32.69964 589.000
32.71959 593.000
32.73954 626.000
32.75948 590.000
32.77943 590.000
32.79938 622.000
32.81932 544.000
32.83927 611.000
32.85922 592.000
32.87917 565.000
32.89911 595.000
32.91906 575.000
32.93901 605.000
32.95895 560.000
32.97890 567.000
32.99885 582.000
33.01879 582.000
33.03874 568.000
33.05869 565.000
33.07863 595.000
33.09858 562.000
33.11853 581.000
33.13848 600.000
33.15842 577.000
33.17837 565.000
33.19832 606.000
33.21826 622.000
33.23821 597.000
33.25816 625.000
33.27810 624.000
33.29805 587.000
33.31800 561.000
33.33795 571.000
33.35789 557.000
33.37784 587.000
33.39779 602.000
33.41773 585.000
33.43768 578.000
33.45763 553.000
33.47757 599.000
33.49752 539.000
33.51747 610.000
33.53741 574.000
33.55736 627.000
33.57731 573.000
33.59726 635.000
33.61720 641.000
33.63715 566.000
33.65710 559.000
33.67704 592.000
33.69699 556.000
33.71694 589.000
33.73688 525.000
33.75683 580.000
33.77678 571.000
33.79673 587.000
33.81667 555.000
33.83662 594.000
33.85657 599.000
33.87651 596.000
33.89646 589.000
33.91641 579.000
33.93635 613.000
33.95630 545.000
33.97625 561.000
33.99620 578.000
34.01614 594.000
34.03609 574.000
34.05604 587.000
34.07598 603.000
34.09593 590.000
34.11588 627.000
34.13582 601.000
34.15577 577.000
34.17572 635.000
34.19566 597.000
34.21561 627.000
34.23556 632.000
34.25551 597.000
34.27545 586.000
34.29540 644.000
34.31535 623.000
34.33529 574.000
34.35524 606.000
34.37519 604.000
34.39513 629.000
34.41508 694.000
34.43503 671.000
34.45498 755.000
34.47492 771.000
34.49487 819.000
34.51482 928.000
34.53476 916.000
34.55471 914.000
34.57466 918.000
34.59460 958.000
34.61455 939.000
34.63450 988.000
34.65444 987.000
34.67439 884.000
34.69434 912.000
34.71429 905.000
34.73423 871.000
34.75418 816.000
34.77413 825.000
34.79407 806.000
34.81402 814.000
34.83397 797.000
34.85391 766.000
34.87386 773.000
34.89381 787.000
34.91376 764.000
34.93370 785.000
34.95365 761.000
34.97360 732.000
34.99354 769.000
35.01349 723.000
35.03344 796.000
35.05338 772.000
35.07333 830.000
35.09328 842.000
35.11322 858.000
35.13317 880.000
35.15312 939.000
35.17307 967.000
35.19301 1001.000
35.21296 1039.000
35.23291 1074.000
35.25285 1163.000
35.27280 1265.000
35.29275 1499.000
35.31269 1790.000
35.33264 2152.000
35.35259 2566.000
35.37254 2958.000
35.39248 3357.000
35.41243 3443.000
35.43238 3682.000
35.45232 4337.000
35.47227 4971.000
35.49222 5320.000
35.51216 4955.000
35.53211 4387.000
35.55206 4035.000
35.57201 3785.000
35.59195 3852.000
35.61190 3759.000
35.63185 3482.000
35.65179 2962.000
35.67174 2328.000
35.69169 1920.000
35.71163 1759.000
35.73158 1701.000
35.75153 1490.000
35.77147 1162.000
35.79142 980.000
35.81137 841.000
35.83132 823.000
35.85126 727.000
35.87121 712.000
35.89116 722.000
35.91110 683.000
35.93105 668.000
35.95100 671.000
35.97094 643.000
35.99089 651.000
36.01084 643.000
36.03079 635.000
36.05073 614.000
36.07068 608.000
36.09063 641.000
36.11057 571.000
36.13052 646.000
36.15047 661.000
36.17041 597.000
36.19036 617.000
36.21031 608.000
36.23025 672.000
36.25020 634.000
36.27015 652.000
36.29010 600.000
36.31004 661.000
36.32999 603.000
36.34994 616.000
36.36988 624.000
36.38983 616.000
36.40978 594.000
36.42972 640.000
36.44967 615.000
36.46962 653.000
36.48957 597.000
36.50951 592.000
36.52946 604.000
36.54941 630.000
36.56935 567.000
36.58930 598.000
36.60925 626.000
36.62919 629.000
36.64914 625.000
36.66909 622.000
36.68903 641.000
36.70898 607.000
36.72893 612.000
36.74888 663.000
36.76882 612.000
36.78877 649.000
36.80872 599.000
36.82866 621.000
36.84861 634.000
36.86856 665.000
36.88850 639.000
36.90845 675.000
36.92840 669.000
36.94835 680.000
36.96829 775.000
36.98824 792.000
37.00819 878.000
37.02813 1004.000
37.04808 1024.000
37.06803 1194.000
37.08797 1332.000
37.10792 1391.000
37.12787 1354.000
37.14781 1255.000
37.16776 1178.000
37.18771 1085.000
37.20766 953.000
37.22760 974.000
37.24755 915.000
37.26750 824.000
37.28744 758.000
37.30739 714.000
37.32734 716.000
37.34728 701.000
37.36723 628.000
37.38718 633.000
37.40713 644.000
37.42707 595.000
37.44702 606.000
37.46697 620.000
37.48691 597.000
37.50686 609.000
37.52681 587.000
37.54675 588.000
37.56670 624.000
37.58665 598.000
37.60660 627.000
37.62654 633.000
37.64649 597.000
37.66644 598.000
37.68638 609.000
37.70633 571.000
37.72628 646.000
37.74622 636.000
37.76617 607.000
37.78612 641.000
37.80606 628.000
37.82601 665.000
37.84596 695.000
37.86591 702.000
37.88585 659.000
37.90580 700.000
37.92575 651.000
37.94569 704.000
37.96564 703.000
37.98559 639.000
38.00553 713.000
38.02548 705.000
38.04543 742.000
38.06538 755.000
38.08532 732.000
38.10527 741.000
38.12522 787.000
38.14516 798.000
38.16511 757.000
38.18506 880.000
38.20500 856.000
38.22495 866.000
38.24490 918.000
38.26484 894.000
38.28479 900.000
38.30474 1013.000
38.32469 983.000
38.34463 1060.000
38.36458 1113.000
38.38453 1140.000
38.40447 1235.000
38.42442 1365.000
38.44437 1591.000
38.46431 1770.000
38.48426 1947.000
38.50421 2289.000
38.52416 2724.000
38.54410 3351.000
38.56405 3967.000
38.58400 4424.000
38.60394 4631.000
38.62389 4310.000
38.64384 4215.000
38.66378 3883.000
38.68373 3451.000
38.70368 3211.000
38.72362 2801.000
38.74357 2372.000
38.76352 1935.000
38.78347 1730.000
38.80341 1372.000
38.82336 1286.000
38.84331 1102.000
38.86325 1130.000
38.88320 1158.000
38.90315 1209.000
38.92309 1338.000
38.94304 1367.000
38.96299 1503.000
38.98294 1498.000
39.00288 1519.000
39.02283 1481.000
39.04278 1422.000
39.06272 1349.000
39.08267 1242.000
39.10262 1135.000
39.12256 1047.000
39.14251 932.000
39.16246 851.000
39.18241 775.000
39.20235 740.000
39.22230 713.000
39.24225 674.000
39.26219 665.000
39.28214 689.000
39.30209 688.000
39.32203 637.000
39.34198 653.000
39.36193 656.000
39.38187 612.000
39.40182 609.000
39.42177 637.000
39.44172 592.000
39.46166 671.000
39.48161 614.000
39.50156 640.000
39.52150 593.000
39.54145 601.000
39.56140 566.000
39.58134 628.000
39.60129 586.000
39.62124 580.000
39.64119 571.000
39.66113 571.000
39.68108 575.000
39.70103 582.000
39.72097 585.000
39.74092 566.000
39.76087 608.000
39.78081 583.000
39.80076 546.000
39.82071 583.000
39.84065 561.000
39.86060 557.000
39.88055 551.000
39.90050 565.000
39.92044 584.000
39.94039 551.000
39.96034 544.000
39.98028 579.000
40.00023 563.000
40.02018 576.000
40.04012 533.000
40.06007 557.000
40.08002 548.000
40.09997 582.000
40.11991 534.000
40.13986 531.000
40.15981 597.000
40.17975 590.000
40.19970 597.000
40.21965 548.000
40.23959 532.000
40.25954 525.000
40.27949 596.000
40.29943 568.000
40.31938 551.000
40.33933 535.000
40.35928 551.000
40.37922 556.000
40.39917 540.000
40.41912 584.000
40.43906 535.000
40.45901 548.000
40.47896 569.000
40.49890 515.000
40.51885 562.000
40.53880 550.000
40.55875 548.000
40.57869 564.000
40.59864 560.000
40.61859 561.000
40.63853 603.000
40.65848 572.000
40.67843 532.000
40.69837 536.000
40.71832 568.000
40.73827 571.000
40.75822 572.000
40.77816 584.000
40.79811 557.000
40.81806 540.000
40.83800 562.000
40.85795 547.000
40.87790 558.000
40.89784 604.000
40.91779 590.000
40.93774 582.000
40.95768 532.000
40.97763 516.000
40.99758 536.000
41.01753 593.000
41.03747 573.000
41.05742 564.000
41.07737 531.000
41.09731 554.000
41.11726 545.000
41.13721 544.000
41.15715 582.000
41.17710 614.000
41.19705 540.000
41.21700 555.000
41.23694 525.000
41.25689 576.000
41.27684 557.000
41.29678 550.000
41.31673 520.000
41.33668 546.000
41.35662 550.000
41.37657 548.000
41.39652 509.000
41.41646 569.000
41.43641 519.000
41.45636 543.000
41.47631 511.000
41.49625 563.000
41.51620 580.000
41.53615 586.000
41.55609 533.000
41.57604 541.000
41.59599 538.000
41.61593 573.000
41.63588 538.000
41.65583 555.000
41.67578 527.000
41.69572 505.000
41.71567 537.000
41.73562 525.000
41.75556 534.000
41.77551 569.000
41.79546 509.000
41.81540 573.000
41.83535 577.000
41.85530 526.000
41.87524 545.000
41.89519 548.000
41.91514 548.000
41.93509 565.000
41.95503 531.000
41.97498 531.000
41.99493 523.000
42.01487 506.000
42.03482 533.000
42.05477 536.000
42.07471 535.000
42.09466 531.000
42.11461 527.000
42.13456 574.000
42.15450 538.000
42.17445 520.000
42.19440 586.000
42.21434 572.000
42.23429 561.000
42.25424 610.000
42.27418 555.000
42.29413 555.000
42.31408 584.000
42.33403 580.000
42.35397 566.000
42.37392 560.000
42.39387 554.000
42.41381 564.000
42.43376 542.000
42.45371 591.000
42.47365 601.000
42.49360 588.000
42.51355 562.000
42.53349 564.000
42.55344 619.000
42.57339 568.000
42.59334 585.000
42.61328 593.000
42.63323 604.000
42.65318 575.000
42.67312 593.000
42.69307 650.000
42.71302 663.000
42.73296 625.000
42.75291 614.000
42.77286 691.000
42.79281 715.000
42.81275 634.000
42.83270 692.000
42.85265 736.000
42.87259 751.000
42.89254 747.000
42.91249 713.000
42.93243 829.000
42.95238 839.000
42.97233 884.000
42.99227 970.000
43.01222 1021.000
43.03217 1110.000
43.05212 1256.000
43.07206 1296.000
43.09201 1385.000
43.11196 1435.000
43.13190 1445.000
43.15185 1483.000
43.17180 1534.000
43.19174 1372.000
43.21169 1361.000
43.23164 1316.000
43.25159 1247.000
43.27153 1173.000
43.29148 1221.000
43.31143 1225.000
43.33137 1088.000
43.35132 1019.000
43.37127 915.000
43.39121 825.000
43.41116 787.000
43.43111 800.000
43.45105 783.000
43.47100 736.000
43.49095 623.000
43.51090 617.000
43.53084 589.000
43.55079 548.000
43.57074 601.000
43.59068 571.000
43.61063 550.000
43.63058 539.000
43.65052 551.000
43.67047 553.000
43.69042 542.000
43.71037 546.000
43.73031 590.000
43.75026 603.000
43.77021 577.000
43.79015 532.000
43.81010 514.000
43.83005 581.000
43.84999 571.000
43.86994 575.000
43.88989 521.000
43.90984 540.000
43.92978 579.000
43.94973 552.000
43.96968 527.000
43.98962 530.000
44.00957 509.000
44.02952 519.000
44.04946 566.000
44.06941 498.000
44.08936 521.000
44.10930 505.000
44.12925 520.000
44.14920 533.000
44.16915 524.000
44.18909 598.000
44.20904 543.000
44.22899 562.000
44.24893 547.000
44.26888 504.000
44.28883 514.000
44.30877 518.000
44.32872 579.000
44.34867 498.000
44.36862 521.000
44.38856 568.000
44.40851 528.000
44.42846 529.000
44.44840 497.000
44.46835 531.000
44.48830 558.000
44.50824 540.000
44.52819 572.000
44.54814 578.000
44.56808 502.000
44.58803 518.000
44.60798 532.000
44.62793 543.000
44.64787 517.000
44.66782 530.000
44.68777 580.000
44.70771 566.000
44.72766 525.000
44.74761 549.000
44.76755 553.000
44.78750 561.000
44.80745 548.000
44.82740 553.000
44.84734 518.000
44.86729 538.000
44.88724 556.000
44.90718 570.000
44.92713 561.000
44.94708 547.000
44.96702 508.000
44.98697 551.000
45.00692 489.000
45.02686 538.000
45.04681 534.000
45.06676 527.000
45.08671 518.000
45.10665 492.000
45.12660 502.000
45.14655 501.000
45.16649 507.000
45.18644 511.000
45.20639 522.000
45.22633 532.000
45.24628 491.000
45.26623 532.000
45.28618 516.000
45.30612 546.000
45.32607 510.000
45.34602 580.000
45.36596 551.000
45.38591 533.000
45.40586 530.000
45.42580 525.000
45.44575 534.000
45.46570 513.000
45.48565 512.000
45.50559 591.000
45.52554 470.000
45.54549 524.000
45.56543 516.000
45.58538 511.000
45.60533 549.000
45.62527 538.000
45.64522 489.000
45.66517 567.000
45.68511 536.000
45.70506 513.000
45.72501 523.000
45.74496 521.000
45.76490 536.000
45.78485 531.000
45.80480 527.000
45.82474 535.000
45.84469 583.000
45.86464 540.000
45.88458 563.000
45.90453 550.000
45.92448 526.000
45.94443 547.000
45.96437 494.000
45.98432 550.000
46.00427 530.000
46.02421 568.000
46.04416 526.000
46.06411 553.000
46.08405 528.000
46.10400 565.000
46.12395 529.000
46.14389 577.000
46.16384 586.000
46.18379 618.000
46.20374 602.000
46.22368 598.000
46.24363 600.000
46.26358 592.000
46.28352 605.000
46.30347 637.000
46.32342 538.000
46.34336 565.000
46.36331 575.000
46.38326 569.000
46.40321 575.000
46.42315 571.000
46.44310 539.000
46.46305 535.000
46.48299 477.000
46.50294 539.000
46.52289 568.000
46.54283 511.000
46.56278 528.000
46.58273 514.000
46.60267 528.000
46.62262 564.000
46.64257 523.000
46.66252 535.000
46.68246 534.000
46.70241 536.000
46.72236 559.000
46.74230 521.000
46.76225 504.000
46.78220 520.000
46.80214 528.000
46.82209 538.000
46.84204 505.000
46.86199 545.000
46.88193 571.000
46.90188 517.000
46.92183 522.000
46.94177 494.000
46.96172 543.000
46.98167 524.000
47.00161 550.000
47.02156 504.000
47.04151 535.000
47.06146 550.000
47.08140 560.000
47.10135 531.000
47.12130 521.000
47.14124 510.000
47.16119 547.000
47.18114 513.000
47.20108 535.000
47.22103 513.000
47.24098 531.000
47.26092 534.000
47.28087 538.000
47.30082 523.000
47.32077 559.000
47.34071 557.000
47.36066 508.000
47.38061 527.000
47.40055 538.000
47.42050 538.000
47.44045 537.000
47.46039 525.000
47.48034 549.000
47.50029 548.000
47.52024 555.000
47.54018 529.000
47.56013 558.000
47.58008 509.000
47.60002 580.000
47.61997 527.000
47.63992 511.000
47.65986 495.000
47.67981 512.000
47.69976 506.000
47.71970 537.000
47.73965 514.000
47.75960 483.000
47.77955 509.000
47.79949 550.000
47.81944 511.000
47.83939 523.000
47.85933 520.000
47.87928 552.000
47.89923 538.000
47.91917 500.000
47.93912 546.000
47.95907 525.000
47.97902 537.000
47.99896 552.000
48.01891 545.000
48.03886 547.000
48.05880 508.000
48.07875 542.000
48.09870 570.000
48.11864 535.000
48.13859 558.000
48.15854 527.000
48.17848 485.000
48.19843 553.000
48.21838 513.000
48.23833 576.000
48.25827 573.000
48.27822 545.000
48.29817 587.000
48.31811 567.000
48.33806 545.000
48.35801 543.000
48.37795 595.000
48.39790 598.000
48.41785 579.000
48.43780 580.000
48.45774 575.000
48.47769 620.000
48.49764 634.000
48.51758 581.000
48.53753 600.000
48.55748 638.000
48.57742 604.000
48.59737 646.000
48.61732 668.000
48.63726 652.000
48.65721 669.000
48.67716 676.000
48.69711 699.000
48.71705 750.000
48.73700 792.000
48.75695 914.000
48.77689 972.000
48.79684 1128.000
48.81679 1171.000
48.83673 1247.000
48.85668 1328.000
48.87663 1422.000
48.89658 1448.000
48.91652 1385.000
48.93647 1358.000
48.95642 1207.000
48.97636 1163.000
48.99631 1126.000
49.01626 1139.000
49.03620 1029.000
49.05615 1036.000
49.07610 900.000
49.09605 812.000
49.11599 766.000
49.13594 720.000
49.15589 706.000
49.17583 695.000
49.19578 606.000
49.21573 669.000
49.23567 600.000
49.25562 554.000
49.27557 631.000
49.29551 573.000
49.31546 570.000
49.33541 603.000
49.35536 571.000
49.37530 585.000
49.39525 557.000
49.41520 573.000
49.43514 564.000
49.45509 602.000
49.47504 552.000
49.49498 571.000
49.51493 517.000
49.53488 567.000
49.55483 549.000
49.57477 556.000
49.59472 550.000
49.61467 597.000
49.63461 579.000
49.65456 593.000
49.67451 596.000
49.69445 564.000
49.71440 472.000
49.73435 601.000
49.75429 545.000
49.77424 564.000
49.79419 554.000
49.81414 550.000
49.83408 546.000
49.85403 554.000
49.87398 606.000
49.89392 528.000
49.91387 567.000
49.93382 589.000
49.95376 524.000
49.97371 538.000
49.99366 511.000
50.01361 514.000
50.03355 524.000
50.05350 582.000
50.07345 515.000
50.09339 562.000
50.11334 530.000
50.13329 540.000
50.15323 535.000
50.17318 531.000
50.19313 547.000
50.21307 513.000
50.23302 534.000
50.25297 555.000
50.27292 519.000
50.29286 553.000
50.31281 559.000
50.33276 518.000
50.35270 494.000
50.37265 522.000
50.39260 522.000
50.41254 572.000
50.43249 491.000
50.45244 546.000
50.47239 528.000
50.49233 532.000
50.51228 594.000
50.53223 511.000
50.55217 571.000
50.57212 566.000
50.59207 533.000
50.61201 541.000
50.63196 501.000
50.65191 522.000
50.67186 557.000
50.69180 495.000
50.71175 495.000
50.73170 526.000
50.75164 499.000
50.77159 526.000
50.79154 561.000
50.81148 526.000
50.83143 482.000
50.85138 500.000
50.87132 569.000
50.89127 547.000
50.91122 547.000
50.93117 515.000
50.95111 550.000
50.97106 535.000
50.99101 555.000
51.01095 562.000
51.03090 526.000
51.05085 582.000
51.07079 540.000
51.09074 543.000
51.11069 512.000
51.13064 567.000
51.15058 580.000
51.17053 541.000
51.19048 551.000
51.21042 571.000
51.23037 546.000
51.25032 546.000
51.27026 525.000
51.29021 518.000
51.31016 549.000
51.33010 586.000
51.35005 472.000
51.37000 502.000
51.38995 534.000
51.40989 526.000
51.42984 514.000
51.44979 515.000
51.46973 502.000
51.48968 559.000
51.50963 514.000
51.52957 561.000
51.54952 534.000
51.56947 503.000
51.58942 529.000
51.60936 501.000
51.62931 540.000
51.64926 536.000
51.66920 529.000
51.68915 583.000
51.70910 564.000
51.72904 496.000
51.74899 508.000
51.76894 533.000
51.78888 517.000
51.80883 535.000
51.82878 557.000
51.84873 543.000
51.86867 536.000
51.88862 494.000
51.90857 569.000
51.92851 486.000
51.94846 544.000
51.96841 540.000
51.98835 507.000
52.00830 516.000
52.02825 511.000
52.04820 510.000
52.06814 521.000
52.08809 504.000
52.10804 508.000
52.12798 549.000
52.14793 509.000
52.16788 559.000
52.18782 498.000
52.20777 478.000
52.22772 524.000
52.24767 503.000
52.26761 530.000
52.28756 494.000
52.30751 536.000
52.32745 524.000
52.34740 490.000
52.36735 522.000
52.38729 512.000
52.40724 532.000
52.42719 533.000
52.44713 537.000
52.46708 531.000
52.48703 535.000
52.50698 553.000
52.52692 506.000
52.54687 530.000
52.56682 548.000
52.58676 568.000
52.60671 513.000
52.62666 554.000
52.64660 532.000
52.66655 551.000
52.68650 563.000
52.70645 597.000
52.72639 548.000
52.74634 571.000
52.76629 514.000
52.78623 544.000
52.80618 533.000
52.82613 538.000
52.84607 546.000
52.86602 570.000
52.88597 576.000
52.90591 542.000
52.92586 577.000
52.94581 593.000
52.96576 610.000
52.98570 579.000
53.00565 583.000
53.02560 619.000
53.04554 564.000
53.06549 649.000
53.08544 624.000
53.10538 679.000
53.12533 687.000
53.14528 609.000
53.16523 713.000
53.18517 660.000
53.20512 660.000
53.22507 766.000
53.24501 736.000
53.26496 725.000
53.28491 750.000
53.30485 715.000
53.32480 755.000
53.34475 709.000
53.36469 695.000
53.38464 729.000
53.40459 654.000
53.42454 706.000
53.44448 629.000
53.46443 622.000
53.48438 607.000
53.50432 609.000
53.52427 628.000
53.54422 570.000
53.56416 601.000
53.58411 574.000
53.60406 594.000
53.62401 606.000
53.64395 610.000
53.66390 568.000
53.68385 560.000
53.70379 625.000
53.72374 613.000
53.74369 672.000
53.76363 671.000
53.78358 643.000
53.80353 634.000
53.82348 595.000
53.84342 623.000
53.86337 571.000
53.88332 581.000
53.90326 633.000
53.92321 577.000
53.94316 550.000
53.96310 585.000
53.98305 531.000
54.00300 506.000
54.02294 538.000
54.04289 524.000
54.06284 547.000
54.08279 543.000
54.10273 545.000
54.12268 558.000
54.14263 543.000
54.16257 536.000
54.18252 508.000
54.20247 484.000
54.22241 506.000
54.24236 565.000
54.26231 534.000
54.28226 502.000
54.30220 518.000
54.32215 521.000
54.34210 533.000
54.36204 557.000
54.38199 528.000
54.40194 512.000
54.42188 553.000
54.44183 546.000
54.46178 528.000
54.48172 545.000
54.50167 503.000
54.52162 547.000
54.54157 497.000
54.56151 502.000
54.58146 547.000
54.60141 486.000
54.62135 530.000
54.64130 527.000
54.66125 515.000
54.68119 535.000
54.70114 524.000
54.72109 487.000
54.74104 540.000
54.76098 543.000
54.78093 520.000
54.80088 484.000
54.82082 530.000
54.84077 517.000
54.86072 499.000
54.88066 490.000
54.90061 507.000
54.92056 536.000
54.94050 551.000
54.96045 557.000
54.98040 526.000
55.00035 546.000
55.02029 511.000
55.04024 524.000
55.06019 549.000
55.08013 509.000
55.10008 482.000
55.12003 538.000
55.13997 522.000
55.15992 522.000
55.17987 521.000
55.19982 521.000
55.21976 540.000
55.23971 502.000
55.25966 532.000
55.27960 483.000
55.29955 519.000
55.31950 523.000
55.33944 526.000
55.35939 521.000
55.37934 532.000
55.39929 556.000
55.41923 512.000
55.43918 521.000
55.45913 532.000
55.47907 527.000
55.49902 501.000
55.51897 534.000
55.53891 494.000
55.55886 529.000
55.57881 499.000
55.59875 557.000
55.61870 551.000
55.63865 519.000
55.65860 477.000
55.67854 527.000
55.69849 499.000
55.71844 498.000
55.73838 535.000
55.75833 529.000
55.77828 539.000
55.79822 572.000
55.81817 525.000
55.83812 505.000
55.85807 556.000
55.87801 530.000
55.89796 525.000
55.91791 540.000
55.93785 513.000
55.95780 540.000
55.97775 540.000
55.99769 506.000
56.01764 494.000
56.03759 514.000
56.05753 522.000
56.07748 580.000
56.09743 523.000
56.11738 528.000
56.13732 517.000
56.15727 553.000
56.17722 516.000
56.19716 506.000
56.21711 508.000
56.23706 581.000
56.25700 546.000
56.27695 579.000
56.29690 508.000
56.31685 507.000
56.33679 510.000
56.35674 562.000
56.37669 552.000
56.39663 574.000
56.41658 536.000
56.43653 542.000
56.45647 534.000
56.47642 525.000
56.49637 529.000
56.51631 556.000
56.53626 527.000
56.55621 523.000
56.57616 557.000
56.59610 578.000
56.61605 540.000
56.63600 528.000
56.65594 545.000
56.67589 572.000
56.69584 540.000
56.71578 579.000
56.73573 581.000
56.75568 531.000
56.77563 576.000
56.79557 565.000
56.81552 553.000
56.83547 590.000
56.85541 567.000
56.87536 534.000
56.89531 554.000
56.91525 557.000
56.93520 551.000
56.95515 568.000
56.97510 553.000
56.99504 538.000
57.01499 536.000
57.03494 564.000
57.05488 564.000
57.07483 558.000
57.09478 570.000
57.11472 577.000
57.13467 589.000
57.15462 596.000
57.17456 596.000
57.19451 640.000
57.21446 665.000
57.23441 662.000
57.25435 752.000
57.27430 753.000
57.29425 917.000
57.31419 907.000
57.33414 826.000
57.35409 782.000
57.37403 739.000
57.39398 698.000
57.41393 740.000
57.43388 723.000
57.45382 713.000
57.47377 743.000
57.49372 685.000
57.51366 675.000
57.53361 679.000
57.55356 597.000
57.57350 619.000
57.59345 605.000
57.61340 568.000
57.63334 614.000
57.65329 552.000
57.67324 567.000
57.69319 533.000
57.71313 575.000
57.73308 538.000
57.75303 588.000
57.77297 556.000
57.79292 536.000
57.81287 570.000
57.83281 551.000
57.85276 559.000
57.87271 603.000
57.89266 578.000
57.91260 561.000
57.93255 625.000
57.95250 597.000
57.97244 640.000
57.99239 602.000
58.01234 637.000
58.03228 613.000
58.05223 646.000
58.07218 709.000
58.09212 746.000
58.11207 790.000
58.13202 852.000
58.15197 847.000
58.17191 917.000
58.19186 941.000
58.21181 895.000
58.23175 979.000
58.25170 842.000
58.27165 894.000
58.29159 829.000
58.31154 840.000
58.33149 840.000
58.35144 805.000
58.37138 705.000
58.39133 725.000
58.41128 701.000
58.43122 653.000
58.45117 613.000
58.47112 603.000
58.49106 580.000
58.51101 604.000
58.53096 580.000
58.55090 514.000
58.57085 543.000
58.59080 530.000
58.61075 529.000
58.63069 535.000
58.65064 548.000
58.67059 567.000
58.69053 497.000
58.71048 541.000
58.73043 527.000
58.75037 553.000
58.77032 491.000
58.79027 543.000
58.81022 509.000
58.83016 529.000
58.85011 516.000
58.87006 553.000
58.89000 540.000
58.90995 558.000
58.92990 495.000
58.94984 547.000
58.96979 576.000
58.98974 551.000
59.00969 547.000
59.02963 488.000
59.04958 551.000
59.06953 511.000
59.08947 545.000
59.10942 542.000
59.12937 491.000
59.14931 473.000
59.16926 531.000
59.18921 569.000
59.20915 516.000
59.22910 509.000
59.24905 517.000
59.26900 521.000
59.28894 555.000
59.30889 510.000
59.32884 512.000
59.34878 540.000
59.36873 511.000
59.38868 565.000
59.40862 537.000
59.42857 543.000
59.44852 513.000
59.46847 572.000
59.48841 554.000
59.50836 526.000
59.52831 542.000
59.54825 531.000
59.56820 500.000
59.58815 522.000
59.60809 533.000
59.62804 525.000
59.64799 510.000
59.66793 554.000
59.68788 545.000
59.70783 524.000
59.72778 532.000
59.74772 534.000
59.76767 519.000
59.78762 514.000
59.80756 558.000
59.82751 550.000
59.84746 550.000
59.86740 534.000
59.88735 577.000
59.90730 514.000
59.92725 537.000
59.94719 613.000
59.96714 500.000
59.98709 516.000
60.00703 554.000
60.02698 531.000
60.04693 538.000
60.06687 593.000
60.08682 527.000
60.10677 591.000
60.12671 524.000
60.14666 509.000
60.16661 552.000
60.18656 544.000
60.20650 504.000
60.22645 541.000
60.24640 506.000
60.26634 500.000
60.28629 534.000
60.30624 518.000
60.32618 547.000
60.34613 509.000
60.36608 503.000
60.38603 568.000
60.40597 535.000
60.42592 517.000
60.44587 538.000
60.46581 500.000
60.48576 514.000
60.50571 521.000
60.52565 538.000
60.54560 538.000
60.56555 492.000
60.58550 563.000
60.60544 546.000
60.62539 552.000
60.64534 571.000
60.66528 521.000
60.68523 566.000
60.70518 539.000
60.72512 545.000
60.74507 573.000
60.76502 560.000
60.78496 536.000
60.80491 532.000
60.82486 586.000
60.84481 511.000
60.86475 532.000
60.88470 565.000
60.90465 593.000
60.92459 567.000
60.94454 594.000
60.96449 542.000
60.98443 556.000
61.00438 552.000
61.02433 557.000
61.04428 609.000
61.06422 505.000
61.08417 579.000
61.10412 620.000
61.12406 605.000
61.14401 650.000
61.16396 572.000
61.18390 592.000
61.20385 581.000
61.22380 645.000
61.24374 647.000
61.26369 698.000
61.28364 631.000
61.30359 638.000
61.32353 724.000
61.34348 679.000
61.36343 714.000
61.38337 766.000
61.40332 810.000
61.42327 883.000
61.44321 980.000
61.46316 1143.000
61.48311 1204.000
61.50306 1248.000
61.52300 1240.000
61.54295 1176.000
61.56290 1087.000
61.58284 1144.000
61.60279 1034.000
61.62274 1010.000
61.64268 959.000
61.66263 1008.000
61.68258 951.000
61.70252 909.000
61.72247 855.000
61.74242 826.000
61.76237 789.000
61.78231 667.000
61.80226 663.000
61.82221 628.000
61.84215 641.000
61.86210 633.000
61.88205 608.000
61.90199 656.000
61.92194 619.000
61.94189 575.000
61.96184 622.000
61.98178 664.000
62.00173 623.000
62.02168 647.000
62.04162 665.000
62.06157 625.000
62.08152 635.000
62.10146 620.000
62.12141 655.000
62.14136 612.000
62.16131 688.000
62.18125 639.000
62.20120 604.000
62.22115 641.000
62.24109 657.000
62.26104 649.000
62.28099 677.000
62.30093 623.000
62.32088 649.000
62.34083 624.000
62.36077 641.000
62.38072 676.000
62.40067 730.000
62.42062 713.000
62.44056 735.000
62.46051 726.000
62.48046 704.000
62.50040 818.000
62.52035 768.000
62.54030 865.000
62.56024 890.000
62.58019 929.000
62.60014 946.000
62.62009 933.000
62.64003 1038.000
62.65998 1009.000
62.67993 965.000
62.69987 968.000
62.71982 954.000
62.73977 870.000
62.75971 871.000
62.77966 909.000
62.79961 904.000
62.81955 952.000
62.83950 902.000
62.85945 971.000
62.87940 923.000
62.89934 1023.000
62.91929 1012.000
62.93924 1065.000
62.95918 1101.000
62.97913 1027.000
62.99908 887.000
63.01902 790.000
63.03897 793.000
63.05892 735.000
63.07887 786.000
63.09881 786.000
63.11876 809.000
63.13871 774.000
63.15865 747.000
63.17860 645.000
63.19855 660.000
63.21849 609.000
63.23844 577.000
63.25839 616.000
63.27833 562.000
63.29828 549.000
63.31823 587.000
63.33818 553.000
63.35812 584.000
63.37807 541.000
63.39802 513.000
63.41796 546.000
63.43791 543.000
63.45786 535.000
63.47780 516.000
63.49775 552.000
63.51770 538.000
63.53765 541.000
63.55759 510.000
63.57754 543.000
63.59749 589.000
63.61743 551.000
63.63738 505.000
63.65733 530.000
63.67727 558.000
63.69722 549.000
63.71717 568.000
63.73712 512.000
63.75706 566.000
63.77701 496.000
63.79696 534.000
63.81690 577.000
63.83685 548.000
63.85680 552.000
63.87674 505.000
63.89669 557.000
63.91664 547.000
63.93658 496.000
63.95653 475.000
63.97648 537.000
63.99643 570.000
64.01637 543.000
64.03632 478.000
64.05627 519.000
64.07621 538.000
64.09616 535.000
64.11611 522.000
64.13605 483.000
64.15600 576.000
64.17595 541.000
64.19590 534.000
64.21584 493.000
64.23579 529.000
64.25574 520.000
64.27568 530.000
64.29563 537.000
64.31558 516.000
64.33552 533.000
64.35547 543.000
64.37542 518.000
64.39536 529.000
64.41531 556.000
64.43526 534.000
64.45521 584.000
64.47515 551.000
64.49510 539.000
64.51505 529.000
64.53499 533.000
64.55494 511.000
64.57489 527.000
64.59483 512.000
64.61478 582.000
64.63473 566.000
64.65468 530.000
64.67462 567.000
64.69457 506.000
64.71452 501.000
64.73446 521.000
64.75441 613.000
64.77436 552.000
64.79430 529.000
64.81425 581.000
64.83420 571.000
64.85414 550.000
64.87409 537.000
64.89404 558.000
64.91399 566.000
64.93393 575.000
64.95388 561.000
64.97383 561.000
64.99377 563.000
65.01372 506.000
65.03367 539.000
65.05361 545.000
65.07356 571.000
65.09351 550.000
65.11346 649.000
65.13340 579.000
65.15335 644.000
65.17330 594.000
65.19324 582.000
65.21319 611.000
65.23314 618.000
65.25308 646.000
65.27303 612.000
65.29298 645.000
65.31293 692.000
65.33287 671.000
65.35282 667.000
65.37277 702.000
65.39271 684.000
65.41266 712.000
65.43261 710.000
65.45255 721.000
65.47250 794.000
65.49245 797.000
65.51239 784.000
65.53234 789.000
65.55229 851.000
65.57224 859.000
65.59218 834.000
65.61213 861.000
65.63208 806.000
65.65202 841.000
65.67197 860.000
65.69192 855.000
65.71186 837.000
65.73181 797.000
65.75176 805.000
65.77171 703.000
65.79165 773.000
65.81160 713.000
65.83155 757.000
65.85149 650.000
65.87144 728.000
65.89139 677.000
65.91133 659.000
65.93128 623.000
65.95123 682.000
65.97117 639.000
65.99112 627.000
66.01107 626.000
66.03102 672.000
66.05096 646.000
66.07091 655.000
66.09086 659.000
66.11080 662.000
66.13075 660.000
66.15070 652.000
66.17064 643.000
66.19059 656.000
66.21054 657.000
66.23049 698.000
66.25043 731.000
66.27038 845.000
66.29033 862.000
66.31027 945.000
66.33022 973.000
66.35017 1014.000
66.37011 1008.000
66.39006 1022.000
66.41001 1050.000
66.42995 934.000
66.44990 922.000
66.46985 944.000
66.48980 857.000
66.50974 842.000
66.52969 861.000
66.54964 832.000
66.56958 806.000
66.58953 826.000
66.60948 784.000
66.62942 749.000
66.64937 689.000
66.66932 676.000
66.68927 658.000
66.70921 646.000
66.72916 599.000
66.74911 624.000
66.76905 571.000
66.78900 575.000
66.80895 620.000
66.82889 615.000
66.84884 577.000
66.86879 603.000
66.88874 582.000
66.90868 534.000
66.92863 560.000
66.94858 587.000
66.96852 556.000
66.98847 598.000
67.00842 521.000
67.02836 559.000
67.04831 590.000
67.06826 510.000
67.08820 563.000
67.10815 558.000
67.12810 611.000
67.14805 580.000
67.16799 620.000
67.18794 575.000
67.20789 593.000
67.22783 567.000
67.24778 554.000
67.26773 565.000
67.28767 609.000
67.30762 605.000
67.32757 601.000
67.34752 594.000
67.36746 583.000
67.38741 624.000
67.40736 614.000
67.42730 576.000
67.44725 659.000
67.46720 582.000
67.48714 586.000
67.50709 623.000
67.52704 663.000
67.54698 665.000
67.56693 681.000
67.58688 689.000
67.60683 714.000
67.62677 719.000
67.64672 787.000
67.66667 777.000
67.68661 840.000
67.70656 782.000
67.72651 833.000
67.74645 827.000
67.76640 863.000
67.78635 888.000
67.80630 892.000
67.82624 865.000
67.84619 958.000
67.86614 960.000
67.88608 1017.000
67.90603 1093.000
67.92598 1012.000
67.94592 1019.000
67.96587 995.000
67.98582 1016.000
68.00576 915.000
68.02571 881.000
68.04566 900.000
68.06561 886.000
68.08555 878.000
68.10550 874.000
68.12545 821.000
68.14539 712.000
68.16534 744.000
68.18529 726.000
68.20523 684.000
68.22518 621.000
68.24513 667.000
68.26508 604.000
68.28502 604.000
68.30497 591.000
68.32492 542.000
68.34486 570.000
68.36481 552.000
68.38476 595.000
68.40470 510.000
68.42465 581.000
68.44460 559.000
68.46455 550.000
68.48449 535.000
68.50444 520.000
68.52439 559.000
68.54433 540.000
68.56428 543.000
68.58423 526.000
68.60417 550.000
68.62412 555.000
68.64407 544.000
68.66401 595.000
68.68396 524.000
68.70391 506.000
68.72386 590.000
68.74380 587.000
68.76375 531.000
68.78370 524.000
68.80364 531.000
68.82359 508.000
68.84354 530.000
68.86348 540.000
68.88343 561.000
68.90338 506.000
68.92333 559.000
68.94327 483.000
68.96322 562.000
68.98317 543.000
69.00311 542.000
69.02306 540.000
69.04301 514.000
69.06295 516.000
69.08290 510.000
69.10285 519.000
69.12279 545.000
69.14274 549.000
69.16269 549.000
69.18264 477.000
69.20258 532.000
69.22253 531.000
69.24248 495.000
69.26242 563.000
69.28237 511.000
69.30232 516.000
69.32226 508.000
69.34221 553.000
69.36216 515.000
69.38211 485.000
69.40205 513.000
69.42200 517.000
69.44195 506.000
69.46189 548.000
69.48184 509.000
69.50179 522.000
69.52173 509.000
69.54168 557.000
69.56163 524.000
69.58157 510.000
69.60152 498.000
69.62147 527.000
69.64142 523.000
69.66136 538.000
69.68131 521.000
69.70126 499.000
69.72120 583.000
69.74115 513.000
69.76110 514.000
69.78104 535.000
69.80099 511.000
69.82094 524.000
69.84089 537.000
69.86083 528.000
69.88078 473.000
69.90073 510.000
69.92067 456.000
69.94062 498.000
69.96057 513.000
69.98051 494.000
70.00046 534.000
70.02041 474.000
70.04035 503.000
70.06030 499.000
70.08025 539.000
70.10020 537.000
70.12014 540.000
70.14009 488.000
70.16004 545.000
70.17998 451.000
70.19993 541.000
70.21988 495.000
70.23982 521.000
70.25977 524.000
70.27972 489.000
70.29967 546.000
70.31961 518.000
70.33956 537.000
70.35951 511.000
70.37945 519.000
70.39940 561.000
70.41935 574.000
70.43929 531.000
70.45924 535.000
70.47919 548.000
70.49914 458.000
70.51908 544.000
70.53903 503.000
70.55898 502.000
70.57892 517.000
70.59887 513.000
70.61882 547.000
70.63876 516.000
70.65871 567.000
70.67866 496.000
70.69860 464.000
70.71855 519.000
70.73850 525.000
70.75845 546.000
70.77839 489.000
70.79834 496.000
70.81829 568.000
70.83823 523.000
70.85818 572.000
70.87813 535.000
70.89807 514.000
70.91802 554.000
70.93797 518.000
70.95792 540.000
70.97786 499.000
70.99781 525.000
71.01776 494.000
71.03770 571.000
71.05765 529.000
71.07760 528.000
71.09754 514.000
71.11749 517.000
71.13744 515.000
71.15738 471.000
71.17733 558.000
71.19728 499.000
71.21723 520.000
71.23717 532.000
71.25712 569.000
71.27707 520.000
71.29701 557.000
71.31696 531.000
71.33691 529.000
71.35685 513.000
71.37680 522.000
71.39675 537.000
71.41670 593.000
71.43664 559.000
71.45659 525.000
71.47654 563.000
71.49648 492.000
71.51643 530.000
71.53638 531.000
71.55632 537.000
71.57627 534.000
71.59622 576.000
71.61616 581.000
71.63611 552.000
71.65606 513.000
71.67601 575.000
71.69595 530.000
71.71590 587.000
71.73585 544.000
71.75579 552.000
71.77574 570.000
71.79569 536.000
71.81563 545.000
71.83558 520.000
71.85553 503.000
71.87548 520.000
71.89542 534.000
71.91537 534.000
71.93532 530.000
71.95526 550.000
71.97521 537.000
71.99516 504.000
72.01510 513.000
72.03505 506.000
72.05500 569.000
72.07495 524.000
72.09489 576.000
72.11484 569.000
72.13479 551.000
72.15473 541.000
72.17468 544.000
72.19463 606.000
72.21457 594.000
72.23452 617.000
72.25447 636.000
72.27441 657.000
72.29436 672.000
72.31431 689.000
72.33426 719.000
72.35420 671.000
72.37415 761.000
72.39410 723.000
72.41404 677.000
72.43399 676.000
72.45394 675.000
72.47388 636.000
72.49383 631.000
72.51378 658.000
72.53373 596.000
72.55367 612.000
72.57362 658.000
72.59357 596.000
72.61351 598.000
72.63346 602.000
72.65341 559.000
72.67335 594.000
72.69330 549.000
72.71325 567.000
72.73319 567.000
72.75314 560.000
72.77309 541.000
72.79304 596.000
72.81298 552.000
72.83293 512.000
72.85288 523.000
72.87282 547.000
72.89277 507.000
72.91272 523.000
72.93266 521.000
72.95261 516.000
72.97256 529.000
72.99251 536.000
73.01245 521.000
73.03240 548.000
73.05235 554.000
73.07229 553.000
73.09224 535.000
73.11219 575.000
73.13213 517.000
73.15208 510.000
73.17203 524.000
73.19197 500.000
73.21192 542.000
73.23187 501.000
73.25182 547.000
73.27176 545.000
73.29171 573.000
73.31166 555.000
73.33160 545.000
73.35155 509.000
73.37150 513.000
73.39144 490.000
73.41139 529.000
73.43134 515.000
73.45129 481.000
73.47123 530.000
73.49118 503.000
73.51113 509.000
73.53107 490.000
73.55102 501.000
73.57097 550.000
73.59091 496.000
73.61086 525.000
73.63081 542.000
73.65076 503.000
73.67070 554.000
73.69065 533.000
73.71060 568.000
73.73054 504.000
73.75049 543.000
73.77044 518.000
73.79038 545.000
73.81033 518.000
73.83028 546.000
73.85022 516.000
73.87017 522.000
73.89012 539.000
73.91007 536.000
73.93001 512.000
73.94996 570.000
73.96991 523.000
73.98985 509.000
74.00980 523.000
74.02975 546.000
74.04969 538.000
74.06964 531.000
74.08959 538.000
74.10954 550.000
74.12948 562.000
74.14943 530.000
74.16938 521.000
74.18932 555.000
74.20927 557.000
74.22922 484.000
74.24916 531.000
74.26911 546.000
74.28906 572.000
74.30900 544.000
74.32895 548.000
74.34890 577.000
74.36885 579.000
74.38879 579.000
74.40874 556.000
74.42869 642.000
74.44863 606.000
74.46858 665.000
74.48853 613.000
74.50847 662.000
74.52842 632.000
74.54837 603.000
74.56832 596.000
74.58826 606.000
74.60821 615.000
74.62816 611.000
74.64810 633.000
74.66805 629.000
74.68800 598.000
74.70794 637.000
74.72789 656.000
74.74784 669.000
74.76778 682.000
74.78773 653.000
74.80768 681.000
74.82763 687.000
74.84757 775.000
74.86752 774.000
74.88747 858.000
74.90741 813.000
74.92736 794.000
74.94731 867.000
74.96725 781.000
74.98720 785.000
75.00715 742.000
75.02710 748.000
75.04704 812.000
75.06699 827.000
75.08694 896.000
75.10688 883.000
75.12683 901.000
75.14678 885.000
75.16672 874.000
75.18667 876.000
75.20662 836.000
75.22657 827.000
75.24651 824.000
75.26646 769.000
75.28641 754.000
75.30635 775.000
75.32630 733.000
75.34625 776.000
75.36619 712.000
75.38614 712.000
75.40609 681.000
75.42603 643.000
75.44598 664.000
75.46593 645.000
75.48588 688.000
75.50582 596.000
75.52577 607.000
75.54572 621.000
75.56566 598.000
75.58561 553.000
75.60556 577.000
75.62550 560.000
75.64545 618.000
75.66540 555.000
75.68535 539.000
75.70529 541.000
75.72524 553.000
75.74519 560.000
75.76513 555.000
75.78508 532.000
75.80503 544.000
75.82497 504.000
75.84492 520.000
75.86487 533.000
75.88481 487.000
75.90476 540.000
75.92471 577.000
75.94466 511.000
75.96460 532.000
75.98455 510.000
76.00450 539.000
76.02444 511.000
76.04439 473.000
76.06434 540.000
76.08428 497.000
76.10423 520.000
76.12418 529.000
76.14413 550.000
76.16407 520.000
76.18402 529.000
76.20397 488.000
76.22391 536.000
76.24386 537.000
76.26381 553.000
76.28375 503.000
76.30370 527.000
76.32365 507.000
76.34359 508.000
76.36354 531.000
76.38349 488.000
76.40344 503.000
76.42338 507.000
76.44333 494.000
76.46328 517.000
76.48322 528.000
76.50317 540.000
76.52312 509.000
76.54306 540.000
76.56301 511.000
76.58296 513.000
76.60291 480.000
76.62285 493.000
76.64280 517.000
76.66275 526.000
76.68269 524.000
76.70264 519.000
76.72259 548.000
76.74253 524.000
76.76248 502.000
76.78243 474.000
76.80238 560.000
76.82232 529.000
76.84227 515.000
76.86222 527.000
76.88216 525.000
76.90211 487.000
76.92206 506.000
76.94200 514.000
76.96195 504.000
76.98190 491.000
77.00184 515.000
77.02179 495.000
77.04174 513.000
77.06169 499.000
77.08163 542.000
77.10158 484.000
77.12153 499.000
77.14147 541.000
77.16142 532.000
77.18137 547.000
77.20131 511.000
77.22126 501.000
77.24121 533.000
77.26116 516.000
77.28110 541.000
77.30105 521.000
77.32100 533.000
77.34094 550.000
77.36089 508.000
77.38084 503.000
77.40078 520.000
77.42073 501.000
77.44068 488.000
77.46062 523.000
77.48057 478.000
77.50052 511.000
77.52047 519.000
77.54041 501.000
77.56036 471.000
77.58031 514.000
77.60025 508.000
77.62020 530.000
77.64015 534.000
77.66009 494.000
77.68004 524.000
77.69999 510.000
77.71994 533.000
77.73988 483.000
77.75983 500.000
77.77978 499.000
77.79972 532.000
77.81967 501.000
77.83962 473.000
77.85956 491.000
77.87951 477.000
77.89946 509.000
77.91940 534.000
77.93935 502.000
77.95930 541.000
77.97925 515.000
77.99919 500.000
78.01914 516.000
78.03909 513.000
78.05903 483.000
78.07898 494.000
78.09893 525.000
78.11887 519.000
78.13882 537.000
78.15877 530.000
78.17872 527.000
78.19866 477.000
78.21861 518.000
78.23856 509.000
78.25850 533.000
78.27845 537.000
78.29840 494.000
78.31834 480.000
78.33829 501.000
78.35824 529.000
78.37819 484.000
78.39813 481.000
78.41808 494.000
78.43803 498.000
78.45797 527.000
78.47792 515.000
78.49787 502.000
78.51781 525.000
78.53776 499.000
78.55771 524.000
78.57765 551.000
78.59760 520.000
78.61755 554.000
78.63750 501.000
78.65744 508.000
78.67739 537.000
78.69734 504.000
78.71728 517.000
78.73723 536.000
78.75718 527.000
78.77712 536.000
78.79707 495.000
78.81702 539.000
78.83697 563.000
78.85691 517.000
78.87686 505.000
78.89681 520.000
78.91675 566.000
78.93670 561.000
78.95665 570.000
78.97659 582.000
78.99654 597.000
79.01649 603.000
79.03643 610.000
79.05638 632.000
79.07633 626.000
79.09628 593.000
79.11622 605.000
79.13617 627.000
79.15612 589.000
79.17606 598.000
79.19601 604.000
79.21596 566.000
79.23590 600.000
79.25585 549.000
79.27580 552.000
79.29575 550.000
79.31569 602.000
79.33564 586.000
79.35559 606.000
79.37553 549.000
79.39548 603.000
79.41543 555.000
79.43537 547.000
79.45532 545.000
79.47527 571.000
79.49521 534.000
79.51516 601.000
79.53511 513.000
79.55506 580.000
79.57500 514.000
79.59495 515.000
79.61490 571.000
79.63484 523.000
79.65479 526.000
79.67474 541.000
79.69468 521.000
79.71463 520.000
79.73458 488.000
79.75453 526.000
79.77447 541.000
79.79442 495.000
79.81437 523.000
79.83431 550.000
79.85426 571.000
79.87421 474.000
79.89415 492.000
79.91410 529.000
79.93405 534.000
79.95399 562.000
79.97394 544.000
79.99389 522.000
80.01384 544.000
80.03378 530.000
80.05373 550.000
80.07368 536.000
80.09362 517.000
80.11357 533.000
80.13352 555.000
80.15346 541.000
80.17341 528.000
80.19336 547.000
80.21331 546.000
80.23325 544.000
80.25320 536.000
80.27315 540.000
80.29309 539.000
80.31304 566.000
80.33299 556.000
80.35293 518.000
80.37288 577.000
80.39283 562.000
80.41278 566.000
80.43272 519.000
80.45267 555.000
80.47262 543.000
80.49256 570.000
80.51251 525.000
80.53246 539.000
80.55240 554.000
80.57235 501.000
80.59230 522.000
80.61224 549.000
80.63219 562.000
80.65214 515.000
80.67209 519.000
80.69203 488.000
80.71198 524.000
80.73193 501.000
80.75187 501.000
80.77182 533.000
80.79177 535.000
80.81171 542.000
80.83166 535.000
80.85161 526.000
80.87156 497.000
80.89150 489.000
80.91145 500.000
80.93140 506.000
80.95134 474.000
80.97129 531.000
80.99124 538.000
81.01118 523.000
81.03113 494.000
81.05108 507.000
81.07102 500.000
81.09097 496.000
81.11092 523.000
81.13087 511.000
81.15081 583.000
81.17076 466.000
81.19071 518.000
81.21065 523.000
81.23060 528.000
81.25055 470.000
81.27049 521.000
81.29044 517.000
81.31039 478.000
81.33034 506.000
81.35028 526.000
81.37023 517.000
81.39018 495.000
81.41012 501.000
81.43007 499.000
81.45002 524.000
81.46996 495.000
81.48991 488.000
81.50986 504.000
81.52980 534.000
81.54975 495.000
81.56970 503.000
81.58965 495.000
81.60959 511.000
81.62954 512.000
81.64949 484.000
81.66943 515.000
81.68938 507.000
81.70933 500.000
81.72927 546.000
81.74922 476.000
81.76917 510.000
81.78912 487.000
81.80906 497.000
81.82901 494.000
81.84896 513.000
81.86890 498.000
81.88885 534.000
81.90880 558.000
81.92874 532.000
81.94869 517.000
81.96864 553.000
81.98859 498.000
82.00853 482.000
82.02848 536.000
82.04843 523.000
82.06837 552.000
82.08832 475.000
82.10827 575.000
82.12821 526.000
82.14816 562.000
82.16811 535.000
82.18805 532.000
82.20800 575.000
82.22795 548.000
82.24790 562.000
82.26784 522.000
82.28779 563.000
82.30774 535.000
82.32768 550.000
82.34763 573.000
82.36758 565.000
82.38752 551.000
82.40747 540.000
82.42742 565.000
82.44737 593.000
82.46731 618.000
82.48726 597.000
82.50721 613.000
82.52715 619.000
82.54710 603.000
82.56705 711.000
82.58699 639.000
82.60694 635.000
82.62689 664.000
82.64683 685.000
82.66678 717.000
82.68673 635.000
82.70668 658.000
82.72662 646.000
82.74657 650.000
82.76652 679.000
82.78646 698.000
82.80641 671.000
82.82636 705.000
82.84630 670.000
82.86625 647.000
82.88620 706.000
82.90615 697.000
82.92609 662.000
82.94604 598.000
82.96599 635.000
82.98593 644.000
83.00588 589.000
83.02583 614.000
83.04577 577.000
83.06572 604.000
83.08567 583.000
83.10561 626.000
83.12556 621.000
83.14551 570.000
83.16546 547.000
83.18540 588.000
83.20535 591.000
83.22530 585.000
83.24524 514.000
83.26519 566.000
83.28514 528.000
83.30508 588.000
83.32503 552.000
83.34498 572.000
83.36493 542.000
83.38487 534.000
83.40482 540.000
83.42477 576.000
83.44471 538.000
83.46466 530.000
83.48461 531.000
83.50455 542.000
83.52450 595.000
83.54445 559.000
83.56440 508.000
83.58434 529.000
83.60429 555.000
83.62424 586.000
83.64418 560.000
83.66413 551.000
83.68408 608.000
83.70402 583.000
83.72397 591.000
83.74392 603.000
83.76386 560.000
83.78381 626.000
83.80376 591.000
83.82371 604.000
83.84365 615.000
83.86360 615.000
83.88355 559.000
83.90349 570.000
83.92344 594.000
83.94339 608.000
83.96333 575.000
83.98328 562.000
84.00323 606.000
84.02318 594.000
84.04312 522.000
84.06307 577.000
84.08302 556.000
84.10296 553.000
84.12291 555.000
84.14286 498.000
84.16280 561.000
84.18275 550.000
84.20270 560.000
84.22264 515.000
84.24259 523.000
84.26254 543.000
84.28249 517.000
84.30243 551.000
84.32238 522.000
84.34233 517.000
84.36227 523.000
84.38222 505.000
84.40217 589.000
84.42211 542.000
84.44206 517.000
84.46201 521.000
84.48196 515.000
84.50190 499.000
84.52185 538.000
84.54180 539.000
84.56174 539.000
84.58169 526.000
84.60164 513.000
84.62158 505.000
84.64153 487.000
84.66148 545.000
84.68142 526.000
84.70137 505.000
84.72132 522.000
84.74127 556.000
84.76121 500.000
84.78116 525.000
84.80111 498.000
84.82105 507.000
84.84100 521.000
84.86095 525.000
84.88089 554.000
84.90084 484.000
84.92079 531.000
84.94074 504.000
84.96068 585.000
84.98063 502.000
85.00058 479.000
85.02052 490.000
85.04047 517.000
85.06042 530.000
85.08036 507.000
85.10031 512.000
85.12026 519.000
85.14021 540.000
85.16015 509.000
85.18010 483.000
85.20005 501.000
85.21999 494.000
85.23994 476.000
85.25989 516.000
85.27983 500.000
85.29978 486.000
85.31973 469.000
85.33967 513.000
85.35962 516.000
85.37957 530.000
85.39952 527.000
85.41946 453.000
85.43941 488.000
85.45936 532.000
85.47930 476.000
85.49925 507.000
85.51920 504.000
85.53914 515.000
85.55909 528.000
85.57904 544.000
85.59899 510.000
85.61893 524.000
85.63888 492.000
85.65883 508.000
85.67877 526.000
85.69872 481.000
85.71867 475.000
85.73861 503.000
85.75856 540.000
85.77851 514.000
85.79845 515.000
85.81840 479.000
85.83835 553.000
85.85830 520.000
85.87824 530.000
85.89819 473.000
85.91814 544.000
85.93808 470.000
85.95803 493.000
85.97798 470.000
85.99792 510.000
86.01787 479.000
86.03782 495.000
86.05777 532.000
86.07771 507.000
86.09766 510.000
86.11761 513.000
86.13755 540.000
86.15750 487.000
86.17745 506.000
86.19739 518.000
86.21734 525.000
86.23729 560.000
86.25723 500.000
86.27718 541.000
86.29713 489.000
86.31708 516.000
86.33702 506.000
86.35697 515.000
86.37692 504.000
86.39686 505.000
86.41681 544.000
86.43676 499.000
86.45670 483.000
86.47665 509.000
86.49660 567.000
86.51655 532.000
86.53649 488.000
86.55644 490.000
86.57639 464.000
86.59633 502.000
86.61628 489.000
86.63623 516.000
86.65617 530.000
86.67612 540.000
86.69607 551.000
86.71602 511.000
86.73596 558.000
86.75591 544.000
86.77586 518.000
86.79580 593.000
86.81575 543.000
86.83570 536.000
86.85564 531.000
86.87559 547.000
86.89554 537.000
86.91548 546.000
86.93543 509.000
86.95538 553.000
86.97533 557.000
86.99527 530.000
87.01522 509.000
87.03517 548.000
87.05511 551.000
87.07506 524.000
87.09501 514.000
87.11495 531.000
87.13490 558.000
87.15485 521.000
87.17480 557.000
87.19474 518.000
87.21469 524.000
87.23464 538.000
87.25458 524.000
87.27453 519.000
87.29448 559.000
87.31442 545.000
87.33437 571.000
87.35432 578.000
87.37426 526.000
87.39421 549.000
87.41416 556.000
87.43411 522.000
87.45405 529.000
87.47400 560.000
87.49395 507.000
87.51389 511.000
87.53384 523.000
87.55379 529.000
87.57373 503.000
87.59368 566.000
87.61363 545.000
87.63358 519.000
87.65352 537.000
87.67347 542.000
87.69342 576.000
87.71336 504.000
87.73331 511.000
87.75326 495.000
87.77320 491.000
87.79315 524.000
87.81310 511.000
87.83304 478.000
87.85299 531.000
87.87294 545.000
87.89289 506.000
87.91283 556.000
87.93278 557.000
87.95273 508.000
87.97267 481.000
87.99262 539.000
88.01257 522.000
88.03251 484.000
88.05246 509.000
88.07241 530.000
88.09236 527.000
88.11230 516.000
88.13225 515.000
88.15220 501.000
88.17214 493.000
88.19209 544.000
88.21204 493.000
88.23198 528.000
88.25193 484.000
88.27188 514.000
88.29183 521.000
88.31177 538.000
88.33172 520.000
88.35167 545.000
88.37161 491.000
88.39156 530.000
88.41151 480.000
88.43145 519.000
88.45140 486.000
88.47135 524.000
88.49129 517.000
88.51124 543.000
88.53119 546.000
88.55114 517.000
88.57108 521.000
88.59103 532.000
88.61098 511.000
88.63092 512.000
88.65087 480.000
88.67082 546.000
88.69076 478.000
88.71071 495.000
88.73066 491.000
88.75061 501.000
88.77055 497.000
88.79050 550.000
88.81045 523.000
88.83039 519.000
88.85034 531.000
88.87029 533.000
88.89023 575.000
88.91018 488.000
88.93013 529.000
88.95007 521.000
88.97002 556.000
88.98997 572.000
89.00992 535.000
89.02986 538.000
89.04981 555.000
89.06976 537.000
89.08970 526.000
89.10965 582.000
89.12960 579.000
89.14954 544.000
89.16949 565.000
89.18944 573.000
89.20939 611.000
89.22933 557.000
89.24928 606.000
89.26923 645.000
89.28917 561.000
89.30912 566.000
89.32907 590.000
89.34901 561.000
89.36896 595.000
89.38891 574.000
89.40885 577.000
89.42880 602.000
89.44875 592.000
89.46870 615.000
89.48864 617.000
89.50859 637.000
89.52854 585.000
89.54848 572.000
89.56843 569.000
89.58838 591.000
89.60832 650.000
89.62827 591.000
89.64822 567.000
89.66817 615.000
89.68811 600.000
89.70806 606.000
89.72801 610.000
89.74795 580.000
89.76790 566.000
89.78785 596.000
89.80779 581.000
89.82774 568.000
89.84769 606.000
89.86764 541.000
89.88758 554.000
89.90753 544.000
89.92748 562.000
89.94742 553.000
89.96737 516.000
89.98732 524.000
90.00726 521.000
