10.00000 68.000
10.01995 42.000
10.03989 63.000
10.05984 70.000
10.07979 51.000
10.09973 65.000
10.11968 62.000
10.13963 58.000
10.15958 61.000
10.17952 65.000
10.19947 52.000
10.21942 75.000
10.23936 74.000
10.25931 66.000
10.27926 59.000
10.29920 61.000
10.31915 58.000
10.33910 53.000
10.35905 74.000
10.37899 47.000
10.39894 58.000
10.41889 53.000
10.43883 67.000
10.45878 63.000
10.47873 55.000
10.49867 54.000
10.51862 62.000
10.53857 49.000
10.55851 51.000
10.57846 57.000
10.59841 63.000
10.61836 71.000
10.63830 57.000
10.65825 77.000
10.67820 62.000
10.69814 60.000
10.71809 59.000
10.73804 60.000
10.75798 64.000
10.77793 67.000
10.79788 64.000
10.81783 60.000
10.83777 57.000
10.85772 68.000
10.87767 55.000
10.89761 62.000
10.91756 66.000
10.93751 60.000
10.95745 59.000
10.97740 57.000
10.99735 64.000
11.01730 55.000
11.03724 63.000
11.05719 55.000
11.07714 53.000
11.09708 58.000
11.11703 50.000
11.13698 74.000
11.15692 66.000
11.17687 69.000
11.19682 55.000
11.21676 66.000
11.23671 59.000
11.25666 60.000
11.27661 53.000
11.29655 63.000
11.31650 52.000
11.33645 57.000
11.35639 60.000
11.37634 56.000
11.39629 72.000
11.41623 64.000
11.43618 63.000
11.45613 71.000
11.47608 67.000
11.49602 56.000
11.51597 58.000
11.53592 61.000
11.55586 59.000
11.57581 65.000
11.59576 54.000
11.61570 54.000
11.63565 45.000
11.65560 58.000
11.67554 47.000
11.69549 78.000
11.71544 61.000
11.73539 54.000
11.75533 59.000
11.77528 61.000
11.79523 58.000
11.81517 64.000
11.83512 70.000
11.85507 64.000
11.87501 55.000
11.89496 63.000
11.91491 58.000
11.93486 70.000
11.95480 54.000
11.97475 59.000
11.99470 67.000
12.01464 72.000
12.03459 48.000
12.05454 61.000
12.07448 65.000
12.09443 63.000
12.11438 86.000
12.13432 65.000
12.15427 85.000
12.17422 87.000
12.19417 91.000
12.21411 69.000
12.23406 71.000
12.25401 72.000
12.27395 75.000
12.29390 60.000
12.31385 66.000
12.33379 84.000
12.35374 89.000
12.37369 85.000
12.39364 80.000
12.41358 89.000
12.43353 81.000
12.45348 86.000
12.47342 98.000
12.49337 91.000
12.51332 101.000
12.53326 85.000
12.55321 108.000
12.57316 118.000
12.59311 94.000
12.61305 99.000
12.63300 112.000
12.65295 103.000
12.67289 109.000
12.69284 99.000
12.71279 113.000
12.73273 99.000
12.75268 98.000
12.77263 101.000
12.79257 93.000
12.81252 93.000
12.83247 91.000
12.85242 111.000
12.87236 71.000
12.89231 95.000
12.91226 105.000
12.93220 99.000
12.95215 97.000
12.97210 84.000
12.99204 101.000
13.01199 104.000
13.03194 100.000
13.05189 108.000
13.07183 84.000
13.09178 84.000
13.11173 95.000
13.13167 87.000
13.15162 86.000
13.17157 76.000
13.19151 93.000
13.21146 90.000
13.23141 76.000
13.25135 103.000
13.27130 93.000
13.29125 102.000
13.31120 93.000
13.33114 86.000
13.35109 89.000
13.37104 107.000
13.39098 90.000
13.41093 117.000
13.43088 99.000
13.45082 76.000
13.47077 94.000
13.49072 102.000
13.51067 114.000
13.53061 98.000
13.55056 97.000
13.57051 120.000
13.59045 91.000
13.61040 112.000
13.63035 98.000
13.65029 81.000
13.67024 104.000
13.69019 95.000
13.71013 113.000
13.73008 106.000
13.75003 90.000
13.76998 124.000
13.78992 84.000
13.80987 102.000
13.82982 113.000
13.84976 127.000
13.86971 115.000
13.88966 109.000
13.90960 118.000
13.92955 102.000
13.94950 125.000
13.96945 120.000
13.98939 136.000
14.00934 133.000
14.02929 135.000
14.04923 114.000
14.06918 128.000
14.08913 134.000
14.10907 144.000
14.12902 117.000
14.14897 143.000
14.16892 118.000
14.18886 172.000
14.20881 115.000
14.22876 134.000
14.24870 128.000
14.26865 126.000
14.28860 136.000
14.30854 117.000
14.32849 135.000
14.34844 137.000
14.36838 137.000
14.38833 134.000
14.40828 157.000
14.42823 131.000
14.44817 124.000
14.46812 137.000
14.48807 141.000
14.50801 126.000
14.52796 149.000
14.54791 141.000
14.56785 128.000
14.58780 134.000
14.60775 156.000
14.62770 144.000
14.64764 155.000
14.66759 157.000
14.68754 144.000
14.70748 136.000
14.72743 152.000
14.74738 154.000
14.76732 139.000
14.78727 141.000
14.80722 163.000
14.82716 163.000
14.84711 163.000
14.86706 158.000
14.88701 188.000
14.90695 212.000
14.92690 183.000
14.94685 182.000
14.96679 224.000
14.98674 196.000
15.00669 196.000
15.02663 208.000
15.04658 216.000
15.06653 202.000
15.08648 213.000
15.10642 227.000
15.12637 237.000
15.14632 250.000
15.16626 248.000
15.18621 251.000
15.20616 227.000
15.22610 257.000
15.24605 247.000
15.26600 322.000
15.28594 332.000
15.30589 347.000
15.32584 341.000
15.34579 384.000
15.36573 402.000
15.38568 465.000
15.40563 482.000
15.42557 624.000
15.44552 679.000
15.46547 721.000
15.48541 1015.000
15.50536 1298.000
15.52531 1784.000
15.54526 2758.000
15.56520 4248.000
15.58515 6708.000
15.60510 9412.000
15.62504 11753.000
15.64499 11580.000
15.66494 9168.000
15.68488 6150.000
15.70483 3519.000
15.72478 1929.000
15.74472 1223.000
15.76467 798.000
15.78462 555.000
15.80457 443.000
15.82451 401.000
15.84446 295.000
15.86441 309.000
15.88435 258.000
15.90430 257.000
15.92425 209.000
15.94419 197.000
15.96414 181.000
15.98409 179.000
16.00404 183.000
16.02398 166.000
16.04393 157.000
16.06388 133.000
16.08382 137.000
16.10377 132.000
16.12372 109.000
16.14366 126.000
16.16361 125.000
16.18356 120.000
16.20351 105.000
16.22345 107.000
16.24340 120.000
16.26335 109.000
16.28329 116.000
16.30324 83.000
16.32319 78.000
16.34313 84.000
16.36308 96.000
16.38303 93.000
16.40297 101.000
16.42292 72.000
16.44287 77.000
16.46282 86.000
16.48276 76.000
16.50271 96.000
16.52266 77.000
16.54260 72.000
16.56255 83.000
16.58250 61.000
16.60244 79.000
16.62239 64.000
16.64234 77.000
16.66229 81.000
16.68223 78.000
16.70218 75.000
16.72213 68.000
16.74207 82.000
16.76202 67.000
16.78197 65.000
16.80191 58.000
16.82186 73.000
16.84181 54.000
16.86175 57.000
16.88170 63.000
16.90165 73.000
16.92160 71.000
16.94154 71.000
16.96149 55.000
16.98144 70.000
17.00138 55.000
17.02133 66.000
17.04128 71.000
17.06122 62.000
17.08117 54.000
17.10112 51.000
17.12107 57.000
17.14101 65.000
17.16096 58.000
17.18091 50.000
17.20085 57.000
17.22080 52.000
17.24075 65.000
17.26069 48.000
17.28064 58.000
17.30059 56.000
17.32053 63.000
17.34048 48.000
17.36043 61.000
17.38038 60.000
17.40032 58.000
17.42027 57.000
17.44022 59.000
17.46016 66.000
17.48011 48.000
17.50006 56.000
17.52000 58.000
17.53995 45.000
17.55990 53.000
17.57985 61.000
17.59979 48.000
17.61974 63.000
17.63969 56.000
17.65963 65.000
17.67958 50.000
17.69953 49.000
17.71947 59.000
17.73942 54.000
17.75937 56.000
17.77932 50.000
17.79926 54.000
17.81921 65.000
17.83916 62.000
17.85910 54.000
17.87905 48.000
17.89900 47.000
17.91894 51.000
17.93889 60.000
17.95884 57.000
17.97878 72.000
17.99873 74.000
18.01868 68.000
18.03863 76.000
18.05857 86.000
18.07852 89.000
18.09847 108.000
18.11841 164.000
18.13836 184.000
18.15831 233.000
18.17825 319.000
18.19820 315.000
18.21815 384.000
18.23810 419.000
18.25804 333.000
18.27799 338.000
18.29794 260.000
18.31788 201.000
18.33783 162.000
18.35778 90.000
18.37772 80.000
18.39767 66.000
18.41762 73.000
18.43756 66.000
18.45751 48.000
18.47746 58.000
18.49741 56.000
18.51735 51.000
18.53730 58.000
18.55725 46.000
18.57719 58.000
18.59714 65.000
18.61709 59.000
18.63703 51.000
18.65698 47.000
18.67693 49.000
18.69688 55.000
18.71682 56.000
18.73677 70.000
18.75672 61.000
18.77666 56.000
18.79661 62.000
18.81656 56.000
18.83650 52.000
18.85645 52.000
18.87640 50.000
18.89634 61.000
18.91629 55.000
18.93624 56.000
18.95619 55.000
18.97613 57.000
18.99608 48.000
19.01603 45.000
19.03597 61.000
19.05592 53.000
19.07587 49.000
19.09581 57.000
19.11576 53.000
19.13571 52.000
19.15566 56.000
19.17560 43.000
19.19555 51.000
19.21550 45.000
19.23544 46.000
19.25539 40.000
19.27534 54.000
19.29528 66.000
19.31523 41.000
19.33518 43.000
19.35513 44.000
19.37507 57.000
19.39502 52.000
19.41497 55.000
19.43491 50.000
19.45486 56.000
19.47481 52.000
19.49475 54.000
19.51470 48.000
19.53465 50.000
19.55459 54.000
19.57454 40.000
19.59449 39.000
19.61444 70.000
19.63438 58.000
19.65433 61.000
19.67428 55.000
19.69422 47.000
19.71417 60.000
19.73412 48.000
19.75406 60.000
19.77401 56.000
19.79396 48.000
19.81391 53.000
19.83385 48.000
19.85380 60.000
19.87375 73.000
19.89369 53.000
19.91364 61.000
19.93359 51.000
19.95353 49.000
19.97348 46.000
19.99343 47.000
20.01337 48.000
20.03332 54.000
20.05327 41.000
20.07322 40.000
20.09316 55.000
20.11311 39.000
20.13306 55.000
20.15300 50.000
20.17295 54.000
20.19290 48.000
20.21284 55.000
20.23279 57.000
20.25274 47.000
20.27269 52.000
20.29263 54.000
20.31258 57.000
20.33253 39.000
20.35247 51.000
20.37242 61.000
20.39237 49.000
20.41231 48.000
20.43226 49.000
20.45221 55.000
20.47215 54.000
20.49210 53.000
20.51205 42.000
20.53200 61.000
20.55194 50.000
20.57189 55.000
20.59184 63.000
20.61178 61.000
20.63173 39.000
20.65168 53.000
20.67162 50.000
20.69157 58.000
20.71152 50.000
20.73147 58.000
20.75141 64.000
20.77136 59.000
20.79131 58.000
20.81125 54.000
20.83120 52.000
20.85115 37.000
20.87109 43.000
20.89104 66.000
20.91099 54.000
20.93094 40.000
20.95088 48.000
20.97083 50.000
20.99078 49.000
21.01072 58.000
21.03067 50.000
21.05062 53.000
21.07056 61.000
21.09051 61.000
21.11046 67.000
21.13040 50.000
21.15035 56.000
21.17030 64.000
21.19025 51.000
21.21019 70.000
21.23014 57.000
21.25009 53.000
21.27003 62.000
21.28998 56.000
21.30993 61.000
21.32987 53.000
21.34982 53.000
21.36977 45.000
21.38972 44.000
21.40966 46.000
21.42961 48.000
21.44956 43.000
21.46950 47.000
21.48945 50.000
21.50940 49.000
21.52934 61.000
21.54929 55.000
21.56924 53.000
21.58918 58.000
21.60913 60.000
21.62908 54.000
21.64903 46.000
21.66897 62.000
21.68892 61.000
21.70887 42.000
21.72881 53.000
21.74876 67.000
21.76871 62.000
21.78865 46.000
21.80860 56.000
21.82855 51.000
21.84850 39.000
21.86844 60.000
21.88839 54.000
21.90834 46.000
21.92828 54.000
21.94823 59.000
21.96818 58.000
21.98812 44.000
22.00807 58.000
22.02802 59.000
22.04796 45.000
22.06791 74.000
22.08786 52.000
22.10781 56.000
22.12775 59.000
22.14770 61.000
22.16765 59.000
22.18759 44.000
22.20754 41.000
22.22749 56.000
22.24743 43.000
22.26738 57.000
22.28733 67.000
22.30728 51.000
22.32722 66.000
22.34717 67.000
22.36712 59.000
22.38706 54.000
22.40701 57.000
22.42696 63.000
22.44690 59.000
22.46685 58.000
22.48680 42.000
22.50675 47.000
22.52669 49.000
22.54664 60.000
22.56659 47.000
22.58653 52.000
22.60648 52.000
22.62643 61.000
22.64637 62.000
22.66632 57.000
22.68627 51.000
22.70621 48.000
22.72616 41.000
22.74611 47.000
22.76606 50.000
22.78600 51.000
22.80595 66.000
22.82590 44.000
22.84584 53.000
22.86579 46.000
22.88574 55.000
22.90568 49.000
22.92563 54.000
22.94558 63.000
22.96553 48.000
22.98547 45.000
23.00542 44.000
23.02537 59.000
23.04531 58.000
23.06526 62.000
23.08521 64.000
23.10515 57.000
23.12510 62.000
23.14505 58.000
23.16499 64.000
23.18494 50.000
23.20489 58.000
23.22484 56.000
23.24478 51.000
23.26473 50.000
23.28468 52.000
23.30462 63.000
23.32457 47.000
23.34452 52.000
23.36446 45.000
23.38441 43.000
23.40436 62.000
23.42431 63.000
23.44425 52.000
23.46420 57.000
23.48415 44.000
23.50409 48.000
23.52404 56.000
23.54399 56.000
23.56393 53.000
23.58388 47.000
23.60383 59.000
23.62377 46.000
23.64372 38.000
23.66367 53.000
23.68362 74.000
23.70356 50.000
23.72351 49.000
23.74346 50.000
23.76340 54.000
23.78335 72.000
23.80330 54.000
23.82324 66.000
23.84319 49.000
23.86314 64.000
23.88309 47.000
23.90303 60.000
23.92298 52.000
23.94293 62.000
23.96287 56.000
23.98282 52.000
24.00277 58.000
24.02271 60.000
24.04266 52.000
24.06261 55.000
24.08256 65.000
24.10250 61.000
24.12245 63.000
24.14240 52.000
24.16234 42.000
24.18229 53.000
24.20224 51.000
24.22218 56.000
24.24213 49.000
24.26208 64.000
24.28202 69.000
24.30197 74.000
24.32192 49.000
24.34187 64.000
24.36181 55.000
24.38176 53.000
24.40171 52.000
24.42165 57.000
24.44160 66.000
24.46155 56.000
24.48149 52.000
24.50144 45.000
24.52139 61.000
24.54134 61.000
24.56128 61.000
24.58123 54.000
24.60118 53.000
24.62112 58.000
24.64107 59.000
24.66102 56.000
24.68096 68.000
24.70091 62.000
24.72086 61.000
24.74080 57.000
24.76075 62.000
24.78070 54.000
24.80065 61.000
24.82059 54.000
24.84054 54.000
24.86049 52.000
24.88043 58.000
24.90038 57.000
24.92033 59.000
24.94027 61.000
24.96022 68.000
24.98017 68.000
25.00012 46.000
25.02006 53.000
25.04001 63.000
25.05996 48.000
25.07990 55.000
25.09985 61.000
25.11980 49.000
25.13974 58.000
25.15969 62.000
25.17964 45.000
25.19958 53.000
25.21953 74.000
25.23948 54.000
25.25943 63.000
25.27937 58.000
25.29932 51.000
25.31927 58.000
25.33921 66.000
25.35916 52.000
25.37911 57.000
25.39905 73.000
25.41900 79.000
25.43895 55.000
25.45890 50.000
25.47884 89.000
25.49879 60.000
25.51874 66.000
25.53868 64.000
25.55863 64.000
25.57858 65.000
25.59852 66.000
25.61847 54.000
25.63842 68.000
25.65837 47.000
25.67831 59.000
25.69826 65.000
25.71821 54.000
25.73815 58.000
25.75810 48.000
25.77805 48.000
25.79799 54.000
25.81794 63.000
25.83789 57.000
25.85783 59.000
25.87778 52.000
25.89773 52.000
25.91768 66.000
25.93762 59.000
25.95757 60.000
25.97752 54.000
25.99746 64.000
26.01741 69.000
26.03736 60.000
26.05730 52.000
26.07725 57.000
26.09720 66.000
26.11715 63.000
26.13709 57.000
26.15704 73.000
26.17699 65.000
26.19693 52.000
26.21688 58.000
26.23683 60.000
26.25677 61.000
26.27672 55.000
26.29667 52.000
26.31661 58.000
26.33656 57.000
26.35651 60.000
26.37646 67.000
26.39640 62.000
26.41635 52.000
26.43630 53.000
26.45624 59.000
26.47619 62.000
26.49614 56.000
26.51608 57.000
26.53603 68.000
26.55598 66.000
26.57593 46.000
26.59587 69.000
26.61582 54.000
26.63577 54.000
26.65571 57.000
26.67566 47.000
26.69561 60.000
26.71555 44.000
26.73550 62.000
26.75545 53.000
26.77539 60.000
26.79534 57.000
26.81529 57.000
26.83524 68.000
26.85518 69.000
26.87513 49.000
26.89508 51.000
26.91502 62.000
26.93497 55.000
26.95492 68.000
26.97486 55.000
26.99481 69.000
27.01476 62.000
27.03471 58.000
27.05465 60.000
27.07460 55.000
27.09455 61.000
27.11449 51.000
27.13444 59.000
27.15439 64.000
27.17433 52.000
27.19428 60.000
27.21423 53.000
27.23417 56.000
27.25412 64.000
27.27407 61.000
27.29402 60.000
27.31396 61.000
27.33391 43.000
27.35386 53.000
27.37380 54.000
27.39375 49.000
27.41370 63.000
27.43364 54.000
27.45359 71.000
27.47354 61.000
27.49349 52.000
27.51343 59.000
27.53338 63.000
27.55333 51.000
27.57327 59.000
27.59322 57.000
27.61317 53.000
27.63311 57.000
27.65306 51.000
27.67301 55.000
27.69296 48.000
27.71290 75.000
27.73285 54.000
27.75280 58.000
27.77274 68.000
27.79269 62.000
27.81264 41.000
27.83258 53.000
27.85253 63.000
27.87248 54.000
27.89242 45.000
27.91237 57.000
27.93232 68.000
27.95227 50.000
27.97221 56.000
27.99216 61.000
28.01211 40.000
28.03205 47.000
28.05200 51.000
28.07195 64.000
28.09189 59.000
28.11184 53.000
28.13179 65.000
28.15174 62.000
28.17168 62.000
28.19163 54.000
28.21158 65.000
28.23152 60.000
28.25147 54.000
28.27142 62.000
28.29136 66.000
28.31131 58.000
28.33126 86.000
28.35120 52.000
28.37115 48.000
28.39110 51.000
28.41105 60.000
28.43099 63.000
28.45094 61.000
28.47089 54.000
28.49083 68.000
28.51078 64.000
28.53073 59.000
28.55067 67.000
28.57062 58.000
28.59057 55.000
28.61052 59.000
28.63046 64.000
28.65041 59.000
28.67036 56.000
28.69030 63.000
28.71025 55.000
28.73020 65.000
28.75014 52.000
28.77009 53.000
28.79004 79.000
28.80998 69.000
28.82993 53.000
28.84988 60.000
28.86983 62.000
28.88977 66.000
28.90972 65.000
28.92967 60.000
28.94961 72.000
28.96956 57.000
28.98951 59.000
29.00945 59.000
29.02940 39.000
29.04935 53.000
29.06930 62.000
29.08924 66.000
29.10919 65.000
29.12914 56.000
29.14908 60.000
29.16903 53.000
29.18898 66.000
29.20892 62.000
29.22887 61.000
29.24882 65.000
29.26877 64.000
29.28871 51.000
29.30866 62.000
29.32861 51.000
29.34855 70.000
29.36850 54.000
29.38845 56.000
29.40839 69.000
29.42834 64.000
29.44829 62.000
29.46823 55.000
29.48818 77.000
29.50813 59.000
29.52808 65.000
29.54802 58.000
29.56797 65.000
29.58792 61.000
29.60786 79.000
29.62781 73.000
29.64776 74.000
29.66770 68.000
29.68765 67.000
29.70760 86.000
29.72755 87.000
29.74749 86.000
29.76744 90.000
29.78739 93.000
29.80733 121.000
29.82728 138.000
29.84723 145.000
29.86717 191.000
29.88712 219.000
29.90707 248.000
29.92701 271.000
29.94696 345.000
29.96691 332.000
29.98686 348.000
30.00680 387.000
30.02675 404.000
30.04670 448.000
30.06664 447.000
30.08659 383.000
30.10654 356.000
30.12648 274.000
30.14643 261.000
30.16638 245.000
30.18633 161.000
30.20627 146.000
30.22622 138.000
30.24617 97.000
30.26611 93.000
30.28606 81.000
30.30601 68.000
30.32595 68.000
30.34590 62.000
30.36585 80.000
30.38579 77.000
30.40574 77.000
30.42569 64.000
30.44564 68.000
30.46558 70.000
30.48553 75.000
30.50548 63.000
30.52542 78.000
30.54537 78.000
30.56532 71.000
30.58526 76.000
30.60521 68.000
30.62516 77.000
30.64511 73.000
30.66505 60.000
30.68500 58.000
30.70495 71.000
30.72489 62.000
30.74484 56.000
30.76479 47.000
30.78473 73.000
30.80468 57.000
30.82463 72.000
30.84458 75.000
30.86452 71.000
30.88447 65.000
30.90442 68.000
30.92436 70.000
30.94431 63.000
30.96426 83.000
30.98420 56.000
31.00415 80.000
31.02410 78.000
31.04404 68.000
31.06399 72.000
31.08394 76.000
31.10389 76.000
31.12383 85.000
31.14378 76.000
31.16373 78.000
31.18367 68.000
31.20362 69.000
31.22357 70.000
31.24351 85.000
31.26346 79.000
31.28341 85.000
31.30336 81.000
31.32330 83.000
31.34325 84.000
31.36320 72.000
31.38314 92.000
31.40309 106.000
31.42304 110.000
31.44298 123.000
31.46293 135.000
31.48288 180.000
31.50282 244.000
31.52277 320.000
31.54272 425.000
31.56267 567.000
31.58261 638.000
31.60256 696.000
31.62251 664.000
31.64245 598.000
31.66240 596.000
31.68235 458.000
31.70229 368.000
31.72224 305.000
31.74219 260.000
31.76214 191.000
31.78208 155.000
31.80203 136.000
31.82198 96.000
31.84192 106.000
31.86187 100.000
31.88182 102.000
31.90176 88.000
31.92171 87.000
31.94166 74.000
31.96160 91.000
31.98155 75.000
32.00150 83.000
32.02145 68.000
32.04139 71.000
32.06134 52.000
32.08129 66.000
32.10123 64.000
32.12118 73.000
32.14113 54.000
32.16107 66.000
32.18102 67.000
32.20097 66.000
32.22092 68.000
32.24086 71.000
32.26081 76.000
32.28076 69.000
32.30070 84.000
32.32065 55.000
32.34060 59.000
32.36054 71.000
32.38049 69.000
32.40044 57.000
32.42039 67.000
32.44033 46.000
32.46028 67.000
32.48023 59.000
32.50017 47.000
32.52012 53.000
32.54007 48.000
32.56001 80.000
32.57996 47.000
32.59991 54.000
32.61985 55.000
32.63980 57.000
32.65975 51.000
32.67970 54.000
32.69964 56.000
32.71959 56.000
32.73954 70.000
32.75948 52.000
32.77943 62.000
32.79938 58.000
32.81932 68.000
32.83927 60.000
32.85922 62.000
32.87917 70.000
32.89911 61.000
32.91906 42.000
32.93901 57.000
32.95895 57.000
32.97890 68.000
32.99885 50.000
33.01879 77.000
33.03874 51.000
33.05869 65.000
33.07863 48.000
33.09858 69.000
33.11853 57.000
33.13848 60.000
33.15842 47.000
33.17837 54.000
33.19832 58.000
33.21826 56.000
33.23821 52.000
33.25816 52.000
33.27810 54.000
33.29805 54.000
33.31800 53.000
33.33795 52.000
33.35789 58.000
33.37784 55.000
33.39779 57.000
33.41773 60.000
33.43768 67.000
33.45763 53.000
33.47757 60.000
33.49752 46.000
33.51747 48.000
33.53741 60.000
33.55736 67.000
33.57731 62.000
33.59726 50.000
33.61720 68.000
33.63715 58.000
33.65710 49.000
33.67704 76.000
33.69699 58.000
33.71694 71.000
33.73688 53.000
33.75683 57.000
33.77678 57.000
33.79673 68.000
33.81667 73.000
33.83662 61.000
33.85657 54.000
33.87651 59.000
33.89646 67.000
33.91641 80.000
33.93635 70.000
33.95630 63.000
33.97625 54.000
33.99620 43.000
34.01614 59.000
34.03609 54.000
34.05604 65.000
34.07598 61.000
34.09593 71.000
34.11588 63.000
34.13582 60.000
34.15577 64.000
34.17572 56.000
34.19566 77.000
34.21561 57.000
34.23556 63.000
34.25551 70.000
34.27545 71.000
34.29540 71.000
34.31535 80.000
34.33529 62.000
34.35524 62.000
34.37519 55.000
34.39513 73.000
34.41508 61.000
34.43503 54.000
34.45498 65.000
34.47492 54.000
34.49487 50.000
34.51482 57.000
34.53476 53.000
34.55471 70.000
34.57466 61.000
34.59460 60.000
34.61455 65.000
34.63450 58.000
34.65444 67.000
34.67439 69.000
34.69434 63.000
34.71429 73.000
34.73423 66.000
34.75418 66.000
34.77413 71.000
34.79407 70.000
34.81402 84.000
34.83397 73.000
34.85391 84.000
34.87386 69.000
34.89381 75.000
34.91376 86.000
34.93370 86.000
34.95365 91.000
34.97360 104.000
34.99354 112.000
35.01349 109.000
35.03344 128.000
35.05338 132.000
35.07333 164.000
35.09328 176.000
35.11322 203.000
35.13317 288.000
35.15312 322.000
35.17307 440.000
35.19301 486.000
35.21296 567.000
35.23291 641.000
35.25285 777.000
35.27280 833.000
35.29275 885.000
35.31269 1002.000
35.33264 1042.000
35.35259 1119.000
35.37254 1159.000
35.39248 1169.000
35.41243 1155.000
35.43238 1107.000
35.45232 1039.000
35.47227 931.000
35.49222 843.000
35.51216 746.000
35.53211 554.000
35.55206 473.000
35.57201 407.000
35.59195 322.000
35.61190 216.000
35.63185 230.000
35.65179 168.000
35.67174 151.000
35.69169 169.000
35.71163 171.000
35.73158 168.000
35.75153 152.000
35.77147 183.000
35.79142 252.000
35.81137 329.000
35.83132 446.000
35.85126 607.000
35.87121 765.000
35.89116 800.000
35.91110 825.000
35.93105 743.000
35.95100 703.000
35.97094 608.000
35.99089 544.000
36.01084 488.000
36.03079 344.000
36.05073 288.000
36.07068 194.000
36.09063 171.000
36.11057 141.000
36.13052 91.000
36.15047 103.000
36.17041 94.000
36.19036 92.000
36.21031 93.000
36.23025 97.000
36.25020 87.000
36.27015 84.000
36.29010 76.000
36.31004 82.000
36.32999 71.000
36.34994 85.000
36.36988 97.000
36.38983 79.000
36.40978 71.000
36.42972 72.000
36.44967 61.000
36.46962 88.000
36.48957 89.000
36.50951 66.000
36.52946 81.000
36.54941 73.000
36.56935 78.000
36.58930 64.000
36.60925 75.000
36.62919 76.000
36.64914 93.000
36.66909 74.000
36.68903 92.000
36.70898 108.000
36.72893 134.000
36.74888 153.000
36.76882 172.000
36.78877 170.000
36.80872 171.000
36.82866 192.000
36.84861 176.000
36.86856 198.000
36.88850 172.000
36.90845 205.000
36.92840 163.000
36.94835 135.000
36.96829 173.000
36.98824 159.000
37.00819 137.000
37.02813 172.000
37.04808 166.000
37.06803 142.000
37.08797 148.000
37.10792 128.000
37.12787 126.000
37.14781 135.000
37.16776 103.000
37.18771 90.000
37.20766 86.000
37.22760 78.000
37.24755 83.000
37.26750 70.000
37.28744 79.000
37.30739 85.000
37.32734 66.000
37.34728 108.000
37.36723 71.000
37.38718 76.000
37.40713 83.000
37.42707 75.000
37.44702 80.000
37.46697 76.000
37.48691 83.000
37.50686 79.000
37.52681 79.000
37.54675 77.000
37.56670 86.000
37.58665 74.000
37.60660 86.000
37.62654 77.000
37.64649 79.000
37.66644 71.000
37.68638 67.000
37.70633 88.000
37.72628 83.000
37.74622 76.000
37.76617 72.000
37.78612 73.000
37.80606 65.000
37.82601 69.000
37.84596 52.000
37.86591 59.000
37.88585 72.000
37.90580 85.000
37.92575 76.000
37.94569 76.000
37.96564 74.000
37.98559 79.000
38.00553 74.000
38.02548 83.000
38.04543 81.000
38.06538 87.000
38.08532 67.000
38.10527 82.000
38.12522 74.000
38.14516 64.000
38.16511 76.000
38.18506 81.000
38.20500 86.000
38.22495 77.000
38.24490 63.000
38.26484 80.000
38.28479 86.000
38.30474 79.000
38.32469 75.000
38.34463 92.000
38.36458 74.000
38.38453 88.000
38.40447 72.000
38.42442 85.000
38.44437 87.000
38.46431 86.000
38.48426 101.000
38.50421 84.000
38.52416 86.000
38.54410 93.000
38.56405 109.000
38.58400 98.000
38.60394 96.000
38.62389 86.000
38.64384 108.000
38.66378 84.000
38.68373 101.000
38.70368 103.000
38.72362 94.000
38.74357 116.000
38.76352 107.000
38.78347 93.000
38.80341 131.000
38.82336 129.000
38.84331 111.000
38.86325 128.000
38.88320 128.000
38.90315 161.000
38.92309 145.000
38.94304 135.000
38.96299 147.000
38.98294 141.000
39.00288 144.000
39.02283 144.000
39.04278 173.000
39.06272 182.000
39.08267 165.000
39.10262 225.000
39.12256 213.000
39.14251 256.000
39.16246 236.000
39.18241 285.000
39.20235 300.000
39.22230 322.000
39.24225 372.000
39.26219 470.000
39.28214 512.000
39.30209 658.000
39.32203 861.000
39.34198 973.000
39.36193 1027.000
39.38187 1061.000
39.40182 1070.000
39.42177 1037.000
39.44172 908.000
39.46166 799.000
39.48161 769.000
39.50156 664.000
39.52150 561.000
39.54145 494.000
39.56140 370.000
39.58134 320.000
39.60129 280.000
39.62124 253.000
39.64119 200.000
39.66113 207.000
39.68108 200.000
39.70103 163.000
39.72097 151.000
39.74092 122.000
39.76087 123.000
39.78081 117.000
39.80076 126.000
39.82071 96.000
39.84065 102.000
39.86060 100.000
39.88055 103.000
39.90050 89.000
39.92044 94.000
39.94039 91.000
39.96034 84.000
39.98028 89.000
40.00023 72.000
40.02018 86.000
40.04012 88.000
40.06007 79.000
40.08002 79.000
40.09997 75.000
40.11991 74.000
40.13986 74.000
40.15981 79.000
40.17975 79.000
40.19970 74.000
40.21965 62.000
40.23959 58.000
40.25954 69.000
40.27949 90.000
40.29943 80.000
40.31938 75.000
40.33933 55.000
40.35928 49.000
40.37922 63.000
40.39917 72.000
40.41912 70.000
40.43906 68.000
40.45901 51.000
40.47896 70.000
40.49890 68.000
40.51885 60.000
40.53880 64.000
40.55875 47.000
40.57869 79.000
40.59864 68.000
40.61859 74.000
40.63853 60.000
40.65848 59.000
40.67843 62.000
40.69837 54.000
40.71832 60.000
40.73827 53.000
40.75822 66.000
40.77816 71.000
40.79811 64.000
40.81806 68.000
40.83800 71.000
40.85795 65.000
40.87790 64.000
40.89784 65.000
40.91779 61.000
40.93774 56.000
40.95768 58.000
40.97763 60.000
40.99758 56.000
41.01753 64.000
41.03747 55.000
41.05742 70.000
41.07737 66.000
41.09731 49.000
41.11726 52.000
41.13721 58.000
41.15715 61.000
41.17710 61.000
41.19705 55.000
41.21700 64.000
41.23694 69.000
41.25689 59.000
41.27684 53.000
41.29678 51.000
41.31673 62.000
41.33668 65.000
41.35662 57.000
41.37657 63.000
41.39652 67.000
41.41646 52.000
41.43641 48.000
41.45636 57.000
41.47631 60.000
41.49625 50.000
41.51620 64.000
41.53615 67.000
41.55609 60.000
41.57604 66.000
41.59599 47.000
41.61593 62.000
41.63588 49.000
41.65583 63.000
41.67578 53.000
41.69572 61.000
41.71567 63.000
41.73562 58.000
41.75556 57.000
41.77551 65.000
41.79546 56.000
41.81540 68.000
41.83535 54.000
41.85530 52.000
41.87524 60.000
41.89519 66.000
41.91514 72.000
41.93509 60.000
41.95503 69.000
41.97498 50.000
41.99493 56.000
42.01487 55.000
42.03482 68.000
42.05477 74.000
42.07471 55.000
42.09466 63.000
42.11461 54.000
42.13456 59.000
42.15450 60.000
42.17445 46.000
42.19440 59.000
42.21434 51.000
42.23429 70.000
42.25424 56.000
42.27418 51.000
42.29413 74.000
42.31408 61.000
42.33403 58.000
42.35397 59.000
42.37392 60.000
42.39387 68.000
42.41381 69.000
42.43376 70.000
42.45371 60.000
42.47365 60.000
42.49360 59.000
42.51355 79.000
42.53349 75.000
42.55344 73.000
42.57339 86.000
42.59334 84.000
42.61328 87.000
42.63323 84.000
42.65318 81.000
42.67312 121.000
42.69307 105.000
42.71302 98.000
42.73296 145.000
42.75291 141.000
42.77286 146.000
42.79281 177.000
42.81275 185.000
42.83270 177.000
42.85265 238.000
42.87259 209.000
42.89254 232.000
42.91249 219.000
42.93243 234.000
42.95238 275.000
42.97233 283.000
42.99227 269.000
43.01222 293.000
43.03217 281.000
43.05212 304.000
43.07206 266.000
43.09201 259.000
43.11196 268.000
43.13190 262.000
43.15185 250.000
43.17180 226.000
43.19174 221.000
43.21169 209.000
43.23164 204.000
43.25159 218.000
43.27153 270.000
43.29148 291.000
43.31143 304.000
43.33137 325.000
43.35132 418.000
43.37127 414.000
43.39121 464.000
43.41116 414.000
43.43111 412.000
43.45105 434.000
43.47100 411.000
43.49095 344.000
43.51090 321.000
43.53084 298.000
43.55079 274.000
43.57074 248.000
43.59068 205.000
43.61063 173.000
43.63058 165.000
43.65052 158.000
43.67047 130.000
43.69042 120.000
43.71037 117.000
43.73031 97.000
43.75026 113.000
43.77021 97.000
43.79015 97.000
43.81010 93.000
43.83005 86.000
43.84999 80.000
43.86994 85.000
43.88989 76.000
43.90984 86.000
43.92978 67.000
43.94973 74.000
43.96968 60.000
43.98962 68.000
44.00957 65.000
44.02952 75.000
44.04946 68.000
44.06941 78.000
44.08936 65.000
44.10930 73.000
44.12925 72.000
44.14920 72.000
44.16915 74.000
44.18909 55.000
44.20904 59.000
44.22899 51.000
44.24893 65.000
44.26888 54.000
44.28883 64.000
44.30877 61.000
44.32872 66.000
44.34867 65.000
44.36862 81.000
44.38856 62.000
44.40851 53.000
44.42846 68.000
44.44840 66.000
44.46835 82.000
44.48830 78.000
44.50824 76.000
44.52819 64.000
44.54814 63.000
44.56808 59.000
44.58803 56.000
44.60798 59.000
44.62793 70.000
44.64787 62.000
44.66782 62.000
44.68777 61.000
44.70771 68.000
44.72766 65.000
44.74761 62.000
44.76755 52.000
44.78750 71.000
44.80745 63.000
44.82740 64.000
44.84734 74.000
44.86729 47.000
44.88724 59.000
44.90718 54.000
44.92713 76.000
44.94708 79.000
44.96702 68.000
44.98697 70.000
45.00692 66.000
45.02686 73.000
45.04681 68.000
45.06676 50.000
45.08671 91.000
45.10665 63.000
45.12660 73.000
45.14655 61.000
45.16649 69.000
45.18644 66.000
45.20639 72.000
45.22633 49.000
45.24628 61.000
45.26623 67.000
45.28618 71.000
45.30612 60.000
45.32607 56.000
45.34602 68.000
45.36596 67.000
45.38591 57.000
45.40586 65.000
45.42580 71.000
45.44575 69.000
45.46570 42.000
45.48565 60.000
45.50559 63.000
45.52554 62.000
45.54549 66.000
45.56543 63.000
45.58538 53.000
45.60533 46.000
45.62527 72.000
45.64522 48.000
45.66517 69.000
45.68511 62.000
45.70506 65.000
45.72501 64.000
45.74496 70.000
45.76490 68.000
45.78485 62.000
45.80480 70.000
45.82474 65.000
45.84469 50.000
45.86464 62.000
45.88458 56.000
45.90453 72.000
45.92448 63.000
45.94443 65.000
45.96437 46.000
45.98432 58.000
46.00427 50.000
46.02421 48.000
46.04416 45.000
46.06411 72.000
46.08405 44.000
46.10400 64.000
46.12395 61.000
46.14389 61.000
46.16384 51.000
46.18379 63.000
46.20374 66.000
46.22368 64.000
46.24363 59.000
46.26358 60.000
46.28352 61.000
46.30347 54.000
46.32342 83.000
46.34336 74.000
46.36331 64.000
46.38326 59.000
46.40321 71.000
46.42315 68.000
46.44310 65.000
46.46305 66.000
46.48299 71.000
46.50294 72.000
46.52289 66.000
46.54283 57.000
46.56278 61.000
46.58273 55.000
46.60267 64.000
46.62262 67.000
46.64257 70.000
46.66252 61.000
46.68246 53.000
46.70241 66.000
46.72236 58.000
46.74230 64.000
46.76225 68.000
46.78220 62.000
46.80214 59.000
46.82209 72.000
46.84204 68.000
46.86199 82.000
46.88193 69.000
46.90188 86.000
46.92183 63.000
46.94177 76.000
46.96172 84.000
46.98167 68.000
47.00161 75.000
47.02156 62.000
47.04151 56.000
47.06146 68.000
47.08140 57.000
47.10135 71.000
47.12130 61.000
47.14124 54.000
47.16119 66.000
47.18114 80.000
47.20108 82.000
47.22103 69.000
47.24098 78.000
47.26092 68.000
47.28087 65.000
47.30082 62.000
47.32077 61.000
47.34071 73.000
47.36066 68.000
47.38061 70.000
47.40055 72.000
47.42050 62.000
47.44045 72.000
47.46039 65.000
47.48034 80.000
47.50029 84.000
47.52024 78.000
47.54018 69.000
47.56013 84.000
47.58008 67.000
47.60002 77.000
47.61997 58.000
47.63992 72.000
47.65986 84.000
47.67981 92.000
47.69976 89.000
47.71970 65.000
47.73965 83.000
47.75960 74.000
47.77955 71.000
47.79949 68.000
47.81944 90.000
47.83939 92.000
47.85933 90.000
47.87928 94.000
47.89923 87.000
47.91917 96.000
47.93912 94.000
47.95907 96.000
47.97902 96.000
47.99896 105.000
48.01891 112.000
48.03886 98.000
48.05880 118.000
48.07875 126.000
48.09870 119.000
48.11864 121.000
48.13859 143.000
48.15854 143.000
48.17848 140.000
48.19843 143.000
48.21838 139.000
48.23833 152.000
48.25827 176.000
48.27822 154.000
48.29817 169.000
48.31811 210.000
48.33806 238.000
48.35801 232.000
48.37795 238.000
48.39790 289.000
48.41785 302.000
48.43780 384.000
48.45774 426.000
48.47769 523.000
48.49764 600.000
48.51758 647.000
48.53753 711.000
48.55748 817.000
48.57742 831.000
48.59737 764.000
48.61732 732.000
48.63726 767.000
48.65721 708.000
48.67716 650.000
48.69711 653.000
48.71705 556.000
48.73700 511.000
48.75695 505.000
48.77689 398.000
48.79684 351.000
48.81679 314.000
48.83673 252.000
48.85668 242.000
48.87663 203.000
48.89658 217.000
48.91652 200.000
48.93647 159.000
48.95642 180.000
48.97636 141.000
48.99631 136.000
49.01626 136.000
49.03620 113.000
49.05615 137.000
49.07610 115.000
49.09605 121.000
49.11599 111.000
49.13594 122.000
49.15589 106.000
49.17583 113.000
49.19578 94.000
49.21573 110.000
49.23567 109.000
49.25562 109.000
49.27557 96.000
49.29551 92.000
49.31546 76.000
49.33541 80.000
49.35536 86.000
49.37530 96.000
49.39525 81.000
49.41520 95.000
49.43514 80.000
49.45509 84.000
49.47504 60.000
49.49498 74.000
49.51493 77.000
49.53488 74.000
49.55483 74.000
49.57477 67.000
49.59472 58.000
49.61467 73.000
49.63461 70.000
49.65456 55.000
49.67451 62.000
49.69445 92.000
49.71440 61.000
49.73435 60.000
49.75429 97.000
49.77424 61.000
49.79419 68.000
49.81414 68.000
49.83408 67.000
49.85403 62.000
49.87398 69.000
49.89392 62.000
49.91387 72.000
49.93382 76.000
49.95376 67.000
49.97371 57.000
49.99366 79.000
50.01361 68.000
50.03355 73.000
50.05350 70.000
50.07345 68.000
50.09339 71.000
50.11334 58.000
50.13329 71.000
50.15323 62.000
50.17318 64.000
50.19313 56.000
50.21307 50.000
50.23302 68.000
50.25297 63.000
50.27292 65.000
50.29286 56.000
50.31281 79.000
50.33276 61.000
50.35270 48.000
50.37265 75.000
50.39260 64.000
50.41254 67.000
50.43249 56.000
50.45244 62.000
50.47239 51.000
50.49233 55.000
50.51228 51.000
50.53223 53.000
50.55217 57.000
50.57212 53.000
50.59207 74.000
50.61201 73.000
50.63196 55.000
50.65191 43.000
50.67186 56.000
50.69180 46.000
50.71175 71.000
50.73170 71.000
50.75164 48.000
50.77159 60.000
50.79154 50.000
50.81148 54.000
50.83143 53.000
50.85138 73.000
50.87132 55.000
50.89127 64.000
50.91122 56.000
50.93117 62.000
50.95111 58.000
50.97106 72.000
50.99101 50.000
51.01095 62.000
51.03090 55.000
51.05085 57.000
51.07079 44.000
51.09074 62.000
51.11069 62.000
51.13064 51.000
51.15058 53.000
51.17053 56.000
51.19048 55.000
51.21042 47.000
51.23037 53.000
51.25032 50.000
51.27026 44.000
51.29021 70.000
51.31016 56.000
51.33010 54.000
51.35005 42.000
51.37000 44.000
51.38995 59.000
51.40989 55.000
51.42984 52.000
51.44979 55.000
51.46973 62.000
51.48968 58.000
51.50963 49.000
51.52957 51.000
51.54952 57.000
51.56947 50.000
51.58942 57.000
51.60936 61.000
51.62931 73.000
51.64926 45.000
51.66920 49.000
51.68915 57.000
51.70910 56.000
51.72904 54.000
51.74899 45.000
51.76894 52.000
51.78888 67.000
51.80883 53.000
51.82878 57.000
51.84873 51.000
51.86867 54.000
51.88862 56.000
51.90857 53.000
51.92851 51.000
51.94846 39.000
51.96841 63.000
51.98835 56.000
52.00830 49.000
52.02825 49.000
52.04820 55.000
52.06814 61.000
52.08809 47.000
52.10804 53.000
52.12798 40.000
52.14793 41.000
52.16788 46.000
52.18782 59.000
52.20777 63.000
52.22772 54.000
52.24767 51.000
52.26761 44.000
52.28756 61.000
52.30751 77.000
52.32745 51.000
52.34740 46.000
52.36735 52.000
52.38729 42.000
52.40724 45.000
52.42719 49.000
52.44713 39.000
52.46708 51.000
52.48703 55.000
52.50698 47.000
52.52692 56.000
52.54687 47.000
52.56682 46.000
52.58676 52.000
52.60671 57.000
52.62666 71.000
52.64660 60.000
52.66655 39.000
52.68650 60.000
52.70645 54.000
52.72639 59.000
52.74634 61.000
52.76629 53.000
52.78623 57.000
52.80618 59.000
52.82613 50.000
52.84607 47.000
52.86602 41.000
52.88597 61.000
52.90591 50.000
52.92586 62.000
52.94581 58.000
52.96576 56.000
52.98570 52.000
53.00565 60.000
53.02560 69.000
53.04554 87.000
53.06549 60.000
53.08544 64.000
53.10538 87.000
53.12533 79.000
53.14528 104.000
53.16523 97.000
53.18517 105.000
53.20512 111.000
53.22507 92.000
53.24501 83.000
53.26496 91.000
53.28491 105.000
53.30485 118.000
53.32480 88.000
53.34475 107.000
53.36469 121.000
53.38464 112.000
53.40459 101.000
53.42454 116.000
53.44448 117.000
53.46443 122.000
53.48438 131.000
53.50432 96.000
53.52427 102.000
53.54422 82.000
53.56416 105.000
53.58411 106.000
53.60406 72.000
53.62401 79.000
53.64395 81.000
53.66390 59.000
53.68385 63.000
53.70379 71.000
53.72374 39.000
53.74369 54.000
53.76363 41.000
53.78358 60.000
53.80353 59.000
53.82348 53.000
53.84342 56.000
53.86337 45.000
53.88332 57.000
53.90326 55.000
53.92321 46.000
53.94316 59.000
53.96310 55.000
53.98305 45.000
54.00300 46.000
54.02294 48.000
54.04289 59.000
54.06284 60.000
54.08279 52.000
54.10273 54.000
54.12268 65.000
54.14263 59.000
54.16257 47.000
54.18252 57.000
54.20247 51.000
54.22241 43.000
54.24236 50.000
54.26231 53.000
54.28226 57.000
54.30220 47.000
54.32215 58.000
54.34210 55.000
54.36204 61.000
54.38199 55.000
54.40194 38.000
54.42188 42.000
54.44183 58.000
54.46178 55.000
54.48172 53.000
54.50167 51.000
54.52162 43.000
54.54157 49.000
54.56151 39.000
54.58146 58.000
54.60141 52.000
54.62135 62.000
54.64130 48.000
54.66125 47.000
54.68119 53.000
54.70114 43.000
54.72109 70.000
54.74104 52.000
54.76098 50.000
54.78093 51.000
54.80088 53.000
54.82082 49.000
54.84077 42.000
54.86072 48.000
54.88066 49.000
54.90061 51.000
54.92056 54.000
54.94050 59.000
54.96045 44.000
54.98040 65.000
55.00035 60.000
55.02029 48.000
55.04024 51.000
55.06019 48.000
55.08013 45.000
55.10008 59.000
55.12003 51.000
55.13997 42.000
55.15992 37.000
55.17987 62.000
55.19982 56.000
55.21976 51.000
55.23971 55.000
55.25966 58.000
55.27960 52.000
55.29955 51.000
55.31950 59.000
55.33944 59.000
55.35939 54.000
55.37934 49.000
55.39929 59.000
55.41923 55.000
55.43918 59.000
55.45913 43.000
55.47907 46.000
55.49902 50.000
55.51897 59.000
55.53891 50.000
55.55886 56.000
55.57881 42.000
55.59875 45.000
55.61870 56.000
55.63865 38.000
55.65860 45.000
55.67854 65.000
55.69849 36.000
55.71844 50.000
55.73838 43.000
55.75833 45.000
55.77828 51.000
55.79822 48.000
55.81817 61.000
55.83812 47.000
55.85807 56.000
55.87801 56.000
55.89796 47.000
55.91791 53.000
55.93785 45.000
55.95780 54.000
55.97775 42.000
55.99769 58.000
56.01764 52.000
56.03759 44.000
56.05753 66.000
56.07748 54.000
56.09743 57.000
56.11738 42.000
56.13732 69.000
56.15727 42.000
56.17722 42.000
56.19716 59.000
56.21711 56.000
56.23706 54.000
56.25700 53.000
56.27695 73.000
56.29690 64.000
56.31685 49.000
56.33679 67.000
56.35674 53.000
56.37669 71.000
56.39663 72.000
56.41658 80.000
56.43653 93.000
56.45647 68.000
56.47642 112.000
56.49637 124.000
56.51631 125.000
56.53626 127.000
56.55621 128.000
56.57616 141.000
56.59610 164.000
56.61605 169.000
56.63600 164.000
56.65594 190.000
56.67589 178.000
56.69584 172.000
56.71578 210.000
56.73573 226.000
56.75568 217.000
56.77563 237.000
56.79557 237.000
56.81552 245.000
56.83547 258.000
56.85541 280.000
56.87536 272.000
56.89531 282.000
56.91525 234.000
56.93520 291.000
56.95515 283.000
56.97510 298.000
56.99504 238.000
57.01499 214.000
57.03494 250.000
57.05488 239.000
57.07483 194.000
57.09478 174.000
57.11472 148.000
57.13467 160.000
57.15462 150.000
57.17456 130.000
57.19451 124.000
57.21446 112.000
57.23441 112.000
57.25435 98.000
57.27430 76.000
57.29425 86.000
57.31419 90.000
57.33414 72.000
57.35409 75.000
57.37403 55.000
57.39398 61.000
57.41393 64.000
57.43388 64.000
57.45382 71.000
57.47377 61.000
57.49372 68.000
57.51366 72.000
57.53361 40.000
57.55356 59.000
57.57350 46.000
57.59345 61.000
57.61340 56.000
57.63334 51.000
57.65329 67.000
57.67324 56.000
57.69319 40.000
57.71313 51.000
57.73308 56.000
57.75303 54.000
57.77297 41.000
57.79292 53.000
57.81287 58.000
57.83281 58.000
57.85276 46.000
57.87271 50.000
57.89266 53.000
57.91260 43.000
57.93255 44.000
57.95250 60.000
57.97244 48.000
57.99239 59.000
58.01234 68.000
58.03228 56.000
58.05223 53.000
58.07218 51.000
58.09212 48.000
58.11207 54.000
58.13202 53.000
58.15197 46.000
58.17191 62.000
58.19186 57.000
58.21181 44.000
58.23175 46.000
58.25170 43.000
58.27165 55.000
58.29159 54.000
58.31154 69.000
58.33149 58.000
58.35144 52.000
58.37138 43.000
58.39133 52.000
58.41128 49.000
58.43122 53.000
58.45117 51.000
58.47112 45.000
58.49106 60.000
58.51101 52.000
58.53096 53.000
58.55090 54.000
58.57085 49.000
58.59080 48.000
58.61075 59.000
58.63069 47.000
58.65064 64.000
58.67059 63.000
58.69053 49.000
58.71048 54.000
58.73043 43.000
58.75037 41.000
58.77032 56.000
58.79027 55.000
58.81022 47.000
58.83016 52.000
58.85011 45.000
58.87006 48.000
58.89000 67.000
58.90995 55.000
58.92990 47.000
58.94984 49.000
58.96979 51.000
58.98974 61.000
59.00969 50.000
59.02963 52.000
59.04958 49.000
59.06953 44.000
59.08947 54.000
59.10942 53.000
59.12937 54.000
59.14931 54.000
59.16926 65.000
59.18921 55.000
59.20915 59.000
59.22910 61.000
59.24905 55.000
59.26900 51.000
59.28894 56.000
59.30889 58.000
59.32884 51.000
59.34878 53.000
59.36873 33.000
59.38868 56.000
59.40862 53.000
59.42857 52.000
59.44852 48.000
59.46847 64.000
59.48841 44.000
59.50836 63.000
59.52831 61.000
59.54825 54.000
59.56820 59.000
59.58815 62.000
59.60809 52.000
59.62804 60.000
59.64799 54.000
59.66793 43.000
59.68788 48.000
59.70783 46.000
59.72778 75.000
59.74772 67.000
59.76767 60.000
59.78762 61.000
59.80756 75.000
59.82751 52.000
59.84746 58.000
59.86740 48.000
59.88735 49.000
59.90730 60.000
59.92725 46.000
59.94719 46.000
59.96714 49.000
59.98709 65.000
60.00703 44.000
60.02698 53.000
60.04693 56.000
60.06687 56.000
60.08682 48.000
60.10677 40.000
60.12671 60.000
60.14666 59.000
60.16661 75.000
60.18656 57.000
60.20650 69.000
60.22645 47.000
60.24640 60.000
60.26634 54.000
60.28629 54.000
60.30624 49.000
60.32618 70.000
60.34613 46.000
60.36608 60.000
60.38603 65.000
60.40597 65.000
60.42592 58.000
60.44587 66.000
60.46581 80.000
60.48576 60.000
60.50571 52.000
60.52565 75.000
60.54560 52.000
60.56555 61.000
60.58550 58.000
60.60544 60.000
60.62539 78.000
60.64534 59.000
60.66528 57.000
60.68523 57.000
60.70518 73.000
60.72512 65.000
60.74507 62.000
60.76502 76.000
60.78496 77.000
60.80491 76.000
60.82486 76.000
60.84481 56.000
60.86475 64.000
60.88470 61.000
60.90465 64.000
60.92459 69.000
60.94454 57.000
60.96449 78.000
60.98443 62.000
61.00438 77.000
61.02433 76.000
61.04428 87.000
61.06422 70.000
61.08417 88.000
61.10412 94.000
61.12406 82.000
61.14401 67.000
61.16396 87.000
61.18390 93.000
61.20385 94.000
61.22380 88.000
61.24374 97.000
61.26369 92.000
61.28364 106.000
61.30359 123.000
61.32353 100.000
61.34348 117.000
61.36343 147.000
61.38337 157.000
61.40332 167.000
61.42327 183.000
61.44321 248.000
61.46316 206.000
61.48311 261.000
61.50306 279.000
61.52300 321.000
61.54295 327.000
61.56290 319.000
61.58284 380.000
61.60279 339.000
61.62274 346.000
61.64268 316.000
61.66263 305.000
61.68258 316.000
61.70252 294.000
61.72247 272.000
61.74242 272.000
61.76237 277.000
61.78231 237.000
61.80226 255.000
61.82221 215.000
61.84215 211.000
61.86210 170.000
61.88205 184.000
61.90199 156.000
61.92194 163.000
61.94189 157.000
61.96184 166.000
61.98178 139.000
62.00173 157.000
62.02168 162.000
62.04162 164.000
62.06157 163.000
62.08152 169.000
62.10146 186.000
62.12141 213.000
62.14136 209.000
62.16131 232.000
62.18125 232.000
62.20120 230.000
62.22115 259.000
62.24109 276.000
62.26104 264.000
62.28099 245.000
62.30093 298.000
62.32088 275.000
62.34083 279.000
62.36077 277.000
62.38072 303.000
62.40067 310.000
62.42062 343.000
62.44056 330.000
62.46051 339.000
62.48046 332.000
62.50040 323.000
62.52035 334.000
62.54030 341.000
62.56024 323.000
62.58019 304.000
62.60014 280.000
62.62009 283.000
62.64003 287.000
62.65998 252.000
62.67993 250.000
62.69987 182.000
62.71982 216.000
62.73977 210.000
62.75971 185.000
62.77966 163.000
62.79961 150.000
62.81955 126.000
62.83950 137.000
62.85945 133.000
62.87940 99.000
62.89934 87.000
62.91929 109.000
62.93924 93.000
62.95918 86.000
62.97913 88.000
62.99908 71.000
63.01902 72.000
63.03897 66.000
63.05892 67.000
63.07887 70.000
63.09881 69.000
63.11876 53.000
63.13871 63.000
63.15865 59.000
63.17860 65.000
63.19855 52.000
63.21849 65.000
63.23844 70.000
63.25839 72.000
63.27833 63.000
63.29828 85.000
63.31823 68.000
63.33818 57.000
63.35812 61.000
63.37807 50.000
63.39802 60.000
63.41796 61.000
63.43791 49.000
63.45786 64.000
63.47780 56.000
63.49775 71.000
63.51770 58.000
63.53765 65.000
63.55759 51.000
63.57754 44.000
63.59749 63.000
63.61743 65.000
63.63738 45.000
63.65733 52.000
63.67727 52.000
63.69722 68.000
63.71717 59.000
63.73712 52.000
63.75706 63.000
63.77701 64.000
63.79696 63.000
63.81690 67.000
63.83685 56.000
63.85680 66.000
63.87674 73.000
63.89669 52.000
63.91664 64.000
63.93658 57.000
63.95653 63.000
63.97648 58.000
63.99643 58.000
64.01637 66.000
64.03632 58.000
64.05627 51.000
64.07621 67.000
64.09616 59.000
64.11611 49.000
64.13605 66.000
64.15600 76.000
64.17595 62.000
64.19590 71.000
64.21584 88.000
64.23579 85.000
64.25574 69.000
64.27568 98.000
64.29563 80.000
64.31558 95.000
64.33552 104.000
64.35547 120.000
64.37542 144.000
64.39536 174.000
64.41531 211.000
64.43526 230.000
64.45521 292.000
64.47515 318.000
64.49510 359.000
64.51505 382.000
64.53499 411.000
64.55494 416.000
64.57489 379.000
64.59483 365.000
64.61478 325.000
64.63473 312.000
64.65468 321.000
64.67462 272.000
64.69457 265.000
64.71452 271.000
64.73446 266.000
64.75441 237.000
64.77436 200.000
64.79430 195.000
64.81425 148.000
64.83420 149.000
64.85414 126.000
64.87409 98.000
64.89404 99.000
64.91399 98.000
64.93393 83.000
64.95388 93.000
64.97383 74.000
64.99377 70.000
65.01372 55.000
65.03367 66.000
65.05361 63.000
65.07356 57.000
65.09351 65.000
65.11346 50.000
65.13340 68.000
65.15335 60.000
65.17330 65.000
65.19324 59.000
65.21319 68.000
65.23314 69.000
65.25308 57.000
65.27303 60.000
65.29298 62.000
65.31293 71.000
65.33287 59.000
65.35282 68.000
65.37277 59.000
65.39271 72.000
65.41266 58.000
65.43261 63.000
65.45255 66.000
65.47250 55.000
65.49245 58.000
65.51239 68.000
65.53234 57.000
65.55229 58.000
65.57224 72.000
65.59218 55.000
65.61213 62.000
65.63208 69.000
65.65202 78.000
65.67197 58.000
65.69192 52.000
65.71186 70.000
65.73181 51.000
65.75176 68.000
65.77171 64.000
65.79165 64.000
65.81160 69.000
65.83155 93.000
65.85149 77.000
65.87144 82.000
65.89139 79.000
65.91133 98.000
65.93128 80.000
65.95123 104.000
65.97117 82.000
65.99112 99.000
66.01107 112.000
66.03102 103.000
66.05096 97.000
66.07091 108.000
66.09086 109.000
66.11080 101.000
66.13075 97.000
66.15070 96.000
66.17064 109.000
66.19059 95.000
66.21054 98.000
66.23049 94.000
66.25043 103.000
66.27038 86.000
66.29033 86.000
66.31027 75.000
66.33022 91.000
66.35017 72.000
66.37011 64.000
66.39006 91.000
66.41001 67.000
66.42995 82.000
66.44990 63.000
66.46985 74.000
66.48980 69.000
66.50974 82.000
66.52969 62.000
66.54964 78.000
66.56958 73.000
66.58953 97.000
66.60948 96.000
66.62942 85.000
66.64937 114.000
66.66932 78.000
66.68927 109.000
66.70921 140.000
66.72916 139.000
66.74911 144.000
66.76905 194.000
66.78900 205.000
66.80895 225.000
66.82889 254.000
66.84884 274.000
66.86879 264.000
66.88874 271.000
66.90868 244.000
66.92863 245.000
66.94858 218.000
66.96852 244.000
66.98847 231.000
67.00842 237.000
67.02836 172.000
67.04831 202.000
67.06826 172.000
67.08820 171.000
67.10815 169.000
67.12810 157.000
67.14805 136.000
67.16799 115.000
67.18794 104.000
67.20789 98.000
67.22783 84.000
67.24778 87.000
67.26773 63.000
67.28767 77.000
67.30762 83.000
67.32757 83.000
67.34752 67.000
67.36746 55.000
67.38741 58.000
67.40736 74.000
67.42730 53.000
67.44725 57.000
67.46720 54.000
67.48714 50.000
67.50709 61.000
67.52704 51.000
67.54698 60.000
67.56693 53.000
67.58688 41.000
67.60683 62.000
67.62677 66.000
67.64672 44.000
67.66667 42.000
67.68661 51.000
67.70656 41.000
67.72651 55.000
67.74645 65.000
67.76640 49.000
67.78635 52.000
67.80630 48.000
67.82624 44.000
67.84619 42.000
67.86614 57.000
67.88608 43.000
67.90603 67.000
67.92598 32.000
67.94592 39.000
67.96587 49.000
67.98582 48.000
68.00576 48.000
68.02571 57.000
68.04566 58.000
68.06561 52.000
68.08555 39.000
68.10550 41.000
68.12545 41.000
68.14539 44.000
68.16534 51.000
68.18529 52.000
68.20523 57.000
68.22518 38.000
68.24513 38.000
68.26508 50.000
68.28502 57.000
68.30497 46.000
68.32492 48.000
68.34486 54.000
68.36481 51.000
68.38476 50.000
68.40470 44.000
68.42465 44.000
68.44460 40.000
68.46455 47.000
68.48449 48.000
68.50444 42.000
68.52439 45.000
68.54433 37.000
68.56428 48.000
68.58423 38.000
68.60417 36.000
68.62412 42.000
68.64407 41.000
68.66401 51.000
68.68396 38.000
68.70391 37.000
68.72386 50.000
68.74380 45.000
68.76375 42.000
68.78370 42.000
68.80364 47.000
68.82359 46.000
68.84354 47.000
68.86348 58.000
68.88343 46.000
68.90338 57.000
68.92333 33.000
68.94327 45.000
68.96322 38.000
68.98317 35.000
69.00311 56.000
69.02306 56.000
69.04301 58.000
69.06295 48.000
69.08290 50.000
69.10285 45.000
69.12279 57.000
69.14274 45.000
69.16269 44.000
69.18264 46.000
69.20258 54.000
69.22253 55.000
69.24248 45.000
69.26242 64.000
69.28237 37.000
69.30232 45.000
69.32226 53.000
69.34221 50.000
69.36216 51.000
69.38211 52.000
69.40205 57.000
69.42200 46.000
69.44195 43.000
69.46189 51.000
69.48184 41.000
69.50179 47.000
69.52173 55.000
69.54168 49.000
69.56163 48.000
69.58157 53.000
69.60152 64.000
69.62147 39.000
69.64142 52.000
69.66136 52.000
69.68131 42.000
69.70126 36.000
69.72120 43.000
69.74115 45.000
69.76110 35.000
69.78104 46.000
69.80099 48.000
69.82094 46.000
69.84089 47.000
69.86083 44.000
69.88078 33.000
69.90073 34.000
69.92067 50.000
69.94062 43.000
69.96057 49.000
69.98051 49.000
70.00046 51.000
70.02041 45.000
70.04035 34.000
70.06030 41.000
70.08025 43.000
70.10020 53.000
70.12014 46.000
70.14009 57.000
70.16004 50.000
70.17998 50.000
70.19993 58.000
70.21988 38.000
70.23982 57.000
70.25977 39.000
70.27972 55.000
70.29967 51.000
70.31961 59.000
70.33956 50.000
70.35951 51.000
70.37945 44.000
70.39940 44.000
70.41935 52.000
70.43929 62.000
70.45924 48.000
70.47919 56.000
70.49914 48.000
70.51908 63.000
70.53903 46.000
70.55898 40.000
70.57892 49.000
70.59887 51.000
70.61882 58.000
70.63876 58.000
70.65871 63.000
70.67866 54.000
70.69860 51.000
70.71855 43.000
70.73850 65.000
70.75845 67.000
70.77839 48.000
70.79834 47.000
70.81829 74.000
70.83823 64.000
70.85818 51.000
70.87813 68.000
70.89807 67.000
70.91802 54.000
70.93797 61.000
70.95792 55.000
70.97786 65.000
70.99781 64.000
71.01776 50.000
71.03770 64.000
71.05765 64.000
71.07760 60.000
71.09754 67.000
71.11749 58.000
71.13744 55.000
71.15738 56.000
71.17733 47.000
71.19728 54.000
71.21723 53.000
71.23717 41.000
71.25712 62.000
71.27707 50.000
71.29701 46.000
71.31696 50.000
71.33691 55.000
71.35685 54.000
71.37680 47.000
71.39675 49.000
71.41670 42.000
71.43664 52.000
71.45659 54.000
71.47654 43.000
71.49648 46.000
71.51643 42.000
71.53638 53.000
71.55632 46.000
71.57627 45.000
71.59622 48.000
71.61616 51.000
71.63611 38.000
71.65606 44.000
71.67601 48.000
71.69595 45.000
71.71590 59.000
71.73585 46.000
71.75579 43.000
71.77574 47.000
71.79569 37.000
71.81563 43.000
71.83558 51.000
71.85553 54.000
71.87548 48.000
71.89542 45.000
71.91537 49.000
71.93532 40.000
71.95526 41.000
71.97521 42.000
71.99516 52.000
72.01510 48.000
72.03505 63.000
72.05500 40.000
72.07495 50.000
72.09489 48.000
72.11484 55.000
72.13479 55.000
72.15473 40.000
72.17468 28.000
72.19463 37.000
72.21457 40.000
72.23452 49.000
72.25447 42.000
72.27441 41.000
72.29436 37.000
72.31431 51.000
72.33426 49.000
72.35420 42.000
72.37415 42.000
72.39410 33.000
72.41404 46.000
72.43399 43.000
72.45394 50.000
72.47388 46.000
72.49383 38.000
72.51378 47.000
72.53373 61.000
72.55367 37.000
72.57362 45.000
72.59357 47.000
72.61351 54.000
72.63346 56.000
72.65341 54.000
72.67335 57.000
72.69330 52.000
72.71325 51.000
72.73319 37.000
72.75314 44.000
72.77309 48.000
72.79304 38.000
72.81298 49.000
72.83293 43.000
72.85288 54.000
72.87282 25.000
72.89277 42.000
72.91272 32.000
72.93266 62.000
72.95261 41.000
72.97256 33.000
72.99251 46.000
73.01245 60.000
73.03240 44.000
73.05235 38.000
73.07229 66.000
73.09224 49.000
73.11219 54.000
73.13213 62.000
73.15208 55.000
73.17203 57.000
73.19197 55.000
73.21192 51.000
73.23187 61.000
73.25182 59.000
73.27176 54.000
73.29171 69.000
73.31166 66.000
73.33160 68.000
73.35155 76.000
73.37150 61.000
73.39144 70.000
73.41139 64.000
73.43134 72.000
73.45129 93.000
73.47123 103.000
73.49118 119.000
73.51113 94.000
73.53107 113.000
73.55102 135.000
73.57097 120.000
73.59091 153.000
73.61086 161.000
73.63081 159.000
73.65076 153.000
73.67070 149.000
73.69065 157.000
73.71060 140.000
73.73054 131.000
73.75049 135.000
73.77044 143.000
73.79038 143.000
73.81033 128.000
73.83028 135.000
73.85022 155.000
73.87017 153.000
73.89012 140.000
73.91007 109.000
73.93001 142.000
73.94996 131.000
73.96991 131.000
73.98985 127.000
74.00980 110.000
74.02975 99.000
74.04969 99.000
74.06964 99.000
74.08959 94.000
74.10954 102.000
74.12948 87.000
74.14943 91.000
74.16938 87.000
74.18932 91.000
74.20927 61.000
74.22922 67.000
74.24916 66.000
74.26911 86.000
74.28906 65.000
74.30900 71.000
74.32895 68.000
74.34890 66.000
74.36885 67.000
74.38879 70.000
74.40874 67.000
74.42869 66.000
74.44863 60.000
74.46858 65.000
74.48853 75.000
74.50847 67.000
74.52842 58.000
74.54837 54.000
74.56832 59.000
74.58826 67.000
74.60821 61.000
74.62816 61.000
74.64810 60.000
74.66805 82.000
74.68800 67.000
74.70794 61.000
74.72789 68.000
74.74784 49.000
74.76778 74.000
74.78773 58.000
74.80768 66.000
74.82763 63.000
74.84757 62.000
74.86752 63.000
74.88747 64.000
74.90741 76.000
74.92736 75.000
74.94731 74.000
74.96725 63.000
74.98720 47.000
75.00715 60.000
75.02710 61.000
75.04704 59.000
75.06699 73.000
75.08694 72.000
75.10688 75.000
75.12683 51.000
75.14678 67.000
75.16672 54.000
75.18667 64.000
75.20662 60.000
75.22657 66.000
75.24651 61.000
75.26646 57.000
75.28641 60.000
75.30635 33.000
75.32630 44.000
75.34625 55.000
75.36619 53.000
75.38614 45.000
75.40609 55.000
75.42603 48.000
75.44598 52.000
75.46593 56.000
75.48588 58.000
75.50582 49.000
75.52577 57.000
75.54572 46.000
75.56566 47.000
75.58561 44.000
75.60556 59.000
75.62550 47.000
75.64545 46.000
75.66540 48.000
75.68535 55.000
75.70529 46.000
75.72524 38.000
75.74519 34.000
75.76513 48.000
75.78508 49.000
75.80503 45.000
75.82497 44.000
75.84492 63.000
75.86487 56.000
75.88481 55.000
75.90476 46.000
75.92471 52.000
75.94466 59.000
75.96460 61.000
75.98455 46.000
76.00450 73.000
76.02444 55.000
76.04439 79.000
76.06434 84.000
76.08428 80.000
76.10423 75.000
76.12418 95.000
76.14413 84.000
76.16407 79.000
76.18402 78.000
76.20397 78.000
76.22391 73.000
76.24386 77.000
76.26381 74.000
76.28375 80.000
76.30370 79.000
76.32365 79.000
76.34359 75.000
76.36354 63.000
76.38349 72.000
76.40344 69.000
76.42338 59.000
76.44333 66.000
76.46328 74.000
76.48322 61.000
76.50317 67.000
76.52312 46.000
76.54306 67.000
76.56301 55.000
76.58296 70.000
76.60291 50.000
76.62285 69.000
76.64280 56.000
76.66275 53.000
76.68269 57.000
76.70264 35.000
76.72259 43.000
76.74253 51.000
76.76248 52.000
76.78243 53.000
76.80238 55.000
76.82232 41.000
76.84227 62.000
76.86222 62.000
76.88216 55.000
76.90211 55.000
76.92206 37.000
76.94200 53.000
76.96195 60.000
76.98190 48.000
77.00184 57.000
77.02179 58.000
77.04174 55.000
77.06169 58.000
77.08163 73.000
77.10158 63.000
77.12153 54.000
77.14147 46.000
77.16142 75.000
77.18137 63.000
77.20131 65.000
77.22126 69.000
77.24121 75.000
77.26116 66.000
77.28110 85.000
77.30105 79.000
77.32100 73.000
77.34094 97.000
77.36089 106.000
77.38084 98.000
77.40078 112.000
77.42073 120.000
77.44068 127.000
77.46062 103.000
77.48057 113.000
77.50052 110.000
77.52047 116.000
77.54041 118.000
77.56036 124.000
77.58031 95.000
77.60025 127.000
77.62020 128.000
77.64015 120.000
77.66009 111.000
77.68004 121.000
77.69999 138.000
77.71994 111.000
77.73988 112.000
77.75983 118.000
77.77978 111.000
77.79972 99.000
77.81967 109.000
77.83962 85.000
77.85956 94.000
77.87951 77.000
77.89946 89.000
77.91940 84.000
77.93935 86.000
77.95930 70.000
77.97925 74.000
77.99919 87.000
78.01914 82.000
78.03909 82.000
78.05903 92.000
78.07898 82.000
78.09893 96.000
78.11887 81.000
78.13882 89.000
78.15877 99.000
78.17872 98.000
78.19866 111.000
78.21861 111.000
78.23856 116.000
78.25850 118.000
78.27845 137.000
78.29840 123.000
78.31834 123.000
78.33829 119.000
78.35824 130.000
78.37819 135.000
78.39813 122.000
78.41808 125.000
78.43803 116.000
78.45797 112.000
78.47792 116.000
78.49787 117.000
78.51781 104.000
78.53776 100.000
78.55771 68.000
78.57765 104.000
78.59760 79.000
78.61755 90.000
78.63750 88.000
78.65744 80.000
78.67739 83.000
78.69734 76.000
78.71728 76.000
78.73723 79.000
78.75718 74.000
78.77712 79.000
78.79707 86.000
78.81702 66.000
78.83697 70.000
78.85691 62.000
78.87686 77.000
78.89681 67.000
78.91675 61.000
78.93670 73.000
78.95665 59.000
78.97659 72.000
78.99654 54.000
79.01649 71.000
79.03643 53.000
79.05638 49.000
79.07633 55.000
79.09628 51.000
79.11622 63.000
79.13617 52.000
79.15612 60.000
79.17606 69.000
79.19601 72.000
79.21596 48.000
79.23590 49.000
79.25585 47.000
79.27580 55.000
79.29575 54.000
79.31569 63.000
79.33564 60.000
79.35559 71.000
79.37553 45.000
79.39548 66.000
79.41543 57.000
79.43537 38.000
79.45532 51.000
79.47527 43.000
79.49521 43.000
79.51516 38.000
79.53511 39.000
79.55506 49.000
79.57500 48.000
79.59495 43.000
79.61490 42.000
79.63484 47.000
79.65479 32.000
79.67474 61.000
79.69468 43.000
79.71463 40.000
79.73458 54.000
79.75453 45.000
79.77447 28.000
79.79442 36.000
79.81437 32.000
79.83431 49.000
79.85426 35.000
79.87421 43.000
79.89415 46.000
79.91410 44.000
79.93405 47.000
79.95399 35.000
79.97394 57.000
79.99389 45.000
80.01384 46.000
80.03378 43.000
80.05373 33.000
80.07368 58.000
80.09362 51.000
80.11357 49.000
80.13352 36.000
80.15346 40.000
80.17341 55.000
80.19336 48.000
80.21331 43.000
80.23325 53.000
80.25320 52.000
80.27315 51.000
80.29309 47.000
80.31304 47.000
80.33299 38.000
80.35293 49.000
80.37288 40.000
80.39283 46.000
80.41278 33.000
80.43272 49.000
80.45267 48.000
80.47262 40.000
80.49256 39.000
80.51251 35.000
80.53246 46.000
80.55240 39.000
80.57235 62.000
80.59230 59.000
80.61224 60.000
80.63219 43.000
80.65214 50.000
80.67209 48.000
80.69203 42.000
80.71198 45.000
80.73193 59.000
80.75187 44.000
80.77182 63.000
80.79177 65.000
80.81171 48.000
80.83166 50.000
80.85161 43.000
80.87156 38.000
80.89150 52.000
80.91145 54.000
80.93140 42.000
80.95134 46.000
80.97129 44.000
80.99124 39.000
81.01118 56.000
81.03113 57.000
81.05108 45.000
81.07102 56.000
81.09097 61.000
81.11092 43.000
81.13087 74.000
81.15081 52.000
81.17076 53.000
81.19071 57.000
81.21065 58.000
81.23060 52.000
81.25055 54.000
81.27049 54.000
81.29044 54.000
81.31039 50.000
81.33034 53.000
81.35028 62.000
81.37023 63.000
81.39018 54.000
81.41012 58.000
81.43007 45.000
81.45002 42.000
81.46996 55.000
81.48991 52.000
81.50986 53.000
81.52980 55.000
81.54975 51.000
81.56970 48.000
81.58965 53.000
81.60959 28.000
81.62954 44.000
81.64949 33.000
81.66943 45.000
81.68938 42.000
81.70933 51.000
81.72927 45.000
81.74922 42.000
81.76917 32.000
81.78912 48.000
81.80906 38.000
81.82901 52.000
81.84896 44.000
81.86890 53.000
81.88885 57.000
81.90880 35.000
81.92874 45.000
81.94869 42.000
81.96864 53.000
81.98859 42.000
82.00853 52.000
82.02848 54.000
82.04843 44.000
82.06837 51.000
82.08832 45.000
82.10827 42.000
82.12821 37.000
82.14816 51.000
82.16811 33.000
82.18805 39.000
82.20800 49.000
82.22795 60.000
82.24790 39.000
82.26784 49.000
82.28779 63.000
82.30774 39.000
82.32768 49.000
82.34763 47.000
82.36758 44.000
82.38752 56.000
82.40747 58.000
82.42742 42.000
82.44737 39.000
82.46731 42.000
82.48726 48.000
82.50721 37.000
82.52715 45.000
82.54710 43.000
82.56705 44.000
82.58699 38.000
82.60694 39.000
82.62689 51.000
82.64683 46.000
82.66678 43.000
82.68673 45.000
82.70668 47.000
82.72662 45.000
82.74657 53.000
82.76652 45.000
82.78646 38.000
82.80641 39.000
82.82636 41.000
82.84630 43.000
82.86625 36.000
82.88620 44.000
82.90615 52.000
82.92609 34.000
82.94604 42.000
82.96599 42.000
82.98593 45.000
83.00588 46.000
83.02583 38.000
83.04577 44.000
83.06572 46.000
83.08567 46.000
83.10561 51.000
83.12556 46.000
83.14551 42.000
83.16546 42.000
83.18540 57.000
83.20535 47.000
83.22530 41.000
83.24524 46.000
83.26519 48.000
83.28514 51.000
83.30508 37.000
83.32503 46.000
83.34498 43.000
83.36493 42.000
83.38487 45.000
83.40482 37.000
83.42477 38.000
83.44471 61.000
83.46466 54.000
83.48461 40.000
83.50455 30.000
83.52450 48.000
83.54445 43.000
83.56440 43.000
83.58434 40.000
83.60429 34.000
83.62424 57.000
83.64418 49.000
83.66413 49.000
83.68408 38.000
83.70402 57.000
83.72397 44.000
83.74392 54.000
83.76386 46.000
83.78381 38.000
83.80376 48.000
83.82371 41.000
83.84365 62.000
83.86360 40.000
83.88355 41.000
83.90349 53.000
83.92344 44.000
83.94339 39.000
83.96333 47.000
83.98328 45.000
84.00323 54.000
84.02318 45.000
84.04312 61.000
84.06307 49.000
84.08302 65.000
84.10296 52.000
84.12291 54.000
84.14286 51.000
84.16280 48.000
84.18275 56.000
84.20270 53.000
84.22264 49.000
84.24259 64.000
84.26254 47.000
84.28249 49.000
84.30243 60.000
84.32238 74.000
84.34233 69.000
84.36227 60.000
84.38222 63.000
84.40217 61.000
84.42211 73.000
84.44206 72.000
84.46201 87.000
84.48196 90.000
84.50190 82.000
84.52185 70.000
84.54180 83.000
84.56174 90.000
84.58169 84.000
84.60164 81.000
84.62158 91.000
84.64153 90.000
84.66148 112.000
84.68142 97.000
84.70137 120.000
84.72132 97.000
84.74127 105.000
84.76121 131.000
84.78116 109.000
84.80111 127.000
84.82105 96.000
84.84100 116.000
84.86095 107.000
84.88089 99.000
84.90084 102.000
84.92079 120.000
84.94074 108.000
84.96068 102.000
84.98063 113.000
85.00058 83.000
85.02052 99.000
85.04047 95.000
85.06042 68.000
85.08036 73.000
85.10031 81.000
85.12026 69.000
85.14021 76.000
85.16015 77.000
85.18010 76.000
85.20005 69.000
85.21999 68.000
85.23994 55.000
85.25989 65.000
85.27983 80.000
85.29978 57.000
85.31973 61.000
85.33967 62.000
85.35962 69.000
85.37957 59.000
85.39952 56.000
85.41946 53.000
85.43941 56.000
85.45936 66.000
85.47930 55.000
85.49925 53.000
85.51920 49.000
85.53914 49.000
85.55909 56.000
85.57904 49.000
85.59899 46.000
85.61893 49.000
85.63888 48.000
85.65883 63.000
85.67877 63.000
85.69872 60.000
85.71867 68.000
85.73861 50.000
85.75856 64.000
85.77851 64.000
85.79845 70.000
85.81840 59.000
85.83835 63.000
85.85830 64.000
85.87824 60.000
85.89819 66.000
85.91814 58.000
85.93808 62.000
85.95803 63.000
85.97798 58.000
85.99792 61.000
86.01787 60.000
86.03782 73.000
86.05777 78.000
86.07771 65.000
86.09766 59.000
86.11761 74.000
86.13755 59.000
86.15750 75.000
86.17745 58.000
86.19739 59.000
86.21734 55.000
86.23729 52.000
86.25723 66.000
86.27718 52.000
86.29713 63.000
86.31708 68.000
86.33702 53.000
86.35697 53.000
86.37692 77.000
86.39686 79.000
86.41681 65.000
86.43676 64.000
86.45670 71.000
86.47665 63.000
86.49660 67.000
86.51655 66.000
86.53649 78.000
86.55644 65.000
86.57639 73.000
86.59633 67.000
86.61628 76.000
86.63623 70.000
86.65617 72.000
86.67612 76.000
86.69607 78.000
86.71602 66.000
86.73596 52.000
86.75591 75.000
86.77586 73.000
86.79580 68.000
86.81575 74.000
86.83570 68.000
86.85564 91.000
86.87559 66.000
86.89554 79.000
86.91548 53.000
86.93543 47.000
86.95538 80.000
86.97533 49.000
86.99527 64.000
87.01522 42.000
87.03517 58.000
87.05511 76.000
87.07506 64.000
87.09501 61.000
87.11495 67.000
87.13490 55.000
87.15485 53.000
87.17480 42.000
87.19474 44.000
87.21469 44.000
87.23464 45.000
87.25458 42.000
87.27453 39.000
87.29448 44.000
87.31442 43.000
87.33437 35.000
87.35432 52.000
87.37426 56.000
87.39421 42.000
87.41416 42.000
87.43411 51.000
87.45405 45.000
87.47400 37.000
87.49395 49.000
87.51389 40.000
87.53384 38.000
87.55379 54.000
87.57373 38.000
87.59368 48.000
87.61363 36.000
87.63358 36.000
87.65352 52.000
87.67347 41.000
87.69342 42.000
87.71336 47.000
87.73331 37.000
87.75326 21.000
87.77320 41.000
87.79315 41.000
87.81310 44.000
87.83304 39.000
87.85299 46.000
87.87294 47.000
87.89289 53.000
87.91283 52.000
87.93278 51.000
87.95273 40.000
87.97267 50.000
87.99262 50.000
88.01257 37.000
88.03251 40.000
88.05246 38.000
88.07241 50.000
88.09236 44.000
88.11230 38.000
88.13225 33.000
88.15220 50.000
88.17214 48.000
88.19209 35.000
88.21204 45.000
88.23198 52.000
88.25193 48.000
88.27188 38.000
88.29183 45.000
88.31177 56.000
88.33172 44.000
88.35167 46.000
88.37161 47.000
88.39156 51.000
88.41151 40.000
88.43145 50.000
88.45140 44.000
88.47135 48.000
88.49129 40.000
88.51124 44.000
88.53119 51.000
88.55114 39.000
88.57108 62.000
88.59103 45.000
88.61098 53.000
88.63092 47.000
88.65087 43.000
88.67082 42.000
88.69076 37.000
88.71071 46.000
88.73066 56.000
88.75061 39.000
88.77055 53.000
88.79050 56.000
88.81045 63.000
88.83039 48.000
88.85034 65.000
88.87029 42.000
88.89023 64.000
88.91018 53.000
88.93013 57.000
88.95007 47.000
88.97002 47.000
88.98997 52.000
89.00992 64.000
89.02986 59.000
89.04981 80.000
89.06976 68.000
89.08970 63.000
89.10965 74.000
89.12960 72.000
89.14954 66.000
89.16949 62.000
89.18944 81.000
89.20939 93.000
89.22933 81.000
89.24928 91.000
89.26923 80.000
89.28917 74.000
89.30912 83.000
89.32907 99.000
89.34901 71.000
89.36896 89.000
89.38891 87.000
89.40885 83.000
89.42880 87.000
89.44875 79.000
89.46870 91.000
89.48864 98.000
89.50859 86.000
89.52854 99.000
89.54848 79.000
89.56843 83.000
89.58838 103.000
89.60832 78.000
89.62827 92.000
89.64822 76.000
89.66817 78.000
89.68811 103.000
89.70806 70.000
89.72801 96.000
89.74795 74.000
89.76790 89.000
89.78785 96.000
89.80779 80.000
89.82774 74.000
89.84769 98.000
89.86764 73.000
89.88758 88.000
89.90753 51.000
89.92748 73.000
89.94742 54.000
89.96737 62.000
89.98732 57.000
90.00726 70.000
