10.00000 62.000
10.01995 72.000
10.03989 81.000
10.05984 77.000
10.07979 81.000
10.09973 75.000
10.11968 77.000
10.13963 75.000
10.15958 90.000
10.17952 73.000
10.19947 58.000
10.21942 71.000
10.23936 69.000
10.25931 62.000
10.27926 58.000
10.29920 67.000
10.31915 54.000
10.33910 80.000
10.35905 86.000
10.37899 67.000
10.39894 70.000
10.41889 63.000
10.43883 71.000
10.45878 64.000
10.47873 64.000
10.49867 76.000
10.51862 68.000
10.53857 69.000
10.55851 74.000
10.57846 87.000
10.59841 68.000
10.61836 78.000
10.63830 74.000
10.65825 79.000
10.67820 74.000
10.69814 84.000
10.71809 66.000
10.73804 62.000
10.75798 67.000
10.77793 62.000
10.79788 67.000
10.81783 75.000
10.83777 54.000
10.85772 81.000
10.87767 74.000
10.89761 80.000
10.91756 68.000
10.93751 79.000
10.95745 77.000
10.97740 74.000
10.99735 84.000
11.01730 75.000
11.03724 81.000
11.05719 80.000
11.07714 82.000
11.09708 77.000
11.11703 90.000
11.13698 63.000
11.15692 80.000
11.17687 69.000
11.19682 96.000
11.21676 79.000
11.23671 72.000
11.25666 66.000
11.27661 71.000
11.29655 91.000
11.31650 87.000
11.33645 60.000
11.35639 65.000
11.37634 75.000
11.39629 85.000
11.41623 61.000
11.43618 77.000
11.45613 71.000
11.47608 82.000
11.49602 78.000
11.51597 59.000
11.53592 65.000
11.55586 86.000
11.57581 71.000
11.59576 71.000
11.61570 70.000
11.63565 71.000
11.65560 60.000
11.67554 75.000
11.69549 86.000
11.71544 79.000
11.73539 73.000
11.75533 77.000
11.77528 67.000
11.79523 80.000
11.81517 89.000
11.83512 64.000
11.85507 69.000
11.87501 68.000
11.89496 81.000
11.91491 75.000
11.93486 71.000
11.95480 69.000
11.97475 67.000
11.99470 66.000
12.01464 69.000
12.03459 65.000
12.05454 64.000
12.07448 65.000
12.09443 68.000
12.11438 79.000
12.13432 73.000
12.15427 74.000
12.17422 76.000
12.19417 64.000
12.21411 74.000
12.23406 70.000
12.25401 71.000
12.27395 67.000
12.29390 82.000
12.31385 74.000
12.33379 62.000
12.35374 65.000
12.37369 70.000
12.39364 65.000
12.41358 75.000
12.43353 66.000
12.45348 68.000
12.47342 87.000
12.49337 62.000
12.51332 62.000
12.53326 88.000
12.55321 63.000
12.57316 70.000
12.59311 74.000
12.61305 76.000
12.63300 62.000
12.65295 72.000
12.67289 67.000
12.69284 78.000
12.71279 69.000
12.73273 66.000
12.75268 49.000
12.77263 72.000
12.79257 84.000
12.81252 64.000
12.83247 58.000
12.85242 87.000
12.87236 66.000
12.89231 67.000
12.91226 77.000
12.93220 58.000
12.95215 61.000
12.97210 63.000
12.99204 72.000
13.01199 72.000
13.03194 57.000
13.05189 65.000
13.07183 78.000
13.09178 67.000
13.11173 63.000
13.13167 57.000
13.15162 67.000
13.17157 84.000
13.19151 68.000
13.21146 62.000
13.23141 75.000
13.25135 70.000
13.27130 54.000
13.29125 77.000
13.31120 79.000
13.33114 54.000
13.35109 77.000
13.37104 57.000
13.39098 65.000
13.41093 73.000
13.43088 74.000
13.45082 64.000
13.47077 67.000
13.49072 59.000
13.51067 50.000
13.53061 81.000
13.55056 62.000
13.57051 74.000
13.59045 72.000
13.61040 74.000
13.63035 88.000
13.65029 50.000
13.67024 78.000
13.69019 68.000
13.71013 71.000
13.73008 54.000
13.75003 64.000
13.76998 59.000
13.78992 69.000
13.80987 69.000
13.82982 80.000
13.84976 74.000
13.86971 63.000
13.88966 68.000
13.90960 65.000
13.92955 67.000
13.94950 59.000
13.96945 54.000
13.98939 54.000
14.00934 58.000
14.02929 59.000
14.04923 75.000
14.06918 61.000
14.08913 66.000
14.10907 48.000
14.12902 65.000
14.14897 66.000
14.16892 56.000
14.18886 72.000
14.20881 67.000
14.22876 69.000
14.24870 71.000
14.26865 71.000
14.28860 69.000
14.30854 67.000
14.32849 74.000
14.34844 53.000
14.36838 68.000
14.38833 59.000
14.40828 66.000
14.42823 61.000
14.44817 63.000
14.46812 69.000
14.48807 64.000
14.50801 69.000
14.52796 61.000
14.54791 69.000
14.56785 74.000
14.58780 76.000
14.60775 75.000
14.62770 62.000
14.64764 64.000
14.66759 68.000
14.68754 73.000
14.70748 64.000
14.72743 68.000
14.74738 63.000
14.76732 61.000
14.78727 69.000
14.80722 63.000
14.82716 46.000
14.84711 58.000
14.86706 67.000
14.88701 63.000
14.90695 82.000
14.92690 64.000
14.94685 77.000
14.96679 72.000
14.98674 56.000
15.00669 63.000
15.02663 64.000
15.04658 64.000
15.06653 58.000
15.08648 72.000
15.10642 56.000
15.12637 73.000
15.14632 47.000
15.16626 61.000
15.18621 65.000
15.20616 68.000
15.22610 57.000
15.24605 72.000
15.26600 80.000
15.28594 75.000
15.30589 77.000
15.32584 69.000
15.34579 70.000
15.36573 69.000
15.38568 77.000
15.40563 81.000
15.42557 101.000
15.44552 87.000
15.46547 90.000
15.48541 93.000
15.50536 79.000
15.52531 83.000
15.54526 78.000
15.56520 81.000
15.58515 99.000
15.60510 105.000
15.62504 99.000
15.64499 101.000
15.66494 150.000
15.68488 161.000
15.70483 189.000
15.72478 227.000
15.74472 265.000
15.76467 245.000
15.78462 229.000
15.80457 209.000
15.82451 162.000
15.84446 158.000
15.86441 156.000
15.88435 175.000
15.90430 226.000
15.92425 275.000
15.94419 292.000
15.96414 313.000
15.98409 434.000
16.00404 514.000
16.02398 657.000
16.04393 792.000
16.06388 922.000
16.08382 1037.000
16.10377 1195.000
16.12372 1315.000
16.14366 1306.000
16.16361 1323.000
16.18356 1120.000
16.20351 914.000
16.22345 690.000
16.24340 480.000
16.26335 333.000
16.28329 189.000
16.30324 152.000
16.32319 134.000
16.34313 109.000
16.36308 113.000
16.38303 80.000
16.40297 85.000
16.42292 85.000
16.44287 85.000
16.46282 73.000
16.48276 84.000
16.50271 108.000
16.52266 90.000
16.54260 73.000
16.56255 79.000
16.58250 60.000
16.60244 88.000
16.62239 84.000
16.64234 77.000
16.66229 61.000
16.68223 73.000
16.70218 63.000
16.72213 87.000
16.74207 77.000
16.76202 77.000
16.78197 69.000
16.80191 65.000
16.82186 64.000
16.84181 67.000
16.86175 71.000
16.88170 64.000
16.90165 76.000
16.92160 83.000
16.94154 63.000
16.96149 70.000
16.98144 77.000
17.00138 71.000
17.02133 59.000
17.04128 70.000
17.06122 60.000
17.08117 56.000
17.10112 62.000
17.12107 71.000
17.14101 70.000
17.16096 66.000
17.18091 66.000
17.20085 73.000
17.22080 74.000
17.24075 67.000
17.26069 73.000
17.28064 71.000
17.30059 55.000
17.32053 73.000
17.34048 73.000
17.36043 76.000
17.38038 68.000
17.40032 57.000
17.42027 60.000
17.44022 62.000
17.46016 55.000
17.48011 71.000
17.50006 74.000
17.52000 76.000
17.53995 66.000
17.55990 60.000
17.57985 63.000
17.59979 69.000
17.61974 74.000
17.63969 67.000
17.65963 58.000
17.67958 60.000
17.69953 58.000
17.71947 68.000
17.73942 56.000
17.75937 77.000
17.77932 74.000
17.79926 58.000
17.81921 63.000
17.83916 71.000
17.85910 74.000
17.87905 60.000
17.89900 79.000
17.91894 75.000
17.93889 81.000
17.95884 82.000
17.97878 90.000
17.99873 83.000
18.01868 123.000
18.03863 112.000
18.05857 180.000
18.07852 263.000
18.09847 281.000
18.11841 357.000
18.13836 464.000
18.15831 429.000
18.17825 438.000
18.19820 322.000
18.21815 264.000
18.23810 172.000
18.25804 120.000
18.27799 86.000
18.29794 66.000
18.31788 69.000
18.33783 71.000
18.35778 58.000
18.37772 75.000
18.39767 58.000
18.41762 64.000
18.43756 65.000
18.45751 54.000
18.47746 55.000
18.49741 72.000
18.51735 66.000
18.53730 67.000
18.55725 57.000
18.57719 65.000
18.59714 71.000
18.61709 54.000
18.63703 48.000
18.65698 54.000
18.67693 75.000
18.69688 46.000
18.71682 60.000
18.73677 70.000
18.75672 57.000
18.77666 82.000
18.79661 66.000
18.81656 68.000
18.83650 60.000
18.85645 49.000
18.87640 72.000
18.89634 68.000
18.91629 63.000
18.93624 62.000
18.95619 55.000
18.97613 56.000
18.99608 60.000
19.01603 76.000
19.03597 70.000
19.05592 58.000
19.07587 69.000
19.09581 59.000
19.11576 57.000
19.13571 47.000
19.15566 46.000
19.17560 54.000
19.19555 62.000
19.21550 60.000
19.23544 60.000
19.25539 71.000
19.27534 66.000
19.29528 53.000
19.31523 75.000
19.33518 70.000
19.35513 48.000
19.37507 71.000
19.39502 53.000
19.41497 56.000
19.43491 74.000
19.45486 62.000
19.47481 56.000
19.49475 77.000
19.51470 73.000
19.53465 57.000
19.55459 60.000
19.57454 60.000
19.59449 67.000
19.61444 65.000
19.63438 68.000
19.65433 64.000
19.67428 67.000
19.69422 61.000
19.71417 67.000
19.73412 62.000
19.75406 59.000
19.77401 74.000
19.79396 62.000
19.81391 60.000
19.83385 56.000
19.85380 47.000
19.87375 53.000
19.89369 56.000
19.91364 52.000
19.93359 69.000
19.95353 69.000
19.97348 56.000
19.99343 51.000
20.01337 54.000
20.03332 58.000
20.05327 52.000
20.07322 62.000
20.09316 85.000
20.11311 53.000
20.13306 52.000
20.15300 74.000
20.17295 71.000
20.19290 57.000
20.21284 70.000
20.23279 58.000
20.25274 41.000
20.27269 64.000
20.29263 65.000
20.31258 65.000
20.33253 64.000
20.35247 80.000
20.37242 52.000
20.39237 85.000
20.41231 57.000
20.43226 71.000
20.45221 81.000
20.47215 91.000
20.49210 79.000
20.51205 98.000
20.53200 92.000
20.55194 114.000
20.57189 111.000
20.59184 134.000
20.61178 147.000
20.63173 131.000
20.65168 149.000
20.67162 143.000
20.69157 133.000
20.71152 145.000
20.73147 128.000
20.75141 134.000
20.77136 132.000
20.79131 125.000
20.81125 158.000
20.83120 126.000
20.85115 114.000
20.87109 85.000
20.89104 102.000
20.91099 68.000
20.93094 81.000
20.95088 85.000
20.97083 63.000
20.99078 60.000
21.01072 76.000
21.03067 72.000
21.05062 61.000
21.07056 65.000
21.09051 53.000
21.11046 54.000
21.13040 60.000
21.15035 70.000
21.17030 62.000
21.19025 73.000
21.21019 56.000
21.23014 53.000
21.25009 64.000
21.27003 69.000
21.28998 45.000
21.30993 61.000
21.32987 53.000
21.34982 71.000
21.36977 45.000
21.38972 59.000
21.40966 56.000
21.42961 60.000
21.44956 56.000
21.46950 74.000
21.48945 58.000
21.50940 56.000
21.52934 53.000
21.54929 63.000
21.56924 61.000
21.58918 54.000
21.60913 70.000
21.62908 61.000
21.64903 61.000
21.66897 64.000
21.68892 61.000
21.70887 58.000
21.72881 68.000
21.74876 70.000
21.76871 53.000
21.78865 76.000
21.80860 59.000
21.82855 70.000
21.84850 55.000
21.86844 61.000
21.88839 57.000
21.90834 53.000
21.92828 64.000
21.94823 50.000
21.96818 56.000
21.98812 67.000
22.00807 69.000
22.02802 69.000
22.04796 61.000
22.06791 61.000
22.08786 55.000
22.10781 71.000
22.12775 72.000
22.14770 57.000
22.16765 73.000
22.18759 55.000
22.20754 57.000
22.22749 55.000
22.24743 74.000
22.26738 60.000
22.28733 48.000
22.30728 71.000
22.32722 51.000
22.34717 59.000
22.36712 64.000
22.38706 58.000
22.40701 74.000
22.42696 63.000
22.44690 54.000
22.46685 54.000
22.48680 62.000
22.50675 52.000
22.52669 54.000
22.54664 62.000
22.56659 54.000
22.58653 59.000
22.60648 62.000
22.62643 81.000
22.64637 64.000
22.66632 63.000
22.68627 51.000
22.70621 54.000
22.72616 64.000
22.74611 72.000
22.76606 69.000
22.78600 68.000
22.80595 65.000
22.82590 45.000
22.84584 53.000
22.86579 66.000
22.88574 54.000
22.90568 48.000
22.92563 47.000
22.94558 59.000
22.96553 61.000
22.98547 62.000
23.00542 46.000
23.02537 52.000
23.04531 53.000
23.06526 67.000
23.08521 50.000
23.10515 57.000
23.12510 60.000
23.14505 64.000
23.16499 58.000
23.18494 67.000
23.20489 65.000
23.22484 51.000
23.24478 56.000
23.26473 67.000
23.28468 61.000
23.30462 73.000
23.32457 65.000
23.34452 54.000
23.36446 64.000
23.38441 46.000
23.40436 66.000
23.42431 75.000
23.44425 67.000
23.46420 71.000
23.48415 64.000
23.50409 64.000
23.52404 56.000
23.54399 55.000
23.56393 60.000
23.58388 68.000
23.60383 61.000
23.62377 64.000
23.64372 59.000
23.66367 63.000
23.68362 67.000
23.70356 57.000
23.72351 55.000
23.74346 62.000
23.76340 56.000
23.78335 77.000
23.80330 59.000
23.82324 69.000
23.84319 58.000
23.86314 44.000
23.88309 69.000
23.90303 66.000
23.92298 53.000
23.94293 53.000
23.96287 83.000
23.98282 72.000
24.00277 64.000
24.02271 73.000
24.04266 86.000
24.06261 48.000
24.08256 55.000
24.10250 68.000
24.12245 63.000
24.14240 61.000
24.16234 56.000
24.18229 61.000
24.20224 70.000
24.22218 55.000
24.24213 68.000
24.26208 48.000
24.28202 77.000
24.30197 81.000
24.32192 60.000
24.34187 57.000
24.36181 65.000
24.38176 60.000
24.40171 64.000
24.42165 62.000
24.44160 62.000
24.46155 48.000
24.48149 75.000
24.50144 72.000
24.52139 54.000
24.54134 75.000
24.56128 56.000
24.58123 68.000
24.60118 69.000
24.62112 61.000
24.64107 49.000
24.66102 70.000
24.68096 62.000
24.70091 53.000
24.72086 69.000
24.74080 65.000
24.76075 59.000
24.78070 73.000
24.80065 71.000
24.82059 58.000
24.84054 64.000
24.86049 53.000
24.88043 64.000
24.90038 61.000
24.92033 62.000
24.94027 56.000
24.96022 42.000
24.98017 50.000
25.00012 55.000
25.02006 80.000
25.04001 72.000
25.05996 50.000
25.07990 54.000
25.09985 71.000
25.11980 54.000
25.13974 59.000
25.15969 60.000
25.17964 69.000
25.19958 65.000
25.21953 67.000
25.23948 55.000
25.25943 72.000
25.27937 57.000
25.29932 46.000
25.31927 62.000
25.33921 65.000
25.35916 70.000
25.37911 63.000
25.39905 62.000
25.41900 59.000
25.43895 58.000
25.45890 52.000
25.47884 59.000
25.49879 62.000
25.51874 57.000
25.53868 73.000
25.55863 52.000
25.57858 60.000
25.59852 66.000
25.61847 63.000
25.63842 56.000
25.65837 55.000
25.67831 71.000
25.69826 49.000
25.71821 63.000
25.73815 74.000
25.75810 69.000
25.77805 54.000
25.79799 69.000
25.81794 69.000
25.83789 59.000
25.85783 83.000
25.87778 64.000
25.89773 60.000
25.91768 68.000
25.93762 65.000
25.95757 68.000
25.97752 72.000
25.99746 59.000
26.01741 73.000
26.03736 89.000
26.05730 73.000
26.07725 66.000
26.09720 78.000
26.11715 63.000
26.13709 68.000
26.15704 72.000
26.17699 73.000
26.19693 68.000
26.21688 72.000
26.23683 68.000
26.25677 60.000
26.27672 59.000
26.29667 72.000
26.31661 69.000
26.33656 72.000
26.35651 64.000
26.37646 64.000
26.39640 58.000
26.41635 64.000
26.43630 71.000
26.45624 67.000
26.47619 58.000
26.49614 61.000
26.51608 77.000
26.53603 58.000
26.55598 66.000
26.57593 64.000
26.59587 63.000
26.61582 60.000
26.63577 71.000
26.65571 50.000
26.67566 61.000
26.69561 81.000
26.71555 67.000
26.73550 62.000
26.75545 79.000
26.77539 64.000
26.79534 82.000
26.81529 68.000
26.83524 72.000
26.85518 62.000
26.87513 55.000
26.89508 59.000
26.91502 53.000
26.93497 62.000
26.95492 74.000
26.97486 64.000
26.99481 65.000
27.01476 72.000
27.03471 74.000
27.05465 64.000
27.07460 74.000
27.09455 54.000
27.11449 69.000
27.13444 73.000
27.15439 64.000
27.17433 70.000
27.19428 60.000
27.21423 63.000
27.23417 70.000
27.25412 77.000
27.27407 74.000
27.29402 55.000
27.31396 63.000
27.33391 73.000
27.35386 69.000
27.37380 70.000
27.39375 57.000
27.41370 71.000
27.43364 57.000
27.45359 65.000
27.47354 64.000
27.49349 67.000
27.51343 79.000
27.53338 65.000
27.55333 63.000
27.57327 61.000
27.59322 84.000
27.61317 68.000
27.63311 71.000
27.65306 57.000
27.67301 57.000
27.69296 63.000
27.71290 66.000
27.73285 82.000
27.75280 60.000
27.77274 80.000
27.79269 62.000
27.81264 47.000
27.83258 67.000
27.85253 57.000
27.87248 47.000
27.89242 67.000
27.91237 80.000
27.93232 72.000
27.95227 69.000
27.97221 68.000
27.99216 70.000
28.01211 71.000
28.03205 67.000
28.05200 63.000
28.07195 59.000
28.09189 68.000
28.11184 76.000
28.13179 71.000
28.15174 70.000
28.17168 77.000
28.19163 64.000
28.21158 71.000
28.23152 73.000
28.25147 56.000
28.27142 67.000
28.29136 66.000
28.31131 69.000
28.33126 73.000
28.35120 69.000
28.37115 67.000
28.39110 61.000
28.41105 71.000
28.43099 79.000
28.45094 82.000
28.47089 64.000
28.49083 69.000
28.51078 73.000
28.53073 72.000
28.55067 80.000
28.57062 79.000
28.59057 80.000
28.61052 71.000
28.63046 81.000
28.65041 69.000
28.67036 75.000
28.69030 76.000
28.71025 72.000
28.73020 64.000
28.75014 77.000
28.77009 74.000
28.79004 71.000
28.80998 82.000
28.82993 54.000
28.84988 90.000
28.86983 63.000
28.88977 69.000
28.90972 86.000
28.92967 60.000
28.94961 59.000
28.96956 73.000
28.98951 67.000
29.00945 57.000
29.02940 80.000
29.04935 79.000
29.06930 84.000
29.08924 64.000
29.10919 65.000
29.12914 74.000
29.14908 74.000
29.16903 74.000
29.18898 72.000
29.20892 72.000
29.22887 85.000
29.24882 74.000
29.26877 75.000
29.28871 66.000
29.30866 84.000
29.32861 63.000
29.34855 72.000
29.36850 68.000
29.38845 71.000
29.40839 55.000
29.42834 77.000
29.44829 82.000
29.46823 66.000
29.48818 81.000
29.50813 73.000
29.52808 97.000
29.54802 79.000
29.56797 76.000
29.58792 95.000
29.60786 69.000
29.62781 63.000
29.64776 104.000
29.66770 88.000
29.68765 97.000
29.70760 114.000
29.72755 143.000
29.74749 177.000
29.76744 212.000
29.78739 251.000
29.80733 331.000
29.82728 392.000
29.84723 473.000
29.86717 493.000
29.88712 489.000
29.90707 480.000
29.92701 457.000
29.94696 359.000
29.96691 341.000
29.98686 240.000
30.00680 211.000
30.02675 158.000
30.04670 140.000
30.06664 92.000
30.08659 90.000
30.10654 86.000
30.12648 106.000
30.14643 70.000
30.16638 68.000
30.18633 86.000
30.20627 85.000
30.22622 85.000
30.24617 82.000
30.26611 81.000
30.28606 67.000
30.30601 80.000
30.32595 61.000
30.34590 68.000
30.36585 72.000
30.38579 60.000
30.40574 67.000
30.42569 60.000
30.44564 75.000
30.46558 68.000
30.48553 89.000
30.50548 80.000
30.52542 70.000
30.54537 58.000
30.56532 78.000
30.58526 76.000
30.60521 61.000
30.62516 80.000
30.64511 60.000
30.66505 79.000
30.68500 68.000
30.70495 86.000
30.72489 62.000
30.74484 73.000
30.76479 79.000
30.78473 60.000
30.80468 69.000
30.82463 83.000
30.84458 60.000
30.86452 73.000
30.88447 64.000
30.90442 65.000
30.92436 69.000
30.94431 65.000
30.96426 79.000
30.98420 70.000
31.00415 68.000
31.02410 70.000
31.04404 64.000
31.06399 65.000
31.08394 59.000
31.10389 73.000
31.12383 83.000
31.14378 76.000
31.16373 64.000
31.18367 64.000
31.20362 77.000
31.22357 75.000
31.24351 73.000
31.26346 75.000
31.28341 73.000
31.30336 74.000
31.32330 51.000
31.34325 67.000
31.36320 58.000
31.38314 77.000
31.40309 57.000
31.42304 72.000
31.44298 81.000
31.46293 53.000
31.48288 83.000
31.50282 59.000
31.52277 73.000
31.54272 61.000
31.56267 72.000
31.58261 74.000
31.60256 82.000
31.62251 78.000
31.64245 81.000
31.66240 65.000
31.68235 78.000
31.70229 77.000
31.72224 78.000
31.74219 89.000
31.76214 77.000
31.78208 88.000
31.80203 63.000
31.82198 85.000
31.84192 90.000
31.86187 84.000
31.88182 65.000
31.90176 64.000
31.92171 71.000
31.94166 74.000
31.96160 70.000
31.98155 64.000
32.00150 73.000
32.02145 87.000
32.04139 71.000
32.06134 85.000
32.08129 59.000
32.10123 72.000
32.12118 69.000
32.14113 80.000
32.16107 70.000
32.18102 72.000
32.20097 73.000
32.22092 76.000
32.24086 77.000
32.26081 84.000
32.28076 77.000
32.30070 90.000
32.32065 89.000
32.34060 88.000
32.36054 103.000
32.38049 108.000
32.40044 106.000
32.42039 80.000
32.44033 105.000
32.46028 122.000
32.48023 101.000
32.50017 139.000
32.52012 151.000
32.54007 151.000
32.56001 175.000
32.57996 159.000
32.59991 194.000
32.61985 160.000
32.63980 186.000
32.65975 145.000
32.67970 190.000
32.69964 201.000
32.71959 162.000
32.73954 178.000
32.75948 159.000
32.77943 159.000
32.79938 115.000
32.81932 124.000
32.83927 98.000
32.85922 97.000
32.87917 94.000
32.89911 83.000
32.91906 99.000
32.93901 78.000
32.95895 65.000
32.97890 62.000
32.99885 88.000
33.01879 64.000
33.03874 74.000
33.05869 76.000
33.07863 78.000
33.09858 64.000
33.11853 60.000
33.13848 78.000
33.15842 84.000
33.17837 71.000
33.19832 74.000
33.21826 67.000
33.23821 77.000
33.25816 77.000
33.27810 68.000
33.29805 72.000
33.31800 62.000
33.33795 61.000
33.35789 60.000
33.37784 70.000
33.39779 81.000
33.41773 77.000
33.43768 85.000
33.45763 64.000
33.47757 78.000
33.49752 68.000
33.51747 83.000
33.53741 69.000
33.55736 64.000
33.57731 68.000
33.59726 93.000
33.61720 88.000
33.63715 76.000
33.65710 78.000
33.67704 93.000
33.69699 84.000
33.71694 70.000
33.73688 91.000
33.75683 80.000
33.77678 86.000
33.79673 111.000
33.81667 108.000
33.83662 114.000
33.85657 112.000
33.87651 112.000
33.89646 124.000
33.91641 124.000
33.93635 134.000
33.95630 132.000
33.97625 168.000
33.99620 121.000
34.01614 133.000
34.03609 145.000
34.05604 137.000
34.07598 145.000
34.09593 142.000
34.11588 126.000
34.13582 150.000
34.15577 134.000
34.17572 151.000
34.19566 127.000
34.21561 152.000
34.23556 133.000
34.25551 155.000
34.27545 149.000
34.29540 156.000
34.31535 153.000
34.33529 143.000
34.35524 126.000
34.37519 131.000
34.39513 132.000
34.41508 105.000
34.43503 88.000
34.45498 109.000
34.47492 108.000
34.49487 95.000
34.51482 105.000
34.53476 85.000
34.55471 95.000
34.57466 105.000
34.59460 101.000
34.61455 85.000
34.63450 92.000
34.65444 102.000
34.67439 96.000
34.69434 92.000
34.71429 85.000
34.73423 88.000
34.75418 95.000
34.77413 98.000
34.79407 118.000
34.81402 103.000
34.83397 117.000
34.85391 111.000
34.87386 124.000
34.89381 130.000
34.91376 146.000
34.93370 152.000
34.95365 206.000
34.97360 213.000
34.99354 265.000
35.01349 322.000
35.03344 413.000
35.05338 526.000
35.07333 629.000
35.09328 841.000
35.11322 1034.000
35.13317 1269.000
35.15312 1357.000
35.17307 1419.000
35.19301 1602.000
35.21296 1647.000
35.23291 1469.000
35.25285 1464.000
35.27280 1375.000
35.29275 1126.000
35.31269 954.000
35.33264 835.000
35.35259 687.000
35.37254 573.000
35.39248 502.000
35.41243 394.000
35.43238 320.000
35.45232 295.000
35.47227 281.000
35.49222 247.000
35.51216 207.000
35.53211 213.000
35.55206 188.000
35.57201 181.000
35.59195 147.000
35.61190 141.000
35.63185 135.000
35.65179 110.000
35.67174 106.000
35.69169 97.000
35.71163 121.000
35.73158 94.000
35.75153 83.000
35.77147 90.000
35.79142 88.000
35.81137 96.000
35.83132 90.000
35.85126 88.000
35.87121 87.000
35.89116 92.000
35.91110 77.000
35.93105 89.000
35.95100 90.000
35.97094 94.000
35.99089 83.000
36.01084 91.000
36.03079 74.000
36.05073 89.000
36.07068 85.000
36.09063 96.000
36.11057 79.000
36.13052 79.000
36.15047 82.000
36.17041 87.000
36.19036 81.000
36.21031 90.000
36.23025 72.000
36.25020 68.000
36.27015 84.000
36.29010 83.000
36.31004 88.000
36.32999 100.000
36.34994 81.000
36.36988 86.000
36.38983 99.000
36.40978 115.000
36.42972 103.000
36.44967 122.000
36.46962 165.000
36.48957 194.000
36.50951 218.000
36.52946 248.000
36.54941 292.000
36.56935 266.000
36.58930 308.000
36.60925 297.000
36.62919 265.000
36.64914 242.000
36.66909 259.000
36.68903 264.000
36.70898 243.000
36.72893 250.000
36.74888 217.000
36.76882 249.000
36.78877 260.000
36.80872 204.000
36.82866 209.000
36.84861 174.000
36.86856 216.000
36.88850 188.000
36.90845 186.000
36.92840 142.000
36.94835 138.000
36.96829 110.000
36.98824 100.000
37.00819 101.000
37.02813 81.000
37.04808 80.000
37.06803 74.000
37.08797 93.000
37.10792 63.000
37.12787 66.000
37.14781 80.000
37.16776 77.000
37.18771 82.000
37.20766 73.000
37.22760 63.000
37.24755 51.000
37.26750 68.000
37.28744 60.000
37.30739 61.000
37.32734 68.000
37.34728 82.000
37.36723 72.000
37.38718 70.000
37.40713 68.000
37.42707 56.000
37.44702 81.000
37.46697 57.000
37.48691 75.000
37.50686 63.000
37.52681 80.000
37.54675 64.000
37.56670 53.000
37.58665 67.000
37.60660 76.000
37.62654 70.000
37.64649 67.000
37.66644 77.000
37.68638 61.000
37.70633 64.000
37.72628 72.000
37.74622 77.000
37.76617 48.000
37.78612 77.000
37.80606 67.000
37.82601 65.000
37.84596 61.000
37.86591 77.000
37.88585 75.000
37.90580 65.000
37.92575 72.000
37.94569 69.000
37.96564 74.000
37.98559 79.000
38.00553 65.000
38.02548 61.000
38.04543 79.000
38.06538 76.000
38.08532 77.000
38.10527 79.000
38.12522 76.000
38.14516 66.000
38.16511 42.000
38.18506 62.000
38.20500 57.000
38.22495 59.000
38.24490 62.000
38.26484 52.000
38.28479 66.000
38.30474 57.000
38.32469 63.000
38.34463 68.000
38.36458 64.000
38.38453 65.000
38.40447 68.000
38.42442 56.000
38.44437 65.000
38.46431 66.000
38.48426 51.000
38.50421 65.000
38.52416 74.000
38.54410 60.000
38.56405 80.000
38.58400 83.000
38.60394 56.000
38.62389 71.000
38.64384 85.000
38.66378 103.000
38.68373 89.000
38.70368 98.000
38.72362 118.000
38.74357 107.000
38.76352 99.000
38.78347 99.000
38.80341 106.000
38.82336 98.000
38.84331 101.000
38.86325 88.000
38.88320 109.000
38.90315 96.000
38.92309 92.000
38.94304 83.000
38.96299 102.000
38.98294 89.000
39.00288 101.000
39.02283 86.000
39.04278 83.000
39.06272 86.000
39.08267 56.000
39.10262 66.000
39.12256 74.000
39.14251 75.000
39.16246 70.000
39.18241 68.000
39.20235 68.000
39.22230 74.000
39.24225 63.000
39.26219 67.000
39.28214 73.000
39.30209 64.000
39.32203 65.000
39.34198 66.000
39.36193 69.000
39.38187 63.000
39.40182 61.000
39.42177 63.000
39.44172 59.000
39.46166 63.000
39.48161 76.000
39.50156 73.000
39.52150 81.000
39.54145 63.000
39.56140 62.000
39.58134 55.000
39.60129 65.000
39.62124 63.000
39.64119 57.000
39.66113 80.000
39.68108 79.000
39.70103 84.000
39.72097 94.000
39.74092 68.000
39.76087 62.000
39.78081 64.000
39.80076 58.000
39.82071 68.000
39.84065 70.000
39.86060 59.000
39.88055 59.000
39.90050 61.000
39.92044 66.000
39.94039 63.000
39.96034 70.000
39.98028 64.000
40.00023 68.000
40.02018 63.000
40.04012 68.000
40.06007 72.000
40.08002 57.000
40.09997 73.000
40.11991 66.000
40.13986 52.000
40.15981 66.000
40.17975 59.000
40.19970 59.000
40.21965 69.000
40.23959 71.000
40.25954 68.000
40.27949 59.000
40.29943 87.000
40.31938 64.000
40.33933 78.000
40.35928 65.000
40.37922 67.000
40.39917 68.000
40.41912 66.000
40.43906 71.000
40.45901 64.000
40.47896 61.000
40.49890 67.000
40.51885 86.000
40.53880 62.000
40.55875 67.000
40.57869 62.000
40.59864 60.000
40.61859 78.000
40.63853 73.000
40.65848 59.000
40.67843 79.000
40.69837 69.000
40.71832 76.000
40.73827 76.000
40.75822 78.000
40.77816 72.000
40.79811 76.000
40.81806 73.000
40.83800 87.000
40.85795 92.000
40.87790 84.000
40.89784 101.000
40.91779 71.000
40.93774 109.000
40.95768 97.000
40.97763 91.000
40.99758 81.000
41.01753 108.000
41.03747 88.000
41.05742 104.000
41.07737 106.000
41.09731 116.000
41.11726 125.000
41.13721 131.000
41.15715 142.000
41.17710 176.000
41.19705 186.000
41.21700 226.000
41.23694 233.000
41.25689 340.000
41.27684 428.000
41.29678 539.000
41.31673 731.000
41.33668 975.000
41.35662 1135.000
41.37657 1165.000
41.39652 1175.000
41.41646 1057.000
41.43641 976.000
41.45636 901.000
41.47631 803.000
41.49625 717.000
41.51620 538.000
41.53615 445.000
41.55609 340.000
41.57604 258.000
41.59599 204.000
41.61593 173.000
41.63588 147.000
41.65583 124.000
41.67578 115.000
41.69572 100.000
41.71567 114.000
41.73562 86.000
41.75556 91.000
41.77551 71.000
41.79546 67.000
41.81540 98.000
41.83535 94.000
41.85530 85.000
41.87524 77.000
41.89519 83.000
41.91514 76.000
41.93509 93.000
41.95503 97.000
41.97498 84.000
41.99493 76.000
42.01487 80.000
42.03482 84.000
42.05477 74.000
42.07471 69.000
42.09466 90.000
42.11461 67.000
42.13456 75.000
42.15450 86.000
42.17445 77.000
42.19440 77.000
42.21434 72.000
42.23429 67.000
42.25424 82.000
42.27418 89.000
42.29413 72.000
42.31408 76.000
42.33403 69.000
42.35397 74.000
42.37392 86.000
42.39387 82.000
42.41381 112.000
42.43376 85.000
42.45371 95.000
42.47365 88.000
42.49360 113.000
42.51355 111.000
42.53349 89.000
42.55344 127.000
42.57339 183.000
42.59334 158.000
42.61328 196.000
42.63323 225.000
42.65318 232.000
42.67312 293.000
42.69307 334.000
42.71302 338.000
42.73296 302.000
42.75291 373.000
42.77286 359.000
42.79281 348.000
42.81275 370.000
42.83270 320.000
42.85265 297.000
42.87259 300.000
42.89254 270.000
42.91249 242.000
42.93243 199.000
42.95238 185.000
42.97233 169.000
42.99227 149.000
43.01222 142.000
43.03217 118.000
43.05212 121.000
43.07206 97.000
43.09201 101.000
43.11196 75.000
43.13190 78.000
43.15185 75.000
43.17180 71.000
43.19174 55.000
43.21169 72.000
43.23164 74.000
43.25159 62.000
43.27153 69.000
43.29148 75.000
43.31143 72.000
43.33137 79.000
43.35132 64.000
43.37127 62.000
43.39121 70.000
43.41116 69.000
43.43111 72.000
43.45105 86.000
43.47100 90.000
43.49095 70.000
43.51090 59.000
43.53084 62.000
43.55079 84.000
43.57074 66.000
43.59068 56.000
43.61063 72.000
43.63058 71.000
43.65052 58.000
43.67047 72.000
43.69042 55.000
43.71037 71.000
43.73031 73.000
43.75026 64.000
43.77021 57.000
43.79015 60.000
43.81010 76.000
43.83005 61.000
43.84999 80.000
43.86994 66.000
43.88989 67.000
43.90984 61.000
43.92978 60.000
43.94973 63.000
43.96968 64.000
43.98962 58.000
44.00957 86.000
44.02952 72.000
44.04946 66.000
44.06941 82.000
44.08936 46.000
44.10930 74.000
44.12925 65.000
44.14920 66.000
44.16915 60.000
44.18909 64.000
44.20904 73.000
44.22899 60.000
44.24893 60.000
44.26888 74.000
44.28883 84.000
44.30877 59.000
44.32872 68.000
44.34867 61.000
44.36862 40.000
44.38856 63.000
44.40851 72.000
44.42846 77.000
44.44840 71.000
44.46835 74.000
44.48830 60.000
44.50824 61.000
44.52819 64.000
44.54814 77.000
44.56808 71.000
44.58803 85.000
44.60798 86.000
44.62793 113.000
44.64787 108.000
44.66782 109.000
44.68777 116.000
44.70771 114.000
44.72766 112.000
44.74761 103.000
44.76755 105.000
44.78750 79.000
44.80745 74.000
44.82740 94.000
44.84734 71.000
44.86729 77.000
44.88724 76.000
44.90718 72.000
44.92713 68.000
44.94708 64.000
44.96702 68.000
44.98697 78.000
45.00692 72.000
45.02686 51.000
45.04681 51.000
45.06676 68.000
45.08671 61.000
45.10665 54.000
45.12660 78.000
45.14655 70.000
45.16649 58.000
45.18644 58.000
45.20639 66.000
45.22633 80.000
45.24628 58.000
45.26623 54.000
45.28618 58.000
45.30612 66.000
45.32607 47.000
45.34602 60.000
45.36596 68.000
45.38591 70.000
45.40586 63.000
45.42580 73.000
45.44575 67.000
45.46570 63.000
45.48565 68.000
45.50559 63.000
45.52554 59.000
45.54549 72.000
45.56543 63.000
45.58538 69.000
45.60533 54.000
45.62527 53.000
45.64522 61.000
45.66517 61.000
45.68511 60.000
45.70506 79.000
45.72501 56.000
45.74496 53.000
45.76490 57.000
45.78485 73.000
45.80480 57.000
45.82474 47.000
45.84469 66.000
45.86464 50.000
45.88458 62.000
45.90453 66.000
45.92448 56.000
45.94443 46.000
45.96437 52.000
45.98432 68.000
46.00427 71.000
46.02421 64.000
46.04416 57.000
46.06411 57.000
46.08405 83.000
46.10400 67.000
46.12395 58.000
46.14389 56.000
46.16384 60.000
46.18379 68.000
46.20374 58.000
46.22368 57.000
46.24363 59.000
46.26358 64.000
46.28352 57.000
46.30347 51.000
46.32342 61.000
46.34336 51.000
46.36331 68.000
46.38326 61.000
46.40321 64.000
46.42315 69.000
46.44310 77.000
46.46305 68.000
46.48299 46.000
46.50294 60.000
46.52289 50.000
46.54283 77.000
46.56278 55.000
46.58273 62.000
46.60267 53.000
46.62262 70.000
46.64257 64.000
46.66252 75.000
46.68246 75.000
46.70241 77.000
46.72236 50.000
46.74230 61.000
46.76225 77.000
46.78220 55.000
46.80214 72.000
46.82209 74.000
46.84204 74.000
46.86199 76.000
46.88193 76.000
46.90188 71.000
46.92183 71.000
46.94177 73.000
46.96172 84.000
46.98167 66.000
47.00161 82.000
47.02156 62.000
47.04151 54.000
47.06146 55.000
47.08140 55.000
47.10135 61.000
47.12130 64.000
47.14124 67.000
47.16119 67.000
47.18114 58.000
47.20108 65.000
47.22103 61.000
47.24098 67.000
47.26092 51.000
47.28087 61.000
47.30082 51.000
47.32077 56.000
47.34071 61.000
47.36066 61.000
47.38061 60.000
47.40055 62.000
47.42050 55.000
47.44045 60.000
47.46039 68.000
47.48034 49.000
47.50029 62.000
47.52024 49.000
47.54018 54.000
47.56013 67.000
47.58008 58.000
47.60002 58.000
47.61997 54.000
47.63992 64.000
47.65986 71.000
47.67981 55.000
47.69976 44.000
47.71970 44.000
47.73965 57.000
47.75960 63.000
47.77955 50.000
47.79949 58.000
47.81944 67.000
47.83939 66.000
47.85933 67.000
47.87928 59.000
47.89923 62.000
47.91917 47.000
47.93912 42.000
47.95907 64.000
47.97902 61.000
47.99896 54.000
48.01891 64.000
48.03886 54.000
48.05880 58.000
48.07875 81.000
48.09870 56.000
48.11864 58.000
48.13859 73.000
48.15854 67.000
48.17848 76.000
48.19843 60.000
48.21838 64.000
48.23833 69.000
48.25827 68.000
48.27822 78.000
48.29817 84.000
48.31811 79.000
48.33806 85.000
48.35801 81.000
48.37795 91.000
48.39790 64.000
48.41785 82.000
48.43780 70.000
48.45774 69.000
48.47769 84.000
48.49764 58.000
48.51758 76.000
48.53753 68.000
48.55748 76.000
48.57742 80.000
48.59737 56.000
48.61732 75.000
48.63726 90.000
48.65721 78.000
48.67716 71.000
48.69711 82.000
48.71705 67.000
48.73700 51.000
48.75695 66.000
48.77689 86.000
48.79684 79.000
48.81679 59.000
48.83673 71.000
48.85668 62.000
48.87663 59.000
48.89658 66.000
48.91652 64.000
48.93647 70.000
48.95642 68.000
48.97636 71.000
48.99631 78.000
49.01626 71.000
49.03620 59.000
49.05615 67.000
49.07610 60.000
49.09605 66.000
49.11599 74.000
49.13594 52.000
49.15589 70.000
49.17583 57.000
49.19578 59.000
49.21573 59.000
49.23567 58.000
49.25562 64.000
49.27557 64.000
49.29551 63.000
49.31546 88.000
49.33541 61.000
49.35536 54.000
49.37530 65.000
49.39525 72.000
49.41520 68.000
49.43514 60.000
49.45509 68.000
49.47504 63.000
49.49498 57.000
49.51493 61.000
49.53488 63.000
49.55483 67.000
49.57477 57.000
49.59472 59.000
49.61467 50.000
49.63461 70.000
49.65456 68.000
49.67451 69.000
49.69445 66.000
49.71440 73.000
49.73435 72.000
49.75429 65.000
49.77424 58.000
49.79419 80.000
49.81414 68.000
49.83408 64.000
49.85403 53.000
49.87398 59.000
49.89392 59.000
49.91387 64.000
49.93382 72.000
49.95376 70.000
49.97371 55.000
49.99366 55.000
50.01361 56.000
50.03355 71.000
50.05350 54.000
50.07345 73.000
50.09339 61.000
50.11334 67.000
50.13329 52.000
50.15323 71.000
50.17318 54.000
50.19313 61.000
50.21307 52.000
50.23302 49.000
50.25297 64.000
50.27292 68.000
50.29286 50.000
50.31281 46.000
50.33276 65.000
50.35270 55.000
50.37265 63.000
50.39260 50.000
50.41254 72.000
50.43249 63.000
50.45244 55.000
50.47239 58.000
50.49233 77.000
50.51228 58.000
50.53223 58.000
50.55217 48.000
50.57212 73.000
50.59207 61.000
50.61201 60.000
50.63196 68.000
50.65191 63.000
50.67186 45.000
50.69180 64.000
50.71175 67.000
50.73170 58.000
50.75164 68.000
50.77159 53.000
50.79154 60.000
50.81148 44.000
50.83143 55.000
50.85138 62.000
50.87132 68.000
50.89127 55.000
50.91122 62.000
50.93117 59.000
50.95111 68.000
50.97106 64.000
50.99101 63.000
51.01095 55.000
51.03090 64.000
51.05085 55.000
51.07079 72.000
51.09074 62.000
51.11069 68.000
51.13064 65.000
51.15058 49.000
51.17053 65.000
51.19048 65.000
51.21042 68.000
51.23037 60.000
51.25032 52.000
51.27026 61.000
51.29021 62.000
51.31016 74.000
51.33010 67.000
51.35005 72.000
51.37000 61.000
51.38995 57.000
51.40989 64.000
51.42984 70.000
51.44979 59.000
51.46973 52.000
51.48968 64.000
51.50963 69.000
51.52957 57.000
51.54952 60.000
51.56947 58.000
51.58942 54.000
51.60936 61.000
51.62931 59.000
51.64926 64.000
51.66920 60.000
51.68915 58.000
51.70910 73.000
51.72904 63.000
51.74899 80.000
51.76894 61.000
51.78888 66.000
51.80883 55.000
51.82878 55.000
51.84873 57.000
51.86867 72.000
51.88862 60.000
51.90857 65.000
51.92851 56.000
51.94846 61.000
51.96841 82.000
51.98835 64.000
52.00830 51.000
52.02825 51.000
52.04820 64.000
52.06814 79.000
52.08809 65.000
52.10804 64.000
52.12798 67.000
52.14793 68.000
52.16788 69.000
52.18782 73.000
52.20777 73.000
52.22772 64.000
52.24767 76.000
52.26761 66.000
52.28756 65.000
52.30751 65.000
52.32745 62.000
52.34740 61.000
52.36735 75.000
52.38729 77.000
52.40724 76.000
52.42719 77.000
52.44713 77.000
52.46708 85.000
52.48703 98.000
52.50698 92.000
52.52692 90.000
52.54687 93.000
52.56682 119.000
52.58676 103.000
52.60671 135.000
52.62666 144.000
52.64660 140.000
52.66655 187.000
52.68650 190.000
52.70645 225.000
52.72639 243.000
52.74634 228.000
52.76629 232.000
52.78623 199.000
52.80618 206.000
52.82613 185.000
52.84607 152.000
52.86602 174.000
52.88597 184.000
52.90591 176.000
52.92586 158.000
52.94581 170.000
52.96576 152.000
52.98570 171.000
53.00565 154.000
53.02560 157.000
53.04554 138.000
53.06549 167.000
53.08544 146.000
53.10538 134.000
53.12533 155.000
53.14528 120.000
53.16523 135.000
53.18517 120.000
53.20512 123.000
53.22507 120.000
53.24501 118.000
53.26496 90.000
53.28491 94.000
53.30485 101.000
53.32480 84.000
53.34475 92.000
53.36469 83.000
53.38464 75.000
53.40459 70.000
53.42454 67.000
53.44448 74.000
53.46443 64.000
53.48438 67.000
53.50432 69.000
53.52427 73.000
53.54422 72.000
53.56416 73.000
53.58411 84.000
53.60406 84.000
53.62401 55.000
53.64395 71.000
53.66390 73.000
53.68385 63.000
53.70379 75.000
53.72374 76.000
53.74369 56.000
53.76363 63.000
53.78358 56.000
53.80353 74.000
53.82348 66.000
53.84342 73.000
53.86337 58.000
53.88332 74.000
53.90326 62.000
53.92321 78.000
53.94316 73.000
53.96310 63.000
53.98305 67.000
54.00300 68.000
54.02294 68.000
54.04289 71.000
54.06284 64.000
54.08279 80.000
54.10273 63.000
54.12268 67.000
54.14263 76.000
54.16257 60.000
54.18252 75.000
54.20247 82.000
54.22241 56.000
54.24236 72.000
54.26231 65.000
54.28226 56.000
54.30220 59.000
54.32215 66.000
54.34210 70.000
54.36204 61.000
54.38199 58.000
54.40194 73.000
54.42188 78.000
54.44183 70.000
54.46178 65.000
54.48172 66.000
54.50167 67.000
54.52162 62.000
54.54157 65.000
54.56151 67.000
54.58146 62.000
54.60141 80.000
54.62135 71.000
54.64130 63.000
54.66125 81.000
54.68119 68.000
54.70114 55.000
54.72109 52.000
54.74104 69.000
54.76098 62.000
54.78093 58.000
54.80088 59.000
54.82082 79.000
54.84077 51.000
54.86072 58.000
54.88066 67.000
54.90061 53.000
54.92056 57.000
54.94050 56.000
54.96045 71.000
54.98040 68.000
55.00035 60.000
55.02029 61.000
55.04024 69.000
55.06019 78.000
55.08013 54.000
55.10008 77.000
55.12003 66.000
55.13997 54.000
55.15992 60.000
55.17987 57.000
55.19982 63.000
55.21976 60.000
55.23971 56.000
55.25966 72.000
55.27960 76.000
55.29955 72.000
55.31950 62.000
55.33944 64.000
55.35939 59.000
55.37934 66.000
55.39929 52.000
55.41923 62.000
55.43918 65.000
55.45913 75.000
55.47907 59.000
55.49902 56.000
55.51897 51.000
55.53891 60.000
55.55886 74.000
55.57881 84.000
55.59875 78.000
55.61870 74.000
55.63865 72.000
55.65860 60.000
55.67854 65.000
55.69849 74.000
55.71844 58.000
55.73838 77.000
55.75833 65.000
55.77828 62.000
55.79822 69.000
55.81817 77.000
55.83812 54.000
55.85807 70.000
55.87801 62.000
55.89796 70.000
55.91791 71.000
55.93785 83.000
55.95780 59.000
55.97775 52.000
55.99769 93.000
56.01764 72.000
56.03759 73.000
56.05753 78.000
56.07748 86.000
56.09743 63.000
56.11738 62.000
56.13732 75.000
56.15727 86.000
56.17722 80.000
56.19716 87.000
56.21711 70.000
56.23706 111.000
56.25700 109.000
56.27695 147.000
56.29690 160.000
56.31685 128.000
56.33679 184.000
56.35674 197.000
56.37669 208.000
56.39663 193.000
56.41658 269.000
56.43653 295.000
56.45647 299.000
56.47642 316.000
56.49637 362.000
56.51631 387.000
56.53626 348.000
56.55621 340.000
56.57616 379.000
56.59610 334.000
56.61605 335.000
56.63600 338.000
56.65594 305.000
56.67589 342.000
56.69584 315.000
56.71578 280.000
56.73573 235.000
56.75568 234.000
56.77563 211.000
56.79557 194.000
56.81552 200.000
56.83547 166.000
56.85541 148.000
56.87536 127.000
56.89531 146.000
56.91525 125.000
56.93520 116.000
56.95515 106.000
56.97510 92.000
56.99504 93.000
57.01499 92.000
57.03494 99.000
57.05488 96.000
57.07483 106.000
57.09478 118.000
57.11472 138.000
57.13467 122.000
57.15462 123.000
57.17456 132.000
57.19451 149.000
57.21446 148.000
57.23441 154.000
57.25435 182.000
57.27430 243.000
57.29425 220.000
57.31419 229.000
57.33414 223.000
57.35409 257.000
57.37403 276.000
57.39398 262.000
57.41393 221.000
57.43388 209.000
57.45382 198.000
57.47377 193.000
57.49372 195.000
57.51366 156.000
57.53361 165.000
57.55356 164.000
57.57350 137.000
57.59345 111.000
57.61340 133.000
57.63334 93.000
57.65329 110.000
57.67324 81.000
57.69319 80.000
57.71313 78.000
57.73308 89.000
57.75303 70.000
57.77297 82.000
57.79292 64.000
57.81287 59.000
57.83281 71.000
57.85276 60.000
57.87271 54.000
57.89266 76.000
57.91260 65.000
57.93255 71.000
57.95250 74.000
57.97244 65.000
57.99239 74.000
58.01234 67.000
58.03228 79.000
58.05223 61.000
58.07218 72.000
58.09212 72.000
58.11207 74.000
58.13202 78.000
58.15197 66.000
58.17191 80.000
58.19186 64.000
58.21181 76.000
58.23175 74.000
58.25170 67.000
58.27165 80.000
58.29159 60.000
58.31154 76.000
58.33149 60.000
58.35144 76.000
58.37138 73.000
58.39133 72.000
58.41128 60.000
58.43122 66.000
58.45117 66.000
58.47112 60.000
58.49106 71.000
58.51101 67.000
58.53096 75.000
58.55090 63.000
58.57085 69.000
58.59080 64.000
58.61075 58.000
58.63069 63.000
58.65064 54.000
58.67059 82.000
58.69053 66.000
58.71048 59.000
58.73043 60.000
58.75037 57.000
58.77032 56.000
58.79027 66.000
58.81022 67.000
58.83016 63.000
58.85011 63.000
58.87006 67.000
58.89000 72.000
58.90995 77.000
58.92990 60.000
58.94984 66.000
58.96979 69.000
58.98974 62.000
59.00969 58.000
59.02963 64.000
59.04958 62.000
59.06953 59.000
59.08947 69.000
59.10942 71.000
59.12937 80.000
59.14931 60.000
59.16926 81.000
59.18921 65.000
59.20915 68.000
59.22910 54.000
59.24905 54.000
59.26900 74.000
59.28894 65.000
59.30889 58.000
59.32884 72.000
59.34878 72.000
59.36873 60.000
59.38868 63.000
59.40862 62.000
59.42857 72.000
59.44852 72.000
59.46847 62.000
59.48841 53.000
59.50836 78.000
59.52831 67.000
59.54825 64.000
59.56820 72.000
59.58815 58.000
59.60809 56.000
59.62804 77.000
59.64799 60.000
59.66793 52.000
59.68788 74.000
59.70783 72.000
59.72778 68.000
59.74772 69.000
59.76767 75.000
59.78762 57.000
59.80756 60.000
59.82751 64.000
59.84746 53.000
59.86740 65.000
59.88735 71.000
59.90730 74.000
59.92725 61.000
59.94719 77.000
59.96714 74.000
59.98709 74.000
60.00703 88.000
60.02698 54.000
60.04693 58.000
60.06687 54.000
60.08682 49.000
60.10677 51.000
60.12671 60.000
60.14666 64.000
60.16661 66.000
60.18656 68.000
60.20650 67.000
60.22645 51.000
60.24640 57.000
60.26634 56.000
60.28629 65.000
60.30624 66.000
60.32618 73.000
60.34613 55.000
60.36608 68.000
60.38603 65.000
60.40597 67.000
60.42592 59.000
60.44587 65.000
60.46581 73.000
60.48576 74.000
60.50571 60.000
60.52565 62.000
60.54560 57.000
60.56555 55.000
60.58550 65.000
60.60544 70.000
60.62539 76.000
60.64534 86.000
60.66528 69.000
60.68523 55.000
60.70518 70.000
60.72512 77.000
60.74507 77.000
60.76502 67.000
60.78496 79.000
60.80491 61.000
60.82486 84.000
60.84481 94.000
60.86475 78.000
60.88470 77.000
60.90465 67.000
60.92459 89.000
60.94454 74.000
60.96449 76.000
60.98443 68.000
61.00438 79.000
61.02433 86.000
61.04428 76.000
61.06422 79.000
61.08417 76.000
61.10412 74.000
61.12406 72.000
61.14401 73.000
61.16396 67.000
61.18390 83.000
61.20385 91.000
61.22380 67.000
61.24374 74.000
61.26369 66.000
61.28364 72.000
61.30359 88.000
61.32353 70.000
61.34348 87.000
61.36343 89.000
61.38337 86.000
61.40332 75.000
61.42327 110.000
61.44321 90.000
61.46316 108.000
61.48311 93.000
61.50306 79.000
61.52300 99.000
61.54295 74.000
61.56290 83.000
61.58284 102.000
61.60279 93.000
61.62274 85.000
61.64268 90.000
61.66263 98.000
61.68258 91.000
61.70252 101.000
61.72247 110.000
61.74242 123.000
61.76237 122.000
61.78231 135.000
61.80226 124.000
61.82221 145.000
61.84215 170.000
61.86210 187.000
61.88205 212.000
61.90199 220.000
61.92194 269.000
61.94189 304.000
61.96184 329.000
61.98178 364.000
62.00173 373.000
62.02168 408.000
62.04162 424.000
62.06157 474.000
62.08152 433.000
62.10146 460.000
62.12141 438.000
62.14136 460.000
62.16131 462.000
62.18125 438.000
62.20120 415.000
62.22115 413.000
62.24109 390.000
62.26104 346.000
62.28099 344.000
62.30093 329.000
62.32088 304.000
62.34083 303.000
62.36077 297.000
62.38072 291.000
62.40067 277.000
62.42062 271.000
62.44056 221.000
62.46051 259.000
62.48046 256.000
62.50040 233.000
62.52035 236.000
62.54030 223.000
62.56024 244.000
62.58019 210.000
62.60014 211.000
62.62009 172.000
62.64003 168.000
62.65998 180.000
62.67993 183.000
62.69987 165.000
62.71982 165.000
62.73977 166.000
62.75971 158.000
62.77966 132.000
62.79961 136.000
62.81955 121.000
62.83950 115.000
62.85945 120.000
62.87940 119.000
62.89934 102.000
62.91929 101.000
62.93924 97.000
62.95918 82.000
62.97913 79.000
62.99908 93.000
63.01902 88.000
63.03897 83.000
63.05892 79.000
63.07887 85.000
63.09881 71.000
63.11876 83.000
63.13871 63.000
63.15865 68.000
63.17860 70.000
63.19855 90.000
63.21849 82.000
63.23844 69.000
63.25839 50.000
63.27833 57.000
63.29828 65.000
63.31823 67.000
63.33818 59.000
63.35812 60.000
63.37807 67.000
63.39802 62.000
63.41796 57.000
63.43791 78.000
63.45786 69.000
63.47780 66.000
63.49775 78.000
63.51770 63.000
63.53765 70.000
63.55759 76.000
63.57754 61.000
63.59749 72.000
63.61743 77.000
63.63738 71.000
63.65733 70.000
63.67727 74.000
63.69722 62.000
63.71717 89.000
63.73712 79.000
63.75706 62.000
63.77701 79.000
63.79696 68.000
63.81690 60.000
63.83685 50.000
63.85680 73.000
63.87674 66.000
63.89669 78.000
63.91664 52.000
63.93658 64.000
63.95653 61.000
63.97648 72.000
63.99643 63.000
64.01637 67.000
64.03632 67.000
64.05627 60.000
64.07621 58.000
64.09616 58.000
64.11611 57.000
64.13605 62.000
64.15600 60.000
64.17595 66.000
64.19590 65.000
64.21584 78.000
64.23579 57.000
64.25574 70.000
64.27568 55.000
64.29563 57.000
64.31558 63.000
64.33552 59.000
64.35547 56.000
64.37542 58.000
64.39536 73.000
64.41531 53.000
64.43526 68.000
64.45521 68.000
64.47515 69.000
64.49510 65.000
64.51505 65.000
64.53499 77.000
64.55494 66.000
64.57489 71.000
64.59483 73.000
64.61478 59.000
64.63473 64.000
64.65468 63.000
64.67462 59.000
64.69457 78.000
64.71452 69.000
64.73446 75.000
64.75441 88.000
64.77436 95.000
64.79430 71.000
64.81425 88.000
64.83420 105.000
64.85414 89.000
64.87409 90.000
64.89404 102.000
64.91399 105.000
64.93393 117.000
64.95388 126.000
64.97383 113.000
64.99377 123.000
65.01372 121.000
65.03367 111.000
65.05361 132.000
65.07356 145.000
65.09351 161.000
65.11346 137.000
65.13340 123.000
65.15335 134.000
65.17330 159.000
65.19324 150.000
65.21319 126.000
65.23314 131.000
65.25308 147.000
65.27303 146.000
65.29298 127.000
65.31293 123.000
65.33287 117.000
65.35282 120.000
65.37277 90.000
65.39271 114.000
65.41266 102.000
65.43261 109.000
65.45255 89.000
65.47250 88.000
65.49245 61.000
65.51239 85.000
65.53234 83.000
65.55229 74.000
65.57224 77.000
65.59218 86.000
65.61213 74.000
65.63208 79.000
65.65202 70.000
65.67197 68.000
65.69192 81.000
65.71186 79.000
65.73181 73.000
65.75176 74.000
65.77171 76.000
65.79165 81.000
65.81160 81.000
65.83155 56.000
65.85149 57.000
65.87144 69.000
65.89139 69.000
65.91133 77.000
65.93128 68.000
65.95123 73.000
65.97117 80.000
65.99112 64.000
66.01107 65.000
66.03102 76.000
66.05096 76.000
66.07091 65.000
66.09086 79.000
66.11080 78.000
66.13075 86.000
66.15070 78.000
66.17064 69.000
66.19059 72.000
66.21054 65.000
66.23049 69.000
66.25043 69.000
66.27038 69.000
66.29033 58.000
66.31027 68.000
66.33022 80.000
66.35017 75.000
66.37011 62.000
66.39006 66.000
66.41001 61.000
66.42995 80.000
66.44990 60.000
66.46985 63.000
66.48980 75.000
66.50974 60.000
66.52969 73.000
66.54964 63.000
66.56958 58.000
66.58953 54.000
66.60948 53.000
66.62942 49.000
66.64937 65.000
66.66932 67.000
66.68927 58.000
66.70921 49.000
66.72916 50.000
66.74911 55.000
66.76905 70.000
66.78900 65.000
66.80895 57.000
66.82889 67.000
66.84884 53.000
66.86879 65.000
66.88874 61.000
66.90868 71.000
66.92863 58.000
66.94858 68.000
66.96852 63.000
66.98847 75.000
67.00842 63.000
67.02836 64.000
67.04831 51.000
67.06826 74.000
67.08820 74.000
67.10815 65.000
67.12810 63.000
67.14805 65.000
67.16799 57.000
67.18794 61.000
67.20789 71.000
67.22783 76.000
67.24778 73.000
67.26773 72.000
67.28767 82.000
67.30762 77.000
67.32757 70.000
67.34752 68.000
67.36746 61.000
67.38741 86.000
67.40736 75.000
67.42730 78.000
67.44725 91.000
67.46720 106.000
67.48714 87.000
67.50709 87.000
67.52704 98.000
67.54698 92.000
67.56693 116.000
67.58688 112.000
67.60683 106.000
67.62677 115.000
67.64672 125.000
67.66667 99.000
67.68661 120.000
67.70656 111.000
67.72651 104.000
67.74645 105.000
67.76640 87.000
67.78635 91.000
67.80630 80.000
67.82624 76.000
67.84619 87.000
67.86614 102.000
67.88608 101.000
67.90603 73.000
67.92598 65.000
67.94592 68.000
67.96587 79.000
67.98582 71.000
68.00576 68.000
68.02571 71.000
68.04566 84.000
68.06561 84.000
68.08555 74.000
68.10550 62.000
68.12545 75.000
68.14539 91.000
68.16534 77.000
68.18529 89.000
68.20523 89.000
68.22518 71.000
68.24513 93.000
68.26508 60.000
68.28502 72.000
68.30497 73.000
68.32492 74.000
68.34486 94.000
68.36481 82.000
68.38476 72.000
68.40470 66.000
68.42465 71.000
68.44460 64.000
68.46455 83.000
68.48449 77.000
68.50444 67.000
68.52439 74.000
68.54433 76.000
68.56428 81.000
68.58423 75.000
68.60417 76.000
68.62412 62.000
68.64407 83.000
68.66401 80.000
68.68396 82.000
68.70391 67.000
68.72386 70.000
68.74380 66.000
68.76375 83.000
68.78370 64.000
68.80364 56.000
68.82359 71.000
68.84354 76.000
68.86348 66.000
68.88343 66.000
68.90338 60.000
68.92333 65.000
68.94327 69.000
68.96322 59.000
68.98317 62.000
69.00311 72.000
69.02306 52.000
69.04301 77.000
69.06295 64.000
69.08290 60.000
69.10285 72.000
69.12279 62.000
69.14274 57.000
69.16269 56.000
69.18264 51.000
69.20258 68.000
69.22253 51.000
69.24248 67.000
69.26242 58.000
69.28237 67.000
69.30232 68.000
69.32226 58.000
69.34221 56.000
69.36216 55.000
69.38211 70.000
69.40205 74.000
69.42200 66.000
69.44195 70.000
69.46189 64.000
69.48184 61.000
69.50179 58.000
69.52173 54.000
69.54168 58.000
69.56163 49.000
69.58157 51.000
69.60152 66.000
69.62147 62.000
69.64142 59.000
69.66136 64.000
69.68131 63.000
69.70126 67.000
69.72120 63.000
69.74115 40.000
69.76110 71.000
69.78104 69.000
69.80099 52.000
69.82094 60.000
69.84089 63.000
69.86083 47.000
69.88078 56.000
69.90073 58.000
69.92067 58.000
69.94062 74.000
69.96057 59.000
69.98051 67.000
70.00046 57.000
70.02041 53.000
70.04035 64.000
70.06030 60.000
70.08025 65.000
70.10020 54.000
70.12014 61.000
70.14009 63.000
70.16004 57.000
70.17998 71.000
70.19993 55.000
70.21988 74.000
70.23982 78.000
70.25977 72.000
70.27972 70.000
70.29967 62.000
70.31961 99.000
70.33956 75.000
70.35951 88.000
70.37945 86.000
70.39940 79.000
70.41935 74.000
70.43929 89.000
70.45924 87.000
70.47919 69.000
70.49914 85.000
70.51908 81.000
70.53903 75.000
70.55898 78.000
70.57892 89.000
70.59887 69.000
70.61882 85.000
70.63876 73.000
70.65871 70.000
70.67866 63.000
70.69860 74.000
70.71855 67.000
70.73850 59.000
70.75845 72.000
70.77839 66.000
70.79834 67.000
70.81829 54.000
70.83823 80.000
70.85818 80.000
70.87813 70.000
70.89807 78.000
70.91802 68.000
70.93797 57.000
70.95792 64.000
70.97786 64.000
70.99781 58.000
71.01776 54.000
71.03770 64.000
71.05765 65.000
71.07760 52.000
71.09754 46.000
71.11749 56.000
71.13744 74.000
71.15738 63.000
71.17733 66.000
71.19728 74.000
71.21723 64.000
71.23717 61.000
71.25712 54.000
71.27707 44.000
71.29701 59.000
71.31696 67.000
71.33691 62.000
71.35685 53.000
71.37680 71.000
71.39675 75.000
71.41670 59.000
71.43664 70.000
71.45659 63.000
71.47654 68.000
71.49648 61.000
71.51643 59.000
71.53638 51.000
71.55632 53.000
71.57627 65.000
71.59622 54.000
71.61616 60.000
71.63611 66.000
71.65606 70.000
71.67601 66.000
71.69595 61.000
71.71590 54.000
71.73585 61.000
71.75579 75.000
71.77574 62.000
71.79569 66.000
71.81563 68.000
71.83558 54.000
71.85553 64.000
71.87548 70.000
71.89542 74.000
71.91537 67.000
71.93532 75.000
71.95526 63.000
71.97521 65.000
71.99516 61.000
72.01510 65.000
72.03505 66.000
72.05500 64.000
72.07495 70.000
72.09489 81.000
72.11484 80.000
72.13479 81.000
72.15473 77.000
72.17468 78.000
72.19463 87.000
72.21457 90.000
72.23452 79.000
72.25447 111.000
72.27441 103.000
72.29436 124.000
72.31431 106.000
72.33426 110.000
72.35420 131.000
72.37415 120.000
72.39410 90.000
72.41404 103.000
72.43399 119.000
72.45394 104.000
72.47388 97.000
72.49383 112.000
72.51378 98.000
72.53373 97.000
72.55367 95.000
72.57362 86.000
72.59357 82.000
72.61351 89.000
72.63346 72.000
72.65341 89.000
72.67335 83.000
72.69330 77.000
72.71325 76.000
72.73319 76.000
72.75314 73.000
72.77309 74.000
72.79304 54.000
72.81298 86.000
72.83293 65.000
72.85288 70.000
72.87282 73.000
72.89277 80.000
72.91272 69.000
72.93266 67.000
72.95261 95.000
72.97256 83.000
72.99251 83.000
73.01245 68.000
73.03240 96.000
73.05235 78.000
73.07229 89.000
73.09224 105.000
73.11219 95.000
73.13213 108.000
73.15208 122.000
73.17203 118.000
73.19197 100.000
73.21192 114.000
73.23187 125.000
73.25182 124.000
73.27176 137.000
73.29171 116.000
73.31166 155.000
73.33160 144.000
73.35155 140.000
73.37150 138.000
73.39144 145.000
73.41139 148.000
73.43134 141.000
73.45129 127.000
73.47123 139.000
73.49118 144.000
73.51113 149.000
73.53107 120.000
73.55102 111.000
73.57097 145.000
73.59091 126.000
73.61086 115.000
73.63081 111.000
73.65076 135.000
73.67070 128.000
73.69065 97.000
73.71060 104.000
73.73054 106.000
73.75049 78.000
73.77044 95.000
73.79038 106.000
73.81033 80.000
73.83028 98.000
73.85022 98.000
73.87017 87.000
73.89012 86.000
73.91007 97.000
73.93001 86.000
73.94996 84.000
73.96991 71.000
73.98985 88.000
74.00980 71.000
74.02975 68.000
74.04969 72.000
74.06964 87.000
74.08959 69.000
74.10954 77.000
74.12948 89.000
74.14943 85.000
74.16938 96.000
74.18932 83.000
74.20927 91.000
74.22922 79.000
74.24916 87.000
74.26911 106.000
74.28906 92.000
74.30900 83.000
74.32895 88.000
74.34890 101.000
74.36885 93.000
74.38879 97.000
74.40874 107.000
74.42869 103.000
74.44863 105.000
74.46858 98.000
74.48853 86.000
74.50847 109.000
74.52842 94.000
74.54837 100.000
74.56832 107.000
74.58826 107.000
74.60821 99.000
74.62816 101.000
74.64810 99.000
74.66805 92.000
74.68800 96.000
74.70794 88.000
74.72789 88.000
74.74784 91.000
74.76778 77.000
74.78773 84.000
74.80768 84.000
74.82763 73.000
74.84757 71.000
74.86752 66.000
74.88747 93.000
74.90741 76.000
74.92736 77.000
74.94731 64.000
74.96725 87.000
74.98720 71.000
75.00715 76.000
75.02710 70.000
75.04704 77.000
75.06699 64.000
75.08694 61.000
75.10688 79.000
75.12683 65.000
75.14678 62.000
75.16672 64.000
75.18667 69.000
75.20662 72.000
75.22657 82.000
75.24651 73.000
75.26646 61.000
75.28641 76.000
75.30635 66.000
75.32630 62.000
75.34625 51.000
75.36619 53.000
75.38614 65.000
75.40609 56.000
75.42603 55.000
75.44598 66.000
75.46593 58.000
75.48588 65.000
75.50582 69.000
75.52577 61.000
75.54572 52.000
75.56566 55.000
75.58561 53.000
75.60556 59.000
75.62550 41.000
75.64545 66.000
75.66540 59.000
75.68535 68.000
75.70529 58.000
75.72524 64.000
75.74519 54.000
75.76513 78.000
75.78508 69.000
75.80503 64.000
75.82497 64.000
75.84492 65.000
75.86487 57.000
75.88481 67.000
75.90476 73.000
75.92471 63.000
75.94466 63.000
75.96460 66.000
75.98455 48.000
76.00450 47.000
76.02444 62.000
76.04439 45.000
76.06434 67.000
76.08428 62.000
76.10423 55.000
76.12418 69.000
76.14413 63.000
76.16407 61.000
76.18402 60.000
76.20397 59.000
76.22391 63.000
76.24386 63.000
76.26381 46.000
76.28375 59.000
76.30370 55.000
76.32365 54.000
76.34359 54.000
76.36354 65.000
76.38349 60.000
76.40344 69.000
76.42338 59.000
76.44333 47.000
76.46328 71.000
76.48322 67.000
76.50317 53.000
76.52312 67.000
76.54306 54.000
76.56301 62.000
76.58296 65.000
76.60291 57.000
76.62285 50.000
76.64280 65.000
76.66275 61.000
76.68269 70.000
76.70264 49.000
76.72259 68.000
76.74253 69.000
76.76248 74.000
76.78243 65.000
76.80238 68.000
76.82232 66.000
76.84227 45.000
76.86222 56.000
76.88216 67.000
76.90211 71.000
76.92206 65.000
76.94200 66.000
76.96195 66.000
76.98190 49.000
77.00184 69.000
77.02179 62.000
77.04174 59.000
77.06169 53.000
77.08163 57.000
77.10158 59.000
77.12153 63.000
77.14147 75.000
77.16142 61.000
77.18137 73.000
77.20131 62.000
77.22126 67.000
77.24121 70.000
77.26116 63.000
77.28110 77.000
77.30105 53.000
77.32100 72.000
77.34094 69.000
77.36089 63.000
77.38084 65.000
77.40078 70.000
77.42073 71.000
77.44068 81.000
77.46062 49.000
77.48057 71.000
77.50052 61.000
77.52047 79.000
77.54041 75.000
77.56036 67.000
77.58031 103.000
77.60025 94.000
77.62020 79.000
77.64015 92.000
77.66009 92.000
77.68004 103.000
77.69999 88.000
77.71994 109.000
77.73988 91.000
77.75983 104.000
77.77978 109.000
77.79972 133.000
77.81967 119.000
77.83962 99.000
77.85956 97.000
77.87951 92.000
77.89946 101.000
77.91940 107.000
77.93935 122.000
77.95930 105.000
77.97925 98.000
77.99919 103.000
78.01914 110.000
78.03909 89.000
78.05903 109.000
78.07898 101.000
78.09893 82.000
78.11887 78.000
78.13882 105.000
78.15877 107.000
78.17872 102.000
78.19866 76.000
78.21861 79.000
78.23856 81.000
78.25850 101.000
78.27845 82.000
78.29840 89.000
78.31834 97.000
78.33829 97.000
78.35824 106.000
78.37819 88.000
78.39813 90.000
78.41808 95.000
78.43803 93.000
78.45797 86.000
78.47792 75.000
78.49787 93.000
78.51781 81.000
78.53776 90.000
78.55771 80.000
78.57765 72.000
78.59760 78.000
78.61755 76.000
78.63750 67.000
78.65744 65.000
78.67739 77.000
78.69734 62.000
78.71728 62.000
78.73723 67.000
78.75718 66.000
78.77712 66.000
78.79707 68.000
78.81702 75.000
78.83697 68.000
78.85691 54.000
78.87686 76.000
78.89681 54.000
78.91675 61.000
78.93670 74.000
78.95665 58.000
78.97659 67.000
78.99654 60.000
79.01649 47.000
79.03643 57.000
79.05638 76.000
79.07633 73.000
79.09628 58.000
79.11622 70.000
79.13617 62.000
79.15612 48.000
79.17606 58.000
79.19601 59.000
79.21596 62.000
79.23590 60.000
79.25585 74.000
79.27580 65.000
79.29575 87.000
79.31569 59.000
79.33564 55.000
79.35559 70.000
79.37553 50.000
79.39548 53.000
79.41543 69.000
79.43537 58.000
79.45532 49.000
79.47527 60.000
79.49521 60.000
79.51516 61.000
79.53511 37.000
79.55506 55.000
79.57500 48.000
79.59495 67.000
79.61490 66.000
79.63484 45.000
79.65479 50.000
79.67474 72.000
79.69468 47.000
79.71463 59.000
79.73458 53.000
79.75453 42.000
79.77447 56.000
79.79442 70.000
79.81437 53.000
79.83431 65.000
79.85426 62.000
79.87421 67.000
79.89415 61.000
79.91410 48.000
79.93405 51.000
79.95399 49.000
79.97394 65.000
79.99389 48.000
80.01384 58.000
80.03378 66.000
80.05373 54.000
80.07368 62.000
80.09362 52.000
80.11357 65.000
80.13352 71.000
80.15346 53.000
80.17341 64.000
80.19336 65.000
80.21331 59.000
80.23325 71.000
80.25320 59.000
80.27315 70.000
80.29309 75.000
80.31304 59.000
80.33299 79.000
80.35293 62.000
80.37288 61.000
80.39283 74.000
80.41278 63.000
80.43272 70.000
80.45267 76.000
80.47262 58.000
80.49256 66.000
80.51251 63.000
80.53246 56.000
80.55240 60.000
80.57235 57.000
80.59230 56.000
80.61224 57.000
80.63219 55.000
80.65214 53.000
80.67209 62.000
80.69203 68.000
80.71198 64.000
80.73193 64.000
80.75187 70.000
80.77182 52.000
80.79177 62.000
80.81171 75.000
80.83166 63.000
80.85161 66.000
80.87156 64.000
80.89150 51.000
80.91145 46.000
80.93140 55.000
80.95134 65.000
80.97129 65.000
80.99124 49.000
81.01118 79.000
81.03113 70.000
81.05108 65.000
81.07102 68.000
81.09097 64.000
81.11092 74.000
81.13087 63.000
81.15081 62.000
81.17076 63.000
81.19071 67.000
81.21065 81.000
81.23060 61.000
81.25055 45.000
81.27049 79.000
81.29044 64.000
81.31039 53.000
81.33034 68.000
81.35028 73.000
81.37023 72.000
81.39018 62.000
81.41012 64.000
81.43007 65.000
81.45002 68.000
81.46996 58.000
81.48991 60.000
81.50986 62.000
81.52980 64.000
81.54975 67.000
81.56970 72.000
81.58965 72.000
81.60959 61.000
81.62954 59.000
81.64949 62.000
81.66943 55.000
81.68938 61.000
81.70933 69.000
81.72927 70.000
81.74922 55.000
81.76917 49.000
81.78912 68.000
81.80906 57.000
81.82901 59.000
81.84896 65.000
81.86890 71.000
81.88885 64.000
81.90880 81.000
81.92874 58.000
81.94869 57.000
81.96864 66.000
81.98859 56.000
82.00853 56.000
82.02848 54.000
82.04843 54.000
82.06837 66.000
82.08832 71.000
82.10827 58.000
82.12821 59.000
82.14816 51.000
82.16811 64.000
82.18805 58.000
82.20800 76.000
82.22795 64.000
82.24790 67.000
82.26784 57.000
82.28779 79.000
82.30774 56.000
82.32768 83.000
82.34763 72.000
82.36758 61.000
82.38752 61.000
82.40747 55.000
82.42742 62.000
82.44737 61.000
82.46731 64.000
82.48726 76.000
82.50721 59.000
82.52715 42.000
82.54710 67.000
82.56705 63.000
82.58699 68.000
82.60694 49.000
82.62689 50.000
82.64683 75.000
82.66678 54.000
82.68673 71.000
82.70668 48.000
82.72662 61.000
82.74657 53.000
82.76652 68.000
82.78646 57.000
82.80641 54.000
82.82636 61.000
82.84630 70.000
82.86625 70.000
82.88620 54.000
82.90615 53.000
82.92609 69.000
82.94604 67.000
82.96599 54.000
82.98593 57.000
83.00588 49.000
83.02583 74.000
83.04577 62.000
83.06572 60.000
83.08567 73.000
83.10561 69.000
83.12556 61.000
83.14551 65.000
83.16546 66.000
83.18540 57.000
83.20535 54.000
83.22530 62.000
83.24524 51.000
83.26519 47.000
83.28514 56.000
83.30508 51.000
83.32503 51.000
83.34498 59.000
83.36493 62.000
83.38487 68.000
83.40482 65.000
83.42477 66.000
83.44471 61.000
83.46466 58.000
83.48461 63.000
83.50455 71.000
83.52450 53.000
83.54445 49.000
83.56440 57.000
83.58434 63.000
83.60429 58.000
83.62424 74.000
83.64418 67.000
83.66413 62.000
83.68408 67.000
83.70402 60.000
83.72397 61.000
83.74392 63.000
83.76386 71.000
83.78381 72.000
83.80376 54.000
83.82371 67.000
83.84365 63.000
83.86360 67.000
83.88355 66.000
83.90349 56.000
83.92344 74.000
83.94339 82.000
83.96333 69.000
83.98328 72.000
84.00323 56.000
84.02318 68.000
84.04312 77.000
84.06307 54.000
84.08302 66.000
84.10296 52.000
84.12291 61.000
84.14286 75.000
84.16280 69.000
84.18275 71.000
84.20270 78.000
84.22264 75.000
84.24259 60.000
84.26254 58.000
84.28249 53.000
84.30243 71.000
84.32238 52.000
84.34233 58.000
84.36227 67.000
84.38222 59.000
84.40217 68.000
84.42211 60.000
84.44206 79.000
84.46201 50.000
84.48196 54.000
84.50190 63.000
84.52185 53.000
84.54180 63.000
84.56174 54.000
84.58169 52.000
84.60164 59.000
84.62158 71.000
84.64153 64.000
84.66148 50.000
84.68142 54.000
84.70137 54.000
84.72132 59.000
84.74127 56.000
84.76121 59.000
84.78116 62.000
84.80111 54.000
84.82105 51.000
84.84100 73.000
84.86095 67.000
84.88089 57.000
84.90084 60.000
84.92079 68.000
84.94074 48.000
84.96068 56.000
84.98063 49.000
85.00058 57.000
85.02052 61.000
85.04047 60.000
85.06042 64.000
85.08036 54.000
85.10031 64.000
85.12026 79.000
85.14021 51.000
85.16015 59.000
85.18010 69.000
85.20005 55.000
85.21999 64.000
85.23994 75.000
85.25989 55.000
85.27983 48.000
85.29978 65.000
85.31973 75.000
85.33967 59.000
85.35962 49.000
85.37957 52.000
85.39952 62.000
85.41946 59.000
85.43941 63.000
85.45936 76.000
85.47930 60.000
85.49925 75.000
85.51920 66.000
85.53914 56.000
85.55909 67.000
85.57904 65.000
85.59899 65.000
85.61893 46.000
85.63888 68.000
85.65883 50.000
85.67877 67.000
85.69872 75.000
85.71867 77.000
85.73861 60.000
85.75856 65.000
85.77851 78.000
85.79845 67.000
85.81840 75.000
85.83835 74.000
85.85830 76.000
85.87824 94.000
85.89819 85.000
85.91814 77.000
85.93808 92.000
85.95803 104.000
85.97798 88.000
85.99792 83.000
86.01787 89.000
86.03782 102.000
86.05777 109.000
86.07771 94.000
86.09766 92.000
86.11761 97.000
86.13755 108.000
86.15750 93.000
86.17745 90.000
86.19739 87.000
86.21734 98.000
86.23729 100.000
86.25723 87.000
86.27718 102.000
86.29713 99.000
86.31708 97.000
86.33702 95.000
86.35697 92.000
86.37692 93.000
86.39686 94.000
86.41681 87.000
86.43676 70.000
86.45670 83.000
86.47665 80.000
86.49660 77.000
86.51655 88.000
86.53649 71.000
86.55644 72.000
86.57639 64.000
86.59633 66.000
86.61628 76.000
86.63623 71.000
86.65617 70.000
86.67612 63.000
86.69607 70.000
86.71602 61.000
86.73596 66.000
86.75591 61.000
86.77586 74.000
86.79580 58.000
86.81575 50.000
86.83570 52.000
86.85564 64.000
86.87559 70.000
86.89554 78.000
86.91548 70.000
86.93543 47.000
86.95538 61.000
86.97533 52.000
86.99527 66.000
87.01522 71.000
87.03517 56.000
87.05511 52.000
87.07506 73.000
87.09501 54.000
87.11495 59.000
87.13490 50.000
87.15485 74.000
87.17480 70.000
87.19474 72.000
87.21469 44.000
87.23464 68.000
87.25458 68.000
87.27453 75.000
87.29448 60.000
87.31442 57.000
87.33437 57.000
87.35432 39.000
87.37426 47.000
87.39421 72.000
87.41416 62.000
87.43411 67.000
87.45405 53.000
87.47400 53.000
87.49395 56.000
87.51389 51.000
87.53384 52.000
87.55379 58.000
87.57373 68.000
87.59368 54.000
87.61363 68.000
87.63358 70.000
87.65352 67.000
87.67347 79.000
87.69342 61.000
87.71336 62.000
87.73331 74.000
87.75326 64.000
87.77320 55.000
87.79315 47.000
87.81310 69.000
87.83304 69.000
87.85299 61.000
87.87294 68.000
87.89289 64.000
87.91283 73.000
87.93278 70.000
87.95273 70.000
87.97267 71.000
87.99262 41.000
88.01257 56.000
88.03251 55.000
88.05246 63.000
88.07241 47.000
88.09236 58.000
88.11230 60.000
88.13225 70.000
88.15220 71.000
88.17214 74.000
88.19209 53.000
88.21204 65.000
88.23198 69.000
88.25193 49.000
88.27188 68.000
88.29183 67.000
88.31177 75.000
88.33172 77.000
88.35167 74.000
88.37161 60.000
88.39156 69.000
88.41151 90.000
88.43145 74.000
88.45140 78.000
88.47135 80.000
88.49129 76.000
88.51124 92.000
88.53119 86.000
88.55114 87.000
88.57108 89.000
88.59103 94.000
88.61098 91.000
88.63092 106.000
88.65087 127.000
88.67082 124.000
88.69076 102.000
88.71071 106.000
88.73066 94.000
88.75061 143.000
88.77055 142.000
88.79050 113.000
88.81045 127.000
88.83039 143.000
88.85034 112.000
88.87029 125.000
88.89023 148.000
88.91018 167.000
88.93013 130.000
88.95007 140.000
88.97002 124.000
88.98997 142.000
89.00992 148.000
89.02986 122.000
89.04981 133.000
89.06976 129.000
89.08970 110.000
89.10965 119.000
89.12960 125.000
89.14954 128.000
89.16949 131.000
89.18944 105.000
89.20939 119.000
89.22933 110.000
89.24928 101.000
89.26923 113.000
89.28917 91.000
89.30912 83.000
89.32907 104.000
89.34901 91.000
89.36896 89.000
89.38891 76.000
89.40885 97.000
89.42880 79.000
89.44875 76.000
89.46870 90.000
89.48864 96.000
89.50859 89.000
89.52854 68.000
89.54848 73.000
89.56843 62.000
89.58838 67.000
89.60832 72.000
89.62827 79.000
89.64822 74.000
89.66817 75.000
89.68811 72.000
89.70806 79.000
89.72801 71.000
89.74795 68.000
89.76790 93.000
89.78785 79.000
89.80779 86.000
89.82774 86.000
89.84769 86.000
89.86764 77.000
89.88758 101.000
89.90753 77.000
89.92748 102.000
89.94742 92.000
89.96737 95.000
89.98732 85.000
90.00726 88.000
