10.00000 193.000
10.01995 144.000
10.03989 178.000
10.05984 130.000
10.07979 163.000
10.09973 165.000
10.11968 166.000
10.13963 151.000
10.15958 180.000
10.17952 153.000
10.19947 153.000
10.21942 150.000
10.23936 159.000
10.25931 167.000
10.27926 167.000
10.29920 176.000
10.31915 174.000
10.33910 163.000
10.35905 151.000
10.37899 175.000
10.39894 191.000
10.41889 163.000
10.43883 149.000
10.45878 165.000
10.47873 179.000
10.49867 175.000
10.51862 172.000
10.53857 162.000
10.55851 142.000
10.57846 182.000
10.59841 168.000
10.61836 144.000
10.63830 152.000
10.65825 170.000
10.67820 173.000
10.69814 158.000
10.71809 166.000
10.73804 153.000
10.75798 161.000
10.77793 163.000
10.79788 151.000
10.81783 176.000
10.83777 185.000
10.85772 175.000
10.87767 165.000
10.89761 154.000
10.91756 178.000
10.93751 179.000
10.95745 169.000
10.97740 156.000
10.99735 191.000
11.01730 152.000
11.03724 157.000
11.05719 169.000
11.07714 172.000
11.09708 162.000
11.11703 163.000
11.13698 175.000
11.15692 172.000
11.17687 157.000
11.19682 167.000
11.21676 134.000
11.23671 160.000
11.25666 157.000
11.27661 147.000
11.29655 172.000
11.31650 172.000
11.33645 180.000
11.35639 172.000
11.37634 152.000
11.39629 154.000
11.41623 157.000
11.43618 184.000
11.45613 175.000
11.47608 164.000
11.49602 161.000
11.51597 159.000
11.53592 197.000
11.55586 145.000
11.57581 142.000
11.59576 151.000
11.61570 155.000
11.63565 166.000
11.65560 163.000
11.67554 146.000
11.69549 136.000
11.71544 173.000
11.73539 180.000
11.75533 174.000
11.77528 161.000
11.79523 170.000
11.81517 151.000
11.83512 156.000
11.85507 175.000
11.87501 158.000
11.89496 148.000
11.91491 150.000
11.93486 166.000
11.95480 158.000
11.97475 176.000
11.99470 172.000
12.01464 175.000
12.03459 153.000
12.05454 168.000
12.07448 143.000
12.09443 164.000
12.11438 150.000
12.13432 160.000
12.15427 169.000
12.17422 183.000
12.19417 158.000
12.21411 158.000
12.23406 167.000
12.25401 176.000
12.27395 162.000
12.29390 169.000
12.31385 161.000
12.33379 196.000
12.35374 169.000
12.37369 147.000
12.39364 179.000
12.41358 174.000
12.43353 173.000
12.45348 149.000
12.47342 170.000
12.49337 146.000
12.51332 162.000
12.53326 155.000
12.55321 162.000
12.57316 195.000
12.59311 169.000
12.61305 153.000
12.63300 164.000
12.65295 157.000
12.67289 142.000
12.69284 185.000
12.71279 152.000
12.73273 145.000
12.75268 171.000
12.77263 166.000
12.79257 172.000
12.81252 157.000
12.83247 169.000
12.85242 181.000
12.87236 169.000
12.89231 145.000
12.91226 137.000
12.93220 184.000
12.95215 145.000
12.97210 161.000
12.99204 166.000
13.01199 172.000
13.03194 161.000
13.05189 143.000
13.07183 171.000
13.09178 160.000
13.11173 163.000
13.13167 178.000
13.15162 141.000
13.17157 160.000
13.19151 150.000
13.21146 160.000
13.23141 156.000
13.25135 171.000
13.27130 166.000
13.29125 187.000
13.31120 150.000
13.33114 158.000
13.35109 150.000
13.37104 153.000
13.39098 173.000
13.41093 135.000
13.43088 164.000
13.45082 135.000
13.47077 186.000
13.49072 180.000
13.51067 150.000
13.53061 139.000
13.55056 165.000
13.57051 154.000
13.59045 152.000
13.61040 184.000
13.63035 170.000
13.65029 177.000
13.67024 157.000
13.69019 189.000
13.71013 151.000
13.73008 151.000
13.75003 175.000
13.76998 150.000
13.78992 168.000
13.80987 137.000
13.82982 164.000
13.84976 180.000
13.86971 152.000
13.88966 175.000
13.90960 152.000
13.92955 181.000
13.94950 169.000
13.96945 184.000
13.98939 167.000
14.00934 173.000
14.02929 170.000
14.04923 152.000
14.06918 168.000
14.08913 158.000
14.10907 161.000
14.12902 163.000
14.14897 170.000
14.16892 165.000
14.18886 191.000
14.20881 167.000
14.22876 166.000
14.24870 166.000
14.26865 166.000
14.28860 168.000
14.30854 188.000
14.32849 159.000
14.34844 132.000
14.36838 153.000
14.38833 168.000
14.40828 162.000
14.42823 172.000
14.44817 146.000
14.46812 177.000
14.48807 172.000
14.50801 172.000
14.52796 183.000
14.54791 184.000
14.56785 153.000
14.58780 172.000
14.60775 166.000
14.62770 153.000
14.64764 166.000
14.66759 188.000
14.68754 158.000
14.70748 198.000
14.72743 151.000
14.74738 170.000
14.76732 187.000
14.78727 196.000
14.80722 160.000
14.82716 165.000
14.84711 180.000
14.86706 177.000
14.88701 167.000
14.90695 171.000
14.92690 185.000
14.94685 184.000
14.96679 186.000
14.98674 181.000
15.00669 169.000
15.02663 185.000
15.04658 169.000
15.06653 205.000
15.08648 166.000
15.10642 190.000
15.12637 169.000
15.14632 171.000
15.16626 187.000
15.18621 168.000
15.20616 196.000
15.22610 189.000
15.24605 174.000
15.26600 166.000
15.28594 179.000
15.30589 166.000
15.32584 189.000
15.34579 174.000
15.36573 164.000
15.38568 195.000
15.40563 187.000
15.42557 206.000
15.44552 160.000
15.46547 209.000
15.48541 211.000
15.50536 191.000
15.52531 193.000
15.54526 192.000
15.56520 178.000
15.58515 210.000
15.60510 241.000
15.62504 237.000
15.64499 257.000
15.66494 277.000
15.68488 281.000
15.70483 318.000
15.72478 385.000
15.74472 465.000
15.76467 638.000
15.78462 851.000
15.80457 1210.000
15.82451 1623.000
15.84446 2048.000
15.86441 2010.000
15.88435 1507.000
15.90430 1088.000
15.92425 691.000
15.94419 403.000
15.96414 317.000
15.98409 281.000
16.00404 262.000
16.02398 269.000
16.04393 235.000
16.06388 299.000
16.08382 277.000
16.10377 316.000
16.12372 335.000
16.14366 355.000
16.16361 413.000
16.18356 412.000
16.20351 442.000
16.22345 507.000
16.24340 531.000
16.26335 523.000
16.28329 578.000
16.30324 605.000
16.32319 648.000
16.34313 730.000
16.36308 704.000
16.38303 670.000
16.40297 523.000
16.42292 451.000
16.44287 430.000
16.46282 340.000
16.48276 322.000
16.50271 295.000
16.52266 273.000
16.54260 244.000
16.56255 226.000
16.58250 245.000
16.60244 237.000
16.62239 231.000
16.64234 237.000
16.66229 215.000
16.68223 210.000
16.70218 225.000
16.72213 238.000
16.74207 236.000
16.76202 240.000
16.78197 261.000
16.80191 261.000
16.82186 254.000
16.84181 253.000
16.86175 252.000
16.88170 251.000
16.90165 216.000
16.92160 218.000
16.94154 185.000
16.96149 203.000
16.98144 198.000
17.00138 218.000
17.02133 212.000
17.04128 211.000
17.06122 231.000
17.08117 171.000
17.10112 191.000
17.12107 224.000
17.14101 235.000
17.16096 189.000
17.18091 227.000
17.20085 195.000
17.22080 230.000
17.24075 215.000
17.26069 215.000
17.28064 206.000
17.30059 168.000
17.32053 195.000
17.34048 176.000
17.36043 192.000
17.38038 185.000
17.40032 183.000
17.42027 166.000
17.44022 185.000
17.46016 166.000
17.48011 158.000
17.50006 182.000
17.52000 167.000
17.53995 183.000
17.55990 171.000
17.57985 158.000
17.59979 168.000
17.61974 163.000
17.63969 182.000
17.65963 161.000
17.67958 178.000
17.69953 169.000
17.71947 169.000
17.73942 173.000
17.75937 162.000
17.77932 163.000
17.79926 172.000
17.81921 170.000
17.83916 167.000
17.85910 189.000
17.87905 181.000
17.89900 172.000
17.91894 173.000
17.93889 143.000
17.95884 162.000
17.97878 163.000
17.99873 154.000
18.01868 179.000
18.03863 182.000
18.05857 185.000
18.07852 164.000
18.09847 185.000
18.11841 158.000
18.13836 182.000
18.15831 152.000
18.17825 165.000
18.19820 180.000
18.21815 198.000
18.23810 186.000
18.25804 185.000
18.27799 181.000
18.29794 238.000
18.31788 254.000
18.33783 292.000
18.35778 397.000
18.37772 524.000
18.39767 499.000
18.41762 430.000
18.43756 358.000
18.45751 276.000
18.47746 196.000
18.49741 199.000
18.51735 209.000
18.53730 179.000
18.55725 152.000
18.57719 155.000
18.59714 168.000
18.61709 175.000
18.63703 173.000
18.65698 171.000
18.67693 141.000
18.69688 173.000
18.71682 176.000
18.73677 170.000
18.75672 153.000
18.77666 156.000
18.79661 174.000
18.81656 162.000
18.83650 198.000
18.85645 163.000
18.87640 139.000
18.89634 155.000
18.91629 156.000
18.93624 165.000
18.95619 173.000
18.97613 161.000
18.99608 169.000
19.01603 155.000
19.03597 166.000
19.05592 162.000
19.07587 135.000
19.09581 140.000
19.11576 150.000
19.13571 152.000
19.15566 171.000
19.17560 163.000
19.19555 146.000
19.21550 166.000
19.23544 169.000
19.25539 154.000
19.27534 146.000
19.29528 175.000
19.31523 161.000
19.33518 159.000
19.35513 154.000
19.37507 142.000
19.39502 164.000
19.41497 150.000
19.43491 141.000
19.45486 166.000
19.47481 165.000
19.49475 145.000
19.51470 186.000
19.53465 173.000
19.55459 164.000
19.57454 164.000
19.59449 179.000
19.61444 177.000
19.63438 168.000
19.65433 172.000
19.67428 164.000
19.69422 177.000
19.71417 164.000
19.73412 161.000
19.75406 145.000
19.77401 158.000
19.79396 154.000
19.81391 132.000
19.83385 168.000
19.85380 155.000
19.87375 167.000
19.89369 159.000
19.91364 152.000
19.93359 174.000
19.95353 164.000
19.97348 155.000
19.99343 166.000
20.01337 154.000
20.03332 190.000
20.05327 173.000
20.07322 164.000
20.09316 159.000
20.11311 153.000
20.13306 139.000
20.15300 155.000
20.17295 163.000
20.19290 200.000
20.21284 156.000
20.23279 156.000
20.25274 162.000
20.27269 176.000
20.29263 177.000
20.31258 162.000
20.33253 183.000
20.35247 175.000
20.37242 159.000
20.39237 165.000
20.41231 169.000
20.43226 168.000
20.45221 162.000
20.47215 165.000
20.49210 174.000
20.51205 195.000
20.53200 193.000
20.55194 184.000
20.57189 185.000
20.59184 171.000
20.61178 207.000
20.63173 198.000
20.65168 201.000
20.67162 198.000
20.69157 215.000
20.71152 232.000
20.73147 269.000
20.75141 338.000
20.77136 393.000
20.79131 452.000
20.81125 505.000
20.83120 537.000
20.85115 529.000
20.87109 575.000
20.89104 511.000
20.91099 581.000
20.93094 567.000
20.95088 498.000
20.97083 464.000
20.99078 459.000
21.01072 351.000
21.03067 352.000
21.05062 314.000
21.07056 243.000
21.09051 248.000
21.11046 189.000
21.13040 210.000
21.15035 198.000
21.17030 183.000
21.19025 168.000
21.21019 192.000
21.23014 172.000
21.25009 204.000
21.27003 177.000
21.28998 165.000
21.30993 153.000
21.32987 207.000
21.34982 194.000
21.36977 170.000
21.38972 156.000
21.40966 145.000
21.42961 159.000
21.44956 175.000
21.46950 172.000
21.48945 186.000
21.50940 167.000
21.52934 169.000
21.54929 163.000
21.56924 171.000
21.58918 171.000
21.60913 181.000
21.62908 183.000
21.64903 157.000
21.66897 149.000
21.68892 178.000
21.70887 164.000
21.72881 189.000
21.74876 161.000
21.76871 154.000
21.78865 160.000
21.80860 135.000
21.82855 176.000
21.84850 168.000
21.86844 168.000
21.88839 149.000
21.90834 159.000
21.92828 173.000
21.94823 148.000
21.96818 169.000
21.98812 131.000
22.00807 167.000
22.02802 142.000
22.04796 181.000
22.06791 184.000
22.08786 151.000
22.10781 181.000
22.12775 158.000
22.14770 140.000
22.16765 172.000
22.18759 161.000
22.20754 180.000
22.22749 169.000
22.24743 165.000
22.26738 175.000
22.28733 153.000
22.30728 163.000
22.32722 158.000
22.34717 191.000
22.36712 171.000
22.38706 165.000
22.40701 182.000
22.42696 135.000
22.44690 160.000
22.46685 139.000
22.48680 181.000
22.50675 171.000
22.52669 160.000
22.54664 189.000
22.56659 148.000
22.58653 160.000
22.60648 160.000
22.62643 201.000
22.64637 151.000
22.66632 166.000
22.68627 155.000
22.70621 140.000
22.72616 176.000
22.74611 157.000
22.76606 136.000
22.78600 157.000
22.80595 175.000
22.82590 155.000
22.84584 158.000
22.86579 169.000
22.88574 153.000
22.90568 156.000
22.92563 180.000
22.94558 144.000
22.96553 164.000
22.98547 177.000
23.00542 168.000
23.02537 163.000
23.04531 160.000
23.06526 149.000
23.08521 175.000
23.10515 183.000
23.12510 162.000
23.14505 170.000
23.16499 168.000
23.18494 133.000
23.20489 152.000
23.22484 177.000
23.24478 168.000
23.26473 164.000
23.28468 141.000
23.30462 150.000
23.32457 160.000
23.34452 177.000
23.36446 165.000
23.38441 163.000
23.40436 165.000
23.42431 144.000
23.44425 171.000
23.46420 176.000
23.48415 156.000
23.50409 180.000
23.52404 173.000
23.54399 182.000
23.56393 155.000
23.58388 169.000
23.60383 177.000
23.62377 168.000
23.64372 161.000
23.66367 159.000
23.68362 155.000
23.70356 171.000
23.72351 158.000
23.74346 169.000
23.76340 147.000
23.78335 175.000
23.80330 166.000
23.82324 175.000
23.84319 162.000
23.86314 152.000
23.88309 151.000
23.90303 154.000
23.92298 162.000
23.94293 165.000
23.96287 174.000
23.98282 155.000
24.00277 174.000
24.02271 148.000
24.04266 162.000
24.06261 160.000
24.08256 165.000
24.10250 178.000
24.12245 173.000
24.14240 177.000
24.16234 178.000
24.18229 170.000
24.20224 163.000
24.22218 168.000
24.24213 184.000
24.26208 172.000
24.28202 180.000
24.30197 165.000
24.32192 170.000
24.34187 139.000
24.36181 178.000
24.38176 156.000
24.40171 140.000
24.42165 152.000
24.44160 160.000
24.46155 177.000
24.48149 149.000
24.50144 183.000
24.52139 159.000
24.54134 170.000
24.56128 181.000
24.58123 180.000
24.60118 187.000
24.62112 182.000
24.64107 160.000
24.66102 196.000
24.68096 173.000
24.70091 163.000
24.72086 135.000
24.74080 167.000
24.76075 155.000
24.78070 149.000
24.80065 184.000
24.82059 165.000
24.84054 189.000
24.86049 184.000
24.88043 175.000
24.90038 172.000
24.92033 193.000
24.94027 197.000
24.96022 201.000
24.98017 201.000
25.00012 210.000
25.02006 193.000
25.04001 222.000
25.05996 186.000
25.07990 153.000
25.09985 151.000
25.11980 165.000
25.13974 183.000
25.15969 172.000
25.17964 190.000
25.19958 180.000
25.21953 178.000
25.23948 189.000
25.25943 165.000
25.27937 153.000
25.29932 156.000
25.31927 163.000
25.33921 135.000
25.35916 146.000
25.37911 159.000
25.39905 180.000
25.41900 152.000
25.43895 162.000
25.45890 175.000
25.47884 153.000
25.49879 163.000
25.51874 182.000
25.53868 170.000
25.55863 157.000
25.57858 162.000
25.59852 163.000
25.61847 143.000
25.63842 180.000
25.65837 142.000
25.67831 166.000
25.69826 173.000
25.71821 167.000
25.73815 164.000
25.75810 163.000
25.77805 169.000
25.79799 168.000
25.81794 185.000
25.83789 170.000
25.85783 163.000
25.87778 161.000
25.89773 193.000
25.91768 178.000
25.93762 186.000
25.95757 155.000
25.97752 192.000
25.99746 150.000
26.01741 182.000
26.03736 159.000
26.05730 168.000
26.07725 153.000
26.09720 178.000
26.11715 180.000
26.13709 155.000
26.15704 187.000
26.17699 171.000
26.19693 173.000
26.21688 200.000
26.23683 169.000
26.25677 164.000
26.27672 155.000
26.29667 169.000
26.31661 168.000
26.33656 196.000
26.35651 167.000
26.37646 163.000
26.39640 176.000
26.41635 155.000
26.43630 188.000
26.45624 175.000
26.47619 169.000
26.49614 174.000
26.51608 157.000
26.53603 160.000
26.55598 190.000
26.57593 169.000
26.59587 168.000
26.61582 193.000
26.63577 175.000
26.65571 180.000
26.67566 171.000
26.69561 180.000
26.71555 176.000
26.73550 159.000
26.75545 154.000
26.77539 168.000
26.79534 164.000
26.81529 174.000
26.83524 164.000
26.85518 149.000
26.87513 160.000
26.89508 186.000
26.91502 166.000
26.93497 182.000
26.95492 190.000
26.97486 173.000
26.99481 188.000
27.01476 191.000
27.03471 170.000
27.05465 172.000
27.07460 174.000
27.09455 169.000
27.11449 178.000
27.13444 171.000
27.15439 185.000
27.17433 181.000
27.19428 173.000
27.21423 163.000
27.23417 171.000
27.25412 174.000
27.27407 172.000
27.29402 171.000
27.31396 175.000
27.33391 156.000
27.35386 177.000
27.37380 182.000
27.39375 178.000
27.41370 183.000
27.43364 166.000
27.45359 187.000
27.47354 167.000
27.49349 169.000
27.51343 189.000
27.53338 178.000
27.55333 189.000
27.57327 170.000
27.59322 171.000
27.61317 175.000
27.63311 166.000
27.65306 180.000
27.67301 167.000
27.69296 182.000
27.71290 170.000
27.73285 169.000
27.75280 185.000
27.77274 186.000
27.79269 178.000
27.81264 158.000
27.83258 179.000
27.85253 174.000
27.87248 189.000
27.89242 203.000
27.91237 158.000
27.93232 173.000
27.95227 163.000
27.97221 197.000
27.99216 165.000
28.01211 159.000
28.03205 159.000
28.05200 169.000
28.07195 176.000
28.09189 192.000
28.11184 175.000
28.13179 198.000
28.15174 189.000
28.17168 176.000
28.19163 179.000
28.21158 153.000
28.23152 158.000
28.25147 152.000
28.27142 171.000
28.29136 190.000
28.31131 157.000
28.33126 165.000
28.35120 202.000
28.37115 168.000
28.39110 166.000
28.41105 175.000
28.43099 170.000
28.45094 205.000
28.47089 189.000
28.49083 185.000
28.51078 168.000
28.53073 203.000
28.55067 190.000
28.57062 183.000
28.59057 157.000
28.61052 158.000
28.63046 191.000
28.65041 189.000
28.67036 165.000
28.69030 197.000
28.71025 177.000
28.73020 177.000
28.75014 169.000
28.77009 194.000
28.79004 174.000
28.80998 182.000
28.82993 165.000
28.84988 166.000
28.86983 183.000
28.88977 164.000
28.90972 184.000
28.92967 183.000
28.94961 161.000
28.96956 165.000
28.98951 193.000
29.00945 176.000
29.02940 167.000
29.04935 176.000
29.06930 192.000
29.08924 189.000
29.10919 172.000
29.12914 150.000
29.14908 182.000
29.16903 214.000
29.18898 212.000
29.20892 192.000
29.22887 195.000
29.24882 226.000
29.26877 228.000
29.28871 266.000
29.30866 265.000
29.32861 262.000
29.34855 259.000
29.36850 279.000
29.38845 300.000
29.40839 288.000
29.42834 282.000
29.44829 282.000
29.46823 228.000
29.48818 236.000
29.50813 197.000
29.52808 211.000
29.54802 207.000
29.56797 209.000
29.58792 190.000
29.60786 194.000
29.62781 186.000
29.64776 178.000
29.66770 191.000
29.68765 187.000
29.70760 190.000
29.72755 171.000
29.74749 188.000
29.76744 192.000
29.78739 182.000
29.80733 207.000
29.82728 202.000
29.84723 177.000
29.86717 193.000
29.88712 193.000
29.90707 182.000
29.92701 186.000
29.94696 188.000
29.96691 191.000
29.98686 203.000
30.00680 218.000
30.02675 225.000
30.04670 241.000
30.06664 223.000
30.08659 226.000
30.10654 251.000
30.12648 255.000
30.14643 274.000
30.16638 295.000
30.18633 396.000
30.20627 466.000
30.22622 660.000
30.24617 906.000
30.26611 1099.000
30.28606 878.000
30.30601 656.000
30.32595 637.000
30.34590 642.000
30.36585 499.000
30.38579 331.000
30.40574 252.000
30.42569 231.000
30.44564 209.000
30.46558 234.000
30.48553 193.000
30.50548 202.000
30.52542 176.000
30.54537 186.000
30.56532 164.000
30.58526 205.000
30.60521 191.000
30.62516 183.000
30.64511 203.000
30.66505 194.000
30.68500 171.000
30.70495 184.000
30.72489 197.000
30.74484 177.000
30.76479 172.000
30.78473 169.000
30.80468 201.000
30.82463 189.000
30.84458 195.000
30.86452 177.000
30.88447 184.000
30.90442 165.000
30.92436 189.000
30.94431 199.000
30.96426 172.000
30.98420 184.000
31.00415 181.000
31.02410 157.000
31.04404 183.000
31.06399 151.000
31.08394 195.000
31.10389 166.000
31.12383 173.000
31.14378 181.000
31.16373 182.000
31.18367 198.000
31.20362 181.000
31.22357 175.000
31.24351 194.000
31.26346 165.000
31.28341 165.000
31.30336 197.000
31.32330 172.000
31.34325 175.000
31.36320 175.000
31.38314 193.000
31.40309 198.000
31.42304 180.000
31.44298 160.000
31.46293 180.000
31.48288 202.000
31.50282 170.000
31.52277 178.000
31.54272 187.000
31.56267 193.000
31.58261 183.000
31.60256 185.000
31.62251 185.000
31.64245 204.000
31.66240 177.000
31.68235 178.000
31.70229 212.000
31.72224 178.000
31.74219 172.000
31.76214 181.000
31.78208 167.000
31.80203 174.000
31.82198 184.000
31.84192 178.000
31.86187 186.000
31.88182 210.000
31.90176 186.000
31.92171 225.000
31.94166 210.000
31.96160 245.000
31.98155 241.000
32.00150 292.000
32.02145 294.000
32.04139 319.000
32.06134 332.000
32.08129 293.000
32.10123 303.000
32.12118 252.000
32.14113 257.000
32.16107 217.000
32.18102 210.000
32.20097 199.000
32.22092 200.000
32.24086 196.000
32.26081 172.000
32.28076 177.000
32.30070 176.000
32.32065 204.000
32.34060 203.000
32.36054 179.000
32.38049 178.000
32.40044 175.000
32.42039 181.000
32.44033 189.000
32.46028 176.000
32.48023 201.000
32.50017 201.000
32.52012 177.000
32.54007 197.000
32.56001 202.000
32.57996 190.000
32.59991 202.000
32.61985 206.000
32.63980 194.000
32.65975 189.000
32.67970 202.000
32.69964 214.000
32.71959 196.000
32.73954 200.000
32.75948 193.000
32.77943 193.000
32.79938 206.000
32.81932 202.000
32.83927 183.000
32.85922 229.000
32.87917 209.000
32.89911 205.000
32.91906 213.000
32.93901 214.000
32.95895 209.000
32.97890 198.000
32.99885 238.000
33.01879 226.000
33.03874 216.000
33.05869 248.000
33.07863 225.000
33.09858 216.000
33.11853 221.000
33.13848 246.000
33.15842 231.000
33.17837 256.000
33.19832 219.000
33.21826 210.000
33.23821 236.000
33.25816 199.000
33.27810 203.000
33.29805 210.000
33.31800 195.000
33.33795 213.000
33.35789 205.000
33.37784 198.000
33.39779 197.000
33.41773 204.000
33.43768 189.000
33.45763 179.000
33.47757 172.000
33.49752 197.000
33.51747 202.000
33.53741 200.000
33.55736 204.000
33.57731 201.000
33.59726 187.000
33.61720 171.000
33.63715 202.000
33.65710 162.000
33.67704 169.000
33.69699 211.000
33.71694 186.000
33.73688 192.000
33.75683 182.000
33.77678 211.000
33.79673 187.000
33.81667 190.000
33.83662 208.000
33.85657 183.000
33.87651 197.000
33.89646 199.000
33.91641 170.000
33.93635 209.000
33.95630 190.000
33.97625 236.000
33.99620 198.000
34.01614 210.000
34.03609 215.000
34.05604 219.000
34.07598 250.000
34.09593 251.000
34.11588 261.000
34.13582 256.000
34.15577 281.000
34.17572 286.000
34.19566 284.000
34.21561 272.000
34.23556 364.000
34.25551 330.000
34.27545 353.000
34.29540 399.000
34.31535 418.000
34.33529 457.000
34.35524 463.000
34.37519 469.000
34.39513 520.000
34.41508 516.000
34.43503 555.000
34.45498 534.000
34.47492 556.000
34.49487 538.000
34.51482 507.000
34.53476 517.000
34.55471 480.000
34.57466 482.000
34.59460 421.000
34.61455 396.000
34.63450 377.000
34.65444 373.000
34.67439 343.000
34.69434 346.000
34.71429 331.000
34.73423 340.000
34.75418 358.000
34.77413 262.000
34.79407 324.000
34.81402 348.000
34.83397 349.000
34.85391 309.000
34.87386 305.000
34.89381 282.000
34.91376 325.000
34.93370 291.000
34.95365 330.000
34.97360 295.000
34.99354 316.000
35.01349 333.000
35.03344 327.000
35.05338 319.000
35.07333 311.000
35.09328 311.000
35.11322 292.000
35.13317 325.000
35.15312 306.000
35.17307 336.000
35.19301 301.000
35.21296 339.000
35.23291 373.000
35.25285 343.000
35.27280 357.000
35.29275 344.000
35.31269 378.000
35.33264 326.000
35.35259 362.000
35.37254 371.000
35.39248 378.000
35.41243 410.000
35.43238 400.000
35.45232 421.000
35.47227 483.000
35.49222 565.000
35.51216 596.000
35.53211 605.000
35.55206 815.000
35.57201 947.000
35.59195 1248.000
35.61190 1695.000
35.63185 2500.000
35.65179 3102.000
35.67174 2743.000
35.69169 2062.000
35.71163 1852.000
35.73158 1874.000
35.75153 1894.000
35.77147 1327.000
35.79142 970.000
35.81137 660.000
35.83132 543.000
35.85126 424.000
35.87121 442.000
35.89116 361.000
35.91110 329.000
35.93105 299.000
35.95100 320.000
35.97094 280.000
35.99089 292.000
36.01084 262.000
36.03079 302.000
36.05073 288.000
36.07068 277.000
36.09063 298.000
36.11057 274.000
36.13052 293.000
36.15047 291.000
36.17041 270.000
36.19036 274.000
36.21031 298.000
36.23025 304.000
36.25020 318.000
36.27015 284.000
36.29010 274.000
36.31004 334.000
36.32999 346.000
36.34994 370.000
36.36988 399.000
36.38983 404.000
36.40978 439.000
36.42972 424.000
36.44967 423.000
36.46962 366.000
36.48957 357.000
36.50951 385.000
36.52946 403.000
36.54941 358.000
36.56935 352.000
36.58930 345.000
36.60925 343.000
36.62919 348.000
36.64914 322.000
36.66909 336.000
36.68903 356.000
36.70898 362.000
36.72893 312.000
36.74888 304.000
36.76882 372.000
36.78877 349.000
36.80872 346.000
36.82866 370.000
36.84861 415.000
36.86856 483.000
36.88850 496.000
36.90845 545.000
36.92840 578.000
36.94835 612.000
36.96829 707.000
36.98824 737.000
37.00819 770.000
37.02813 902.000
37.04808 921.000
37.06803 982.000
37.08797 1034.000
37.10792 1025.000
37.12787 1071.000
37.14781 939.000
37.16776 915.000
37.18771 800.000
37.20766 751.000
37.22760 673.000
37.24755 679.000
37.26750 561.000
37.28744 534.000
37.30739 553.000
37.32734 443.000
37.34728 353.000
37.36723 359.000
37.38718 360.000
37.40713 345.000
37.42707 322.000
37.44702 262.000
37.46697 253.000
37.48691 231.000
37.50686 221.000
37.52681 199.000
37.54675 213.000
37.56670 194.000
37.58665 204.000
37.60660 217.000
37.62654 203.000
37.64649 228.000
37.66644 169.000
37.68638 202.000
37.70633 210.000
37.72628 200.000
37.74622 207.000
37.76617 199.000
37.78612 192.000
37.80606 186.000
37.82601 176.000
37.84596 214.000
37.86591 209.000
37.88585 202.000
37.90580 209.000
37.92575 221.000
37.94569 195.000
37.96564 204.000
37.98559 189.000
38.00553 206.000
38.02548 201.000
38.04543 215.000
38.06538 193.000
38.08532 181.000
38.10527 176.000
38.12522 196.000
38.14516 171.000
38.16511 215.000
38.18506 206.000
38.20500 199.000
38.22495 209.000
38.24490 234.000
38.26484 192.000
38.28479 182.000
38.30474 179.000
38.32469 216.000
38.34463 205.000
38.36458 176.000
38.38453 191.000
38.40447 213.000
38.42442 170.000
38.44437 194.000
38.46431 224.000
38.48426 219.000
38.50421 196.000
38.52416 213.000
38.54410 222.000
38.56405 205.000
38.58400 229.000
38.60394 208.000
38.62389 188.000
38.64384 229.000
38.66378 259.000
38.68373 241.000
38.70368 207.000
38.72362 231.000
38.74357 227.000
38.76352 246.000
38.78347 233.000
38.80341 210.000
38.82336 205.000
38.84331 251.000
38.86325 231.000
38.88320 245.000
38.90315 238.000
38.92309 230.000
38.94304 200.000
38.96299 213.000
38.98294 213.000
39.00288 245.000
39.02283 275.000
39.04278 255.000
39.06272 233.000
39.08267 248.000
39.10262 250.000
39.12256 283.000
39.14251 295.000
39.16246 315.000
39.18241 353.000
39.20235 357.000
39.22230 417.000
39.24225 367.000
39.26219 389.000
39.28214 369.000
39.30209 372.000
39.32203 345.000
39.34198 348.000
39.36193 277.000
39.38187 287.000
39.40182 265.000
39.42177 248.000
39.44172 223.000
39.46166 219.000
39.48161 210.000
39.50156 214.000
39.52150 208.000
39.54145 212.000
39.56140 210.000
39.58134 200.000
39.60129 180.000
39.62124 192.000
39.64119 189.000
39.66113 178.000
39.68108 203.000
39.70103 190.000
39.72097 178.000
39.74092 173.000
39.76087 168.000
39.78081 179.000
39.80076 172.000
39.82071 169.000
39.84065 192.000
39.86060 192.000
39.88055 188.000
39.90050 190.000
39.92044 183.000
39.94039 214.000
39.96034 185.000
39.98028 173.000
40.00023 183.000
40.02018 189.000
40.04012 172.000
40.06007 206.000
40.08002 165.000
40.09997 179.000
40.11991 198.000
40.13986 178.000
40.15981 159.000
40.17975 206.000
40.19970 189.000
40.21965 179.000
40.23959 155.000
40.25954 196.000
40.27949 197.000
40.29943 186.000
40.31938 197.000
40.33933 182.000
40.35928 185.000
40.37922 169.000
40.39917 192.000
40.41912 177.000
40.43906 204.000
40.45901 183.000
40.47896 213.000
40.49890 171.000
40.51885 205.000
40.53880 198.000
40.55875 196.000
40.57869 185.000
40.59864 189.000
40.61859 183.000
40.63853 199.000
40.65848 199.000
40.67843 203.000
40.69837 180.000
40.71832 181.000
40.73827 202.000
40.75822 196.000
40.77816 211.000
40.79811 194.000
40.81806 207.000
40.83800 230.000
40.85795 187.000
40.87790 209.000
40.89784 187.000
40.91779 222.000
40.93774 227.000
40.95768 205.000
40.97763 203.000
40.99758 219.000
41.01753 221.000
41.03747 254.000
41.05742 254.000
41.07737 241.000
41.09731 235.000
41.11726 244.000
41.13721 254.000
41.15715 270.000
41.17710 252.000
41.19705 261.000
41.21700 289.000
41.23694 286.000
41.25689 378.000
41.27684 350.000
41.29678 362.000
41.31673 421.000
41.33668 408.000
41.35662 457.000
41.37657 482.000
41.39652 537.000
41.41646 568.000
41.43641 539.000
41.45636 580.000
41.47631 700.000
41.49625 672.000
41.51620 695.000
41.53615 643.000
41.55609 654.000
41.57604 612.000
41.59599 623.000
41.61593 591.000
41.63588 644.000
41.65583 570.000
41.67578 603.000
41.69572 579.000
41.71567 540.000
41.73562 563.000
41.75556 542.000
41.77551 615.000
41.79546 617.000
41.81540 611.000
41.83535 616.000
41.85530 602.000
41.87524 563.000
41.89519 531.000
41.91514 505.000
41.93509 468.000
41.95503 438.000
41.97498 418.000
41.99493 373.000
42.01487 328.000
42.03482 311.000
42.05477 291.000
42.07471 285.000
42.09466 278.000
42.11461 255.000
42.13456 261.000
42.15450 258.000
42.17445 235.000
42.19440 246.000
42.21434 218.000
42.23429 220.000
42.25424 245.000
42.27418 250.000
42.29413 223.000
42.31408 242.000
42.33403 234.000
42.35397 250.000
42.37392 255.000
42.39387 263.000
42.41381 225.000
42.43376 230.000
42.45371 254.000
42.47365 245.000
42.49360 265.000
42.51355 258.000
42.53349 289.000
42.55344 253.000
42.57339 280.000
42.59334 276.000
42.61328 273.000
42.63323 309.000
42.65318 318.000
42.67312 288.000
42.69307 352.000
42.71302 331.000
42.73296 328.000
42.75291 371.000
42.77286 404.000
42.79281 390.000
42.81275 408.000
42.83270 474.000
42.85265 473.000
42.87259 527.000
42.89254 570.000
42.91249 596.000
42.93243 615.000
42.95238 681.000
42.97233 688.000
42.99227 791.000
43.01222 852.000
43.03217 926.000
43.05212 1004.000
43.07206 979.000
43.09201 1105.000
43.11196 1189.000
43.13190 1167.000
43.15185 1176.000
43.17180 1257.000
43.19174 1199.000
43.21169 1089.000
43.23164 1063.000
43.25159 994.000
43.27153 1040.000
43.29148 976.000
43.31143 1012.000
43.33137 1108.000
43.35132 1008.000
43.37127 902.000
43.39121 757.000
43.41116 677.000
43.43111 667.000
43.45105 674.000
43.47100 621.000
43.49095 502.000
43.51090 416.000
43.53084 402.000
43.55079 326.000
43.57074 289.000
43.59068 294.000
43.61063 258.000
43.63058 241.000
43.65052 270.000
43.67047 230.000
43.69042 234.000
43.71037 222.000
43.73031 214.000
43.75026 240.000
43.77021 217.000
43.79015 202.000
43.81010 201.000
43.83005 202.000
43.84999 185.000
43.86994 198.000
43.88989 202.000
43.90984 187.000
43.92978 198.000
43.94973 186.000
43.96968 175.000
43.98962 196.000
44.00957 205.000
44.02952 211.000
44.04946 183.000
44.06941 201.000
44.08936 185.000
44.10930 187.000
44.12925 175.000
44.14920 188.000
44.16915 179.000
44.18909 190.000
44.20904 190.000
44.22899 159.000
44.24893 192.000
44.26888 179.000
44.28883 188.000
44.30877 182.000
44.32872 176.000
44.34867 207.000
44.36862 177.000
44.38856 173.000
44.40851 187.000
44.42846 185.000
44.44840 185.000
44.46835 197.000
44.48830 159.000
44.50824 169.000
44.52819 190.000
44.54814 193.000
44.56808 203.000
44.58803 206.000
44.60798 164.000
44.62793 156.000
44.64787 182.000
44.66782 211.000
44.68777 223.000
44.70771 204.000
44.72766 194.000
44.74761 183.000
44.76755 170.000
44.78750 170.000
44.80745 175.000
44.82740 190.000
44.84734 190.000
44.86729 198.000
44.88724 184.000
44.90718 206.000
44.92713 180.000
44.94708 189.000
44.96702 178.000
44.98697 174.000
45.00692 181.000
45.02686 161.000
45.04681 195.000
45.06676 180.000
45.08671 174.000
45.10665 179.000
45.12660 174.000
45.14655 183.000
45.16649 187.000
45.18644 209.000
45.20639 194.000
45.22633 196.000
45.24628 176.000
45.26623 169.000
45.28618 174.000
45.30612 169.000
45.32607 188.000
45.34602 165.000
45.36596 190.000
45.38591 182.000
45.40586 174.000
45.42580 188.000
45.44575 167.000
45.46570 194.000
45.48565 182.000
45.50559 175.000
45.52554 191.000
45.54549 205.000
45.56543 182.000
45.58538 168.000
45.60533 185.000
45.62527 166.000
45.64522 185.000
45.66517 178.000
45.68511 185.000
45.70506 172.000
45.72501 191.000
45.74496 147.000
45.76490 152.000
45.78485 181.000
45.80480 170.000
45.82474 196.000
45.84469 202.000
45.86464 158.000
45.88458 157.000
45.90453 153.000
45.92448 193.000
45.94443 187.000
45.96437 197.000
45.98432 192.000
46.00427 171.000
46.02421 196.000
46.04416 166.000
46.06411 175.000
46.08405 180.000
46.10400 178.000
46.12395 189.000
46.14389 172.000
46.16384 173.000
46.18379 166.000
46.20374 192.000
46.22368 178.000
46.24363 164.000
46.26358 181.000
46.28352 204.000
46.30347 179.000
46.32342 164.000
46.34336 169.000
46.36331 154.000
46.38326 185.000
46.40321 190.000
46.42315 178.000
46.44310 171.000
46.46305 183.000
46.48299 174.000
46.50294 152.000
46.52289 184.000
46.54283 182.000
46.56278 157.000
46.58273 185.000
46.60267 175.000
46.62262 188.000
46.64257 185.000
46.66252 183.000
46.68246 177.000
46.70241 198.000
46.72236 151.000
46.74230 192.000
46.76225 151.000
46.78220 179.000
46.80214 167.000
46.82209 162.000
46.84204 164.000
46.86199 177.000
46.88193 180.000
46.90188 183.000
46.92183 179.000
46.94177 186.000
46.96172 198.000
46.98167 169.000
47.00161 170.000
47.02156 190.000
47.04151 157.000
47.06146 169.000
47.08140 202.000
47.10135 159.000
47.12130 165.000
47.14124 163.000
47.16119 165.000
47.18114 177.000
47.20108 178.000
47.22103 152.000
47.24098 159.000
47.26092 164.000
47.28087 195.000
47.30082 214.000
47.32077 171.000
47.34071 201.000
47.36066 168.000
47.38061 184.000
47.40055 173.000
47.42050 186.000
47.44045 164.000
47.46039 184.000
47.48034 180.000
47.50029 174.000
47.52024 226.000
47.54018 199.000
47.56013 202.000
47.58008 183.000
47.60002 161.000
47.61997 167.000
47.63992 182.000
47.65986 181.000
47.67981 188.000
47.69976 176.000
47.71970 164.000
47.73965 172.000
47.75960 187.000
47.77955 148.000
47.79949 194.000
47.81944 171.000
47.83939 166.000
47.85933 168.000
47.87928 193.000
47.89923 176.000
47.91917 187.000
47.93912 196.000
47.95907 170.000
47.97902 182.000
47.99896 186.000
48.01891 185.000
48.03886 182.000
48.05880 184.000
48.07875 195.000
48.09870 179.000
48.11864 206.000
48.13859 217.000
48.15854 221.000
48.17848 203.000
48.19843 200.000
48.21838 200.000
48.23833 184.000
48.25827 197.000
48.27822 177.000
48.29817 199.000
48.31811 177.000
48.33806 174.000
48.35801 190.000
48.37795 204.000
48.39790 153.000
48.41785 195.000
48.43780 207.000
48.45774 200.000
48.47769 204.000
48.49764 218.000
48.51758 209.000
48.53753 188.000
48.55748 236.000
48.57742 250.000
48.59737 281.000
48.61732 290.000
48.63726 312.000
48.65721 347.000
48.67716 343.000
48.69711 378.000
48.71705 361.000
48.73700 333.000
48.75695 330.000
48.77689 344.000
48.79684 327.000
48.81679 317.000
48.83673 289.000
48.85668 259.000
48.87663 240.000
48.89658 257.000
48.91652 238.000
48.93647 222.000
48.95642 197.000
48.97636 183.000
48.99631 213.000
49.01626 197.000
49.03620 208.000
49.05615 208.000
49.07610 178.000
49.09605 215.000
49.11599 213.000
49.13594 188.000
49.15589 186.000
49.17583 220.000
49.19578 196.000
49.21573 189.000
49.23567 183.000
49.25562 210.000
49.27557 210.000
49.29551 200.000
49.31546 212.000
49.33541 197.000
49.35536 205.000
49.37530 194.000
49.39525 207.000
49.41520 173.000
49.43514 213.000
49.45509 218.000
49.47504 210.000
49.49498 193.000
49.51493 181.000
49.53488 199.000
49.55483 213.000
49.57477 188.000
49.59472 208.000
49.61467 187.000
49.63461 210.000
49.65456 224.000
49.67451 215.000
49.69445 207.000
49.71440 171.000
49.73435 199.000
49.75429 164.000
49.77424 194.000
49.79419 194.000
49.81414 188.000
49.83408 196.000
49.85403 190.000
49.87398 153.000
49.89392 196.000
49.91387 158.000
49.93382 144.000
49.95376 166.000
49.97371 166.000
49.99366 189.000
50.01361 164.000
50.03355 172.000
50.05350 153.000
50.07345 170.000
50.09339 171.000
50.11334 150.000
50.13329 142.000
50.15323 156.000
50.17318 160.000
50.19313 165.000
50.21307 177.000
50.23302 189.000
50.25297 153.000
50.27292 166.000
50.29286 164.000
50.31281 179.000
50.33276 168.000
50.35270 194.000
50.37265 176.000
50.39260 163.000
50.41254 160.000
50.43249 181.000
50.45244 138.000
50.47239 164.000
50.49233 167.000
50.51228 168.000
50.53223 155.000
50.55217 163.000
50.57212 166.000
50.59207 166.000
50.61201 154.000
50.63196 163.000
50.65191 152.000
50.67186 157.000
50.69180 166.000
50.71175 144.000
50.73170 163.000
50.75164 160.000
50.77159 152.000
50.79154 161.000
50.81148 152.000
50.83143 171.000
50.85138 161.000
50.87132 154.000
50.89127 164.000
50.91122 157.000
50.93117 160.000
50.95111 142.000
50.97106 190.000
50.99101 171.000
51.01095 157.000
51.03090 171.000
51.05085 129.000
51.07079 177.000
51.09074 188.000
51.11069 174.000
51.13064 170.000
51.15058 150.000
51.17053 163.000
51.19048 151.000
51.21042 167.000
51.23037 188.000
51.25032 165.000
51.27026 151.000
51.29021 168.000
51.31016 179.000
51.33010 185.000
51.35005 176.000
51.37000 160.000
51.38995 183.000
51.40989 185.000
51.42984 173.000
51.44979 162.000
51.46973 153.000
51.48968 153.000
51.50963 178.000
51.52957 141.000
51.54952 158.000
51.56947 153.000
51.58942 160.000
51.60936 172.000
51.62931 184.000
51.64926 171.000
51.66920 167.000
51.68915 175.000
51.70910 179.000
51.72904 173.000
51.74899 187.000
51.76894 172.000
51.78888 147.000
51.80883 186.000
51.82878 179.000
51.84873 200.000
51.86867 196.000
51.88862 164.000
51.90857 181.000
51.92851 192.000
51.94846 179.000
51.96841 183.000
51.98835 203.000
52.00830 174.000
52.02825 176.000
52.04820 172.000
52.06814 175.000
52.08809 176.000
52.10804 214.000
52.12798 194.000
52.14793 198.000
52.16788 186.000
52.18782 190.000
52.20777 175.000
52.22772 191.000
52.24767 190.000
52.26761 198.000
52.28756 162.000
52.30751 154.000
52.32745 171.000
52.34740 178.000
52.36735 160.000
52.38729 153.000
52.40724 182.000
52.42719 168.000
52.44713 167.000
52.46708 153.000
52.48703 189.000
52.50698 162.000
52.52692 169.000
52.54687 185.000
52.56682 184.000
52.58676 167.000
52.60671 130.000
52.62666 160.000
52.64660 180.000
52.66655 179.000
52.68650 213.000
52.70645 164.000
52.72639 165.000
52.74634 162.000
52.76629 163.000
52.78623 171.000
52.80618 162.000
52.82613 201.000
52.84607 173.000
52.86602 181.000
52.88597 173.000
52.90591 180.000
52.92586 197.000
52.94581 156.000
52.96576 192.000
52.98570 211.000
53.00565 203.000
53.02560 215.000
53.04554 260.000
53.06549 222.000
53.08544 249.000
53.10538 216.000
53.12533 203.000
53.14528 196.000
53.16523 228.000
53.18517 211.000
53.20512 205.000
53.22507 202.000
53.24501 204.000
53.26496 186.000
53.28491 186.000
53.30485 189.000
53.32480 202.000
53.34475 177.000
53.36469 203.000
53.38464 169.000
53.40459 182.000
53.42454 196.000
53.44448 165.000
53.46443 183.000
53.48438 168.000
53.50432 192.000
53.52427 180.000
53.54422 169.000
53.56416 171.000
53.58411 202.000
53.60406 195.000
53.62401 207.000
53.64395 225.000
53.66390 201.000
53.68385 209.000
53.70379 271.000
53.72374 247.000
53.74369 324.000
53.76363 359.000
53.78358 382.000
53.80353 362.000
53.82348 342.000
53.84342 272.000
53.86337 261.000
53.88332 268.000
53.90326 242.000
53.92321 269.000
53.94316 283.000
53.96310 264.000
53.98305 227.000
54.00300 203.000
54.02294 199.000
54.04289 196.000
54.06284 197.000
54.08279 182.000
54.10273 181.000
54.12268 184.000
54.14263 169.000
54.16257 177.000
54.18252 213.000
54.20247 185.000
54.22241 177.000
54.24236 187.000
54.26231 202.000
54.28226 179.000
54.30220 167.000
54.32215 183.000
54.34210 185.000
54.36204 175.000
54.38199 181.000
54.40194 170.000
54.42188 196.000
54.44183 168.000
54.46178 172.000
54.48172 177.000
54.50167 166.000
54.52162 161.000
54.54157 179.000
54.56151 169.000
54.58146 176.000
54.60141 177.000
54.62135 171.000
54.64130 193.000
54.66125 163.000
54.68119 170.000
54.70114 161.000
54.72109 171.000
54.74104 154.000
54.76098 156.000
54.78093 171.000
54.80088 173.000
54.82082 170.000
54.84077 173.000
54.86072 188.000
54.88066 152.000
54.90061 170.000
54.92056 167.000
54.94050 158.000
54.96045 176.000
54.98040 160.000
55.00035 167.000
55.02029 164.000
55.04024 146.000
55.06019 161.000
55.08013 152.000
55.10008 172.000
55.12003 169.000
55.13997 192.000
55.15992 161.000
55.17987 152.000
55.19982 173.000
55.21976 168.000
55.23971 181.000
55.25966 167.000
55.27960 150.000
55.29955 174.000
55.31950 159.000
55.33944 171.000
55.35939 168.000
55.37934 171.000
55.39929 172.000
55.41923 171.000
55.43918 177.000
55.45913 158.000
55.47907 169.000
55.49902 158.000
55.51897 152.000
55.53891 180.000
55.55886 175.000
55.57881 182.000
55.59875 161.000
55.61870 167.000
55.63865 159.000
55.65860 155.000
55.67854 173.000
55.69849 203.000
55.71844 161.000
55.73838 169.000
55.75833 150.000
55.77828 194.000
55.79822 175.000
55.81817 169.000
55.83812 176.000
55.85807 160.000
55.87801 171.000
55.89796 144.000
55.91791 156.000
55.93785 184.000
55.95780 144.000
55.97775 136.000
55.99769 183.000
56.01764 203.000
56.03759 147.000
56.05753 159.000
56.07748 178.000
56.09743 154.000
56.11738 175.000
56.13732 147.000
56.15727 168.000
56.17722 190.000
56.19716 180.000
56.21711 181.000
56.23706 171.000
56.25700 192.000
56.27695 185.000
56.29690 172.000
56.31685 157.000
56.33679 189.000
56.35674 184.000
56.37669 204.000
56.39663 175.000
56.41658 181.000
56.43653 163.000
56.45647 180.000
56.47642 177.000
56.49637 145.000
56.51631 155.000
56.53626 190.000
56.55621 163.000
56.57616 166.000
56.59610 195.000
56.61605 183.000
56.63600 158.000
56.65594 150.000
56.67589 174.000
56.69584 165.000
56.71578 181.000
56.73573 150.000
56.75568 186.000
56.77563 194.000
56.79557 168.000
56.81552 165.000
56.83547 193.000
56.85541 195.000
56.87536 205.000
56.89531 177.000
56.91525 195.000
56.93520 178.000
56.95515 173.000
56.97510 189.000
56.99504 208.000
57.01499 191.000
57.03494 189.000
57.05488 241.000
57.07483 191.000
57.09478 212.000
57.11472 220.000
57.13467 237.000
57.15462 225.000
57.17456 265.000
57.19451 263.000
57.21446 292.000
57.23441 321.000
57.25435 364.000
57.27430 440.000
57.29425 556.000
57.31419 677.000
57.33414 762.000
57.35409 765.000
57.37403 671.000
57.39398 581.000
57.41393 500.000
57.43388 438.000
57.45382 446.000
57.47377 492.000
57.49372 488.000
57.51366 538.000
57.53361 446.000
57.55356 352.000
57.57350 353.000
57.59345 281.000
57.61340 264.000
57.63334 286.000
57.65329 274.000
57.67324 295.000
57.69319 237.000
57.71313 274.000
57.73308 271.000
57.75303 270.000
57.77297 273.000
57.79292 307.000
57.81287 302.000
57.83281 265.000
57.85276 270.000
57.87271 257.000
57.89266 255.000
57.91260 264.000
57.93255 236.000
57.95250 269.000
57.97244 225.000
57.99239 228.000
58.01234 211.000
58.03228 226.000
58.05223 220.000
58.07218 198.000
58.09212 204.000
58.11207 184.000
58.13202 190.000
58.15197 174.000
58.17191 203.000
58.19186 177.000
58.21181 192.000
58.23175 183.000
58.25170 200.000
58.27165 193.000
58.29159 169.000
58.31154 198.000
58.33149 211.000
58.35144 185.000
58.37138 164.000
58.39133 205.000
58.41128 177.000
58.43122 178.000
58.45117 210.000
58.47112 197.000
58.49106 193.000
58.51101 194.000
58.53096 185.000
58.55090 206.000
58.57085 189.000
58.59080 192.000
58.61075 180.000
58.63069 198.000
58.65064 160.000
58.67059 203.000
58.69053 182.000
58.71048 190.000
58.73043 199.000
58.75037 194.000
58.77032 180.000
58.79027 176.000
58.81022 182.000
58.83016 186.000
58.85011 151.000
58.87006 164.000
58.89000 169.000
58.90995 188.000
58.92990 197.000
58.94984 170.000
58.96979 181.000
58.98974 202.000
59.00969 162.000
59.02963 188.000
59.04958 165.000
59.06953 201.000
59.08947 188.000
59.10942 185.000
59.12937 183.000
59.14931 179.000
59.16926 193.000
59.18921 195.000
59.20915 191.000
59.22910 209.000
59.24905 184.000
59.26900 182.000
59.28894 187.000
59.30889 182.000
59.32884 195.000
59.34878 180.000
59.36873 197.000
59.38868 187.000
59.40862 172.000
59.42857 200.000
59.44852 191.000
59.46847 214.000
59.48841 174.000
59.50836 184.000
59.52831 209.000
59.54825 180.000
59.56820 186.000
59.58815 205.000
59.60809 221.000
59.62804 203.000
59.64799 212.000
59.66793 204.000
59.68788 196.000
59.70783 207.000
59.72778 213.000
59.74772 199.000
59.76767 176.000
59.78762 201.000
59.80756 214.000
59.82751 212.000
59.84746 207.000
59.86740 203.000
59.88735 225.000
59.90730 185.000
59.92725 193.000
59.94719 190.000
59.96714 197.000
59.98709 216.000
60.00703 173.000
60.02698 197.000
60.04693 198.000
60.06687 172.000
60.08682 193.000
60.10677 186.000
60.12671 186.000
60.14666 201.000
60.16661 156.000
60.18656 181.000
60.20650 185.000
60.22645 184.000
60.24640 175.000
60.26634 192.000
60.28629 186.000
60.30624 175.000
60.32618 193.000
60.34613 181.000
60.36608 204.000
60.38603 181.000
60.40597 190.000
60.42592 157.000
60.44587 206.000
60.46581 191.000
60.48576 183.000
60.50571 183.000
60.52565 190.000
60.54560 191.000
60.56555 184.000
60.58550 191.000
60.60544 186.000
60.62539 214.000
60.64534 202.000
60.66528 183.000
60.68523 180.000
60.70518 175.000
60.72512 197.000
60.74507 189.000
60.76502 186.000
60.78496 206.000
60.80491 220.000
60.82486 179.000
60.84481 189.000
60.86475 197.000
60.88470 192.000
60.90465 176.000
60.92459 187.000
60.94454 179.000
60.96449 178.000
60.98443 196.000
61.00438 190.000
61.02433 180.000
61.04428 185.000
61.06422 178.000
61.08417 195.000
61.10412 197.000
61.12406 184.000
61.14401 195.000
61.16396 192.000
61.18390 194.000
61.20385 206.000
61.22380 208.000
61.24374 193.000
61.26369 224.000
61.28364 208.000
61.30359 221.000
61.32353 197.000
61.34348 246.000
61.36343 225.000
61.38337 242.000
61.40332 242.000
61.42327 252.000
61.44321 236.000
61.46316 259.000
61.48311 245.000
61.50306 267.000
61.52300 284.000
61.54295 264.000
61.56290 293.000
61.58284 297.000
61.60279 349.000
61.62274 325.000
61.64268 385.000
61.66263 380.000
61.68258 385.000
61.70252 383.000
61.72247 375.000
61.74242 361.000
61.76237 337.000
61.78231 349.000
61.80226 368.000
61.82221 374.000
61.84215 360.000
61.86210 374.000
61.88205 345.000
61.90199 347.000
61.92194 366.000
61.94189 373.000
61.96184 372.000
61.98178 359.000
62.00173 398.000
62.02168 379.000
62.04162 375.000
62.06157 391.000
62.08152 362.000
62.10146 346.000
62.12141 348.000
62.14136 370.000
62.16131 345.000
62.18125 366.000
62.20120 342.000
62.22115 327.000
62.24109 395.000
62.26104 402.000
62.28099 390.000
62.30093 413.000
62.32088 364.000
62.34083 385.000
62.36077 429.000
62.38072 416.000
62.40067 476.000
62.42062 470.000
62.44056 488.000
62.46051 498.000
62.48046 478.000
62.50040 537.000
62.52035 556.000
62.54030 525.000
62.56024 553.000
62.58019 607.000
62.60014 673.000
62.62009 592.000
62.64003 631.000
62.65998 666.000
62.67993 618.000
62.69987 649.000
62.71982 623.000
62.73977 597.000
62.75971 605.000
62.77966 570.000
62.79961 558.000
62.81955 587.000
62.83950 573.000
62.85945 579.000
62.87940 610.000
62.89934 647.000
62.91929 747.000
62.93924 884.000
62.95918 1010.000
62.97913 1077.000
62.99908 936.000
63.01902 841.000
63.03897 705.000
63.05892 597.000
63.07887 558.000
63.09881 534.000
63.11876 605.000
63.13871 606.000
63.15865 647.000
63.17860 585.000
63.19855 518.000
63.21849 416.000
63.23844 329.000
63.25839 285.000
63.27833 267.000
63.29828 274.000
63.31823 251.000
63.33818 217.000
63.35812 226.000
63.37807 202.000
63.39802 231.000
63.41796 208.000
63.43791 215.000
63.45786 211.000
63.47780 204.000
63.49775 214.000
63.51770 192.000
63.53765 177.000
63.55759 225.000
63.57754 206.000
63.59749 179.000
63.61743 204.000
63.63738 205.000
63.65733 209.000
63.67727 219.000
63.69722 217.000
63.71717 180.000
63.73712 203.000
63.75706 176.000
63.77701 172.000
63.79696 188.000
63.81690 193.000
63.83685 179.000
63.85680 183.000
63.87674 182.000
63.89669 225.000
63.91664 187.000
63.93658 227.000
63.95653 227.000
63.97648 217.000
63.99643 256.000
64.01637 223.000
64.03632 192.000
64.05627 216.000
64.07621 214.000
64.09616 250.000
64.11611 226.000
64.13605 221.000
64.15600 217.000
64.17595 254.000
64.19590 213.000
64.21584 223.000
64.23579 226.000
64.25574 223.000
64.27568 224.000
64.29563 195.000
64.31558 225.000
64.33552 205.000
64.35547 204.000
64.37542 205.000
64.39536 198.000
64.41531 200.000
64.43526 185.000
64.45521 211.000
64.47515 191.000
64.49510 203.000
64.51505 202.000
64.53499 194.000
64.55494 182.000
64.57489 195.000
64.59483 209.000
64.61478 196.000
64.63473 203.000
64.65468 196.000
64.67462 205.000
64.69457 204.000
64.71452 221.000
64.73446 183.000
64.75441 195.000
64.77436 206.000
64.79430 192.000
64.81425 205.000
64.83420 203.000
64.85414 197.000
64.87409 203.000
64.89404 172.000
64.91399 188.000
64.93393 206.000
64.95388 184.000
64.97383 193.000
64.99377 198.000
65.01372 191.000
65.03367 205.000
65.05361 193.000
65.07356 208.000
65.09351 190.000
65.11346 173.000
65.13340 174.000
65.15335 167.000
65.17330 207.000
65.19324 227.000
65.21319 172.000
65.23314 193.000
65.25308 176.000
65.27303 187.000
65.29298 178.000
65.31293 190.000
65.33287 178.000
65.35282 202.000
65.37277 219.000
65.39271 186.000
65.41266 186.000
65.43261 196.000
65.45255 194.000
65.47250 205.000
65.49245 192.000
65.51239 221.000
65.53234 196.000
65.55229 210.000
65.57224 217.000
65.59218 207.000
65.61213 208.000
65.63208 200.000
65.65202 192.000
65.67197 202.000
65.69192 221.000
65.71186 204.000
65.73181 208.000
65.75176 179.000
65.77171 212.000
65.79165 198.000
65.81160 180.000
65.83155 213.000
65.85149 186.000
65.87144 171.000
65.89139 247.000
65.91133 166.000
65.93128 199.000
65.95123 195.000
65.97117 199.000
65.99112 202.000
66.01107 166.000
66.03102 198.000
66.05096 219.000
66.07091 182.000
66.09086 217.000
66.11080 195.000
66.13075 205.000
66.15070 171.000
66.17064 209.000
66.19059 187.000
66.21054 208.000
66.23049 212.000
66.25043 206.000
66.27038 200.000
66.29033 234.000
66.31027 190.000
66.33022 185.000
66.35017 215.000
66.37011 190.000
66.39006 188.000
66.41001 227.000
66.42995 205.000
66.44990 214.000
66.46985 195.000
66.48980 215.000
66.50974 174.000
66.52969 189.000
66.54964 215.000
66.56958 188.000
66.58953 218.000
66.60948 192.000
66.62942 204.000
66.64937 192.000
66.66932 219.000
66.68927 196.000
66.70921 194.000
66.72916 180.000
66.74911 183.000
66.76905 190.000
66.78900 191.000
66.80895 201.000
66.82889 173.000
66.84884 195.000
66.86879 153.000
66.88874 188.000
66.90868 184.000
66.92863 183.000
66.94858 162.000
66.96852 196.000
66.98847 172.000
67.00842 190.000
67.02836 178.000
67.04831 158.000
67.06826 186.000
67.08820 193.000
67.10815 183.000
67.12810 187.000
67.14805 173.000
67.16799 151.000
67.18794 183.000
67.20789 176.000
67.22783 177.000
67.24778 179.000
67.26773 182.000
67.28767 165.000
67.30762 157.000
67.32757 187.000
67.34752 184.000
67.36746 153.000
67.38741 172.000
67.40736 192.000
67.42730 161.000
67.44725 184.000
67.46720 167.000
67.48714 147.000
67.50709 140.000
67.52704 180.000
67.54698 148.000
67.56693 170.000
67.58688 181.000
67.60683 164.000
67.62677 170.000
67.64672 171.000
67.66667 163.000
67.68661 164.000
67.70656 151.000
67.72651 170.000
67.74645 186.000
67.76640 181.000
67.78635 176.000
67.80630 198.000
67.82624 181.000
67.84619 177.000
67.86614 162.000
67.88608 181.000
67.90603 159.000
67.92598 190.000
67.94592 182.000
67.96587 171.000
67.98582 181.000
68.00576 201.000
68.02571 200.000
68.04566 183.000
68.06561 201.000
68.08555 189.000
68.10550 182.000
68.12545 178.000
68.14539 188.000
68.16534 182.000
68.18529 194.000
68.20523 189.000
68.22518 191.000
68.24513 221.000
68.26508 186.000
68.28502 196.000
68.30497 200.000
68.32492 192.000
68.34486 167.000
68.36481 189.000
68.38476 178.000
68.40470 169.000
68.42465 208.000
68.44460 188.000
68.46455 187.000
68.48449 168.000
68.50444 173.000
68.52439 169.000
68.54433 174.000
68.56428 188.000
68.58423 162.000
68.60417 141.000
68.62412 147.000
68.64407 167.000
68.66401 172.000
68.68396 166.000
68.70391 172.000
68.72386 174.000
68.74380 173.000
68.76375 174.000
68.78370 206.000
68.80364 170.000
68.82359 158.000
68.84354 157.000
68.86348 154.000
68.88343 158.000
68.90338 154.000
68.92333 179.000
68.94327 186.000
68.96322 178.000
68.98317 162.000
69.00311 152.000
69.02306 171.000
69.04301 174.000
69.06295 173.000
69.08290 156.000
69.10285 159.000
69.12279 173.000
69.14274 189.000
69.16269 175.000
69.18264 172.000
69.20258 181.000
69.22253 163.000
69.24248 164.000
69.26242 191.000
69.28237 195.000
69.30232 187.000
69.32226 164.000
69.34221 194.000
69.36216 182.000
69.38211 167.000
69.40205 161.000
69.42200 170.000
69.44195 162.000
69.46189 157.000
69.48184 159.000
69.50179 136.000
69.52173 181.000
69.54168 139.000
69.56163 176.000
69.58157 185.000
69.60152 155.000
69.62147 208.000
69.64142 187.000
69.66136 179.000
69.68131 143.000
69.70126 161.000
69.72120 156.000
69.74115 167.000
69.76110 181.000
69.78104 164.000
69.80099 160.000
69.82094 167.000
69.84089 162.000
69.86083 180.000
69.88078 171.000
69.90073 165.000
69.92067 165.000
69.94062 196.000
69.96057 149.000
69.98051 179.000
70.00046 170.000
70.02041 170.000
70.04035 171.000
70.06030 181.000
70.08025 144.000
70.10020 167.000
70.12014 188.000
70.14009 181.000
70.16004 169.000
70.17998 162.000
70.19993 183.000
70.21988 173.000
70.23982 188.000
70.25977 163.000
70.27972 162.000
70.29967 147.000
70.31961 171.000
70.33956 194.000
70.35951 171.000
70.37945 171.000
70.39940 177.000
70.41935 180.000
70.43929 153.000
70.45924 150.000
70.47919 174.000
70.49914 178.000
70.51908 171.000
70.53903 159.000
70.55898 155.000
70.57892 165.000
70.59887 158.000
70.61882 142.000
70.63876 171.000
70.65871 145.000
70.67866 178.000
70.69860 171.000
70.71855 171.000
70.73850 160.000
70.75845 155.000
70.77839 179.000
70.79834 158.000
70.81829 164.000
70.83823 158.000
70.85818 161.000
70.87813 166.000
70.89807 175.000
70.91802 203.000
70.93797 172.000
70.95792 162.000
70.97786 171.000
70.99781 164.000
71.01776 188.000
71.03770 168.000
71.05765 187.000
71.07760 179.000
71.09754 195.000
71.11749 170.000
71.13744 152.000
71.15738 172.000
71.17733 163.000
71.19728 187.000
71.21723 191.000
71.23717 174.000
71.25712 163.000
71.27707 181.000
71.29701 174.000
71.31696 198.000
71.33691 167.000
71.35685 198.000
71.37680 205.000
71.39675 185.000
71.41670 222.000
71.43664 225.000
71.45659 236.000
71.47654 233.000
71.49648 220.000
71.51643 215.000
71.53638 208.000
71.55632 193.000
71.57627 185.000
71.59622 198.000
71.61616 191.000
71.63611 194.000
71.65606 174.000
71.67601 194.000
71.69595 205.000
71.71590 179.000
71.73585 196.000
71.75579 175.000
71.77574 168.000
71.79569 167.000
71.81563 182.000
71.83558 178.000
71.85553 151.000
71.87548 172.000
71.89542 174.000
71.91537 170.000
71.93532 171.000
71.95526 191.000
71.97521 192.000
71.99516 167.000
72.01510 184.000
72.03505 166.000
72.05500 201.000
72.07495 164.000
72.09489 176.000
72.11484 185.000
72.13479 186.000
72.15473 199.000
72.17468 182.000
72.19463 193.000
72.21457 179.000
72.23452 181.000
72.25447 159.000
72.27441 178.000
72.29436 204.000
72.31431 197.000
72.33426 211.000
72.35420 180.000
72.37415 198.000
72.39410 176.000
72.41404 200.000
72.43399 206.000
72.45394 189.000
72.47388 196.000
72.49383 203.000
72.51378 213.000
72.53373 203.000
72.55367 199.000
72.57362 212.000
72.59357 187.000
72.61351 198.000
72.63346 181.000
72.65341 171.000
72.67335 200.000
72.69330 206.000
72.71325 202.000
72.73319 215.000
72.75314 211.000
72.77309 196.000
72.79304 198.000
72.81298 203.000
72.83293 194.000
72.85288 206.000
72.87282 178.000
72.89277 208.000
72.91272 196.000
72.93266 220.000
72.95261 220.000
72.97256 216.000
72.99251 207.000
73.01245 204.000
73.03240 198.000
73.05235 222.000
73.07229 188.000
73.09224 210.000
73.11219 203.000
73.13213 224.000
73.15208 211.000
73.17203 207.000
73.19197 194.000
73.21192 206.000
73.23187 194.000
73.25182 192.000
73.27176 198.000
73.29171 197.000
73.31166 209.000
73.33160 186.000
73.35155 187.000
73.37150 201.000
73.39144 203.000
73.41139 202.000
73.43134 198.000
73.45129 180.000
73.47123 186.000
73.49118 181.000
73.51113 170.000
73.53107 199.000
73.55102 185.000
73.57097 208.000
73.59091 196.000
73.61086 185.000
73.63081 207.000
73.65076 199.000
73.67070 195.000
73.69065 205.000
73.71060 203.000
73.73054 194.000
73.75049 188.000
73.77044 194.000
73.79038 193.000
73.81033 218.000
73.83028 192.000
73.85022 210.000
73.87017 180.000
73.89012 209.000
73.91007 226.000
73.93001 188.000
73.94996 184.000
73.96991 187.000
73.98985 196.000
74.00980 191.000
74.02975 188.000
74.04969 172.000
74.06964 207.000
74.08959 181.000
74.10954 198.000
74.12948 226.000
74.14943 186.000
74.16938 193.000
74.18932 194.000
74.20927 215.000
74.22922 199.000
74.24916 208.000
74.26911 202.000
74.28906 190.000
74.30900 204.000
74.32895 201.000
74.34890 198.000
74.36885 207.000
74.38879 218.000
74.40874 226.000
74.42869 224.000
74.44863 236.000
74.46858 240.000
74.48853 274.000
74.50847 311.000
74.52842 345.000
74.54837 340.000
74.56832 317.000
74.58826 293.000
74.60821 287.000
74.62816 270.000
74.64810 248.000
74.66805 277.000
74.68800 269.000
74.70794 276.000
74.72789 271.000
74.74784 288.000
74.76778 303.000
74.78773 277.000
74.80768 289.000
74.82763 283.000
74.84757 278.000
74.86752 248.000
74.88747 244.000
74.90741 263.000
74.92736 241.000
74.94731 283.000
74.96725 273.000
74.98720 286.000
75.00715 253.000
75.02710 247.000
75.04704 295.000
75.06699 269.000
75.08694 269.000
75.10688 280.000
75.12683 282.000
75.14678 267.000
75.16672 264.000
75.18667 248.000
75.20662 298.000
75.22657 246.000
75.24651 282.000
75.26646 290.000
75.28641 290.000
75.30635 256.000
75.32630 256.000
75.34625 281.000
75.36619 239.000
75.38614 252.000
75.40609 237.000
75.42603 233.000
75.44598 234.000
75.46593 277.000
75.48588 259.000
75.50582 251.000
75.52577 243.000
75.54572 263.000
75.56566 257.000
75.58561 252.000
75.60556 215.000
75.62550 232.000
75.64545 206.000
75.66540 234.000
75.68535 224.000
75.70529 230.000
75.72524 222.000
75.74519 213.000
75.76513 230.000
75.78508 215.000
75.80503 214.000
75.82497 193.000
75.84492 201.000
75.86487 178.000
75.88481 175.000
75.90476 195.000
75.92471 193.000
75.94466 202.000
75.96460 170.000
75.98455 174.000
76.00450 170.000
76.02444 169.000
76.04439 168.000
76.06434 175.000
76.08428 158.000
76.10423 166.000
76.12418 196.000
76.14413 162.000
76.16407 182.000
76.18402 187.000
76.20397 163.000
76.22391 165.000
76.24386 191.000
76.26381 173.000
76.28375 191.000
76.30370 193.000
76.32365 170.000
76.34359 172.000
76.36354 153.000
76.38349 186.000
76.40344 192.000
76.42338 170.000
76.44333 159.000
76.46328 180.000
76.48322 177.000
76.50317 153.000
76.52312 171.000
76.54306 164.000
76.56301 160.000
76.58296 171.000
76.60291 168.000
76.62285 169.000
76.64280 161.000
76.66275 145.000
76.68269 170.000
76.70264 188.000
76.72259 159.000
76.74253 161.000
76.76248 190.000
76.78243 173.000
76.80238 161.000
76.82232 192.000
76.84227 173.000
76.86222 175.000
76.88216 170.000
76.90211 160.000
76.92206 177.000
76.94200 170.000
76.96195 137.000
76.98190 204.000
77.00184 186.000
77.02179 178.000
77.04174 196.000
77.06169 166.000
77.08163 194.000
77.10158 169.000
77.12153 198.000
77.14147 184.000
77.16142 165.000
77.18137 179.000
77.20131 175.000
77.22126 193.000
77.24121 207.000
77.26116 201.000
77.28110 217.000
77.30105 196.000
77.32100 195.000
77.34094 197.000
77.36089 195.000
77.38084 202.000
77.40078 184.000
77.42073 194.000
77.44068 190.000
77.46062 203.000
77.48057 204.000
77.50052 181.000
77.52047 209.000
77.54041 208.000
77.56036 164.000
77.58031 211.000
77.60025 206.000
77.62020 188.000
77.64015 185.000
77.66009 190.000
77.68004 183.000
77.69999 186.000
77.71994 210.000
77.73988 190.000
77.75983 217.000
77.77978 191.000
77.79972 221.000
77.81967 201.000
77.83962 192.000
77.85956 196.000
77.87951 213.000
77.89946 202.000
77.91940 192.000
77.93935 213.000
77.95930 196.000
77.97925 203.000
77.99919 186.000
78.01914 207.000
78.03909 178.000
78.05903 187.000
78.07898 157.000
78.09893 189.000
78.11887 193.000
78.13882 190.000
78.15877 178.000
78.17872 206.000
78.19866 186.000
78.21861 184.000
78.23856 196.000
78.25850 199.000
78.27845 184.000
78.29840 180.000
78.31834 205.000
78.33829 216.000
78.35824 218.000
78.37819 179.000
78.39813 198.000
78.41808 179.000
78.43803 204.000
78.45797 216.000
78.47792 202.000
78.49787 185.000
78.51781 181.000
78.53776 194.000
78.55771 203.000
78.57765 208.000
78.59760 192.000
78.61755 201.000
78.63750 190.000
78.65744 234.000
78.67739 195.000
78.69734 203.000
78.71728 208.000
78.73723 220.000
78.75718 194.000
78.77712 206.000
78.79707 201.000
78.81702 246.000
78.83697 232.000
78.85691 204.000
78.87686 216.000
78.89681 233.000
78.91675 235.000
78.93670 226.000
78.95665 241.000
78.97659 263.000
78.99654 253.000
79.01649 257.000
79.03643 276.000
79.05638 274.000
79.07633 245.000
79.09628 235.000
79.11622 245.000
79.13617 271.000
79.15612 225.000
79.17606 259.000
79.19601 234.000
79.21596 257.000
79.23590 246.000
79.25585 232.000
79.27580 228.000
79.29575 225.000
79.31569 195.000
79.33564 244.000
79.35559 205.000
79.37553 220.000
79.39548 226.000
79.41543 205.000
79.43537 192.000
79.45532 213.000
79.47527 195.000
79.49521 181.000
79.51516 209.000
79.53511 209.000
79.55506 242.000
79.57500 229.000
79.59495 205.000
79.61490 195.000
79.63484 205.000
79.65479 171.000
79.67474 190.000
79.69468 172.000
79.71463 182.000
79.73458 166.000
79.75453 197.000
79.77447 199.000
79.79442 199.000
79.81437 203.000
79.83431 206.000
79.85426 176.000
79.87421 195.000
79.89415 178.000
79.91410 174.000
79.93405 173.000
79.95399 171.000
79.97394 158.000
79.99389 154.000
80.01384 166.000
80.03378 171.000
80.05373 147.000
80.07368 193.000
80.09362 167.000
80.11357 172.000
80.13352 151.000
80.15346 148.000
80.17341 166.000
80.19336 162.000
80.21331 153.000
80.23325 175.000
80.25320 157.000
80.27315 174.000
80.29309 160.000
80.31304 182.000
80.33299 138.000
80.35293 168.000
80.37288 167.000
80.39283 168.000
80.41278 178.000
80.43272 173.000
80.45267 150.000
80.47262 179.000
80.49256 146.000
80.51251 175.000
80.53246 165.000
80.55240 181.000
80.57235 177.000
80.59230 177.000
80.61224 164.000
80.63219 161.000
80.65214 155.000
80.67209 142.000
80.69203 168.000
80.71198 157.000
80.73193 165.000
80.75187 134.000
80.77182 195.000
80.79177 168.000
80.81171 177.000
80.83166 170.000
80.85161 180.000
80.87156 168.000
80.89150 155.000
80.91145 150.000
80.93140 157.000
80.95134 140.000
80.97129 161.000
80.99124 150.000
81.01118 156.000
81.03113 157.000
81.05108 153.000
81.07102 178.000
81.09097 167.000
81.11092 176.000
81.13087 146.000
81.15081 175.000
81.17076 171.000
81.19071 149.000
81.21065 181.000
81.23060 139.000
81.25055 177.000
81.27049 143.000
81.29044 181.000
81.31039 174.000
81.33034 154.000
81.35028 172.000
81.37023 153.000
81.39018 157.000
81.41012 149.000
81.43007 165.000
81.45002 155.000
81.46996 188.000
81.48991 165.000
81.50986 137.000
81.52980 170.000
81.54975 170.000
81.56970 159.000
81.58965 157.000
81.60959 173.000
81.62954 174.000
81.64949 165.000
81.66943 150.000
81.68938 151.000
81.70933 170.000
81.72927 149.000
81.74922 178.000
81.76917 180.000
81.78912 152.000
81.80906 160.000
81.82901 184.000
81.84896 155.000
81.86890 170.000
81.88885 139.000
81.90880 171.000
81.92874 172.000
81.94869 166.000
81.96864 168.000
81.98859 180.000
82.00853 167.000
82.02848 148.000
82.04843 148.000
82.06837 151.000
82.08832 171.000
82.10827 164.000
82.12821 152.000
82.14816 178.000
82.16811 149.000
82.18805 167.000
82.20800 186.000
82.22795 156.000
82.24790 153.000
82.26784 147.000
82.28779 161.000
82.30774 154.000
82.32768 172.000
82.34763 181.000
82.36758 127.000
82.38752 175.000
82.40747 154.000
82.42742 166.000
82.44737 181.000
82.46731 160.000
82.48726 169.000
82.50721 154.000
82.52715 174.000
82.54710 161.000
82.56705 181.000
82.58699 188.000
82.60694 179.000
82.62689 170.000
82.64683 188.000
82.66678 140.000
82.68673 172.000
82.70668 152.000
82.72662 162.000
82.74657 160.000
82.76652 173.000
82.78646 190.000
82.80641 162.000
82.82636 163.000
82.84630 141.000
82.86625 159.000
82.88620 180.000
82.90615 160.000
82.92609 161.000
82.94604 145.000
82.96599 155.000
82.98593 152.000
83.00588 157.000
83.02583 171.000
83.04577 154.000
83.06572 170.000
83.08567 157.000
83.10561 164.000
83.12556 191.000
83.14551 167.000
83.16546 162.000
83.18540 154.000
83.20535 166.000
83.22530 158.000
83.24524 156.000
83.26519 161.000
83.28514 150.000
83.30508 171.000
83.32503 166.000
83.34498 144.000
83.36493 187.000
83.38487 173.000
83.40482 161.000
83.42477 176.000
83.44471 166.000
83.46466 177.000
83.48461 177.000
83.50455 189.000
83.52450 172.000
83.54445 169.000
83.56440 164.000
83.58434 150.000
83.60429 170.000
83.62424 162.000
83.64418 155.000
83.66413 150.000
83.68408 169.000
83.70402 163.000
83.72397 157.000
83.74392 157.000
83.76386 165.000
83.78381 178.000
83.80376 143.000
83.82371 160.000
83.84365 155.000
83.86360 160.000
83.88355 161.000
83.90349 143.000
83.92344 171.000
83.94339 173.000
83.96333 161.000
83.98328 145.000
84.00323 147.000
84.02318 167.000
84.04312 152.000
84.06307 139.000
84.08302 160.000
84.10296 170.000
84.12291 154.000
84.14286 151.000
84.16280 151.000
84.18275 194.000
84.20270 160.000
84.22264 159.000
84.24259 155.000
84.26254 193.000
84.28249 171.000
84.30243 173.000
84.32238 165.000
84.34233 159.000
84.36227 208.000
84.38222 168.000
84.40217 173.000
84.42211 172.000
84.44206 160.000
84.46201 179.000
84.48196 175.000
84.50190 150.000
84.52185 181.000
84.54180 174.000
84.56174 189.000
84.58169 170.000
84.60164 182.000
84.62158 171.000
84.64153 172.000
84.66148 154.000
84.68142 179.000
84.70137 184.000
84.72132 162.000
84.74127 146.000
84.76121 176.000
84.78116 171.000
84.80111 156.000
84.82105 164.000
84.84100 178.000
84.86095 159.000
84.88089 165.000
84.90084 169.000
84.92079 146.000
84.94074 158.000
84.96068 176.000
84.98063 157.000
85.00058 156.000
85.02052 162.000
85.04047 151.000
85.06042 156.000
85.08036 152.000
85.10031 171.000
85.12026 159.000
85.14021 150.000
85.16015 168.000
85.18010 145.000
85.20005 162.000
85.21999 161.000
85.23994 174.000
85.25989 164.000
85.27983 166.000
85.29978 164.000
85.31973 144.000
85.33967 143.000
85.35962 140.000
85.37957 146.000
85.39952 172.000
85.41946 180.000
85.43941 181.000
85.45936 172.000
85.47930 164.000
85.49925 154.000
85.51920 168.000
85.53914 155.000
85.55909 155.000
85.57904 180.000
85.59899 152.000
85.61893 155.000
85.63888 164.000
85.65883 155.000
85.67877 143.000
85.69872 165.000
85.71867 144.000
85.73861 156.000
85.75856 175.000
85.77851 149.000
85.79845 122.000
85.81840 156.000
85.83835 176.000
85.85830 160.000
85.87824 163.000
85.89819 165.000
85.91814 158.000
85.93808 148.000
85.95803 183.000
85.97798 173.000
85.99792 150.000
86.01787 176.000
86.03782 182.000
86.05777 152.000
86.07771 142.000
86.09766 157.000
86.11761 167.000
86.13755 155.000
86.15750 137.000
86.17745 168.000
86.19739 138.000
86.21734 175.000
86.23729 183.000
86.25723 157.000
86.27718 147.000
86.29713 180.000
86.31708 138.000
86.33702 154.000
86.35697 166.000
86.37692 166.000
86.39686 176.000
86.41681 169.000
86.43676 168.000
86.45670 150.000
86.47665 162.000
86.49660 144.000
86.51655 155.000
86.53649 148.000
86.55644 161.000
86.57639 167.000
86.59633 165.000
86.61628 170.000
86.63623 175.000
86.65617 160.000
86.67612 178.000
86.69607 173.000
86.71602 144.000
86.73596 169.000
86.75591 152.000
86.77586 153.000
86.79580 166.000
86.81575 154.000
86.83570 170.000
86.85564 170.000
86.87559 162.000
86.89554 170.000
86.91548 185.000
86.93543 168.000
86.95538 167.000
86.97533 174.000
86.99527 149.000
87.01522 159.000
87.03517 161.000
87.05511 174.000
87.07506 157.000
87.09501 164.000
87.11495 155.000
87.13490 186.000
87.15485 185.000
87.17480 165.000
87.19474 185.000
87.21469 179.000
87.23464 161.000
87.25458 209.000
87.27453 175.000
87.29448 182.000
87.31442 180.000
87.33437 180.000
87.35432 215.000
87.37426 207.000
87.39421 186.000
87.41416 235.000
87.43411 221.000
87.45405 220.000
87.47400 181.000
87.49395 181.000
87.51389 228.000
87.53384 197.000
87.55379 197.000
87.57373 170.000
87.59368 215.000
87.61363 191.000
87.63358 180.000
87.65352 185.000
87.67347 190.000
87.69342 210.000
87.71336 194.000
87.73331 173.000
87.75326 163.000
87.77320 207.000
87.79315 155.000
87.81310 180.000
87.83304 178.000
87.85299 172.000
87.87294 173.000
87.89289 182.000
87.91283 174.000
87.93278 164.000
87.95273 174.000
87.97267 201.000
87.99262 166.000
88.01257 177.000
88.03251 147.000
88.05246 147.000
88.07241 153.000
88.09236 176.000
88.11230 157.000
88.13225 170.000
88.15220 157.000
88.17214 150.000
88.19209 161.000
88.21204 164.000
88.23198 159.000
88.25193 152.000
88.27188 164.000
88.29183 160.000
88.31177 165.000
88.33172 160.000
88.35167 140.000
88.37161 165.000
88.39156 165.000
88.41151 153.000
88.43145 168.000
88.45140 168.000
88.47135 152.000
88.49129 171.000
88.51124 149.000
88.53119 146.000
88.55114 162.000
88.57108 149.000
88.59103 156.000
88.61098 156.000
88.63092 160.000
88.65087 152.000
88.67082 157.000
88.69076 177.000
88.71071 150.000
88.73066 161.000
88.75061 163.000
88.77055 172.000
88.79050 159.000
88.81045 163.000
88.83039 142.000
88.85034 153.000
88.87029 138.000
88.89023 155.000
88.91018 151.000
88.93013 180.000
88.95007 157.000
88.97002 169.000
88.98997 162.000
89.00992 156.000
89.02986 162.000
89.04981 172.000
89.06976 172.000
89.08970 178.000
89.10965 157.000
89.12960 182.000
89.14954 154.000
89.16949 181.000
89.18944 164.000
89.20939 172.000
89.22933 144.000
89.24928 182.000
89.26923 151.000
89.28917 167.000
89.30912 168.000
89.32907 154.000
89.34901 166.000
89.36896 160.000
89.38891 153.000
89.40885 157.000
89.42880 160.000
89.44875 169.000
89.46870 148.000
89.48864 165.000
89.50859 150.000
89.52854 161.000
89.54848 151.000
89.56843 158.000
89.58838 156.000
89.60832 145.000
89.62827 167.000
89.64822 170.000
89.66817 157.000
89.68811 188.000
89.70806 170.000
89.72801 183.000
89.74795 152.000
89.76790 179.000
89.78785 180.000
89.80779 136.000
89.82774 166.000
89.84769 198.000
89.86764 166.000
89.88758 164.000
89.90753 188.000
89.92748 175.000
89.94742 153.000
89.96737 183.000
89.98732 173.000
90.00726 173.000
