10.00000 65.000
10.01995 65.000
10.03989 55.000
10.05984 51.000
10.07979 54.000
10.09973 45.000
10.11968 46.000
10.13963 61.000
10.15958 53.000
10.17952 50.000
10.19947 64.000
10.21942 58.000
10.23936 54.000
10.25931 52.000
10.27926 55.000
10.29920 54.000
10.31915 46.000
10.33910 52.000
10.35905 58.000
10.37899 40.000
10.39894 69.000
10.41889 58.000
10.43883 39.000
10.45878 49.000
10.47873 52.000
10.49867 56.000
10.51862 76.000
10.53857 59.000
10.55851 47.000
10.57846 48.000
10.59841 49.000
10.61836 64.000
10.63830 57.000
10.65825 50.000
10.67820 59.000
10.69814 57.000
10.71809 53.000
10.73804 73.000
10.75798 62.000
10.77793 50.000
10.79788 68.000
10.81783 62.000
10.83777 41.000
10.85772 49.000
10.87767 57.000
10.89761 54.000
10.91756 56.000
10.93751 54.000
10.95745 60.000
10.97740 39.000
10.99735 58.000
11.01730 54.000
11.03724 55.000
11.05719 54.000
11.07714 67.000
11.09708 56.000
11.11703 64.000
11.13698 59.000
11.15692 42.000
11.17687 53.000
11.19682 47.000
11.21676 50.000
11.23671 55.000
11.25666 56.000
11.27661 41.000
11.29655 58.000
11.31650 43.000
11.33645 60.000
11.35639 62.000
11.37634 66.000
11.39629 59.000
11.41623 53.000
11.43618 51.000
11.45613 47.000
11.47608 50.000
11.49602 56.000
11.51597 56.000
11.53592 55.000
11.55586 46.000
11.57581 54.000
11.59576 46.000
11.61570 48.000
11.63565 57.000
11.65560 59.000
11.67554 48.000
11.69549 49.000
11.71544 55.000
11.73539 44.000
11.75533 46.000
11.77528 46.000
11.79523 32.000
11.81517 55.000
11.83512 43.000
11.85507 38.000
11.87501 46.000
11.89496 41.000
11.91491 61.000
11.93486 55.000
11.95480 49.000
11.97475 56.000
11.99470 49.000
12.01464 55.000
12.03459 42.000
12.05454 60.000
12.07448 53.000
12.09443 46.000
12.11438 43.000
12.13432 44.000
12.15427 51.000
12.17422 57.000
12.19417 43.000
12.21411 55.000
12.23406 43.000
12.25401 50.000
12.27395 62.000
12.29390 57.000
12.31385 47.000
12.33379 69.000
12.35374 50.000
12.37369 43.000
12.39364 64.000
12.41358 55.000
12.43353 42.000
12.45348 52.000
12.47342 40.000
12.49337 47.000
12.51332 48.000
12.53326 46.000
12.55321 52.000
12.57316 48.000
12.59311 38.000
12.61305 49.000
12.63300 47.000
12.65295 51.000
12.67289 52.000
12.69284 45.000
12.71279 60.000
12.73273 49.000
12.75268 49.000
12.77263 53.000
12.79257 60.000
12.81252 51.000
12.83247 52.000
12.85242 53.000
12.87236 58.000
12.89231 46.000
12.91226 56.000
12.93220 50.000
12.95215 53.000
12.97210 55.000
12.99204 54.000
13.01199 55.000
13.03194 52.000
13.05189 52.000
13.07183 58.000
13.09178 62.000
13.11173 47.000
13.13167 60.000
13.15162 57.000
13.17157 44.000
13.19151 57.000
13.21146 66.000
13.23141 57.000
13.25135 47.000
13.27130 53.000
13.29125 48.000
13.31120 50.000
13.33114 50.000
13.35109 52.000
13.37104 48.000
13.39098 48.000
13.41093 54.000
13.43088 40.000
13.45082 49.000
13.47077 45.000
13.49072 53.000
13.51067 58.000
13.53061 51.000
13.55056 59.000
13.57051 46.000
13.59045 38.000
13.61040 42.000
13.63035 42.000
13.65029 57.000
13.67024 61.000
13.69019 40.000
13.71013 67.000
13.73008 39.000
13.75003 48.000
13.76998 46.000
13.78992 62.000
13.80987 60.000
13.82982 55.000
13.84976 52.000
13.86971 45.000
13.88966 41.000
13.90960 55.000
13.92955 58.000
13.94950 45.000
13.96945 44.000
13.98939 50.000
14.00934 54.000
14.02929 53.000
14.04923 59.000
14.06918 68.000
14.08913 52.000
14.10907 58.000
14.12902 44.000
14.14897 60.000
14.16892 54.000
14.18886 54.000
14.20881 49.000
14.22876 59.000
14.24870 62.000
14.26865 51.000
14.28860 59.000
14.30854 59.000
14.32849 56.000
14.34844 53.000
14.36838 51.000
14.38833 46.000
14.40828 69.000
14.42823 58.000
14.44817 49.000
14.46812 69.000
14.48807 53.000
14.50801 61.000
14.52796 59.000
14.54791 55.000
14.56785 60.000
14.58780 58.000
14.60775 52.000
14.62770 61.000
14.64764 68.000
14.66759 73.000
14.68754 61.000
14.70748 57.000
14.72743 59.000
14.74738 48.000
14.76732 53.000
14.78727 44.000
14.80722 49.000
14.82716 63.000
14.84711 56.000
14.86706 43.000
14.88701 56.000
14.90695 57.000
14.92690 65.000
14.94685 67.000
14.96679 58.000
14.98674 51.000
15.00669 73.000
15.02663 50.000
15.04658 65.000
15.06653 62.000
15.08648 51.000
15.10642 62.000
15.12637 65.000
15.14632 69.000
15.16626 70.000
15.18621 74.000
15.20616 76.000
15.22610 59.000
15.24605 51.000
15.26600 66.000
15.28594 70.000
15.30589 56.000
15.32584 77.000
15.34579 73.000
15.36573 82.000
15.38568 74.000
15.40563 100.000
15.42557 89.000
15.44552 104.000
15.46547 92.000
15.48541 106.000
15.50536 116.000
15.52531 119.000
15.54526 146.000
15.56520 160.000
15.58515 213.000
15.60510 226.000
15.62504 300.000
15.64499 327.000
15.66494 361.000
15.68488 449.000
15.70483 474.000
15.72478 462.000
15.74472 408.000
15.76467 432.000
15.78462 360.000
15.80457 309.000
15.82451 375.000
15.84446 373.000
15.86441 411.000
15.88435 459.000
15.90430 541.000
15.92425 650.000
15.94419 748.000
15.96414 818.000
15.98409 875.000
16.00404 895.000
16.02398 1026.000
16.04393 1023.000
16.06388 957.000
16.08382 902.000
16.10377 803.000
16.12372 653.000
16.14366 568.000
16.16361 423.000
16.18356 337.000
16.20351 276.000
16.22345 240.000
16.24340 192.000
16.26335 198.000
16.28329 151.000
16.30324 144.000
16.32319 131.000
16.34313 123.000
16.36308 105.000
16.38303 98.000
16.40297 92.000
16.42292 102.000
16.44287 85.000
16.46282 102.000
16.48276 74.000
16.50271 69.000
16.52266 73.000
16.54260 84.000
16.56255 65.000
16.58250 77.000
16.60244 77.000
16.62239 71.000
16.64234 73.000
16.66229 77.000
16.68223 78.000
16.70218 61.000
16.72213 76.000
16.74207 63.000
16.76202 58.000
16.78197 55.000
16.80191 76.000
16.82186 60.000
16.84181 55.000
16.86175 72.000
16.88170 59.000
16.90165 55.000
16.92160 57.000
16.94154 59.000
16.96149 65.000
16.98144 64.000
17.00138 63.000
17.02133 67.000
17.04128 57.000
17.06122 57.000
17.08117 60.000
17.10112 61.000
17.12107 59.000
17.14101 71.000
17.16096 50.000
17.18091 52.000
17.20085 41.000
17.22080 46.000
17.24075 64.000
17.26069 61.000
17.28064 72.000
17.30059 55.000
17.32053 55.000
17.34048 59.000
17.36043 41.000
17.38038 56.000
17.40032 56.000
17.42027 50.000
17.44022 63.000
17.46016 58.000
17.48011 52.000
17.50006 44.000
17.52000 48.000
17.53995 78.000
17.55990 52.000
17.57985 53.000
17.59979 58.000
17.61974 42.000
17.63969 61.000
17.65963 42.000
17.67958 58.000
17.69953 51.000
17.71947 50.000
17.73942 58.000
17.75937 36.000
17.77932 53.000
17.79926 47.000
17.81921 44.000
17.83916 53.000
17.85910 50.000
17.87905 55.000
17.89900 55.000
17.91894 54.000
17.93889 68.000
17.95884 44.000
17.97878 53.000
17.99873 54.000
18.01868 62.000
18.03863 56.000
18.05857 66.000
18.07852 61.000
18.09847 47.000
18.11841 61.000
18.13836 55.000
18.15831 85.000
18.17825 88.000
18.19820 99.000
18.21815 130.000
18.23810 171.000
18.25804 188.000
18.27799 247.000
18.29794 296.000
18.31788 372.000
18.33783 351.000
18.35778 343.000
18.37772 307.000
18.39767 257.000
18.41762 168.000
18.43756 120.000
18.45751 99.000
18.47746 69.000
18.49741 60.000
18.51735 74.000
18.53730 44.000
18.55725 43.000
18.57719 66.000
18.59714 61.000
18.61709 42.000
18.63703 47.000
18.65698 49.000
18.67693 52.000
18.69688 42.000
18.71682 47.000
18.73677 62.000
18.75672 45.000
18.77666 42.000
18.79661 53.000
18.81656 42.000
18.83650 62.000
18.85645 52.000
18.87640 61.000
18.89634 56.000
18.91629 42.000
18.93624 53.000
18.95619 52.000
18.97613 65.000
18.99608 50.000
19.01603 56.000
19.03597 48.000
19.05592 48.000
19.07587 47.000
19.09581 60.000
19.11576 43.000
19.13571 41.000
19.15566 54.000
19.17560 51.000
19.19555 46.000
19.21550 46.000
19.23544 45.000
19.25539 48.000
19.27534 62.000
19.29528 54.000
19.31523 55.000
19.33518 38.000
19.35513 34.000
19.37507 58.000
19.39502 50.000
19.41497 52.000
19.43491 46.000
19.45486 48.000
19.47481 46.000
19.49475 56.000
19.51470 44.000
19.53465 42.000
19.55459 48.000
19.57454 50.000
19.59449 44.000
19.61444 53.000
19.63438 47.000
19.65433 48.000
19.67428 44.000
19.69422 52.000
19.71417 50.000
19.73412 39.000
19.75406 49.000
19.77401 48.000
19.79396 44.000
19.81391 50.000
19.83385 54.000
19.85380 44.000
19.87375 46.000
19.89369 32.000
19.91364 44.000
19.93359 42.000
19.95353 34.000
19.97348 61.000
19.99343 47.000
20.01337 38.000
20.03332 51.000
20.05327 48.000
20.07322 49.000
20.09316 46.000
20.11311 50.000
20.13306 41.000
20.15300 41.000
20.17295 48.000
20.19290 43.000
20.21284 58.000
20.23279 46.000
20.25274 46.000
20.27269 52.000
20.29263 41.000
20.31258 39.000
20.33253 42.000
20.35247 57.000
20.37242 35.000
20.39237 52.000
20.41231 45.000
20.43226 48.000
20.45221 50.000
20.47215 51.000
20.49210 39.000
20.51205 39.000
20.53200 50.000
20.55194 41.000
20.57189 50.000
20.59184 48.000
20.61178 58.000
20.63173 58.000
20.65168 39.000
20.67162 49.000
20.69157 45.000
20.71152 73.000
20.73147 50.000
20.75141 63.000
20.77136 59.000
20.79131 69.000
20.81125 50.000
20.83120 52.000
20.85115 56.000
20.87109 64.000
20.89104 75.000
20.91099 53.000
20.93094 58.000
20.95088 80.000
20.97083 67.000
20.99078 75.000
21.01072 64.000
21.03067 64.000
21.05062 56.000
21.07056 41.000
21.09051 46.000
21.11046 50.000
21.13040 49.000
21.15035 45.000
21.17030 36.000
21.19025 38.000
21.21019 48.000
21.23014 57.000
21.25009 56.000
21.27003 41.000
21.28998 45.000
21.30993 42.000
21.32987 52.000
21.34982 46.000
21.36977 41.000
21.38972 42.000
21.40966 38.000
21.42961 43.000
21.44956 46.000
21.46950 42.000
21.48945 44.000
21.50940 42.000
21.52934 55.000
21.54929 39.000
21.56924 34.000
21.58918 43.000
21.60913 46.000
21.62908 39.000
21.64903 42.000
21.66897 60.000
21.68892 43.000
21.70887 45.000
21.72881 35.000
21.74876 41.000
21.76871 42.000
21.78865 55.000
21.80860 44.000
21.82855 35.000
21.84850 48.000
21.86844 43.000
21.88839 51.000
21.90834 45.000
21.92828 52.000
21.94823 25.000
21.96818 44.000
21.98812 46.000
22.00807 42.000
22.02802 41.000
22.04796 44.000
22.06791 47.000
22.08786 39.000
22.10781 50.000
22.12775 55.000
22.14770 39.000
22.16765 65.000
22.18759 44.000
22.20754 38.000
22.22749 43.000
22.24743 47.000
22.26738 52.000
22.28733 51.000
22.30728 44.000
22.32722 47.000
22.34717 44.000
22.36712 46.000
22.38706 42.000
22.40701 44.000
22.42696 38.000
22.44690 41.000
22.46685 42.000
22.48680 39.000
22.50675 44.000
22.52669 49.000
22.54664 39.000
22.56659 47.000
22.58653 53.000
22.60648 49.000
22.62643 52.000
22.64637 49.000
22.66632 59.000
22.68627 43.000
22.70621 46.000
22.72616 38.000
22.74611 44.000
22.76606 53.000
22.78600 35.000
22.80595 62.000
22.82590 46.000
22.84584 41.000
22.86579 53.000
22.88574 54.000
22.90568 39.000
22.92563 35.000
22.94558 63.000
22.96553 49.000
22.98547 50.000
23.00542 57.000
23.02537 51.000
23.04531 46.000
23.06526 40.000
23.08521 58.000
23.10515 49.000
23.12510 38.000
23.14505 39.000
23.16499 44.000
23.18494 48.000
23.20489 43.000
23.22484 46.000
23.24478 46.000
23.26473 38.000
23.28468 43.000
23.30462 38.000
23.32457 54.000
23.34452 39.000
23.36446 32.000
23.38441 38.000
23.40436 52.000
23.42431 45.000
23.44425 41.000
23.46420 47.000
23.48415 45.000
23.50409 47.000
23.52404 47.000
23.54399 42.000
23.56393 51.000
23.58388 48.000
23.60383 41.000
23.62377 50.000
23.64372 41.000
23.66367 43.000
23.68362 50.000
23.70356 55.000
23.72351 43.000
23.74346 47.000
23.76340 44.000
23.78335 50.000
23.80330 55.000
23.82324 59.000
23.84319 50.000
23.86314 44.000
23.88309 49.000
23.90303 55.000
23.92298 48.000
23.94293 51.000
23.96287 50.000
23.98282 47.000
24.00277 43.000
24.02271 39.000
24.04266 50.000
24.06261 63.000
24.08256 34.000
24.10250 57.000
24.12245 42.000
24.14240 56.000
24.16234 51.000
24.18229 40.000
24.20224 44.000
24.22218 54.000
24.24213 45.000
24.26208 39.000
24.28202 46.000
24.30197 46.000
24.32192 58.000
24.34187 36.000
24.36181 47.000
24.38176 41.000
24.40171 46.000
24.42165 45.000
24.44160 53.000
24.46155 46.000
24.48149 49.000
24.50144 48.000
24.52139 43.000
24.54134 62.000
24.56128 46.000
24.58123 40.000
24.60118 48.000
24.62112 60.000
24.64107 44.000
24.66102 53.000
24.68096 49.000
24.70091 30.000
24.72086 58.000
24.74080 40.000
24.76075 40.000
24.78070 45.000
24.80065 39.000
24.82059 59.000
24.84054 53.000
24.86049 44.000
24.88043 39.000
24.90038 58.000
24.92033 47.000
24.94027 56.000
24.96022 50.000
24.98017 59.000
25.00012 44.000
25.02006 53.000
25.04001 72.000
25.05996 59.000
25.07990 44.000
25.09985 49.000
25.11980 42.000
25.13974 49.000
25.15969 54.000
25.17964 55.000
25.19958 51.000
25.21953 53.000
25.23948 59.000
25.25943 47.000
25.27937 55.000
25.29932 53.000
25.31927 52.000
25.33921 53.000
25.35916 48.000
25.37911 58.000
25.39905 50.000
25.41900 45.000
25.43895 55.000
25.45890 52.000
25.47884 45.000
25.49879 58.000
25.51874 54.000
25.53868 50.000
25.55863 51.000
25.57858 55.000
25.59852 45.000
25.61847 51.000
25.63842 48.000
25.65837 59.000
25.67831 43.000
25.69826 51.000
25.71821 33.000
25.73815 54.000
25.75810 58.000
25.77805 58.000
25.79799 42.000
25.81794 53.000
25.83789 48.000
25.85783 52.000
25.87778 39.000
25.89773 49.000
25.91768 48.000
25.93762 51.000
25.95757 48.000
25.97752 48.000
25.99746 60.000
26.01741 45.000
26.03736 56.000
26.05730 51.000
26.07725 39.000
26.09720 48.000
26.11715 61.000
26.13709 38.000
26.15704 52.000
26.17699 37.000
26.19693 50.000
26.21688 39.000
26.23683 50.000
26.25677 62.000
26.27672 44.000
26.29667 44.000
26.31661 56.000
26.33656 49.000
26.35651 67.000
26.37646 60.000
26.39640 49.000
26.41635 58.000
26.43630 53.000
26.45624 55.000
26.47619 57.000
26.49614 62.000
26.51608 53.000
26.53603 47.000
26.55598 53.000
26.57593 62.000
26.59587 63.000
26.61582 38.000
26.63577 47.000
26.65571 49.000
26.67566 49.000
26.69561 59.000
26.71555 55.000
26.73550 57.000
26.75545 49.000
26.77539 57.000
26.79534 44.000
26.81529 57.000
26.83524 54.000
26.85518 47.000
26.87513 47.000
26.89508 63.000
26.91502 38.000
26.93497 46.000
26.95492 55.000
26.97486 37.000
26.99481 42.000
27.01476 69.000
27.03471 50.000
27.05465 62.000
27.07460 62.000
27.09455 67.000
27.11449 70.000
27.13444 49.000
27.15439 40.000
27.17433 50.000
27.19428 36.000
27.21423 59.000
27.23417 49.000
27.25412 59.000
27.27407 57.000
27.29402 48.000
27.31396 41.000
27.33391 37.000
27.35386 48.000
27.37380 62.000
27.39375 57.000
27.41370 50.000
27.43364 50.000
27.45359 46.000
27.47354 63.000
27.49349 62.000
27.51343 52.000
27.53338 61.000
27.55333 56.000
27.57327 54.000
27.59322 57.000
27.61317 54.000
27.63311 56.000
27.65306 52.000
27.67301 71.000
27.69296 68.000
27.71290 53.000
27.73285 51.000
27.75280 44.000
27.77274 63.000
27.79269 61.000
27.81264 54.000
27.83258 56.000
27.85253 54.000
27.87248 48.000
27.89242 59.000
27.91237 45.000
27.93232 56.000
27.95227 53.000
27.97221 60.000
27.99216 53.000
28.01211 48.000
28.03205 60.000
28.05200 53.000
28.07195 49.000
28.09189 55.000
28.11184 66.000
28.13179 52.000
28.15174 57.000
28.17168 60.000
28.19163 56.000
28.21158 53.000
28.23152 59.000
28.25147 63.000
28.27142 61.000
28.29136 44.000
28.31131 67.000
28.33126 50.000
28.35120 53.000
28.37115 65.000
28.39110 61.000
28.41105 58.000
28.43099 54.000
28.45094 56.000
28.47089 47.000
28.49083 44.000
28.51078 52.000
28.53073 59.000
28.55067 50.000
28.57062 47.000
28.59057 64.000
28.61052 60.000
28.63046 61.000
28.65041 63.000
28.67036 68.000
28.69030 54.000
28.71025 60.000
28.73020 62.000
28.75014 53.000
28.77009 50.000
28.79004 63.000
28.80998 62.000
28.82993 49.000
28.84988 64.000
28.86983 63.000
28.88977 84.000
28.90972 57.000
28.92967 63.000
28.94961 67.000
28.96956 49.000
28.98951 64.000
29.00945 57.000
29.02940 55.000
29.04935 71.000
29.06930 69.000
29.08924 53.000
29.10919 65.000
29.12914 52.000
29.14908 58.000
29.16903 57.000
29.18898 63.000
29.20892 55.000
29.22887 68.000
29.24882 55.000
29.26877 53.000
29.28871 56.000
29.30866 59.000
29.32861 63.000
29.34855 78.000
29.36850 77.000
29.38845 44.000
29.40839 59.000
29.42834 66.000
29.44829 61.000
29.46823 59.000
29.48818 56.000
29.50813 64.000
29.52808 54.000
29.54802 73.000
29.56797 55.000
29.58792 68.000
29.60786 64.000
29.62781 59.000
29.64776 72.000
29.66770 59.000
29.68765 51.000
29.70760 75.000
29.72755 68.000
29.74749 65.000
29.76744 72.000
29.78739 70.000
29.80733 74.000
29.82728 80.000
29.84723 93.000
29.86717 83.000
29.88712 97.000
29.90707 118.000
29.92701 100.000
29.94696 109.000
29.96691 135.000
29.98686 158.000
30.00680 213.000
30.02675 224.000
30.04670 289.000
30.06664 369.000
30.08659 424.000
30.10654 516.000
30.12648 610.000
30.14643 667.000
30.16638 715.000
30.18633 753.000
30.20627 713.000
30.22622 740.000
30.24617 625.000
30.26611 541.000
30.28606 437.000
30.30601 371.000
30.32595 279.000
30.34590 196.000
30.36585 181.000
30.38579 132.000
30.40574 129.000
30.42569 125.000
30.44564 79.000
30.46558 76.000
30.48553 83.000
30.50548 81.000
30.52542 82.000
30.54537 64.000
30.56532 64.000
30.58526 70.000
30.60521 61.000
30.62516 69.000
30.64511 71.000
30.66505 58.000
30.68500 77.000
30.70495 55.000
30.72489 69.000
30.74484 57.000
30.76479 60.000
30.78473 76.000
30.80468 63.000
30.82463 56.000
30.84458 66.000
30.86452 74.000
30.88447 71.000
30.90442 60.000
30.92436 72.000
30.94431 68.000
30.96426 68.000
30.98420 60.000
31.00415 67.000
31.02410 52.000
31.04404 57.000
31.06399 61.000
31.08394 73.000
31.10389 63.000
31.12383 61.000
31.14378 60.000
31.16373 64.000
31.18367 72.000
31.20362 51.000
31.22357 60.000
31.24351 67.000
31.26346 67.000
31.28341 58.000
31.30336 77.000
31.32330 76.000
31.34325 62.000
31.36320 63.000
31.38314 66.000
31.40309 63.000
31.42304 67.000
31.44298 61.000
31.46293 65.000
31.48288 67.000
31.50282 63.000
31.52277 68.000
31.54272 63.000
31.56267 81.000
31.58261 75.000
31.60256 63.000
31.62251 69.000
31.64245 67.000
31.66240 61.000
31.68235 70.000
31.70229 79.000
31.72224 75.000
31.74219 84.000
31.76214 90.000
31.78208 84.000
31.80203 80.000
31.82198 88.000
31.84192 60.000
31.86187 64.000
31.88182 69.000
31.90176 72.000
31.92171 77.000
31.94166 86.000
31.96160 73.000
31.98155 83.000
32.00150 75.000
32.02145 62.000
32.04139 79.000
32.06134 74.000
32.08129 58.000
32.10123 79.000
32.12118 74.000
32.14113 74.000
32.16107 80.000
32.18102 79.000
32.20097 97.000
32.22092 90.000
32.24086 105.000
32.26081 113.000
32.28076 99.000
32.30070 128.000
32.32065 104.000
32.34060 134.000
32.36054 120.000
32.38049 116.000
32.40044 129.000
32.42039 135.000
32.44033 142.000
32.46028 138.000
32.48023 133.000
32.50017 138.000
32.52012 126.000
32.54007 143.000
32.56001 123.000
32.57996 92.000
32.59991 111.000
32.61985 96.000
32.63980 116.000
32.65975 78.000
32.67970 86.000
32.69964 78.000
32.71959 78.000
32.73954 67.000
32.75948 68.000
32.77943 74.000
32.79938 61.000
32.81932 66.000
32.83927 62.000
32.85922 54.000
32.87917 61.000
32.89911 59.000
32.91906 72.000
32.93901 43.000
32.95895 70.000
32.97890 61.000
32.99885 69.000
33.01879 64.000
33.03874 62.000
33.05869 51.000
33.07863 47.000
33.09858 49.000
33.11853 37.000
33.13848 83.000
33.15842 48.000
33.17837 62.000
33.19832 55.000
33.21826 45.000
33.23821 71.000
33.25816 55.000
33.27810 56.000
33.29805 64.000
33.31800 65.000
33.33795 60.000
33.35789 65.000
33.37784 54.000
33.39779 56.000
33.41773 57.000
33.43768 60.000
33.45763 70.000
33.47757 56.000
33.49752 58.000
33.51747 46.000
33.53741 67.000
33.55736 58.000
33.57731 60.000
33.59726 71.000
33.61720 56.000
33.63715 64.000
33.65710 56.000
33.67704 54.000
33.69699 60.000
33.71694 65.000
33.73688 56.000
33.75683 60.000
33.77678 68.000
33.79673 61.000
33.81667 63.000
33.83662 74.000
33.85657 63.000
33.87651 74.000
33.89646 61.000
33.91641 64.000
33.93635 79.000
33.95630 79.000
33.97625 74.000
33.99620 86.000
34.01614 68.000
34.03609 78.000
34.05604 64.000
34.07598 60.000
34.09593 61.000
34.11588 71.000
34.13582 67.000
34.15577 59.000
34.17572 72.000
34.19566 89.000
34.21561 64.000
34.23556 80.000
34.25551 70.000
34.27545 83.000
34.29540 73.000
34.31535 87.000
34.33529 70.000
34.35524 73.000
34.37519 78.000
34.39513 93.000
34.41508 68.000
34.43503 70.000
34.45498 68.000
34.47492 101.000
34.49487 85.000
34.51482 87.000
34.53476 78.000
34.55471 90.000
34.57466 81.000
34.59460 79.000
34.61455 64.000
34.63450 81.000
34.65444 78.000
34.67439 70.000
34.69434 70.000
34.71429 77.000
34.73423 70.000
34.75418 92.000
34.77413 80.000
34.79407 78.000
34.81402 109.000
34.83397 74.000
34.85391 99.000
34.87386 74.000
34.89381 82.000
34.91376 90.000
34.93370 78.000
34.95365 109.000
34.97360 96.000
34.99354 81.000
35.01349 102.000
35.03344 101.000
35.05338 89.000
35.07333 121.000
35.09328 123.000
35.11322 133.000
35.13317 136.000
35.15312 147.000
35.17307 159.000
35.19301 158.000
35.21296 189.000
35.23291 247.000
35.25285 289.000
35.27280 328.000
35.29275 419.000
35.31269 475.000
35.33264 490.000
35.35259 653.000
35.37254 803.000
35.39248 869.000
35.41243 1141.000
35.43238 1190.000
35.45232 1394.000
35.47227 1579.000
35.49222 1790.000
35.51216 1935.000
35.53211 1986.000
35.55206 2161.000
35.57201 2117.000
35.59195 2193.000
35.61190 2045.000
35.63185 1880.000
35.65179 1575.000
35.67174 1320.000
35.69169 1082.000
35.71163 958.000
35.73158 692.000
35.75153 546.000
35.77147 416.000
35.79142 313.000
35.81137 256.000
35.83132 192.000
35.85126 172.000
35.87121 192.000
35.89116 145.000
35.91110 128.000
35.93105 134.000
35.95100 118.000
35.97094 105.000
35.99089 118.000
36.01084 103.000
36.03079 97.000
36.05073 91.000
36.07068 94.000
36.09063 86.000
36.11057 89.000
36.13052 96.000
36.15047 80.000
36.17041 93.000
36.19036 85.000
36.21031 99.000
36.23025 74.000
36.25020 82.000
36.27015 85.000
36.29010 79.000
36.31004 83.000
36.32999 69.000
36.34994 85.000
36.36988 78.000
36.38983 88.000
36.40978 102.000
36.42972 94.000
36.44967 82.000
36.46962 100.000
36.48957 111.000
36.50951 114.000
36.52946 113.000
36.54941 134.000
36.56935 175.000
36.58930 177.000
36.60925 213.000
36.62919 201.000
36.64914 210.000
36.66909 221.000
36.68903 235.000
36.70898 228.000
36.72893 217.000
36.74888 197.000
36.76882 201.000
36.78877 175.000
36.80872 159.000
36.82866 131.000
36.84861 151.000
36.86856 121.000
36.88850 113.000
36.90845 133.000
36.92840 123.000
36.94835 106.000
36.96829 97.000
36.98824 128.000
37.00819 145.000
37.02813 157.000
37.04808 123.000
37.06803 163.000
37.08797 155.000
37.10792 165.000
37.12787 188.000
37.14781 183.000
37.16776 208.000
37.18771 219.000
37.20766 191.000
37.22760 217.000
37.24755 209.000
37.26750 182.000
37.28744 168.000
37.30739 138.000
37.32734 129.000
37.34728 119.000
37.36723 112.000
37.38718 78.000
37.40713 79.000
37.42707 60.000
37.44702 73.000
37.46697 64.000
37.48691 55.000
37.50686 52.000
37.52681 86.000
37.54675 48.000
37.56670 76.000
37.58665 64.000
37.60660 51.000
37.62654 53.000
37.64649 57.000
37.66644 47.000
37.68638 49.000
37.70633 47.000
37.72628 59.000
37.74622 46.000
37.76617 59.000
37.78612 54.000
37.80606 62.000
37.82601 59.000
37.84596 60.000
37.86591 60.000
37.88585 64.000
37.90580 58.000
37.92575 62.000
37.94569 66.000
37.96564 62.000
37.98559 64.000
38.00553 54.000
38.02548 60.000
38.04543 52.000
38.06538 56.000
38.08532 50.000
38.10527 49.000
38.12522 56.000
38.14516 50.000
38.16511 52.000
38.18506 53.000
38.20500 51.000
38.22495 53.000
38.24490 33.000
38.26484 55.000
38.28479 51.000
38.30474 54.000
38.32469 48.000
38.34463 60.000
38.36458 44.000
38.38453 43.000
38.40447 52.000
38.42442 49.000
38.44437 51.000
38.46431 46.000
38.48426 42.000
38.50421 59.000
38.52416 57.000
38.54410 48.000
38.56405 57.000
38.58400 55.000
38.60394 49.000
38.62389 48.000
38.64384 50.000
38.66378 55.000
38.68373 41.000
38.70368 55.000
38.72362 49.000
38.74357 54.000
38.76352 67.000
38.78347 50.000
38.80341 56.000
38.82336 43.000
38.84331 52.000
38.86325 42.000
38.88320 49.000
38.90315 62.000
38.92309 58.000
38.94304 86.000
38.96299 66.000
38.98294 50.000
39.00288 61.000
39.02283 77.000
39.04278 66.000
39.06272 53.000
39.08267 65.000
39.10262 80.000
39.12256 74.000
39.14251 81.000
39.16246 74.000
39.18241 62.000
39.20235 61.000
39.22230 57.000
39.24225 66.000
39.26219 59.000
39.28214 54.000
39.30209 66.000
39.32203 49.000
39.34198 59.000
39.36193 47.000
39.38187 61.000
39.40182 79.000
39.42177 61.000
39.44172 45.000
39.46166 53.000
39.48161 58.000
39.50156 33.000
39.52150 69.000
39.54145 61.000
39.56140 62.000
39.58134 53.000
39.60129 52.000
39.62124 48.000
39.64119 59.000
39.66113 60.000
39.68108 51.000
39.70103 44.000
39.72097 45.000
39.74092 41.000
39.76087 61.000
39.78081 46.000
39.80076 48.000
39.82071 68.000
39.84065 57.000
39.86060 56.000
39.88055 58.000
39.90050 64.000
39.92044 46.000
39.94039 64.000
39.96034 48.000
39.98028 42.000
40.00023 53.000
40.02018 32.000
40.04012 44.000
40.06007 41.000
40.08002 45.000
40.09997 57.000
40.11991 63.000
40.13986 54.000
40.15981 57.000
40.17975 49.000
40.19970 54.000
40.21965 53.000
40.23959 32.000
40.25954 60.000
40.27949 64.000
40.29943 63.000
40.31938 55.000
40.33933 46.000
40.35928 51.000
40.37922 57.000
40.39917 44.000
40.41912 55.000
40.43906 74.000
40.45901 60.000
40.47896 41.000
40.49890 58.000
40.51885 41.000
40.53880 57.000
40.55875 49.000
40.57869 57.000
40.59864 61.000
40.61859 58.000
40.63853 63.000
40.65848 66.000
40.67843 46.000
40.69837 61.000
40.71832 69.000
40.73827 75.000
40.75822 72.000
40.77816 75.000
40.79811 71.000
40.81806 68.000
40.83800 59.000
40.85795 87.000
40.87790 64.000
40.89784 72.000
40.91779 66.000
40.93774 80.000
40.95768 74.000
40.97763 86.000
40.99758 82.000
41.01753 98.000
41.03747 95.000
41.05742 90.000
41.07737 101.000
41.09731 121.000
41.11726 122.000
41.13721 118.000
41.15715 134.000
41.17710 123.000
41.19705 144.000
41.21700 171.000
41.23694 192.000
41.25689 263.000
41.27684 267.000
41.29678 373.000
41.31673 406.000
41.33668 506.000
41.35662 604.000
41.37657 712.000
41.39652 853.000
41.41646 853.000
41.43641 804.000
41.45636 765.000
41.47631 725.000
41.49625 658.000
41.51620 609.000
41.53615 580.000
41.55609 506.000
41.57604 413.000
41.59599 341.000
41.61593 283.000
41.63588 255.000
41.65583 215.000
41.67578 183.000
41.69572 189.000
41.71567 157.000
41.73562 169.000
41.75556 133.000
41.77551 101.000
41.79546 117.000
41.81540 99.000
41.83535 114.000
41.85530 96.000
41.87524 101.000
41.89519 78.000
41.91514 74.000
41.93509 78.000
41.95503 81.000
41.97498 87.000
41.99493 78.000
42.01487 80.000
42.03482 73.000
42.05477 75.000
42.07471 63.000
42.09466 74.000
42.11461 62.000
42.13456 74.000
42.15450 69.000
42.17445 69.000
42.19440 87.000
42.21434 66.000
42.23429 57.000
42.25424 72.000
42.27418 78.000
42.29413 79.000
42.31408 57.000
42.33403 55.000
42.35397 64.000
42.37392 64.000
42.39387 57.000
42.41381 53.000
42.43376 43.000
42.45371 64.000
42.47365 60.000
42.49360 86.000
42.51355 59.000
42.53349 73.000
42.55344 66.000
42.57339 60.000
42.59334 59.000
42.61328 61.000
42.63323 60.000
42.65318 59.000
42.67312 74.000
42.69307 67.000
42.71302 75.000
42.73296 60.000
42.75291 77.000
42.77286 63.000
42.79281 76.000
42.81275 83.000
42.83270 87.000
42.85265 94.000
42.87259 98.000
42.89254 90.000
42.91249 125.000
42.93243 108.000
42.95238 128.000
42.97233 136.000
42.99227 169.000
43.01222 150.000
43.03217 212.000
43.05212 227.000
43.07206 226.000
43.09201 277.000
43.11196 307.000
43.13190 346.000
43.15185 380.000
43.17180 419.000
43.19174 436.000
43.21169 442.000
43.23164 420.000
43.25159 462.000
43.27153 470.000
43.29148 445.000
43.31143 442.000
43.33137 348.000
43.35132 309.000
43.37127 268.000
43.39121 246.000
43.41116 211.000
43.43111 191.000
43.45105 157.000
43.47100 115.000
43.49095 121.000
43.51090 117.000
43.53084 81.000
43.55079 75.000
43.57074 80.000
43.59068 73.000
43.61063 48.000
43.63058 51.000
43.65052 74.000
43.67047 64.000
43.69042 54.000
43.71037 65.000
43.73031 65.000
43.75026 60.000
43.77021 67.000
43.79015 53.000
43.81010 61.000
43.83005 54.000
43.84999 54.000
43.86994 48.000
43.88989 57.000
43.90984 41.000
43.92978 68.000
43.94973 65.000
43.96968 64.000
43.98962 59.000
44.00957 60.000
44.02952 54.000
44.04946 60.000
44.06941 61.000
44.08936 47.000
44.10930 67.000
44.12925 55.000
44.14920 49.000
44.16915 41.000
44.18909 54.000
44.20904 67.000
44.22899 50.000
44.24893 50.000
44.26888 53.000
44.28883 49.000
44.30877 52.000
44.32872 53.000
44.34867 50.000
44.36862 60.000
44.38856 53.000
44.40851 58.000
44.42846 70.000
44.44840 67.000
44.46835 62.000
44.48830 75.000
44.50824 71.000
44.52819 76.000
44.54814 72.000
44.56808 81.000
44.58803 92.000
44.60798 85.000
44.62793 90.000
44.64787 85.000
44.66782 93.000
44.68777 92.000
44.70771 89.000
44.72766 115.000
44.74761 111.000
44.76755 79.000
44.78750 107.000
44.80745 68.000
44.82740 84.000
44.84734 67.000
44.86729 77.000
44.88724 77.000
44.90718 56.000
44.92713 63.000
44.94708 64.000
44.96702 60.000
44.98697 50.000
45.00692 63.000
45.02686 52.000
45.04681 63.000
45.06676 43.000
45.08671 49.000
45.10665 44.000
45.12660 42.000
45.14655 42.000
45.16649 54.000
45.18644 44.000
45.20639 42.000
45.22633 62.000
45.24628 59.000
45.26623 39.000
45.28618 46.000
45.30612 34.000
45.32607 44.000
45.34602 52.000
45.36596 53.000
45.38591 56.000
45.40586 39.000
45.42580 50.000
45.44575 33.000
45.46570 47.000
45.48565 42.000
45.50559 42.000
45.52554 59.000
45.54549 50.000
45.56543 38.000
45.58538 50.000
45.60533 49.000
45.62527 41.000
45.64522 41.000
45.66517 41.000
45.68511 44.000
45.70506 50.000
45.72501 39.000
45.74496 54.000
45.76490 45.000
45.78485 43.000
45.80480 47.000
45.82474 46.000
45.84469 50.000
45.86464 43.000
45.88458 42.000
45.90453 53.000
45.92448 36.000
45.94443 44.000
45.96437 53.000
45.98432 38.000
46.00427 52.000
46.02421 50.000
46.04416 45.000
46.06411 47.000
46.08405 53.000
46.10400 46.000
46.12395 34.000
46.14389 45.000
46.16384 52.000
46.18379 51.000
46.20374 52.000
46.22368 48.000
46.24363 40.000
46.26358 48.000
46.28352 45.000
46.30347 40.000
46.32342 36.000
46.34336 54.000
46.36331 36.000
46.38326 42.000
46.40321 42.000
46.42315 40.000
46.44310 42.000
46.46305 38.000
46.48299 53.000
46.50294 59.000
46.52289 55.000
46.54283 49.000
46.56278 45.000
46.58273 67.000
46.60267 50.000
46.62262 46.000
46.64257 44.000
46.66252 50.000
46.68246 39.000
46.70241 43.000
46.72236 51.000
46.74230 37.000
46.76225 39.000
46.78220 51.000
46.80214 39.000
46.82209 37.000
46.84204 38.000
46.86199 46.000
46.88193 46.000
46.90188 34.000
46.92183 37.000
46.94177 37.000
46.96172 43.000
46.98167 33.000
47.00161 51.000
47.02156 44.000
47.04151 47.000
47.06146 50.000
47.08140 54.000
47.10135 41.000
47.12130 58.000
47.14124 41.000
47.16119 49.000
47.18114 44.000
47.20108 50.000
47.22103 46.000
47.24098 44.000
47.26092 44.000
47.28087 52.000
47.30082 49.000
47.32077 58.000
47.34071 44.000
47.36066 55.000
47.38061 63.000
47.40055 43.000
47.42050 54.000
47.44045 48.000
47.46039 47.000
47.48034 45.000
47.50029 44.000
47.52024 42.000
47.54018 50.000
47.56013 48.000
47.58008 34.000
47.60002 36.000
47.61997 42.000
47.63992 57.000
47.65986 49.000
47.67981 41.000
47.69976 47.000
47.71970 47.000
47.73965 54.000
47.75960 61.000
47.77955 41.000
47.79949 47.000
47.81944 35.000
47.83939 38.000
47.85933 49.000
47.87928 48.000
47.89923 33.000
47.91917 53.000
47.93912 48.000
47.95907 47.000
47.97902 32.000
47.99896 34.000
48.01891 44.000
48.03886 35.000
48.05880 44.000
48.07875 54.000
48.09870 39.000
48.11864 54.000
48.13859 40.000
48.15854 58.000
48.17848 44.000
48.19843 41.000
48.21838 62.000
48.23833 56.000
48.25827 48.000
48.27822 66.000
48.29817 78.000
48.31811 58.000
48.33806 67.000
48.35801 84.000
48.37795 61.000
48.39790 71.000
48.41785 62.000
48.43780 50.000
48.45774 64.000
48.47769 72.000
48.49764 59.000
48.51758 60.000
48.53753 70.000
48.55748 64.000
48.57742 54.000
48.59737 66.000
48.61732 61.000
48.63726 52.000
48.65721 58.000
48.67716 38.000
48.69711 46.000
48.71705 49.000
48.73700 58.000
48.75695 46.000
48.77689 52.000
48.79684 57.000
48.81679 38.000
48.83673 47.000
48.85668 44.000
48.87663 53.000
48.89658 38.000
48.91652 46.000
48.93647 46.000
48.95642 46.000
48.97636 47.000
48.99631 50.000
49.01626 38.000
49.03620 32.000
49.05615 48.000
49.07610 49.000
49.09605 44.000
49.11599 62.000
49.13594 44.000
49.15589 41.000
49.17583 31.000
49.19578 40.000
49.21573 43.000
49.23567 44.000
49.25562 50.000
49.27557 46.000
49.29551 48.000
49.31546 50.000
49.33541 50.000
49.35536 32.000
49.37530 50.000
49.39525 38.000
49.41520 36.000
49.43514 45.000
49.45509 45.000
49.47504 41.000
49.49498 46.000
49.51493 49.000
49.53488 57.000
49.55483 50.000
49.57477 50.000
49.59472 46.000
49.61467 56.000
49.63461 52.000
49.65456 58.000
49.67451 51.000
49.69445 43.000
49.71440 42.000
49.73435 39.000
49.75429 47.000
49.77424 45.000
49.79419 56.000
49.81414 34.000
49.83408 54.000
49.85403 39.000
49.87398 55.000
49.89392 50.000
49.91387 43.000
49.93382 41.000
49.95376 42.000
49.97371 44.000
49.99366 52.000
50.01361 45.000
50.03355 41.000
50.05350 42.000
50.07345 43.000
50.09339 41.000
50.11334 22.000
50.13329 56.000
50.15323 47.000
50.17318 53.000
50.19313 37.000
50.21307 31.000
50.23302 47.000
50.25297 38.000
50.27292 46.000
50.29286 50.000
50.31281 32.000
50.33276 40.000
50.35270 44.000
50.37265 33.000
50.39260 39.000
50.41254 56.000
50.43249 40.000
50.45244 40.000
50.47239 36.000
50.49233 45.000
50.51228 38.000
50.53223 45.000
50.55217 42.000
50.57212 34.000
50.59207 41.000
50.61201 30.000
50.63196 41.000
50.65191 46.000
50.67186 43.000
50.69180 50.000
50.71175 41.000
50.73170 41.000
50.75164 42.000
50.77159 54.000
50.79154 54.000
50.81148 45.000
50.83143 38.000
50.85138 31.000
50.87132 34.000
50.89127 41.000
50.91122 34.000
50.93117 42.000
50.95111 33.000
50.97106 49.000
50.99101 43.000
51.01095 38.000
51.03090 42.000
51.05085 38.000
51.07079 50.000
51.09074 40.000
51.11069 42.000
51.13064 53.000
51.15058 44.000
51.17053 41.000
51.19048 64.000
51.21042 51.000
51.23037 38.000
51.25032 37.000
51.27026 45.000
51.29021 47.000
51.31016 36.000
51.33010 35.000
51.35005 56.000
51.37000 51.000
51.38995 51.000
51.40989 42.000
51.42984 47.000
51.44979 55.000
51.46973 59.000
51.48968 44.000
51.50963 48.000
51.52957 40.000
51.54952 54.000
51.56947 66.000
51.58942 50.000
51.60936 54.000
51.62931 41.000
51.64926 43.000
51.66920 52.000
51.68915 49.000
51.70910 45.000
51.72904 54.000
51.74899 54.000
51.76894 41.000
51.78888 52.000
51.80883 46.000
51.82878 47.000
51.84873 48.000
51.86867 42.000
51.88862 32.000
51.90857 39.000
51.92851 56.000
51.94846 42.000
51.96841 49.000
51.98835 46.000
52.00830 58.000
52.02825 49.000
52.04820 48.000
52.06814 46.000
52.08809 55.000
52.10804 55.000
52.12798 57.000
52.14793 65.000
52.16788 56.000
52.18782 46.000
52.20777 45.000
52.22772 74.000
52.24767 56.000
52.26761 52.000
52.28756 72.000
52.30751 71.000
52.32745 61.000
52.34740 75.000
52.36735 72.000
52.38729 61.000
52.40724 63.000
52.42719 90.000
52.44713 85.000
52.46708 73.000
52.48703 92.000
52.50698 102.000
52.52692 101.000
52.54687 112.000
52.56682 122.000
52.58676 142.000
52.60671 142.000
52.62666 133.000
52.64660 151.000
52.66655 171.000
52.68650 155.000
52.70645 173.000
52.72639 137.000
52.74634 144.000
52.76629 126.000
52.78623 121.000
52.80618 112.000
52.82613 118.000
52.84607 127.000
52.86602 91.000
52.88597 80.000
52.90591 67.000
52.92586 82.000
52.94581 96.000
52.96576 72.000
52.98570 73.000
53.00565 75.000
53.02560 57.000
53.04554 72.000
53.06549 68.000
53.08544 47.000
53.10538 60.000
53.12533 59.000
53.14528 59.000
53.16523 75.000
53.18517 54.000
53.20512 61.000
53.22507 72.000
53.24501 68.000
53.26496 86.000
53.28491 72.000
53.30485 57.000
53.32480 81.000
53.34475 77.000
53.36469 70.000
53.38464 76.000
53.40459 88.000
53.42454 89.000
53.44448 97.000
53.46443 110.000
53.48438 112.000
53.50432 139.000
53.52427 121.000
53.54422 166.000
53.56416 159.000
53.58411 154.000
53.60406 184.000
53.62401 177.000
53.64395 199.000
53.66390 164.000
53.68385 155.000
53.70379 188.000
53.72374 178.000
53.74369 162.000
53.76363 174.000
53.78358 144.000
53.80353 125.000
53.82348 115.000
53.84342 119.000
53.86337 89.000
53.88332 93.000
53.90326 92.000
53.92321 87.000
53.94316 97.000
53.96310 69.000
53.98305 64.000
54.00300 57.000
54.02294 69.000
54.04289 51.000
54.06284 41.000
54.08279 56.000
54.10273 52.000
54.12268 43.000
54.14263 45.000
54.16257 47.000
54.18252 36.000
54.20247 63.000
54.22241 56.000
54.24236 39.000
54.26231 56.000
54.28226 55.000
54.30220 38.000
54.32215 51.000
54.34210 52.000
54.36204 49.000
54.38199 50.000
54.40194 48.000
54.42188 53.000
54.44183 52.000
54.46178 46.000
54.48172 43.000
54.50167 54.000
54.52162 62.000
54.54157 51.000
54.56151 50.000
54.58146 47.000
54.60141 48.000
54.62135 36.000
54.64130 51.000
54.66125 49.000
54.68119 55.000
54.70114 48.000
54.72109 51.000
54.74104 57.000
54.76098 56.000
54.78093 35.000
54.80088 54.000
54.82082 48.000
54.84077 42.000
54.86072 47.000
54.88066 49.000
54.90061 54.000
54.92056 43.000
54.94050 45.000
54.96045 36.000
54.98040 60.000
55.00035 55.000
55.02029 40.000
55.04024 58.000
55.06019 57.000
55.08013 41.000
55.10008 40.000
55.12003 46.000
55.13997 55.000
55.15992 42.000
55.17987 47.000
55.19982 52.000
55.21976 39.000
55.23971 50.000
55.25966 48.000
55.27960 57.000
55.29955 45.000
55.31950 42.000
55.33944 41.000
55.35939 56.000
55.37934 57.000
55.39929 57.000
55.41923 51.000
55.43918 47.000
55.45913 46.000
55.47907 43.000
55.49902 52.000
55.51897 49.000
55.53891 51.000
55.55886 54.000
55.57881 40.000
55.59875 33.000
55.61870 27.000
55.63865 46.000
55.65860 52.000
55.67854 42.000
55.69849 53.000
55.71844 44.000
55.73838 53.000
55.75833 59.000
55.77828 59.000
55.79822 61.000
55.81817 34.000
55.83812 50.000
55.85807 37.000
55.87801 45.000
55.89796 53.000
55.91791 41.000
55.93785 50.000
55.95780 54.000
55.97775 55.000
55.99769 58.000
56.01764 52.000
56.03759 51.000
56.05753 46.000
56.07748 62.000
56.09743 57.000
56.11738 45.000
56.13732 43.000
56.15727 50.000
56.17722 43.000
56.19716 58.000
56.21711 42.000
56.23706 63.000
56.25700 56.000
56.27695 52.000
56.29690 47.000
56.31685 49.000
56.33679 76.000
56.35674 50.000
56.37669 51.000
56.39663 62.000
56.41658 57.000
56.43653 67.000
56.45647 57.000
56.47642 65.000
56.49637 74.000
56.51631 63.000
56.53626 62.000
56.55621 61.000
56.57616 69.000
56.59610 68.000
56.61605 84.000
56.63600 79.000
56.65594 109.000
56.67589 94.000
56.69584 87.000
56.71578 95.000
56.73573 109.000
56.75568 109.000
56.77563 131.000
56.79557 115.000
56.81552 130.000
56.83547 149.000
56.85541 146.000
56.87536 169.000
56.89531 221.000
56.91525 219.000
56.93520 234.000
56.95515 231.000
56.97510 260.000
56.99504 333.000
57.01499 324.000
57.03494 378.000
57.05488 408.000
57.07483 412.000
57.09478 443.000
57.11472 508.000
57.13467 558.000
57.15462 520.000
57.17456 518.000
57.19451 522.000
57.21446 552.000
57.23441 611.000
57.25435 547.000
57.27430 592.000
57.29425 492.000
57.31419 515.000
57.33414 436.000
57.35409 423.000
57.37403 363.000
57.39398 386.000
57.41393 311.000
57.43388 288.000
57.45382 233.000
57.47377 220.000
57.49372 187.000
57.51366 175.000
57.53361 142.000
57.55356 137.000
57.57350 140.000
57.59345 107.000
57.61340 101.000
57.63334 106.000
57.65329 94.000
57.67324 77.000
57.69319 68.000
57.71313 74.000
57.73308 60.000
57.75303 68.000
57.77297 66.000
57.79292 72.000
57.81287 51.000
57.83281 75.000
57.85276 72.000
57.87271 75.000
57.89266 60.000
57.91260 53.000
57.93255 55.000
57.95250 46.000
57.97244 65.000
57.99239 57.000
58.01234 55.000
58.03228 67.000
58.05223 53.000
58.07218 52.000
58.09212 40.000
58.11207 62.000
58.13202 49.000
58.15197 43.000
58.17191 47.000
58.19186 49.000
58.21181 55.000
58.23175 42.000
58.25170 53.000
58.27165 49.000
58.29159 43.000
58.31154 48.000
58.33149 43.000
58.35144 52.000
58.37138 36.000
58.39133 56.000
58.41128 45.000
58.43122 45.000
58.45117 43.000
58.47112 35.000
58.49106 40.000
58.51101 54.000
58.53096 47.000
58.55090 62.000
58.57085 44.000
58.59080 40.000
58.61075 58.000
58.63069 58.000
58.65064 45.000
58.67059 49.000
58.69053 41.000
58.71048 55.000
58.73043 37.000
58.75037 45.000
58.77032 45.000
58.79027 50.000
58.81022 48.000
58.83016 56.000
58.85011 52.000
58.87006 39.000
58.89000 49.000
58.90995 46.000
58.92990 43.000
58.94984 46.000
58.96979 48.000
58.98974 39.000
59.00969 47.000
59.02963 50.000
59.04958 57.000
59.06953 47.000
59.08947 41.000
59.10942 48.000
59.12937 47.000
59.14931 55.000
59.16926 44.000
59.18921 53.000
59.20915 45.000
59.22910 52.000
59.24905 53.000
59.26900 50.000
59.28894 41.000
59.30889 40.000
59.32884 36.000
59.34878 42.000
59.36873 54.000
59.38868 54.000
59.40862 46.000
59.42857 45.000
59.44852 43.000
59.46847 41.000
59.48841 43.000
59.50836 40.000
59.52831 54.000
59.54825 44.000
59.56820 43.000
59.58815 55.000
59.60809 55.000
59.62804 56.000
59.64799 46.000
59.66793 50.000
59.68788 40.000
59.70783 60.000
59.72778 39.000
59.74772 48.000
59.76767 48.000
59.78762 45.000
59.80756 47.000
59.82751 58.000
59.84746 38.000
59.86740 51.000
59.88735 48.000
59.90730 48.000
59.92725 52.000
59.94719 48.000
59.96714 48.000
59.98709 49.000
60.00703 43.000
60.02698 62.000
60.04693 42.000
60.06687 42.000
60.08682 50.000
60.10677 42.000
60.12671 42.000
60.14666 61.000
60.16661 50.000
60.18656 47.000
60.20650 51.000
60.22645 47.000
60.24640 52.000
60.26634 44.000
60.28629 44.000
60.30624 48.000
60.32618 60.000
60.34613 53.000
60.36608 47.000
60.38603 55.000
60.40597 34.000
60.42592 41.000
60.44587 54.000
60.46581 36.000
60.48576 43.000
60.50571 54.000
60.52565 46.000
60.54560 41.000
60.56555 43.000
60.58550 39.000
60.60544 50.000
60.62539 47.000
60.64534 47.000
60.66528 45.000
60.68523 43.000
60.70518 53.000
60.72512 42.000
60.74507 58.000
60.76502 44.000
60.78496 52.000
60.80491 42.000
60.82486 44.000
60.84481 52.000
60.86475 48.000
60.88470 40.000
60.90465 38.000
60.92459 49.000
60.94454 39.000
60.96449 42.000
60.98443 41.000
61.00438 49.000
61.02433 47.000
61.04428 46.000
61.06422 51.000
61.08417 41.000
61.10412 51.000
61.12406 38.000
61.14401 40.000
61.16396 55.000
61.18390 47.000
61.20385 44.000
61.22380 56.000
61.24374 51.000
61.26369 59.000
61.28364 64.000
61.30359 55.000
61.32353 55.000
61.34348 52.000
61.36343 50.000
61.38337 54.000
61.40332 61.000
61.42327 72.000
61.44321 66.000
61.46316 53.000
61.48311 67.000
61.50306 58.000
61.52300 51.000
61.54295 66.000
61.56290 62.000
61.58284 56.000
61.60279 38.000
61.62274 54.000
61.64268 58.000
61.66263 52.000
61.68258 57.000
61.70252 52.000
61.72247 54.000
61.74242 65.000
61.76237 61.000
61.78231 54.000
61.80226 51.000
61.82221 55.000
61.84215 54.000
61.86210 68.000
61.88205 53.000
61.90199 53.000
61.92194 55.000
61.94189 54.000
61.96184 63.000
61.98178 55.000
62.00173 66.000
62.02168 56.000
62.04162 75.000
62.06157 81.000
62.08152 88.000
62.10146 84.000
62.12141 54.000
62.14136 79.000
62.16131 65.000
62.18125 62.000
62.20120 66.000
62.22115 91.000
62.24109 95.000
62.26104 92.000
62.28099 103.000
62.30093 101.000
62.32088 129.000
62.34083 121.000
62.36077 143.000
62.38072 135.000
62.40067 146.000
62.42062 176.000
62.44056 192.000
62.46051 190.000
62.48046 239.000
62.50040 262.000
62.52035 272.000
62.54030 343.000
62.56024 330.000
62.58019 371.000
62.60014 411.000
62.62009 453.000
62.64003 474.000
62.65998 515.000
62.67993 566.000
62.69987 519.000
62.71982 592.000
62.73977 621.000
62.75971 635.000
62.77966 590.000
62.79961 683.000
62.81955 623.000
62.83950 639.000
62.85945 653.000
62.87940 626.000
62.89934 655.000
62.91929 604.000
62.93924 567.000
62.95918 522.000
62.97913 458.000
62.99908 408.000
63.01902 377.000
63.03897 341.000
63.05892 325.000
63.07887 289.000
63.09881 282.000
63.11876 249.000
63.13871 208.000
63.15865 178.000
63.17860 171.000
63.19855 138.000
63.21849 116.000
63.23844 104.000
63.25839 108.000
63.27833 101.000
63.29828 82.000
63.31823 86.000
63.33818 83.000
63.35812 67.000
63.37807 79.000
63.39802 79.000
63.41796 66.000
63.43791 94.000
63.45786 65.000
63.47780 66.000
63.49775 66.000
63.51770 67.000
63.53765 56.000
63.55759 62.000
63.57754 60.000
63.59749 77.000
63.61743 61.000
63.63738 58.000
63.65733 64.000
63.67727 71.000
63.69722 57.000
63.71717 41.000
63.73712 56.000
63.75706 61.000
63.77701 64.000
63.79696 75.000
63.81690 60.000
63.83685 63.000
63.85680 58.000
63.87674 53.000
63.89669 70.000
63.91664 56.000
63.93658 59.000
63.95653 62.000
63.97648 54.000
63.99643 61.000
64.01637 47.000
64.03632 43.000
64.05627 57.000
64.07621 50.000
64.09616 45.000
64.11611 49.000
64.13605 52.000
64.15600 47.000
64.17595 53.000
64.19590 43.000
64.21584 38.000
64.23579 45.000
64.25574 59.000
64.27568 53.000
64.29563 49.000
64.31558 52.000
64.33552 38.000
64.35547 46.000
64.37542 44.000
64.39536 44.000
64.41531 45.000
64.43526 40.000
64.45521 52.000
64.47515 56.000
64.49510 49.000
64.51505 53.000
64.53499 40.000
64.55494 55.000
64.57489 40.000
64.59483 51.000
64.61478 43.000
64.63473 50.000
64.65468 46.000
64.67462 51.000
64.69457 42.000
64.71452 44.000
64.73446 64.000
64.75441 45.000
64.77436 58.000
64.79430 47.000
64.81425 58.000
64.83420 55.000
64.85414 55.000
64.87409 57.000
64.89404 67.000
64.91399 56.000
64.93393 72.000
64.95388 60.000
64.97383 62.000
64.99377 68.000
65.01372 79.000
65.03367 77.000
65.05361 60.000
65.07356 96.000
65.09351 90.000
65.11346 90.000
65.13340 98.000
65.15335 85.000
65.17330 101.000
65.19324 113.000
65.21319 107.000
65.23314 99.000
65.25308 115.000
65.27303 91.000
65.29298 89.000
65.31293 91.000
65.33287 105.000
65.35282 78.000
65.37277 110.000
65.39271 99.000
65.41266 98.000
65.43261 88.000
65.45255 85.000
65.47250 94.000
65.49245 82.000
65.51239 83.000
65.53234 88.000
65.55229 75.000
65.57224 68.000
65.59218 72.000
65.61213 79.000
65.63208 57.000
65.65202 62.000
65.67197 67.000
65.69192 62.000
65.71186 64.000
65.73181 68.000
65.75176 59.000
65.77171 52.000
65.79165 58.000
65.81160 56.000
65.83155 68.000
65.85149 49.000
65.87144 61.000
65.89139 73.000
65.91133 74.000
65.93128 73.000
65.95123 65.000
65.97117 66.000
65.99112 72.000
66.01107 64.000
66.03102 68.000
66.05096 68.000
66.07091 69.000
66.09086 87.000
66.11080 62.000
66.13075 66.000
66.15070 58.000
66.17064 62.000
66.19059 65.000
66.21054 76.000
66.23049 61.000
66.25043 75.000
66.27038 71.000
66.29033 54.000
66.31027 56.000
66.33022 69.000
66.35017 51.000
66.37011 57.000
66.39006 56.000
66.41001 55.000
66.42995 57.000
66.44990 62.000
66.46985 47.000
66.48980 54.000
66.50974 46.000
66.52969 53.000
66.54964 58.000
66.56958 41.000
66.58953 55.000
66.60948 63.000
66.62942 54.000
66.64937 50.000
66.66932 50.000
66.68927 47.000
66.70921 40.000
66.72916 51.000
66.74911 48.000
66.76905 56.000
66.78900 59.000
66.80895 56.000
66.82889 44.000
66.84884 64.000
66.86879 39.000
66.88874 48.000
66.90868 57.000
66.92863 43.000
66.94858 49.000
66.96852 55.000
66.98847 47.000
67.00842 57.000
67.02836 64.000
67.04831 51.000
67.06826 50.000
67.08820 49.000
67.10815 63.000
67.12810 66.000
67.14805 53.000
67.16799 49.000
67.18794 72.000
67.20789 60.000
67.22783 64.000
67.24778 87.000
67.26773 64.000
67.28767 53.000
67.30762 67.000
67.32757 74.000
67.34752 59.000
67.36746 75.000
67.38741 77.000
67.40736 54.000
67.42730 62.000
67.44725 62.000
67.46720 60.000
67.48714 79.000
67.50709 58.000
67.52704 60.000
67.54698 52.000
67.56693 66.000
67.58688 70.000
67.60683 64.000
67.62677 48.000
67.64672 54.000
67.66667 63.000
67.68661 56.000
67.70656 68.000
67.72651 54.000
67.74645 63.000
67.76640 64.000
67.78635 54.000
67.80630 66.000
67.82624 56.000
67.84619 59.000
67.86614 64.000
67.88608 60.000
67.90603 71.000
67.92598 53.000
67.94592 54.000
67.96587 55.000
67.98582 54.000
68.00576 45.000
68.02571 53.000
68.04566 49.000
68.06561 43.000
68.08555 47.000
68.10550 69.000
68.12545 50.000
68.14539 62.000
68.16534 54.000
68.18529 48.000
68.20523 52.000
68.22518 44.000
68.24513 54.000
68.26508 49.000
68.28502 43.000
68.30497 33.000
68.32492 45.000
68.34486 41.000
68.36481 53.000
68.38476 53.000
68.40470 39.000
68.42465 42.000
68.44460 46.000
68.46455 46.000
68.48449 46.000
68.50444 58.000
68.52439 34.000
68.54433 48.000
68.56428 33.000
68.58423 41.000
68.60417 49.000
68.62412 39.000
68.64407 29.000
68.66401 35.000
68.68396 41.000
68.70391 53.000
68.72386 40.000
68.74380 45.000
68.76375 43.000
68.78370 45.000
68.80364 43.000
68.82359 42.000
68.84354 44.000
68.86348 39.000
68.88343 30.000
68.90338 46.000
68.92333 41.000
68.94327 42.000
68.96322 43.000
68.98317 43.000
69.00311 45.000
69.02306 38.000
69.04301 54.000
69.06295 42.000
69.08290 50.000
69.10285 36.000
69.12279 29.000
69.14274 42.000
69.16269 38.000
69.18264 28.000
69.20258 44.000
69.22253 34.000
69.24248 33.000
69.26242 45.000
69.28237 53.000
69.30232 44.000
69.32226 44.000
69.34221 31.000
69.36216 41.000
69.38211 48.000
69.40205 44.000
69.42200 36.000
69.44195 39.000
69.46189 30.000
69.48184 44.000
69.50179 40.000
69.52173 55.000
69.54168 43.000
69.56163 46.000
69.58157 50.000
69.60152 44.000
69.62147 42.000
69.64142 40.000
69.66136 44.000
69.68131 46.000
69.70126 43.000
69.72120 37.000
69.74115 45.000
69.76110 31.000
69.78104 40.000
69.80099 37.000
69.82094 47.000
69.84089 36.000
69.86083 42.000
69.88078 47.000
69.90073 53.000
69.92067 44.000
69.94062 43.000
69.96057 34.000
69.98051 44.000
70.00046 39.000
70.02041 43.000
70.04035 35.000
70.06030 37.000
70.08025 44.000
70.10020 32.000
70.12014 40.000
70.14009 43.000
70.16004 39.000
70.17998 30.000
70.19993 33.000
70.21988 36.000
70.23982 51.000
70.25977 30.000
70.27972 38.000
70.29967 46.000
70.31961 37.000
70.33956 41.000
70.35951 49.000
70.37945 40.000
70.39940 41.000
70.41935 42.000
70.43929 46.000
70.45924 58.000
70.47919 51.000
70.49914 33.000
70.51908 44.000
70.53903 39.000
70.55898 51.000
70.57892 44.000
70.59887 38.000
70.61882 44.000
70.63876 45.000
70.65871 38.000
70.67866 54.000
70.69860 39.000
70.71855 45.000
70.73850 39.000
70.75845 50.000
70.77839 39.000
70.79834 39.000
70.81829 58.000
70.83823 52.000
70.85818 58.000
70.87813 53.000
70.89807 52.000
70.91802 48.000
70.93797 47.000
70.95792 59.000
70.97786 45.000
70.99781 56.000
71.01776 63.000
71.03770 64.000
71.05765 69.000
71.07760 66.000
71.09754 63.000
71.11749 60.000
71.13744 75.000
71.15738 68.000
71.17733 83.000
71.19728 87.000
71.21723 81.000
71.23717 72.000
71.25712 97.000
71.27707 75.000
71.29701 67.000
71.31696 74.000
71.33691 73.000
71.35685 72.000
71.37680 76.000
71.39675 67.000
71.41670 76.000
71.43664 79.000
71.45659 66.000
71.47654 73.000
71.49648 66.000
71.51643 67.000
71.53638 60.000
71.55632 52.000
71.57627 62.000
71.59622 55.000
71.61616 45.000
71.63611 52.000
71.65606 51.000
71.67601 58.000
71.69595 46.000
71.71590 46.000
71.73585 44.000
71.75579 40.000
71.77574 42.000
71.79569 47.000
71.81563 45.000
71.83558 53.000
71.85553 44.000
71.87548 43.000
71.89542 46.000
71.91537 42.000
71.93532 45.000
71.95526 36.000
71.97521 43.000
71.99516 42.000
72.01510 45.000
72.03505 56.000
72.05500 45.000
72.07495 61.000
72.09489 54.000
72.11484 46.000
72.13479 53.000
72.15473 62.000
72.17468 53.000
72.19463 50.000
72.21457 49.000
72.23452 55.000
72.25447 70.000
72.27441 75.000
72.29436 52.000
72.31431 75.000
72.33426 85.000
72.35420 85.000
72.37415 75.000
72.39410 80.000
72.41404 70.000
72.43399 76.000
72.45394 80.000
72.47388 75.000
72.49383 67.000
72.51378 84.000
72.53373 89.000
72.55367 74.000
72.57362 86.000
72.59357 91.000
72.61351 83.000
72.63346 71.000
72.65341 88.000
72.67335 77.000
72.69330 80.000
72.71325 65.000
72.73319 67.000
72.75314 70.000
72.77309 72.000
72.79304 69.000
72.81298 73.000
72.83293 73.000
72.85288 79.000
72.87282 42.000
72.89277 71.000
72.91272 65.000
72.93266 73.000
72.95261 59.000
72.97256 65.000
72.99251 82.000
73.01245 75.000
73.03240 60.000
73.05235 56.000
73.07229 71.000
73.09224 81.000
73.11219 57.000
73.13213 61.000
73.15208 60.000
73.17203 58.000
73.19197 63.000
73.21192 64.000
73.23187 52.000
73.25182 57.000
73.27176 76.000
73.29171 47.000
73.31166 59.000
73.33160 38.000
73.35155 48.000
73.37150 55.000
73.39144 57.000
73.41139 60.000
73.43134 58.000
73.45129 44.000
73.47123 55.000
73.49118 54.000
73.51113 44.000
73.53107 44.000
73.55102 44.000
73.57097 49.000
73.59091 47.000
73.61086 47.000
73.63081 45.000
73.65076 40.000
73.67070 51.000
73.69065 62.000
73.71060 46.000
73.73054 48.000
73.75049 43.000
73.77044 61.000
73.79038 61.000
73.81033 62.000
73.83028 52.000
73.85022 60.000
73.87017 50.000
73.89012 67.000
73.91007 62.000
73.93001 86.000
73.94996 71.000
73.96991 91.000
73.98985 92.000
74.00980 84.000
74.02975 91.000
74.04969 84.000
74.06964 82.000
74.08959 95.000
74.10954 99.000
74.12948 107.000
74.14943 114.000
74.16938 122.000
74.18932 122.000
74.20927 114.000
74.22922 138.000
74.24916 129.000
74.26911 135.000
74.28906 124.000
74.30900 133.000
74.32895 154.000
74.34890 135.000
74.36885 151.000
74.38879 136.000
74.40874 120.000
74.42869 135.000
74.44863 125.000
74.46858 140.000
74.48853 111.000
74.50847 114.000
74.52842 99.000
74.54837 98.000
74.56832 96.000
74.58826 95.000
74.60821 102.000
74.62816 87.000
74.64810 95.000
74.66805 77.000
74.68800 77.000
74.70794 67.000
74.72789 63.000
74.74784 63.000
74.76778 79.000
74.78773 82.000
74.80768 73.000
74.82763 71.000
74.84757 62.000
74.86752 59.000
74.88747 86.000
74.90741 83.000
74.92736 72.000
74.94731 65.000
74.96725 82.000
74.98720 62.000
75.00715 79.000
75.02710 60.000
75.04704 67.000
75.06699 69.000
75.08694 72.000
75.10688 53.000
75.12683 70.000
75.14678 68.000
75.16672 80.000
75.18667 63.000
75.20662 74.000
75.22657 69.000
75.24651 82.000
75.26646 86.000
75.28641 77.000
75.30635 71.000
75.32630 80.000
75.34625 85.000
75.36619 80.000
75.38614 64.000
75.40609 90.000
75.42603 79.000
75.44598 76.000
75.46593 62.000
75.48588 62.000
75.50582 66.000
75.52577 73.000
75.54572 63.000
75.56566 67.000
75.58561 76.000
75.60556 49.000
75.62550 51.000
75.64545 50.000
75.66540 62.000
75.68535 57.000
75.70529 64.000
75.72524 54.000
75.74519 49.000
75.76513 46.000
75.78508 43.000
75.80503 40.000
75.82497 45.000
75.84492 43.000
75.86487 36.000
75.88481 34.000
75.90476 36.000
75.92471 40.000
75.94466 44.000
75.96460 39.000
75.98455 51.000
76.00450 48.000
76.02444 44.000
76.04439 30.000
76.06434 44.000
76.08428 35.000
76.10423 46.000
76.12418 38.000
76.14413 31.000
76.16407 41.000
76.18402 54.000
76.20397 41.000
76.22391 41.000
76.24386 50.000
76.26381 46.000
76.28375 36.000
76.30370 44.000
76.32365 35.000
76.34359 48.000
76.36354 44.000
76.38349 32.000
76.40344 48.000
76.42338 38.000
76.44333 42.000
76.46328 45.000
76.48322 36.000
76.50317 40.000
76.52312 43.000
76.54306 30.000
76.56301 31.000
76.58296 34.000
76.60291 42.000
76.62285 34.000
76.64280 34.000
76.66275 42.000
76.68269 35.000
76.70264 46.000
76.72259 43.000
76.74253 40.000
76.76248 40.000
76.78243 49.000
76.80238 48.000
76.82232 49.000
76.84227 38.000
76.86222 41.000
76.88216 45.000
76.90211 35.000
76.92206 40.000
76.94200 39.000
76.96195 32.000
76.98190 42.000
77.00184 30.000
77.02179 36.000
77.04174 43.000
77.06169 42.000
77.08163 31.000
77.10158 35.000
77.12153 30.000
77.14147 46.000
77.16142 43.000
77.18137 43.000
77.20131 44.000
77.22126 35.000
77.24121 27.000
77.26116 48.000
77.28110 41.000
77.30105 41.000
77.32100 36.000
77.34094 39.000
77.36089 47.000
77.38084 39.000
77.40078 37.000
77.42073 59.000
77.44068 52.000
77.46062 49.000
77.48057 51.000
77.50052 47.000
77.52047 38.000
77.54041 58.000
77.56036 49.000
77.58031 38.000
77.60025 52.000
77.62020 63.000
77.64015 56.000
77.66009 56.000
77.68004 53.000
77.69999 44.000
77.71994 67.000
77.73988 55.000
77.75983 47.000
77.77978 57.000
77.79972 58.000
77.81967 73.000
77.83962 63.000
77.85956 70.000
77.87951 67.000
77.89946 68.000
77.91940 81.000
77.93935 76.000
77.95930 73.000
77.97925 61.000
77.99919 62.000
78.01914 67.000
78.03909 70.000
78.05903 64.000
78.07898 67.000
78.09893 63.000
78.11887 68.000
78.13882 64.000
78.15877 77.000
78.17872 77.000
78.19866 61.000
78.21861 57.000
78.23856 48.000
78.25850 65.000
78.27845 46.000
78.29840 52.000
78.31834 53.000
78.33829 64.000
78.35824 56.000
78.37819 59.000
78.39813 47.000
78.41808 51.000
78.43803 49.000
78.45797 49.000
78.47792 63.000
78.49787 49.000
78.51781 57.000
78.53776 37.000
78.55771 49.000
78.57765 51.000
78.59760 58.000
78.61755 50.000
78.63750 47.000
78.65744 46.000
78.67739 40.000
78.69734 39.000
78.71728 39.000
78.73723 38.000
78.75718 47.000
78.77712 45.000
78.79707 44.000
78.81702 46.000
78.83697 40.000
78.85691 45.000
78.87686 47.000
78.89681 57.000
78.91675 66.000
78.93670 46.000
78.95665 54.000
78.97659 51.000
78.99654 61.000
79.01649 61.000
79.03643 36.000
79.05638 48.000
79.07633 65.000
79.09628 65.000
79.11622 50.000
79.13617 61.000
79.15612 55.000
79.17606 54.000
79.19601 73.000
79.21596 62.000
79.23590 71.000
79.25585 85.000
79.27580 57.000
79.29575 75.000
79.31569 68.000
79.33564 60.000
79.35559 63.000
79.37553 66.000
79.39548 67.000
79.41543 79.000
79.43537 63.000
79.45532 60.000
79.47527 75.000
79.49521 61.000
79.51516 65.000
79.53511 42.000
79.55506 48.000
79.57500 57.000
79.59495 52.000
79.61490 38.000
79.63484 53.000
79.65479 51.000
79.67474 41.000
79.69468 49.000
79.71463 48.000
79.73458 42.000
79.75453 39.000
79.77447 43.000
79.79442 40.000
79.81437 40.000
79.83431 35.000
79.85426 44.000
79.87421 40.000
79.89415 24.000
79.91410 41.000
79.93405 35.000
79.95399 44.000
79.97394 48.000
79.99389 41.000
80.01384 34.000
80.03378 54.000
80.05373 39.000
80.07368 34.000
80.09362 49.000
80.11357 47.000
80.13352 26.000
80.15346 42.000
80.17341 37.000
80.19336 43.000
80.21331 33.000
80.23325 48.000
80.25320 34.000
80.27315 52.000
80.29309 40.000
80.31304 49.000
80.33299 49.000
80.35293 44.000
80.37288 50.000
80.39283 31.000
80.41278 46.000
80.43272 43.000
80.45267 39.000
80.47262 37.000
80.49256 37.000
80.51251 47.000
80.53246 45.000
80.55240 35.000
80.57235 39.000
80.59230 50.000
80.61224 48.000
80.63219 45.000
80.65214 39.000
80.67209 31.000
80.69203 38.000
80.71198 38.000
80.73193 37.000
80.75187 48.000
80.77182 44.000
80.79177 50.000
80.81171 40.000
80.83166 41.000
80.85161 38.000
80.87156 35.000
80.89150 31.000
80.91145 37.000
80.93140 39.000
80.95134 36.000
80.97129 38.000
80.99124 30.000
81.01118 36.000
81.03113 24.000
81.05108 51.000
81.07102 49.000
81.09097 46.000
81.11092 44.000
81.13087 42.000
81.15081 33.000
81.17076 49.000
81.19071 37.000
81.21065 39.000
81.23060 32.000
81.25055 36.000
81.27049 42.000
81.29044 50.000
81.31039 38.000
81.33034 45.000
81.35028 38.000
81.37023 33.000
81.39018 38.000
81.41012 34.000
81.43007 37.000
81.45002 43.000
81.46996 38.000
81.48991 33.000
81.50986 30.000
81.52980 30.000
81.54975 43.000
81.56970 37.000
81.58965 35.000
81.60959 51.000
81.62954 41.000
81.64949 35.000
81.66943 46.000
81.68938 37.000
81.70933 49.000
81.72927 43.000
81.74922 36.000
81.76917 38.000
81.78912 30.000
81.80906 34.000
81.82901 44.000
81.84896 38.000
81.86890 38.000
81.88885 43.000
81.90880 43.000
81.92874 34.000
81.94869 30.000
81.96864 47.000
81.98859 41.000
82.00853 28.000
82.02848 32.000
82.04843 42.000
82.06837 29.000
82.08832 34.000
82.10827 54.000
82.12821 49.000
82.14816 46.000
82.16811 43.000
82.18805 41.000
82.20800 49.000
82.22795 37.000
82.24790 42.000
82.26784 43.000
82.28779 47.000
82.30774 39.000
82.32768 47.000
82.34763 50.000
82.36758 45.000
82.38752 38.000
82.40747 49.000
82.42742 45.000
82.44737 42.000
82.46731 38.000
82.48726 45.000
82.50721 45.000
82.52715 44.000
82.54710 47.000
82.56705 43.000
82.58699 36.000
82.60694 44.000
82.62689 40.000
82.64683 39.000
82.66678 42.000
82.68673 30.000
82.70668 39.000
82.72662 37.000
82.74657 41.000
82.76652 36.000
82.78646 43.000
82.80641 32.000
82.82636 38.000
82.84630 27.000
82.86625 43.000
82.88620 31.000
82.90615 42.000
82.92609 36.000
82.94604 47.000
82.96599 47.000
82.98593 38.000
83.00588 27.000
83.02583 27.000
83.04577 43.000
83.06572 36.000
83.08567 43.000
83.10561 32.000
83.12556 41.000
83.14551 42.000
83.16546 47.000
83.18540 35.000
83.20535 34.000
83.22530 34.000
83.24524 26.000
83.26519 45.000
83.28514 39.000
83.30508 47.000
83.32503 48.000
83.34498 40.000
83.36493 44.000
83.38487 36.000
83.40482 48.000
83.42477 48.000
83.44471 47.000
83.46466 30.000
83.48461 53.000
83.50455 36.000
83.52450 43.000
83.54445 45.000
83.56440 48.000
83.58434 51.000
83.60429 36.000
83.62424 45.000
83.64418 37.000
83.66413 35.000
83.68408 33.000
83.70402 47.000
83.72397 51.000
83.74392 45.000
83.76386 56.000
83.78381 40.000
83.80376 33.000
83.82371 37.000
83.84365 43.000
83.86360 43.000
83.88355 50.000
83.90349 50.000
83.92344 43.000
83.94339 46.000
83.96333 49.000
83.98328 47.000
84.00323 44.000
84.02318 43.000
84.04312 38.000
84.06307 46.000
84.08302 35.000
84.10296 43.000
84.12291 44.000
84.14286 36.000
84.16280 45.000
84.18275 46.000
84.20270 36.000
84.22264 37.000
84.24259 42.000
84.26254 38.000
84.28249 32.000
84.30243 39.000
84.32238 40.000
84.34233 43.000
84.36227 39.000
84.38222 37.000
84.40217 31.000
84.42211 37.000
84.44206 38.000
84.46201 42.000
84.48196 42.000
84.50190 38.000
84.52185 37.000
84.54180 49.000
84.56174 36.000
84.58169 27.000
84.60164 45.000
84.62158 36.000
84.64153 46.000
84.66148 36.000
84.68142 41.000
84.70137 34.000
84.72132 30.000
84.74127 37.000
84.76121 45.000
84.78116 46.000
84.80111 46.000
84.82105 36.000
84.84100 40.000
84.86095 36.000
84.88089 28.000
84.90084 31.000
84.92079 30.000
84.94074 39.000
84.96068 42.000
84.98063 42.000
85.00058 46.000
85.02052 26.000
85.04047 46.000
85.06042 35.000
85.08036 45.000
85.10031 51.000
85.12026 41.000
85.14021 52.000
85.16015 42.000
85.18010 39.000
85.20005 39.000
85.21999 31.000
85.23994 45.000
85.25989 63.000
85.27983 40.000
85.29978 34.000
85.31973 28.000
85.33967 39.000
85.35962 36.000
85.37957 37.000
85.39952 36.000
85.41946 39.000
85.43941 36.000
85.45936 40.000
85.47930 36.000
85.49925 30.000
85.51920 34.000
85.53914 46.000
85.55909 37.000
85.57904 34.000
85.59899 38.000
85.61893 47.000
85.63888 36.000
85.65883 30.000
85.67877 32.000
85.69872 31.000
85.71867 44.000
85.73861 35.000
85.75856 36.000
85.77851 35.000
85.79845 45.000
85.81840 36.000
85.83835 57.000
85.85830 54.000
85.87824 40.000
85.89819 37.000
85.91814 43.000
85.93808 58.000
85.95803 40.000
85.97798 27.000
85.99792 42.000
86.01787 43.000
86.03782 47.000
86.05777 47.000
86.07771 54.000
86.09766 39.000
86.11761 48.000
86.13755 49.000
86.15750 37.000
86.17745 40.000
86.19739 46.000
86.21734 47.000
86.23729 44.000
86.25723 45.000
86.27718 57.000
86.29713 50.000
86.31708 57.000
86.33702 54.000
86.35697 44.000
86.37692 54.000
86.39686 48.000
86.41681 52.000
86.43676 55.000
86.45670 52.000
86.47665 54.000
86.49660 44.000
86.51655 45.000
86.53649 43.000
86.55644 46.000
86.57639 44.000
86.59633 51.000
86.61628 66.000
86.63623 64.000
86.65617 60.000
86.67612 52.000
86.69607 48.000
86.71602 60.000
86.73596 58.000
86.75591 57.000
86.77586 66.000
86.79580 58.000
86.81575 51.000
86.83570 52.000
86.85564 59.000
86.87559 58.000
86.89554 56.000
86.91548 56.000
86.93543 54.000
86.95538 61.000
86.97533 61.000
86.99527 65.000
87.01522 61.000
87.03517 57.000
87.05511 60.000
87.07506 72.000
87.09501 70.000
87.11495 75.000
87.13490 67.000
87.15485 80.000
87.17480 76.000
87.19474 64.000
87.21469 77.000
87.23464 68.000
87.25458 71.000
87.27453 73.000
87.29448 80.000
87.31442 61.000
87.33437 67.000
87.35432 61.000
87.37426 62.000
87.39421 63.000
87.41416 58.000
87.43411 48.000
87.45405 73.000
87.47400 67.000
87.49395 51.000
87.51389 69.000
87.53384 50.000
87.55379 41.000
87.57373 51.000
87.59368 57.000
87.61363 54.000
87.63358 49.000
87.65352 50.000
87.67347 42.000
87.69342 44.000
87.71336 48.000
87.73331 47.000
87.75326 43.000
87.77320 49.000
87.79315 47.000
87.81310 54.000
87.83304 53.000
87.85299 39.000
87.87294 55.000
87.89289 48.000
87.91283 48.000
87.93278 47.000
87.95273 48.000
87.97267 42.000
87.99262 34.000
88.01257 36.000
88.03251 40.000
88.05246 41.000
88.07241 30.000
88.09236 50.000
88.11230 32.000
88.13225 34.000
88.15220 42.000
88.17214 35.000
88.19209 42.000
88.21204 32.000
88.23198 38.000
88.25193 38.000
88.27188 35.000
88.29183 41.000
88.31177 45.000
88.33172 40.000
88.35167 33.000
88.37161 42.000
88.39156 35.000
88.41151 37.000
88.43145 39.000
88.45140 43.000
88.47135 41.000
88.49129 41.000
88.51124 40.000
88.53119 41.000
88.55114 35.000
88.57108 45.000
88.59103 36.000
88.61098 33.000
88.63092 52.000
88.65087 38.000
88.67082 27.000
88.69076 37.000
88.71071 53.000
88.73066 35.000
88.75061 47.000
88.77055 41.000
88.79050 43.000
88.81045 35.000
88.83039 33.000
88.85034 37.000
88.87029 39.000
88.89023 44.000
88.91018 52.000
88.93013 56.000
88.95007 47.000
88.97002 30.000
88.98997 33.000
89.00992 35.000
89.02986 44.000
89.04981 47.000
89.06976 34.000
89.08970 46.000
89.10965 43.000
89.12960 57.000
89.14954 35.000
89.16949 39.000
89.18944 45.000
89.20939 60.000
89.22933 51.000
89.24928 49.000
89.26923 38.000
89.28917 32.000
89.30912 48.000
89.32907 52.000
89.34901 49.000
89.36896 66.000
89.38891 81.000
89.40885 46.000
89.42880 52.000
89.44875 60.000
89.46870 52.000
89.48864 69.000
89.50859 67.000
89.52854 50.000
89.54848 78.000
89.56843 83.000
89.58838 80.000
89.60832 67.000
89.62827 82.000
89.64822 82.000
89.66817 78.000
89.68811 92.000
89.70806 94.000
89.72801 87.000
89.74795 110.000
89.76790 96.000
89.78785 96.000
89.80779 102.000
89.82774 126.000
89.84769 117.000
89.86764 123.000
89.88758 129.000
89.90753 122.000
89.92748 127.000
89.94742 149.000
89.96737 172.000
89.98732 150.000
90.00726 141.000
