10.00000 356.000
10.01995 348.000
10.03989 341.000
10.05984 349.000
10.07979 327.000
10.09973 310.000
10.11968 377.000
10.13963 345.000
10.15958 380.000
10.17952 380.000
10.19947 373.000
10.21942 334.000
10.23936 380.000
10.25931 326.000
10.27926 349.000
10.29920 350.000
10.31915 373.000
10.33910 351.000
10.35905 354.000
10.37899 334.000
10.39894 357.000
10.41889 360.000
10.43883 336.000
10.45878 312.000
10.47873 324.000
10.49867 376.000
10.51862 320.000
10.53857 361.000
10.55851 376.000
10.57846 317.000
10.59841 338.000
10.61836 336.000
10.63830 342.000
10.65825 357.000
10.67820 354.000
10.69814 357.000
10.71809 359.000
10.73804 335.000
10.75798 367.000
10.77793 366.000
10.79788 405.000
10.81783 370.000
10.83777 362.000
10.85772 343.000
10.87767 318.000
10.89761 375.000
10.91756 341.000
10.93751 373.000
10.95745 346.000
10.97740 327.000
10.99735 356.000
11.01730 375.000
11.03724 369.000
11.05719 339.000
11.07714 339.000
11.09708 331.000
11.11703 374.000
11.13698 353.000
11.15692 351.000
11.17687 353.000
11.19682 370.000
11.21676 314.000
11.23671 361.000
11.25666 365.000
11.27661 333.000
11.29655 341.000
11.31650 338.000
11.33645 355.000
11.35639 333.000
11.37634 380.000
11.39629 329.000
11.41623 294.000
11.43618 383.000
11.45613 352.000
11.47608 316.000
11.49602 344.000
11.51597 343.000
11.53592 325.000
11.55586 368.000
11.57581 343.000
11.59576 358.000
11.61570 328.000
11.63565 383.000
11.65560 343.000
11.67554 344.000
11.69549 390.000
11.71544 367.000
11.73539 347.000
11.75533 364.000
11.77528 368.000
11.79523 401.000
11.81517 363.000
11.83512 375.000
11.85507 316.000
11.87501 333.000
11.89496 347.000
11.91491 381.000
11.93486 326.000
11.95480 332.000
11.97475 321.000
11.99470 347.000
12.01464 370.000
12.03459 387.000
12.05454 350.000
12.07448 354.000
12.09443 337.000
12.11438 358.000
12.13432 317.000
12.15427 356.000
12.17422 331.000
12.19417 350.000
12.21411 319.000
12.23406 332.000
12.25401 346.000
12.27395 347.000
12.29390 325.000
12.31385 354.000
12.33379 347.000
12.35374 370.000
12.37369 351.000
12.39364 371.000
12.41358 358.000
12.43353 335.000
12.45348 377.000
12.47342 366.000
12.49337 355.000
12.51332 358.000
12.53326 326.000
12.55321 348.000
12.57316 345.000
12.59311 350.000
12.61305 398.000
12.63300 328.000
12.65295 328.000
12.67289 354.000
12.69284 361.000
12.71279 356.000
12.73273 331.000
12.75268 363.000
12.77263 350.000
12.79257 342.000
12.81252 354.000
12.83247 368.000
12.85242 349.000
12.87236 380.000
12.89231 399.000
12.91226 356.000
12.93220 314.000
12.95215 351.000
12.97210 345.000
12.99204 354.000
13.01199 397.000
13.03194 325.000
13.05189 340.000
13.07183 364.000
13.09178 367.000
13.11173 322.000
13.13167 378.000
13.15162 359.000
13.17157 363.000
13.19151 365.000
13.21146 361.000
13.23141 395.000
13.25135 344.000
13.27130 352.000
13.29125 374.000
13.31120 348.000
13.33114 393.000
13.35109 358.000
13.37104 374.000
13.39098 370.000
13.41093 384.000
13.43088 351.000
13.45082 352.000
13.47077 349.000
13.49072 375.000
13.51067 340.000
13.53061 350.000
13.55056 366.000
13.57051 380.000
13.59045 374.000
13.61040 361.000
13.63035 367.000
13.65029 346.000
13.67024 343.000
13.69019 345.000
13.71013 377.000
13.73008 379.000
13.75003 344.000
13.76998 352.000
13.78992 319.000
13.80987 347.000
13.82982 360.000
13.84976 360.000
13.86971 374.000
13.88966 353.000
13.90960 395.000
13.92955 373.000
13.94950 363.000
13.96945 356.000
13.98939 342.000
14.00934 352.000
14.02929 363.000
14.04923 373.000
14.06918 398.000
14.08913 342.000
14.10907 379.000
14.12902 308.000
14.14897 360.000
14.16892 346.000
14.18886 361.000
14.20881 391.000
14.22876 353.000
14.24870 381.000
14.26865 399.000
14.28860 349.000
14.30854 377.000
14.32849 358.000
14.34844 393.000
14.36838 371.000
14.38833 372.000
14.40828 367.000
14.42823 355.000
14.44817 394.000
14.46812 339.000
14.48807 379.000
14.50801 355.000
14.52796 388.000
14.54791 352.000
14.56785 367.000
14.58780 397.000
14.60775 324.000
14.62770 379.000
14.64764 375.000
14.66759 395.000
14.68754 360.000
14.70748 357.000
14.72743 398.000
14.74738 382.000
14.76732 368.000
14.78727 347.000
14.80722 346.000
14.82716 376.000
14.84711 335.000
14.86706 356.000
14.88701 351.000
14.90695 348.000
14.92690 428.000
14.94685 387.000
14.96679 371.000
14.98674 368.000
15.00669 394.000
15.02663 356.000
15.04658 401.000
15.06653 389.000
15.08648 399.000
15.10642 427.000
15.12637 418.000
15.14632 382.000
15.16626 417.000
15.18621 377.000
15.20616 418.000
15.22610 385.000
15.24605 400.000
15.26600 406.000
15.28594 451.000
15.30589 407.000
15.32584 426.000
15.34579 432.000
15.36573 421.000
15.38568 423.000
15.40563 432.000
15.42557 451.000
15.44552 440.000
15.46547 418.000
15.48541 473.000
15.50536 483.000
15.52531 457.000
15.54526 463.000
15.56520 529.000
15.58515 528.000
15.60510 673.000
15.62504 742.000
15.64499 963.000
15.66494 1273.000
15.68488 1932.000
15.70483 2918.000
15.72478 4861.000
15.74472 7267.000
15.76467 8171.000
15.78462 7679.000
15.80457 6202.000
15.82451 4353.000
15.84446 2544.000
15.86441 1638.000
15.88435 1093.000
15.90430 709.000
15.92425 591.000
15.94419 566.000
15.96414 554.000
15.98409 487.000
16.00404 486.000
16.02398 448.000
16.04393 441.000
16.06388 433.000
16.08382 414.000
16.10377 428.000
16.12372 438.000
16.14366 423.000
16.16361 408.000
16.18356 411.000
16.20351 409.000
16.22345 420.000
16.24340 386.000
16.26335 385.000
16.28329 426.000
16.30324 353.000
16.32319 402.000
16.34313 381.000
16.36308 373.000
16.38303 390.000
16.40297 359.000
16.42292 382.000
16.44287 348.000
16.46282 360.000
16.48276 389.000
16.50271 398.000
16.52266 374.000
16.54260 390.000
16.56255 385.000
16.58250 339.000
16.60244 378.000
16.62239 377.000
16.64234 398.000
16.66229 341.000
16.68223 361.000
16.70218 373.000
16.72213 395.000
16.74207 389.000
16.76202 405.000
16.78197 365.000
16.80191 381.000
16.82186 375.000
16.84181 425.000
16.86175 403.000
16.88170 405.000
16.90165 375.000
16.92160 395.000
16.94154 331.000
16.96149 363.000
16.98144 347.000
17.00138 399.000
17.02133 379.000
17.04128 327.000
17.06122 336.000
17.08117 384.000
17.10112 361.000
17.12107 370.000
17.14101 393.000
17.16096 370.000
17.18091 382.000
17.20085 359.000
17.22080 360.000
17.24075 386.000
17.26069 384.000
17.28064 343.000
17.30059 371.000
17.32053 390.000
17.34048 370.000
17.36043 336.000
17.38038 360.000
17.40032 364.000
17.42027 365.000
17.44022 328.000
17.46016 384.000
17.48011 385.000
17.50006 355.000
17.52000 369.000
17.53995 353.000
17.55990 351.000
17.57985 389.000
17.59979 350.000
17.61974 355.000
17.63969 393.000
17.65963 387.000
17.67958 382.000
17.69953 352.000
17.71947 372.000
17.73942 363.000
17.75937 373.000
17.77932 351.000
17.79926 342.000
17.81921 373.000
17.83916 370.000
17.85910 357.000
17.87905 390.000
17.89900 365.000
17.91894 399.000
17.93889 328.000
17.95884 345.000
17.97878 408.000
17.99873 369.000
18.01868 347.000
18.03863 394.000
18.05857 387.000
18.07852 378.000
18.09847 376.000
18.11841 354.000
18.13836 373.000
18.15831 384.000
18.17825 380.000
18.19820 359.000
18.21815 375.000
18.23810 378.000
18.25804 372.000
18.27799 369.000
18.29794 373.000
18.31788 364.000
18.33783 356.000
18.35778 391.000
18.37772 368.000
18.39767 383.000
18.41762 370.000
18.43756 360.000
18.45751 346.000
18.47746 358.000
18.49741 381.000
18.51735 365.000
18.53730 356.000
18.55725 337.000
18.57719 400.000
18.59714 377.000
18.61709 343.000
18.63703 359.000
18.65698 378.000
18.67693 365.000
18.69688 392.000
18.71682 391.000
18.73677 389.000
18.75672 361.000
18.77666 363.000
18.79661 353.000
18.81656 383.000
18.83650 407.000
18.85645 374.000
18.87640 402.000
18.89634 384.000
18.91629 366.000
18.93624 363.000
18.95619 365.000
18.97613 357.000
18.99608 378.000
19.01603 344.000
19.03597 358.000
19.05592 381.000
19.07587 368.000
19.09581 358.000
19.11576 387.000
19.13571 346.000
19.15566 342.000
19.17560 374.000
19.19555 381.000
19.21550 339.000
19.23544 383.000
19.25539 345.000
19.27534 392.000
19.29528 394.000
19.31523 347.000
19.33518 392.000
19.35513 381.000
19.37507 381.000
19.39502 344.000
19.41497 352.000
19.43491 347.000
19.45486 377.000
19.47481 361.000
19.49475 355.000
19.51470 361.000
19.53465 373.000
19.55459 352.000
19.57454 348.000
19.59449 394.000
19.61444 350.000
19.63438 398.000
19.65433 344.000
19.67428 360.000
19.69422 369.000
19.71417 383.000
19.73412 373.000
19.75406 377.000
19.77401 356.000
19.79396 367.000
19.81391 385.000
19.83385 361.000
19.85380 363.000
19.87375 383.000
19.89369 368.000
19.91364 350.000
19.93359 336.000
19.95353 355.000
19.97348 421.000
19.99343 384.000
20.01337 388.000
20.03332 391.000
20.05327 377.000
20.07322 321.000
20.09316 357.000
20.11311 336.000
20.13306 369.000
20.15300 406.000
20.17295 351.000
20.19290 359.000
20.21284 368.000
20.23279 374.000
20.25274 334.000
20.27269 400.000
20.29263 360.000
20.31258 368.000
20.33253 350.000
20.35247 361.000
20.37242 386.000
20.39237 356.000
20.41231 395.000
20.43226 397.000
20.45221 410.000
20.47215 365.000
20.49210 369.000
20.51205 400.000
20.53200 371.000
20.55194 397.000
20.57189 404.000
20.59184 392.000
20.61178 401.000
20.63173 398.000
20.65168 404.000
20.67162 418.000
20.69157 446.000
20.71152 428.000
20.73147 540.000
20.75141 531.000
20.77136 630.000
20.79131 770.000
20.81125 995.000
20.83120 1166.000
20.85115 1322.000
20.87109 1280.000
20.89104 1176.000
20.91099 1019.000
20.93094 894.000
20.95088 780.000
20.97083 779.000
20.99078 683.000
21.01072 744.000
21.03067 693.000
21.05062 720.000
21.07056 704.000
21.09051 689.000
21.11046 522.000
21.13040 535.000
21.15035 458.000
21.17030 438.000
21.19025 399.000
21.21019 403.000
21.23014 399.000
21.25009 412.000
21.27003 360.000
21.28998 380.000
21.30993 398.000
21.32987 366.000
21.34982 421.000
21.36977 409.000
21.38972 363.000
21.40966 354.000
21.42961 380.000
21.44956 365.000
21.46950 380.000
21.48945 399.000
21.50940 349.000
21.52934 402.000
21.54929 376.000
21.56924 344.000
21.58918 373.000
21.60913 376.000
21.62908 347.000
21.64903 398.000
21.66897 363.000
21.68892 361.000
21.70887 386.000
21.72881 372.000
21.74876 403.000
21.76871 371.000
21.78865 364.000
21.80860 355.000
21.82855 345.000
21.84850 350.000
21.86844 361.000
21.88839 355.000
21.90834 393.000
21.92828 386.000
21.94823 370.000
21.96818 378.000
21.98812 366.000
22.00807 384.000
22.02802 404.000
22.04796 377.000
22.06791 365.000
22.08786 350.000
22.10781 355.000
22.12775 367.000
22.14770 384.000
22.16765 377.000
22.18759 414.000
22.20754 369.000
22.22749 369.000
22.24743 377.000
22.26738 382.000
22.28733 363.000
22.30728 362.000
22.32722 365.000
22.34717 394.000
22.36712 337.000
22.38706 361.000
22.40701 376.000
22.42696 369.000
22.44690 373.000
22.46685 393.000
22.48680 395.000
22.50675 390.000
22.52669 398.000
22.54664 356.000
22.56659 354.000
22.58653 378.000
22.60648 407.000
22.62643 378.000
22.64637 385.000
22.66632 366.000
22.68627 397.000
22.70621 357.000
22.72616 353.000
22.74611 403.000
22.76606 379.000
22.78600 367.000
22.80595 370.000
22.82590 364.000
22.84584 361.000
22.86579 366.000
22.88574 392.000
22.90568 379.000
22.92563 378.000
22.94558 362.000
22.96553 367.000
22.98547 357.000
23.00542 380.000
23.02537 372.000
23.04531 417.000
23.06526 417.000
23.08521 386.000
23.10515 385.000
23.12510 392.000
23.14505 386.000
23.16499 392.000
23.18494 372.000
23.20489 390.000
23.22484 347.000
23.24478 399.000
23.26473 355.000
23.28468 337.000
23.30462 347.000
23.32457 343.000
23.34452 383.000
23.36446 359.000
23.38441 382.000
23.40436 394.000
23.42431 385.000
23.44425 372.000
23.46420 345.000
23.48415 389.000
23.50409 357.000
23.52404 364.000
23.54399 396.000
23.56393 412.000
23.58388 381.000
23.60383 405.000
23.62377 399.000
23.64372 396.000
23.66367 392.000
23.68362 390.000
23.70356 373.000
23.72351 404.000
23.74346 375.000
23.76340 392.000
23.78335 368.000
23.80330 393.000
23.82324 377.000
23.84319 358.000
23.86314 392.000
23.88309 396.000
23.90303 415.000
23.92298 368.000
23.94293 392.000
23.96287 374.000
23.98282 391.000
24.00277 353.000
24.02271 349.000
24.04266 398.000
24.06261 389.000
24.08256 390.000
24.10250 423.000
24.12245 413.000
24.14240 386.000
24.16234 393.000
24.18229 384.000
24.20224 409.000
24.22218 366.000
24.24213 404.000
24.26208 373.000
24.28202 385.000
24.30197 374.000
24.32192 412.000
24.34187 368.000
24.36181 392.000
24.38176 380.000
24.40171 387.000
24.42165 370.000
24.44160 374.000
24.46155 403.000
24.48149 379.000
24.50144 357.000
24.52139 388.000
24.54134 402.000
24.56128 371.000
24.58123 379.000
24.60118 377.000
24.62112 395.000
24.64107 395.000
24.66102 378.000
24.68096 388.000
24.70091 375.000
24.72086 367.000
24.74080 411.000
24.76075 418.000
24.78070 394.000
24.80065 377.000
24.82059 391.000
24.84054 394.000
24.86049 397.000
24.88043 376.000
24.90038 435.000
24.92033 410.000
24.94027 435.000
24.96022 401.000
24.98017 432.000
25.00012 402.000
25.02006 397.000
25.04001 372.000
25.05996 395.000
25.07990 389.000
25.09985 390.000
25.11980 411.000
25.13974 406.000
25.15969 380.000
25.17964 409.000
25.19958 397.000
25.21953 361.000
25.23948 403.000
25.25943 379.000
25.27937 390.000
25.29932 387.000
25.31927 385.000
25.33921 333.000
25.35916 383.000
25.37911 402.000
25.39905 378.000
25.41900 417.000
25.43895 390.000
25.45890 368.000
25.47884 393.000
25.49879 372.000
25.51874 378.000
25.53868 379.000
25.55863 375.000
25.57858 412.000
25.59852 371.000
25.61847 348.000
25.63842 382.000
25.65837 363.000
25.67831 394.000
25.69826 368.000
25.71821 416.000
25.73815 389.000
25.75810 400.000
25.77805 376.000
25.79799 349.000
25.81794 386.000
25.83789 404.000
25.85783 399.000
25.87778 391.000
25.89773 407.000
25.91768 389.000
25.93762 374.000
25.95757 402.000
25.97752 395.000
25.99746 395.000
26.01741 374.000
26.03736 378.000
26.05730 402.000
26.07725 449.000
26.09720 444.000
26.11715 380.000
26.13709 353.000
26.15704 386.000
26.17699 430.000
26.19693 367.000
26.21688 405.000
26.23683 391.000
26.25677 414.000
26.27672 386.000
26.29667 402.000
26.31661 399.000
26.33656 391.000
26.35651 415.000
26.37646 404.000
26.39640 389.000
26.41635 393.000
26.43630 387.000
26.45624 411.000
26.47619 359.000
26.49614 351.000
26.51608 400.000
26.53603 387.000
26.55598 382.000
26.57593 447.000
26.59587 401.000
26.61582 418.000
26.63577 386.000
26.65571 433.000
26.67566 403.000
26.69561 418.000
26.71555 398.000
26.73550 413.000
26.75545 380.000
26.77539 364.000
26.79534 416.000
26.81529 398.000
26.83524 409.000
26.85518 355.000
26.87513 363.000
26.89508 386.000
26.91502 398.000
26.93497 415.000
26.95492 400.000
26.97486 386.000
26.99481 365.000
27.01476 401.000
27.03471 404.000
27.05465 439.000
27.07460 373.000
27.09455 384.000
27.11449 381.000
27.13444 364.000
27.15439 408.000
27.17433 427.000
27.19428 376.000
27.21423 389.000
27.23417 430.000
27.25412 413.000
27.27407 388.000
27.29402 373.000
27.31396 403.000
27.33391 369.000
27.35386 399.000
27.37380 412.000
27.39375 369.000
27.41370 409.000
27.43364 432.000
27.45359 348.000
27.47354 410.000
27.49349 386.000
27.51343 398.000
27.53338 381.000
27.55333 394.000
27.57327 435.000
27.59322 385.000
27.61317 395.000
27.63311 404.000
27.65306 393.000
27.67301 411.000
27.69296 363.000
27.71290 424.000
27.73285 391.000
27.75280 417.000
27.77274 423.000
27.79269 436.000
27.81264 432.000
27.83258 426.000
27.85253 411.000
27.87248 404.000
27.89242 405.000
27.91237 395.000
27.93232 424.000
27.95227 392.000
27.97221 398.000
27.99216 356.000
28.01211 396.000
28.03205 437.000
28.05200 414.000
28.07195 386.000
28.09189 403.000
28.11184 397.000
28.13179 392.000
28.15174 404.000
28.17168 385.000
28.19163 372.000
28.21158 401.000
28.23152 409.000
28.25147 383.000
28.27142 411.000
28.29136 406.000
28.31131 397.000
28.33126 397.000
28.35120 400.000
28.37115 426.000
28.39110 391.000
28.41105 427.000
28.43099 400.000
28.45094 390.000
28.47089 408.000
28.49083 402.000
28.51078 399.000
28.53073 393.000
28.55067 382.000
28.57062 388.000
28.59057 426.000
28.61052 404.000
28.63046 384.000
28.65041 383.000
28.67036 404.000
28.69030 383.000
28.71025 440.000
28.73020 398.000
28.75014 419.000
28.77009 375.000
28.79004 398.000
28.80998 430.000
28.82993 354.000
28.84988 378.000
28.86983 355.000
28.88977 431.000
28.90972 388.000
28.92967 401.000
28.94961 420.000
28.96956 352.000
28.98951 417.000
29.00945 386.000
29.02940 412.000
29.04935 403.000
29.06930 409.000
29.08924 400.000
29.10919 420.000
29.12914 377.000
29.14908 369.000
29.16903 417.000
29.18898 410.000
29.20892 407.000
29.22887 429.000
29.24882 436.000
29.26877 418.000
29.28871 448.000
29.30866 473.000
29.32861 419.000
29.34855 473.000
29.36850 479.000
29.38845 499.000
29.40839 470.000
29.42834 452.000
29.44829 455.000
29.46823 477.000
29.48818 438.000
29.50813 440.000
29.52808 460.000
29.54802 456.000
29.56797 431.000
29.58792 424.000
29.60786 433.000
29.62781 454.000
29.64776 444.000
29.66770 439.000
29.68765 472.000
29.70760 377.000
29.72755 414.000
29.74749 374.000
29.76744 425.000
29.78739 401.000
29.80733 412.000
29.82728 404.000
29.84723 394.000
29.86717 418.000
29.88712 400.000
29.90707 403.000
29.92701 388.000
29.94696 416.000
29.96691 409.000
29.98686 434.000
30.00680 433.000
30.02675 419.000
30.04670 454.000
30.06664 445.000
30.08659 463.000
30.10654 368.000
30.12648 435.000
30.14643 429.000
30.16638 442.000
30.18633 445.000
30.20627 469.000
30.22622 462.000
30.24617 432.000
30.26611 419.000
30.28606 402.000
30.30601 404.000
30.32595 423.000
30.34590 436.000
30.36585 416.000
30.38579 456.000
30.40574 380.000
30.42569 397.000
30.44564 401.000
30.46558 460.000
30.48553 407.000
30.50548 436.000
30.52542 408.000
30.54537 425.000
30.56532 433.000
30.58526 415.000
30.60521 384.000
30.62516 401.000
30.64511 455.000
30.66505 413.000
30.68500 421.000
30.70495 449.000
30.72489 416.000
30.74484 428.000
30.76479 409.000
30.78473 402.000
30.80468 383.000
30.82463 396.000
30.84458 390.000
30.86452 463.000
30.88447 410.000
30.90442 404.000
30.92436 402.000
30.94431 420.000
30.96426 427.000
30.98420 379.000
31.00415 431.000
31.02410 378.000
31.04404 394.000
31.06399 388.000
31.08394 385.000
31.10389 420.000
31.12383 434.000
31.14378 414.000
31.16373 422.000
31.18367 365.000
31.20362 445.000
31.22357 388.000
31.24351 408.000
31.26346 455.000
31.28341 432.000
31.30336 419.000
31.32330 441.000
31.34325 410.000
31.36320 447.000
31.38314 360.000
31.40309 414.000
31.42304 435.000
31.44298 428.000
31.46293 382.000
31.48288 407.000
31.50282 447.000
31.52277 418.000
31.54272 413.000
31.56267 431.000
31.58261 417.000
31.60256 465.000
31.62251 417.000
31.64245 455.000
31.66240 460.000
31.68235 459.000
31.70229 490.000
31.72224 516.000
31.74219 512.000
31.76214 625.000
31.78208 637.000
31.80203 821.000
31.82198 990.000
31.84192 1070.000
31.86187 997.000
31.88182 997.000
31.90176 932.000
31.92171 966.000
31.94166 897.000
31.96160 707.000
31.98155 662.000
32.00150 622.000
32.02145 576.000
32.04139 483.000
32.06134 436.000
32.08129 458.000
32.10123 476.000
32.12118 425.000
32.14113 462.000
32.16107 457.000
32.18102 453.000
32.20097 434.000
32.22092 428.000
32.24086 430.000
32.26081 439.000
32.28076 455.000
32.30070 408.000
32.32065 433.000
32.34060 444.000
32.36054 458.000
32.38049 472.000
32.40044 465.000
32.42039 496.000
32.44033 509.000
32.46028 578.000
32.48023 666.000
32.50017 764.000
32.52012 880.000
32.54007 836.000
32.56001 755.000
32.57996 674.000
32.59991 684.000
32.61985 652.000
32.63980 556.000
32.65975 460.000
32.67970 448.000
32.69964 430.000
32.71959 453.000
32.73954 465.000
32.75948 401.000
32.77943 455.000
32.79938 412.000
32.81932 422.000
32.83927 422.000
32.85922 425.000
32.87917 400.000
32.89911 452.000
32.91906 449.000
32.93901 446.000
32.95895 379.000
32.97890 448.000
32.99885 411.000
33.01879 431.000
33.03874 428.000
33.05869 416.000
33.07863 426.000
33.09858 396.000
33.11853 437.000
33.13848 438.000
33.15842 440.000
33.17837 430.000
33.19832 431.000
33.21826 463.000
33.23821 428.000
33.25816 431.000
33.27810 407.000
33.29805 420.000
33.31800 414.000
33.33795 410.000
33.35789 410.000
33.37784 418.000
33.39779 431.000
33.41773 362.000
33.43768 406.000
33.45763 401.000
33.47757 418.000
33.49752 424.000
33.51747 433.000
33.53741 448.000
33.55736 454.000
33.57731 406.000
33.59726 414.000
33.61720 421.000
33.63715 410.000
33.65710 428.000
33.67704 445.000
33.69699 441.000
33.71694 437.000
33.73688 422.000
33.75683 434.000
33.77678 435.000
33.79673 464.000
33.81667 440.000
33.83662 468.000
33.85657 442.000
33.87651 480.000
33.89646 436.000
33.91641 479.000
33.93635 478.000
33.95630 417.000
33.97625 475.000
33.99620 482.000
34.01614 477.000
34.03609 492.000
34.05604 465.000
34.07598 456.000
34.09593 455.000
34.11588 465.000
34.13582 504.000
34.15577 501.000
34.17572 530.000
34.19566 504.000
34.21561 574.000
34.23556 570.000
34.25551 679.000
34.27545 767.000
34.29540 832.000
34.31535 982.000
34.33529 1179.000
34.35524 1253.000
34.37519 1370.000
34.39513 1444.000
34.41508 1496.000
34.43503 1392.000
34.45498 1299.000
34.47492 1162.000
34.49487 1137.000
34.51482 1042.000
34.53476 917.000
34.55471 824.000
34.57466 785.000
34.59460 749.000
34.61455 641.000
34.63450 683.000
34.65444 687.000
34.67439 659.000
34.69434 661.000
34.71429 607.000
34.73423 658.000
34.75418 617.000
34.77413 589.000
34.79407 573.000
34.81402 594.000
34.83397 566.000
34.85391 584.000
34.87386 582.000
34.89381 569.000
34.91376 565.000
34.93370 520.000
34.95365 516.000
34.97360 537.000
34.99354 534.000
35.01349 483.000
35.03344 506.000
35.05338 534.000
35.07333 473.000
35.09328 536.000
35.11322 557.000
35.13317 595.000
35.15312 577.000
35.17307 567.000
35.19301 592.000
35.21296 616.000
35.23291 601.000
35.25285 650.000
35.27280 750.000
35.29275 725.000
35.31269 766.000
35.33264 875.000
35.35259 1004.000
35.37254 1202.000
35.39248 1485.000
35.41243 2049.000
35.43238 2581.000
35.45232 2836.000
35.47227 2958.000
35.49222 3477.000
35.51216 4045.000
35.53211 4593.000
35.55206 4612.000
35.57201 3772.000
35.59195 3330.000
35.61190 3018.000
35.63185 2816.000
35.65179 2405.000
35.67174 1894.000
35.69169 1500.000
35.71163 1145.000
35.73158 952.000
35.75153 869.000
35.77147 830.000
35.79142 739.000
35.81137 696.000
35.83132 651.000
35.85126 616.000
35.87121 640.000
35.89116 590.000
35.91110 604.000
35.93105 579.000
35.95100 592.000
35.97094 563.000
35.99089 557.000
36.01084 552.000
36.03079 565.000
36.05073 570.000
36.07068 528.000
36.09063 556.000
36.11057 503.000
36.13052 496.000
36.15047 488.000
36.17041 518.000
36.19036 510.000
36.21031 534.000
36.23025 473.000
36.25020 485.000
36.27015 487.000
36.29010 465.000
36.31004 498.000
36.32999 495.000
36.34994 530.000
36.36988 502.000
36.38983 491.000
36.40978 520.000
36.42972 541.000
36.44967 516.000
36.46962 508.000
36.48957 473.000
36.50951 484.000
36.52946 488.000
36.54941 495.000
36.56935 475.000
36.58930 477.000
36.60925 467.000
36.62919 461.000
36.64914 486.000
36.66909 441.000
36.68903 453.000
36.70898 502.000
36.72893 448.000
36.74888 451.000
36.76882 430.000
36.78877 403.000
36.80872 434.000
36.82866 481.000
36.84861 436.000
36.86856 465.000
36.88850 462.000
36.90845 459.000
36.92840 451.000
36.94835 487.000
36.96829 461.000
36.98824 475.000
37.00819 472.000
37.02813 475.000
37.04808 484.000
37.06803 538.000
37.08797 496.000
37.10792 533.000
37.12787 520.000
37.14781 508.000
37.16776 540.000
37.18771 544.000
37.20766 516.000
37.22760 517.000
37.24755 497.000
37.26750 462.000
37.28744 460.000
37.30739 463.000
37.32734 515.000
37.34728 477.000
37.36723 464.000
37.38718 461.000
37.40713 454.000
37.42707 416.000
37.44702 439.000
37.46697 426.000
37.48691 438.000
37.50686 468.000
37.52681 428.000
37.54675 431.000
37.56670 483.000
37.58665 456.000
37.60660 436.000
37.62654 445.000
37.64649 490.000
37.66644 423.000
37.68638 453.000
37.70633 452.000
37.72628 462.000
37.74622 470.000
37.76617 439.000
37.78612 421.000
37.80606 462.000
37.82601 459.000
37.84596 453.000
37.86591 470.000
37.88585 467.000
37.90580 512.000
37.92575 487.000
37.94569 500.000
37.96564 443.000
37.98559 484.000
38.00553 505.000
38.02548 451.000
38.04543 445.000
38.06538 512.000
38.08532 507.000
38.10527 492.000
38.12522 531.000
38.14516 477.000
38.16511 535.000
38.18506 506.000
38.20500 475.000
38.22495 526.000
38.24490 546.000
38.26484 570.000
38.28479 541.000
38.30474 571.000
38.32469 602.000
38.34463 569.000
38.36458 589.000
38.38453 607.000
38.40447 578.000
38.42442 683.000
38.44437 667.000
38.46431 725.000
38.48426 727.000
38.50421 811.000
38.52416 863.000
38.54410 875.000
38.56405 941.000
38.58400 1138.000
38.60394 1245.000
38.62389 1355.000
38.64384 1627.000
38.66378 2001.000
38.68373 2506.000
38.70368 3238.000
38.72362 4073.000
38.74357 4703.000
38.76352 4689.000
38.78347 4151.000
38.80341 3687.000
38.82336 3760.000
38.84331 3583.000
38.86325 3441.000
38.88320 3163.000
38.90315 2818.000
38.92309 2325.000
38.94304 1981.000
38.96299 1748.000
38.98294 1688.000
39.00288 1643.000
39.02283 1478.000
39.04278 1382.000
39.06272 1316.000
39.08267 1326.000
39.10262 1209.000
39.12256 1216.000
39.14251 1159.000
39.16246 1031.000
39.18241 1005.000
39.20235 931.000
39.22230 853.000
39.24225 833.000
39.26219 749.000
39.28214 695.000
39.30209 644.000
39.32203 658.000
39.34198 622.000
39.36193 608.000
39.38187 613.000
39.40182 580.000
39.42177 579.000
39.44172 603.000
39.46166 556.000
39.48161 586.000
39.50156 536.000
39.52150 498.000
39.54145 514.000
39.56140 488.000
39.58134 453.000
39.60129 443.000
39.62124 500.000
39.64119 472.000
39.66113 464.000
39.68108 462.000
39.70103 511.000
39.72097 473.000
39.74092 458.000
39.76087 451.000
39.78081 500.000
39.80076 449.000
39.82071 451.000
39.84065 449.000
39.86060 448.000
39.88055 417.000
39.90050 455.000
39.92044 462.000
39.94039 445.000
39.96034 444.000
39.98028 464.000
40.00023 419.000
40.02018 432.000
40.04012 488.000
40.06007 467.000
40.08002 416.000
40.09997 416.000
40.11991 442.000
40.13986 432.000
40.15981 398.000
40.17975 435.000
40.19970 416.000
40.21965 441.000
40.23959 421.000
40.25954 469.000
40.27949 435.000
40.29943 447.000
40.31938 396.000
40.33933 414.000
40.35928 407.000
40.37922 415.000
40.39917 432.000
40.41912 451.000
40.43906 435.000
40.45901 431.000
40.47896 432.000
40.49890 436.000
40.51885 422.000
40.53880 421.000
40.55875 389.000
40.57869 419.000
40.59864 456.000
40.61859 434.000
40.63853 419.000
40.65848 423.000
40.67843 426.000
40.69837 435.000
40.71832 416.000
40.73827 414.000
40.75822 444.000
40.77816 438.000
40.79811 398.000
40.81806 440.000
40.83800 448.000
40.85795 419.000
40.87790 465.000
40.89784 425.000
40.91779 445.000
40.93774 437.000
40.95768 394.000
40.97763 435.000
40.99758 403.000
41.01753 407.000
41.03747 456.000
41.05742 382.000
41.07737 435.000
41.09731 440.000
41.11726 410.000
41.13721 398.000
41.15715 419.000
41.17710 421.000
41.19705 436.000
41.21700 420.000
41.23694 446.000
41.25689 444.000
41.27684 414.000
41.29678 427.000
41.31673 389.000
41.33668 420.000
41.35662 412.000
41.37657 395.000
41.39652 415.000
41.41646 430.000
41.43641 407.000
41.45636 418.000
41.47631 442.000
41.49625 467.000
41.51620 466.000
41.53615 407.000
41.55609 419.000
41.57604 461.000
41.59599 428.000
41.61593 412.000
41.63588 465.000
41.65583 430.000
41.67578 387.000
41.69572 424.000
41.71567 418.000
41.73562 408.000
41.75556 401.000
41.77551 419.000
41.79546 420.000
41.81540 402.000
41.83535 410.000
41.85530 447.000
41.87524 381.000
41.89519 418.000
41.91514 411.000
41.93509 383.000
41.95503 408.000
41.97498 417.000
41.99493 432.000
42.01487 417.000
42.03482 445.000
42.05477 382.000
42.07471 405.000
42.09466 392.000
42.11461 431.000
42.13456 412.000
42.15450 422.000
42.17445 417.000
42.19440 400.000
42.21434 417.000
42.23429 436.000
42.25424 422.000
42.27418 382.000
42.29413 409.000
42.31408 441.000
42.33403 432.000
42.35397 437.000
42.37392 453.000
42.39387 416.000
42.41381 455.000
42.43376 459.000
42.45371 433.000
42.47365 465.000
42.49360 456.000
42.51355 430.000
42.53349 450.000
42.55344 469.000
42.57339 454.000
42.59334 443.000
42.61328 420.000
42.63323 459.000
42.65318 426.000
42.67312 434.000
42.69307 438.000
42.71302 411.000
42.73296 406.000
42.75291 440.000
42.77286 431.000
42.79281 449.000
42.81275 425.000
42.83270 446.000
42.85265 474.000
42.87259 408.000
42.89254 459.000
42.91249 453.000
42.93243 453.000
42.95238 415.000
42.97233 496.000
42.99227 444.000
43.01222 477.000
43.03217 459.000
43.05212 484.000
43.07206 512.000
43.09201 526.000
43.11196 563.000
43.13190 599.000
43.15185 684.000
43.17180 639.000
43.19174 654.000
43.21169 702.000
43.23164 668.000
43.25159 608.000
43.27153 678.000
43.29148 563.000
43.31143 593.000
43.33137 595.000
43.35132 542.000
43.37127 537.000
43.39121 519.000
43.41116 480.000
43.43111 456.000
43.45105 459.000
43.47100 508.000
43.49095 481.000
43.51090 494.000
43.53084 452.000
43.55079 434.000
43.57074 461.000
43.59068 425.000
43.61063 449.000
43.63058 468.000
43.65052 447.000
43.67047 491.000
43.69042 438.000
43.71037 443.000
43.73031 421.000
43.75026 427.000
43.77021 415.000
43.79015 447.000
43.81010 422.000
43.83005 440.000
43.84999 417.000
43.86994 389.000
43.88989 432.000
43.90984 423.000
43.92978 439.000
43.94973 379.000
43.96968 422.000
43.98962 405.000
44.00957 449.000
44.02952 416.000
44.04946 418.000
44.06941 407.000
44.08936 429.000
44.10930 381.000
44.12925 445.000
44.14920 428.000
44.16915 412.000
44.18909 411.000
44.20904 429.000
44.22899 402.000
44.24893 403.000
44.26888 403.000
44.28883 370.000
44.30877 376.000
44.32872 438.000
44.34867 459.000
44.36862 413.000
44.38856 420.000
44.40851 426.000
44.42846 401.000
44.44840 417.000
44.46835 420.000
44.48830 396.000
44.50824 406.000
44.52819 398.000
44.54814 400.000
44.56808 430.000
44.58803 400.000
44.60798 440.000
44.62793 408.000
44.64787 433.000
44.66782 389.000
44.68777 450.000
44.70771 434.000
44.72766 433.000
44.74761 397.000
44.76755 411.000
44.78750 409.000
44.80745 415.000
44.82740 453.000
44.84734 422.000
44.86729 434.000
44.88724 472.000
44.90718 400.000
44.92713 424.000
44.94708 420.000
44.96702 430.000
44.98697 400.000
45.00692 387.000
45.02686 414.000
45.04681 426.000
45.06676 418.000
45.08671 392.000
45.10665 401.000
45.12660 424.000
45.14655 421.000
45.16649 395.000
45.18644 439.000
45.20639 408.000
45.22633 438.000
45.24628 428.000
45.26623 418.000
45.28618 429.000
45.30612 394.000
45.32607 416.000
45.34602 417.000
45.36596 350.000
45.38591 431.000
45.40586 420.000
45.42580 393.000
45.44575 423.000
45.46570 398.000
45.48565 391.000
45.50559 442.000
45.52554 405.000
45.54549 387.000
45.56543 406.000
45.58538 414.000
45.60533 398.000
45.62527 401.000
45.64522 458.000
45.66517 405.000
45.68511 439.000
45.70506 410.000
45.72501 415.000
45.74496 414.000
45.76490 425.000
45.78485 451.000
45.80480 381.000
45.82474 437.000
45.84469 413.000
45.86464 465.000
45.88458 409.000
45.90453 471.000
45.92448 422.000
45.94443 439.000
45.96437 432.000
45.98432 419.000
46.00427 414.000
46.02421 394.000
46.04416 403.000
46.06411 438.000
46.08405 393.000
46.10400 445.000
46.12395 417.000
46.14389 429.000
46.16384 478.000
46.18379 485.000
46.20374 486.000
46.22368 519.000
46.24363 526.000
46.26358 494.000
46.28352 467.000
46.30347 471.000
46.32342 449.000
46.34336 503.000
46.36331 469.000
46.38326 457.000
46.40321 424.000
46.42315 420.000
46.44310 442.000
46.46305 451.000
46.48299 448.000
46.50294 440.000
46.52289 389.000
46.54283 410.000
46.56278 413.000
46.58273 421.000
46.60267 436.000
46.62262 397.000
46.64257 412.000
46.66252 385.000
46.68246 412.000
46.70241 446.000
46.72236 440.000
46.74230 408.000
46.76225 429.000
46.78220 415.000
46.80214 414.000
46.82209 422.000
46.84204 406.000
46.86199 449.000
46.88193 441.000
46.90188 392.000
46.92183 464.000
46.94177 430.000
46.96172 397.000
46.98167 436.000
47.00161 394.000
47.02156 418.000
47.04151 441.000
47.06146 438.000
47.08140 428.000
47.10135 429.000
47.12130 434.000
47.14124 423.000
47.16119 435.000
47.18114 426.000
47.20108 403.000
47.22103 437.000
47.24098 430.000
47.26092 410.000
47.28087 409.000
47.30082 419.000
47.32077 421.000
47.34071 451.000
47.36066 415.000
47.38061 457.000
47.40055 398.000
47.42050 423.000
47.44045 425.000
47.46039 418.000
47.48034 421.000
47.50029 446.000
47.52024 428.000
47.54018 435.000
47.56013 407.000
47.58008 450.000
47.60002 430.000
47.61997 452.000
47.63992 409.000
47.65986 423.000
47.67981 426.000
47.69976 391.000
47.71970 445.000
47.73965 434.000
47.75960 431.000
47.77955 447.000
47.79949 418.000
47.81944 441.000
47.83939 446.000
47.85933 430.000
47.87928 462.000
47.89923 459.000
47.91917 474.000
47.93912 456.000
47.95907 468.000
47.97902 438.000
47.99896 446.000
48.01891 486.000
48.03886 461.000
48.05880 422.000
48.07875 490.000
48.09870 519.000
48.11864 517.000
48.13859 475.000
48.15854 470.000
48.17848 486.000
48.19843 503.000
48.21838 528.000
48.23833 507.000
48.25827 570.000
48.27822 554.000
48.29817 577.000
48.31811 635.000
48.33806 654.000
48.35801 691.000
48.37795 839.000
48.39790 947.000
48.41785 970.000
48.43780 1083.000
48.45774 1068.000
48.47769 1017.000
48.49764 1119.000
48.51758 1099.000
48.53753 1099.000
48.55748 1112.000
48.57742 1182.000
48.59737 1231.000
48.61732 1362.000
48.63726 1528.000
48.65721 1745.000
48.67716 1827.000
48.69711 1694.000
48.71705 1512.000
48.73700 1340.000
48.75695 1224.000
48.77689 1266.000
48.79684 1220.000
48.81679 1236.000
48.83673 1059.000
48.85668 942.000
48.87663 802.000
48.89658 698.000
48.91652 653.000
48.93647 540.000
48.95642 565.000
48.97636 566.000
48.99631 505.000
49.01626 537.000
49.03620 476.000
49.05615 498.000
49.07610 480.000
49.09605 511.000
49.11599 501.000
49.13594 476.000
49.15589 472.000
49.17583 490.000
49.19578 477.000
49.21573 455.000
49.23567 481.000
49.25562 492.000
49.27557 423.000
49.29551 469.000
49.31546 453.000
49.33541 456.000
49.35536 490.000
49.37530 474.000
49.39525 518.000
49.41520 500.000
49.43514 509.000
49.45509 496.000
49.47504 477.000
49.49498 484.000
49.51493 485.000
49.53488 511.000
49.55483 469.000
49.57477 463.000
49.59472 464.000
49.61467 454.000
49.63461 457.000
49.65456 456.000
49.67451 458.000
49.69445 451.000
49.71440 463.000
49.73435 441.000
49.75429 432.000
49.77424 421.000
49.79419 455.000
49.81414 421.000
49.83408 455.000
49.85403 453.000
49.87398 437.000
49.89392 445.000
49.91387 456.000
49.93382 472.000
49.95376 460.000
49.97371 457.000
49.99366 440.000
50.01361 492.000
50.03355 384.000
50.05350 396.000
50.07345 450.000
50.09339 445.000
50.11334 420.000
50.13329 420.000
50.15323 418.000
50.17318 423.000
50.19313 431.000
50.21307 381.000
50.23302 427.000
50.25297 419.000
50.27292 412.000
50.29286 412.000
50.31281 438.000
50.33276 417.000
50.35270 392.000
50.37265 416.000
50.39260 413.000
50.41254 388.000
50.43249 427.000
50.45244 405.000
50.47239 387.000
50.49233 395.000
50.51228 439.000
50.53223 417.000
50.55217 470.000
50.57212 426.000
50.59207 445.000
50.61201 409.000
50.63196 433.000
50.65191 438.000
50.67186 417.000
50.69180 446.000
50.71175 420.000
50.73170 379.000
50.75164 422.000
50.77159 400.000
50.79154 449.000
50.81148 393.000
50.83143 418.000
50.85138 406.000
50.87132 426.000
50.89127 402.000
50.91122 413.000
50.93117 421.000
50.95111 407.000
50.97106 446.000
50.99101 394.000
51.01095 421.000
51.03090 421.000
51.05085 413.000
51.07079 423.000
51.09074 423.000
51.11069 393.000
51.13064 423.000
51.15058 362.000
51.17053 434.000
51.19048 453.000
51.21042 413.000
51.23037 396.000
51.25032 445.000
51.27026 454.000
51.29021 453.000
51.31016 464.000
51.33010 437.000
51.35005 495.000
51.37000 482.000
51.38995 496.000
51.40989 441.000
51.42984 459.000
51.44979 441.000
51.46973 465.000
51.48968 408.000
51.50963 417.000
51.52957 430.000
51.54952 455.000
51.56947 420.000
51.58942 407.000
51.60936 391.000
51.62931 425.000
51.64926 409.000
51.66920 431.000
51.68915 439.000
51.70910 404.000
51.72904 432.000
51.74899 412.000
51.76894 398.000
51.78888 435.000
51.80883 409.000
51.82878 404.000
51.84873 434.000
51.86867 418.000
51.88862 409.000
51.90857 408.000
51.92851 429.000
51.94846 452.000
51.96841 469.000
51.98835 420.000
52.00830 436.000
52.02825 441.000
52.04820 443.000
52.06814 429.000
52.08809 450.000
52.10804 445.000
52.12798 459.000
52.14793 425.000
52.16788 419.000
52.18782 410.000
52.20777 390.000
52.22772 422.000
52.24767 407.000
52.26761 425.000
52.28756 424.000
52.30751 443.000
52.32745 441.000
52.34740 425.000
52.36735 412.000
52.38729 420.000
52.40724 433.000
52.42719 406.000
52.44713 424.000
52.46708 418.000
52.48703 407.000
52.50698 426.000
52.52692 434.000
52.54687 400.000
52.56682 423.000
52.58676 404.000
52.60671 497.000
52.62666 424.000
52.64660 422.000
52.66655 402.000
52.68650 397.000
52.70645 441.000
52.72639 426.000
52.74634 416.000
52.76629 395.000
52.78623 405.000
52.80618 425.000
52.82613 415.000
52.84607 448.000
52.86602 400.000
52.88597 403.000
52.90591 408.000
52.92586 439.000
52.94581 398.000
52.96576 422.000
52.98570 461.000
53.00565 409.000
53.02560 427.000
53.04554 450.000
53.06549 436.000
53.08544 406.000
53.10538 434.000
53.12533 459.000
53.14528 412.000
53.16523 403.000
53.18517 466.000
53.20512 421.000
53.22507 462.000
53.24501 459.000
53.26496 480.000
53.28491 512.000
53.30485 471.000
53.32480 480.000
53.34475 426.000
53.36469 499.000
53.38464 495.000
53.40459 548.000
53.42454 572.000
53.44448 608.000
53.46443 608.000
53.48438 614.000
53.50432 691.000
53.52427 757.000
53.54422 746.000
53.56416 753.000
53.58411 712.000
53.60406 718.000
53.62401 687.000
53.64395 652.000
53.66390 653.000
53.68385 628.000
53.70379 615.000
53.72374 606.000
53.74369 498.000
53.76363 512.000
53.78358 503.000
53.80353 477.000
53.82348 489.000
53.84342 488.000
53.86337 438.000
53.88332 455.000
53.90326 419.000
53.92321 398.000
53.94316 473.000
53.96310 442.000
53.98305 432.000
54.00300 497.000
54.02294 444.000
54.04289 450.000
54.06284 389.000
54.08279 449.000
54.10273 425.000
54.12268 410.000
54.14263 452.000
54.16257 452.000
54.18252 470.000
54.20247 404.000
54.22241 439.000
54.24236 437.000
54.26231 395.000
54.28226 413.000
54.30220 439.000
54.32215 419.000
54.34210 425.000
54.36204 423.000
54.38199 410.000
54.40194 423.000
54.42188 435.000
54.44183 478.000
54.46178 382.000
54.48172 417.000
54.50167 374.000
54.52162 406.000
54.54157 433.000
54.56151 408.000
54.58146 425.000
54.60141 424.000
54.62135 400.000
54.64130 400.000
54.66125 433.000
54.68119 443.000
54.70114 434.000
54.72109 407.000
54.74104 402.000
54.76098 432.000
54.78093 437.000
54.80088 396.000
54.82082 415.000
54.84077 442.000
54.86072 437.000
54.88066 409.000
54.90061 377.000
54.92056 411.000
54.94050 406.000
54.96045 433.000
54.98040 415.000
55.00035 464.000
55.02029 439.000
55.04024 441.000
55.06019 397.000
55.08013 363.000
55.10008 370.000
55.12003 423.000
55.13997 380.000
55.15992 410.000
55.17987 387.000
55.19982 428.000
55.21976 396.000
55.23971 416.000
55.25966 432.000
55.27960 447.000
55.29955 435.000
55.31950 423.000
55.33944 417.000
55.35939 390.000
55.37934 427.000
55.39929 432.000
55.41923 428.000
55.43918 417.000
55.45913 393.000
55.47907 440.000
55.49902 408.000
55.51897 421.000
55.53891 415.000
55.55886 411.000
55.57881 418.000
55.59875 381.000
55.61870 407.000
55.63865 402.000
55.65860 391.000
55.67854 409.000
55.69849 440.000
55.71844 396.000
55.73838 439.000
55.75833 419.000
55.77828 438.000
55.79822 432.000
55.81817 442.000
55.83812 400.000
55.85807 446.000
55.87801 396.000
55.89796 386.000
55.91791 451.000
55.93785 408.000
55.95780 409.000
55.97775 457.000
55.99769 433.000
56.01764 464.000
56.03759 458.000
56.05753 427.000
56.07748 408.000
56.09743 426.000
56.11738 445.000
56.13732 476.000
56.15727 388.000
56.17722 418.000
56.19716 394.000
56.21711 414.000
56.23706 440.000
56.25700 407.000
56.27695 428.000
56.29690 450.000
56.31685 436.000
56.33679 425.000
56.35674 441.000
56.37669 416.000
56.39663 455.000
56.41658 433.000
56.43653 407.000
56.45647 398.000
56.47642 409.000
56.49637 420.000
56.51631 426.000
56.53626 379.000
56.55621 432.000
56.57616 396.000
56.59610 427.000
56.61605 435.000
56.63600 424.000
56.65594 426.000
56.67589 433.000
56.69584 446.000
56.71578 444.000
56.73573 424.000
56.75568 474.000
56.77563 466.000
56.79557 450.000
56.81552 444.000
56.83547 426.000
56.85541 402.000
56.87536 441.000
56.89531 466.000
56.91525 434.000
56.93520 418.000
56.95515 435.000
56.97510 424.000
56.99504 409.000
57.01499 475.000
57.03494 432.000
57.05488 432.000
57.07483 425.000
57.09478 427.000
57.11472 440.000
57.13467 397.000
57.15462 403.000
57.17456 405.000
57.19451 387.000
57.21446 434.000
57.23441 394.000
57.25435 423.000
57.27430 448.000
57.29425 407.000
57.31419 419.000
57.33414 448.000
57.35409 401.000
57.37403 445.000
57.39398 402.000
57.41393 413.000
57.43388 409.000
57.45382 421.000
57.47377 433.000
57.49372 447.000
57.51366 406.000
57.53361 407.000
57.55356 408.000
57.57350 400.000
57.59345 440.000
57.61340 417.000
57.63334 412.000
57.65329 403.000
57.67324 424.000
57.69319 432.000
57.71313 453.000
57.73308 448.000
57.75303 435.000
57.77297 436.000
57.79292 426.000
57.81287 401.000
57.83281 436.000
57.85276 467.000
57.87271 413.000
57.89266 443.000
57.91260 434.000
57.93255 438.000
57.95250 432.000
57.97244 456.000
57.99239 456.000
58.01234 449.000
58.03228 475.000
58.05223 411.000
58.07218 459.000
58.09212 488.000
58.11207 493.000
58.13202 490.000
58.15197 531.000
58.17191 512.000
58.19186 520.000
58.21181 574.000
58.23175 623.000
58.25170 705.000
58.27165 727.000
58.29159 847.000
58.31154 829.000
58.33149 853.000
58.35144 807.000
58.37138 744.000
58.39133 699.000
58.41128 687.000
58.43122 620.000
58.45117 668.000
58.47112 710.000
58.49106 709.000
58.51101 618.000
58.53096 522.000
58.55090 578.000
58.57085 517.000
58.59080 515.000
58.61075 505.000
58.63069 498.000
58.65064 469.000
58.67059 458.000
58.69053 475.000
58.71048 437.000
58.73043 421.000
58.75037 422.000
58.77032 450.000
58.79027 440.000
58.81022 445.000
58.83016 454.000
58.85011 441.000
58.87006 411.000
58.89000 414.000
58.90995 425.000
58.92990 457.000
58.94984 426.000
58.96979 415.000
58.98974 461.000
59.00969 443.000
59.02963 431.000
59.04958 424.000
59.06953 420.000
59.08947 433.000
59.10942 428.000
59.12937 446.000
59.14931 424.000
59.16926 462.000
59.18921 418.000
59.20915 426.000
59.22910 444.000
59.24905 401.000
59.26900 376.000
59.28894 430.000
59.30889 377.000
59.32884 424.000
59.34878 455.000
59.36873 418.000
59.38868 414.000
59.40862 415.000
59.42857 459.000
59.44852 410.000
59.46847 402.000
59.48841 412.000
59.50836 371.000
59.52831 423.000
59.54825 424.000
59.56820 424.000
59.58815 408.000
59.60809 426.000
59.62804 448.000
59.64799 416.000
59.66793 434.000
59.68788 453.000
59.70783 425.000
59.72778 404.000
59.74772 419.000
59.76767 418.000
59.78762 428.000
59.80756 403.000
59.82751 394.000
59.84746 435.000
59.86740 447.000
59.88735 406.000
59.90730 434.000
59.92725 434.000
59.94719 446.000
59.96714 414.000
59.98709 429.000
60.00703 410.000
60.02698 450.000
60.04693 414.000
60.06687 396.000
60.08682 438.000
60.10677 380.000
60.12671 407.000
60.14666 444.000
60.16661 409.000
60.18656 403.000
60.20650 448.000
60.22645 431.000
60.24640 477.000
60.26634 439.000
60.28629 408.000
60.30624 404.000
60.32618 462.000
60.34613 401.000
60.36608 427.000
60.38603 406.000
60.40597 396.000
60.42592 486.000
60.44587 446.000
60.46581 439.000
60.48576 409.000
60.50571 451.000
60.52565 437.000
60.54560 431.000
60.56555 407.000
60.58550 402.000
60.60544 403.000
60.62539 404.000
60.64534 380.000
60.66528 426.000
60.68523 424.000
60.70518 419.000
60.72512 403.000
60.74507 433.000
60.76502 408.000
60.78496 440.000
60.80491 437.000
60.82486 482.000
60.84481 423.000
60.86475 446.000
60.88470 431.000
60.90465 470.000
60.92459 464.000
60.94454 430.000
60.96449 436.000
60.98443 468.000
61.00438 461.000
61.02433 451.000
61.04428 505.000
61.06422 477.000
61.08417 482.000
61.10412 446.000
61.12406 430.000
61.14401 518.000
61.16396 455.000
61.18390 472.000
61.20385 470.000
61.22380 507.000
61.24374 512.000
61.26369 492.000
61.28364 539.000
61.30359 545.000
61.32353 572.000
61.34348 563.000
61.36343 597.000
61.38337 602.000
61.40332 655.000
61.42327 742.000
61.44321 814.000
61.46316 917.000
61.48311 1050.000
61.50306 1247.000
61.52300 1318.000
61.54295 1291.000
61.56290 1231.000
61.58284 1200.000
61.60279 1222.000
61.62274 1131.000
61.64268 1179.000
61.66263 1121.000
61.68258 1153.000
61.70252 1133.000
61.72247 1117.000
61.74242 1005.000
61.76237 925.000
61.78231 856.000
61.80226 811.000
61.82221 805.000
61.84215 724.000
61.86210 703.000
61.88205 658.000
61.90199 653.000
61.92194 620.000
61.94189 585.000
61.96184 570.000
61.98178 569.000
62.00173 534.000
62.02168 527.000
62.04162 515.000
62.06157 520.000
62.08152 487.000
62.10146 529.000
62.12141 473.000
62.14136 504.000
62.16131 530.000
62.18125 505.000
62.20120 491.000
62.22115 492.000
62.24109 498.000
62.26104 499.000
62.28099 520.000
62.30093 480.000
62.32088 526.000
62.34083 512.000
62.36077 449.000
62.38072 492.000
62.40067 486.000
62.42062 472.000
62.44056 433.000
62.46051 448.000
62.48046 463.000
62.50040 431.000
62.52035 448.000
62.54030 429.000
62.56024 456.000
62.58019 482.000
62.60014 473.000
62.62009 451.000
62.64003 499.000
62.65998 463.000
62.67993 422.000
62.69987 426.000
62.71982 457.000
62.73977 445.000
62.75971 445.000
62.77966 471.000
62.79961 437.000
62.81955 419.000
62.83950 433.000
62.85945 432.000
62.87940 453.000
62.89934 417.000
62.91929 451.000
62.93924 458.000
62.95918 448.000
62.97913 451.000
62.99908 423.000
63.01902 424.000
63.03897 432.000
63.05892 472.000
63.07887 418.000
63.09881 454.000
63.11876 484.000
63.13871 445.000
63.15865 435.000
63.17860 474.000
63.19855 409.000
63.21849 441.000
63.23844 478.000
63.25839 424.000
63.27833 415.000
63.29828 439.000
63.31823 462.000
63.33818 463.000
63.35812 474.000
63.37807 397.000
63.39802 421.000
63.41796 456.000
63.43791 461.000
63.45786 443.000
63.47780 428.000
63.49775 420.000
63.51770 446.000
63.53765 467.000
63.55759 470.000
63.57754 449.000
63.59749 470.000
63.61743 471.000
63.63738 516.000
63.65733 511.000
63.67727 509.000
63.69722 465.000
63.71717 516.000
63.73712 546.000
63.75706 539.000
63.77701 522.000
63.79696 536.000
63.81690 506.000
63.83685 519.000
63.85680 577.000
63.87674 559.000
63.89669 517.000
63.91664 503.000
63.93658 506.000
63.95653 536.000
63.97648 484.000
63.99643 477.000
64.01637 512.000
64.03632 484.000
64.05627 507.000
64.07621 539.000
64.09616 491.000
64.11611 504.000
64.13605 488.000
64.15600 508.000
64.17595 460.000
64.19590 488.000
64.21584 399.000
64.23579 425.000
64.25574 426.000
64.27568 407.000
64.29563 464.000
64.31558 481.000
64.33552 499.000
64.35547 422.000
64.37542 459.000
64.39536 463.000
64.41531 450.000
64.43526 442.000
64.45521 447.000
64.47515 438.000
64.49510 465.000
64.51505 423.000
64.53499 455.000
64.55494 455.000
64.57489 428.000
64.59483 474.000
64.61478 428.000
64.63473 518.000
64.65468 474.000
64.67462 447.000
64.69457 429.000
64.71452 453.000
64.73446 440.000
64.75441 444.000
64.77436 442.000
64.79430 433.000
64.81425 448.000
64.83420 437.000
64.85414 443.000
64.87409 429.000
64.89404 427.000
64.91399 417.000
64.93393 438.000
64.95388 428.000
64.97383 398.000
64.99377 447.000
65.01372 405.000
65.03367 456.000
65.05361 413.000
65.07356 418.000
65.09351 459.000
65.11346 459.000
65.13340 444.000
65.15335 422.000
65.17330 475.000
65.19324 423.000
65.21319 442.000
65.23314 436.000
65.25308 450.000
65.27303 483.000
65.29298 476.000
65.31293 527.000
65.33287 477.000
65.35282 436.000
65.37277 448.000
65.39271 488.000
65.41266 444.000
65.43261 454.000
65.45255 479.000
65.47250 501.000
65.49245 501.000
65.51239 497.000
65.53234 512.000
65.55229 526.000
65.57224 520.000
65.59218 493.000
65.61213 559.000
65.63208 536.000
65.65202 553.000
65.67197 567.000
65.69192 579.000
65.71186 573.000
65.73181 597.000
65.75176 683.000
65.77171 690.000
65.79165 701.000
65.81160 802.000
65.83155 803.000
65.85149 809.000
65.87144 863.000
65.89139 822.000
65.91133 786.000
65.93128 799.000
65.95123 746.000
65.97117 725.000
65.99112 784.000
66.01107 800.000
66.03102 804.000
66.05096 846.000
66.07091 868.000
66.09086 825.000
66.11080 906.000
66.13075 966.000
66.15070 947.000
66.17064 1031.000
66.19059 1123.000
66.21054 1064.000
66.23049 968.000
66.25043 899.000
66.27038 883.000
66.29033 778.000
66.31027 817.000
66.33022 760.000
66.35017 793.000
66.37011 813.000
66.39006 866.000
66.41001 760.000
66.42995 703.000
66.44990 721.000
66.46985 666.000
66.48980 676.000
66.50974 647.000
66.52969 584.000
66.54964 568.000
66.56958 597.000
66.58953 544.000
66.60948 552.000
66.62942 534.000
66.64937 523.000
66.66932 529.000
66.68927 561.000
66.70921 589.000
66.72916 532.000
66.74911 565.000
66.76905 520.000
66.78900 526.000
66.80895 509.000
66.82889 494.000
66.84884 488.000
66.86879 467.000
66.88874 480.000
66.90868 474.000
66.92863 498.000
66.94858 446.000
66.96852 464.000
66.98847 449.000
67.00842 450.000
67.02836 470.000
67.04831 478.000
67.06826 476.000
67.08820 441.000
67.10815 426.000
67.12810 437.000
67.14805 425.000
67.16799 462.000
67.18794 483.000
67.20789 471.000
67.22783 470.000
67.24778 420.000
67.26773 427.000
67.28767 443.000
67.30762 435.000
67.32757 479.000
67.34752 416.000
67.36746 414.000
67.38741 432.000
67.40736 469.000
67.42730 471.000
67.44725 477.000
67.46720 461.000
67.48714 466.000
67.50709 446.000
67.52704 443.000
67.54698 474.000
67.56693 505.000
67.58688 466.000
67.60683 450.000
67.62677 500.000
67.64672 473.000
67.66667 492.000
67.68661 474.000
67.70656 477.000
67.72651 505.000
67.74645 512.000
67.76640 524.000
67.78635 529.000
67.80630 541.000
67.82624 551.000
67.84619 572.000
67.86614 619.000
67.88608 645.000
67.90603 690.000
67.92598 757.000
67.94592 736.000
67.96587 757.000
67.98582 740.000
68.00576 745.000
68.02571 774.000
68.04566 783.000
68.06561 849.000
68.08555 916.000
68.10550 972.000
68.12545 1004.000
68.14539 997.000
68.16534 979.000
68.18529 908.000
68.20523 796.000
68.22518 757.000
68.24513 732.000
68.26508 737.000
68.28502 738.000
68.30497 719.000
68.32492 733.000
68.34486 728.000
68.36481 614.000
68.38476 634.000
68.40470 607.000
68.42465 518.000
68.44460 548.000
68.46455 483.000
68.48449 466.000
68.50444 481.000
68.52439 449.000
68.54433 449.000
68.56428 410.000
68.58423 451.000
68.60417 476.000
68.62412 436.000
68.64407 440.000
68.66401 446.000
68.68396 474.000
68.70391 444.000
68.72386 455.000
68.74380 449.000
68.76375 429.000
68.78370 400.000
68.80364 437.000
68.82359 374.000
68.84354 414.000
68.86348 413.000
68.88343 443.000
68.90338 410.000
68.92333 444.000
68.94327 431.000
68.96322 417.000
68.98317 424.000
69.00311 434.000
69.02306 432.000
69.04301 392.000
69.06295 452.000
69.08290 414.000
69.10285 418.000
69.12279 409.000
69.14274 443.000
69.16269 408.000
69.18264 455.000
69.20258 405.000
69.22253 417.000
69.24248 448.000
69.26242 408.000
69.28237 419.000
69.30232 403.000
69.32226 443.000
69.34221 442.000
69.36216 444.000
69.38211 410.000
69.40205 447.000
69.42200 436.000
69.44195 431.000
69.46189 411.000
69.48184 384.000
69.50179 434.000
69.52173 427.000
69.54168 384.000
69.56163 427.000
69.58157 433.000
69.60152 400.000
69.62147 444.000
69.64142 408.000
69.66136 377.000
69.68131 388.000
69.70126 444.000
69.72120 452.000
69.74115 413.000
69.76110 407.000
69.78104 430.000
69.80099 409.000
69.82094 458.000
69.84089 452.000
69.86083 403.000
69.88078 422.000
69.90073 385.000
69.92067 434.000
69.94062 393.000
69.96057 415.000
69.98051 373.000
70.00046 420.000
70.02041 439.000
70.04035 415.000
70.06030 381.000
70.08025 412.000
70.10020 415.000
70.12014 430.000
70.14009 406.000
70.16004 437.000
70.17998 403.000
70.19993 432.000
70.21988 403.000
70.23982 431.000
70.25977 418.000
70.27972 399.000
70.29967 425.000
70.31961 428.000
70.33956 411.000
70.35951 403.000
70.37945 412.000
70.39940 408.000
70.41935 396.000
70.43929 364.000
70.45924 415.000
70.47919 416.000
70.49914 431.000
70.51908 382.000
70.53903 423.000
70.55898 442.000
70.57892 369.000
70.59887 462.000
70.61882 406.000
70.63876 420.000
70.65871 420.000
70.67866 439.000
70.69860 432.000
70.71855 395.000
70.73850 443.000
70.75845 408.000
70.77839 395.000
70.79834 415.000
70.81829 425.000
70.83823 429.000
70.85818 416.000
70.87813 412.000
70.89807 396.000
70.91802 376.000
70.93797 393.000
70.95792 402.000
70.97786 401.000
70.99781 410.000
71.01776 377.000
71.03770 386.000
71.05765 428.000
71.07760 406.000
71.09754 377.000
71.11749 425.000
71.13744 424.000
71.15738 435.000
71.17733 418.000
71.19728 432.000
71.21723 419.000
71.23717 421.000
71.25712 415.000
71.27707 425.000
71.29701 416.000
71.31696 406.000
71.33691 400.000
71.35685 428.000
71.37680 440.000
71.39675 438.000
71.41670 385.000
71.43664 432.000
71.45659 420.000
71.47654 419.000
71.49648 449.000
71.51643 402.000
71.53638 460.000
71.55632 423.000
71.57627 426.000
71.59622 428.000
71.61616 447.000
71.63611 422.000
71.65606 399.000
71.67601 444.000
71.69595 418.000
71.71590 427.000
71.73585 436.000
71.75579 415.000
71.77574 411.000
71.79569 473.000
71.81563 446.000
71.83558 407.000
71.85553 433.000
71.87548 446.000
71.89542 426.000
71.91537 433.000
71.93532 429.000
71.95526 407.000
71.97521 406.000
71.99516 465.000
72.01510 438.000
72.03505 435.000
72.05500 449.000
72.07495 415.000
72.09489 440.000
72.11484 422.000
72.13479 502.000
72.15473 442.000
72.17468 469.000
72.19463 465.000
72.21457 446.000
72.23452 445.000
72.25447 450.000
72.27441 481.000
72.29436 537.000
72.31431 512.000
72.33426 521.000
72.35420 556.000
72.37415 581.000
72.39410 614.000
72.41404 638.000
72.43399 604.000
72.45394 571.000
72.47388 580.000
72.49383 546.000
72.51378 528.000
72.53373 508.000
72.55367 523.000
72.57362 563.000
72.59357 591.000
72.61351 594.000
72.63346 550.000
72.65341 549.000
72.67335 515.000
72.69330 493.000
72.71325 470.000
72.73319 472.000
72.75314 449.000
72.77309 484.000
72.79304 433.000
72.81298 419.000
72.83293 462.000
72.85288 475.000
72.87282 511.000
72.89277 480.000
72.91272 422.000
72.93266 458.000
72.95261 449.000
72.97256 496.000
72.99251 491.000
73.01245 451.000
73.03240 476.000
73.05235 484.000
73.07229 470.000
73.09224 442.000
73.11219 482.000
73.13213 482.000
73.15208 488.000
73.17203 476.000
73.19197 465.000
73.21192 447.000
73.23187 461.000
73.25182 456.000
73.27176 481.000
73.29171 463.000
73.31166 441.000
73.33160 460.000
73.35155 439.000
73.37150 414.000
73.39144 435.000
73.41139 430.000
73.43134 429.000
73.45129 415.000
73.47123 417.000
73.49118 439.000
73.51113 396.000
73.53107 445.000
73.55102 440.000
73.57097 418.000
73.59091 419.000
73.61086 415.000
73.63081 423.000
73.65076 423.000
73.67070 442.000
73.69065 419.000
73.71060 426.000
73.73054 394.000
73.75049 424.000
73.77044 431.000
73.79038 443.000
73.81033 382.000
73.83028 406.000
73.85022 477.000
73.87017 447.000
73.89012 427.000
73.91007 469.000
73.93001 409.000
73.94996 405.000
73.96991 426.000
73.98985 427.000
74.00980 383.000
74.02975 384.000
74.04969 424.000
74.06964 433.000
74.08959 442.000
74.10954 420.000
74.12948 412.000
74.14943 398.000
74.16938 446.000
74.18932 432.000
74.20927 409.000
74.22922 400.000
74.24916 450.000
74.26911 425.000
74.28906 434.000
74.30900 397.000
74.32895 450.000
74.34890 446.000
74.36885 396.000
74.38879 446.000
74.40874 442.000
74.42869 391.000
74.44863 426.000
74.46858 468.000
74.48853 410.000
74.50847 434.000
74.52842 407.000
74.54837 423.000
74.56832 443.000
74.58826 426.000
74.60821 402.000
74.62816 397.000
74.64810 430.000
74.66805 401.000
74.68800 468.000
74.70794 452.000
74.72789 464.000
74.74784 452.000
74.76778 474.000
74.78773 466.000
74.80768 451.000
74.82763 468.000
74.84757 464.000
74.86752 489.000
74.88747 469.000
74.90741 492.000
74.92736 512.000
74.94731 535.000
74.96725 583.000
74.98720 634.000
75.00715 617.000
75.02710 636.000
75.04704 624.000
75.06699 605.000
75.08694 608.000
75.10688 599.000
75.12683 567.000
75.14678 586.000
75.16672 626.000
75.18667 616.000
75.20662 645.000
75.22657 682.000
75.24651 636.000
75.26646 693.000
75.28641 655.000
75.30635 643.000
75.32630 578.000
75.34625 579.000
75.36619 547.000
75.38614 567.000
75.40609 507.000
75.42603 552.000
75.44598 530.000
75.46593 508.000
75.48588 520.000
75.50582 525.000
75.52577 493.000
75.54572 481.000
75.56566 443.000
75.58561 480.000
75.60556 438.000
75.62550 441.000
75.64545 419.000
75.66540 440.000
75.68535 449.000
75.70529 425.000
75.72524 446.000
75.74519 457.000
75.76513 417.000
75.78508 418.000
75.80503 465.000
75.82497 393.000
75.84492 399.000
75.86487 424.000
75.88481 440.000
75.90476 425.000
75.92471 393.000
75.94466 407.000
75.96460 420.000
75.98455 438.000
76.00450 393.000
76.02444 443.000
76.04439 444.000
76.06434 418.000
76.08428 438.000
76.10423 431.000
76.12418 417.000
76.14413 418.000
76.16407 461.000
76.18402 406.000
76.20397 443.000
76.22391 458.000
76.24386 410.000
76.26381 403.000
76.28375 468.000
76.30370 428.000
76.32365 420.000
76.34359 411.000
76.36354 422.000
76.38349 383.000
76.40344 434.000
76.42338 412.000
76.44333 385.000
76.46328 440.000
76.48322 378.000
76.50317 406.000
76.52312 453.000
76.54306 420.000
76.56301 422.000
76.58296 471.000
76.60291 439.000
76.62285 411.000
76.64280 434.000
76.66275 434.000
76.68269 425.000
76.70264 410.000
76.72259 462.000
76.74253 428.000
76.76248 429.000
76.78243 424.000
76.80238 416.000
76.82232 437.000
76.84227 419.000
76.86222 412.000
76.88216 410.000
76.90211 438.000
76.92206 385.000
76.94200 407.000
76.96195 418.000
76.98190 414.000
77.00184 454.000
77.02179 396.000
77.04174 431.000
77.06169 442.000
77.08163 417.000
77.10158 426.000
77.12153 456.000
77.14147 438.000
77.16142 417.000
77.18137 468.000
77.20131 416.000
77.22126 456.000
77.24121 430.000
77.26116 464.000
77.28110 498.000
77.30105 434.000
77.32100 444.000
77.34094 466.000
77.36089 471.000
77.38084 443.000
77.40078 487.000
77.42073 447.000
77.44068 413.000
77.46062 476.000
77.48057 461.000
77.50052 474.000
77.52047 445.000
77.54041 440.000
77.56036 485.000
77.58031 445.000
77.60025 468.000
77.62020 459.000
77.64015 470.000
77.66009 464.000
77.68004 516.000
77.69999 452.000
77.71994 494.000
77.73988 462.000
77.75983 503.000
77.77978 501.000
77.79972 490.000
77.81967 530.000
77.83962 476.000
77.85956 483.000
77.87951 438.000
77.89946 514.000
77.91940 490.000
77.93935 464.000
77.95930 469.000
77.97925 486.000
77.99919 488.000
78.01914 508.000
78.03909 480.000
78.05903 453.000
78.07898 458.000
78.09893 434.000
78.11887 420.000
78.13882 469.000
78.15877 459.000
78.17872 432.000
78.19866 444.000
78.21861 446.000
78.23856 426.000
78.25850 400.000
78.27845 433.000
78.29840 441.000
78.31834 403.000
78.33829 445.000
78.35824 392.000
78.37819 388.000
78.39813 447.000
78.41808 406.000
78.43803 417.000
78.45797 432.000
78.47792 420.000
78.49787 425.000
78.51781 427.000
78.53776 393.000
78.55771 393.000
78.57765 410.000
78.59760 378.000
78.61755 406.000
78.63750 414.000
78.65744 441.000
78.67739 395.000
78.69734 395.000
78.71728 389.000
78.73723 416.000
78.75718 419.000
78.77712 372.000
78.79707 393.000
78.81702 415.000
78.83697 435.000
78.85691 395.000
78.87686 404.000
78.89681 419.000
78.91675 411.000
78.93670 375.000
78.95665 408.000
78.97659 407.000
78.99654 436.000
79.01649 407.000
79.03643 427.000
79.05638 435.000
79.07633 413.000
79.09628 389.000
79.11622 442.000
79.13617 410.000
79.15612 433.000
79.17606 417.000
79.19601 428.000
79.21596 401.000
79.23590 419.000
79.25585 386.000
79.27580 432.000
79.29575 408.000
79.31569 417.000
79.33564 414.000
79.35559 430.000
79.37553 402.000
79.39548 408.000
79.41543 405.000
79.43537 441.000
79.45532 392.000
79.47527 437.000
79.49521 439.000
79.51516 433.000
79.53511 405.000
79.55506 410.000
79.57500 415.000
79.59495 422.000
79.61490 390.000
79.63484 418.000
79.65479 446.000
79.67474 389.000
79.69468 424.000
79.71463 426.000
79.73458 431.000
79.75453 436.000
79.77447 371.000
79.79442 451.000
79.81437 401.000
79.83431 402.000
79.85426 402.000
79.87421 430.000
79.89415 441.000
79.91410 419.000
79.93405 439.000
79.95399 422.000
79.97394 471.000
79.99389 428.000
80.01384 432.000
80.03378 435.000
80.05373 445.000
80.07368 492.000
80.09362 503.000
80.11357 465.000
80.13352 510.000
80.15346 475.000
80.17341 489.000
80.19336 479.000
80.21331 448.000
80.23325 433.000
80.25320 430.000
80.27315 406.000
80.29309 529.000
80.31304 452.000
80.33299 438.000
80.35293 450.000
80.37288 444.000
80.39283 440.000
80.41278 468.000
80.43272 401.000
80.45267 411.000
80.47262 439.000
80.49256 447.000
80.51251 473.000
80.53246 473.000
80.55240 443.000
80.57235 424.000
80.59230 450.000
80.61224 414.000
80.63219 390.000
80.65214 432.000
80.67209 399.000
80.69203 452.000
80.71198 433.000
80.73193 400.000
80.75187 411.000
80.77182 408.000
80.79177 440.000
80.81171 429.000
80.83166 396.000
80.85161 399.000
80.87156 407.000
80.89150 435.000
80.91145 422.000
80.93140 418.000
80.95134 424.000
80.97129 405.000
80.99124 399.000
81.01118 406.000
81.03113 445.000
81.05108 403.000
81.07102 438.000
81.09097 402.000
81.11092 416.000
81.13087 433.000
81.15081 425.000
81.17076 383.000
81.19071 419.000
81.21065 389.000
81.23060 409.000
81.25055 409.000
81.27049 419.000
81.29044 416.000
81.31039 464.000
81.33034 449.000
81.35028 409.000
81.37023 425.000
81.39018 429.000
81.41012 415.000
81.43007 439.000
81.45002 441.000
81.46996 414.000
81.48991 419.000
81.50986 426.000
81.52980 409.000
81.54975 445.000
81.56970 437.000
81.58965 426.000
81.60959 406.000
81.62954 384.000
81.64949 394.000
81.66943 399.000
81.68938 404.000
81.70933 391.000
81.72927 428.000
81.74922 470.000
81.76917 439.000
81.78912 438.000
81.80906 412.000
81.82901 435.000
81.84896 389.000
81.86890 424.000
81.88885 429.000
81.90880 471.000
81.92874 432.000
81.94869 446.000
81.96864 422.000
81.98859 385.000
82.00853 459.000
82.02848 448.000
82.04843 425.000
82.06837 439.000
82.08832 470.000
82.10827 462.000
82.12821 467.000
82.14816 448.000
82.16811 480.000
82.18805 498.000
82.20800 511.000
82.22795 513.000
82.24790 515.000
82.26784 528.000
82.28779 525.000
82.30774 507.000
82.32768 536.000
82.34763 520.000
82.36758 472.000
82.38752 473.000
82.40747 493.000
82.42742 472.000
82.44737 488.000
82.46731 478.000
82.48726 536.000
82.50721 475.000
82.52715 485.000
82.54710 496.000
82.56705 512.000
82.58699 523.000
82.60694 505.000
82.62689 491.000
82.64683 450.000
82.66678 420.000
82.68673 450.000
82.70668 422.000
82.72662 445.000
82.74657 468.000
82.76652 460.000
82.78646 470.000
82.80641 478.000
82.82636 451.000
82.84630 486.000
82.86625 465.000
82.88620 457.000
82.90615 465.000
82.92609 481.000
82.94604 427.000
82.96599 451.000
82.98593 497.000
83.00588 509.000
83.02583 483.000
83.04577 501.000
83.06572 503.000
83.08567 528.000
83.10561 516.000
83.12556 526.000
83.14551 523.000
83.16546 540.000
83.18540 529.000
83.20535 527.000
83.22530 514.000
83.24524 508.000
83.26519 470.000
83.28514 528.000
83.30508 522.000
83.32503 507.000
83.34498 509.000
83.36493 523.000
83.38487 530.000
83.40482 523.000
83.42477 523.000
83.44471 516.000
83.46466 525.000
83.48461 515.000
83.50455 545.000
83.52450 524.000
83.54445 555.000
83.56440 511.000
83.58434 528.000
83.60429 558.000
83.62424 500.000
83.64418 500.000
83.66413 483.000
83.68408 501.000
83.70402 506.000
83.72397 498.000
83.74392 507.000
83.76386 519.000
83.78381 485.000
83.80376 515.000
83.82371 515.000
83.84365 508.000
83.86360 499.000
83.88355 467.000
83.90349 490.000
83.92344 523.000
83.94339 472.000
83.96333 459.000
83.98328 476.000
84.00323 470.000
84.02318 461.000
84.04312 470.000
84.06307 415.000
84.08302 459.000
84.10296 461.000
84.12291 475.000
84.14286 477.000
84.16280 447.000
84.18275 445.000
84.20270 486.000
84.22264 425.000
84.24259 471.000
84.26254 450.000
84.28249 482.000
84.30243 478.000
84.32238 469.000
84.34233 431.000
84.36227 438.000
84.38222 428.000
84.40217 437.000
84.42211 420.000
84.44206 440.000
84.46201 414.000
84.48196 432.000
84.50190 418.000
84.52185 413.000
84.54180 428.000
84.56174 438.000
84.58169 438.000
84.60164 407.000
84.62158 432.000
84.64153 401.000
84.66148 437.000
84.68142 472.000
84.70137 426.000
84.72132 398.000
84.74127 418.000
84.76121 424.000
84.78116 399.000
84.80111 447.000
84.82105 423.000
84.84100 440.000
84.86095 461.000
84.88089 438.000
84.90084 423.000
84.92079 399.000
84.94074 439.000
84.96068 406.000
84.98063 392.000
85.00058 438.000
85.02052 421.000
85.04047 420.000
85.06042 370.000
85.08036 426.000
85.10031 390.000
85.12026 405.000
85.14021 422.000
85.16015 420.000
85.18010 422.000
85.20005 427.000
85.21999 402.000
85.23994 428.000
85.25989 402.000
85.27983 423.000
85.29978 434.000
85.31973 424.000
85.33967 426.000
85.35962 418.000
85.37957 377.000
85.39952 371.000
85.41946 414.000
85.43941 387.000
85.45936 416.000
85.47930 425.000
85.49925 408.000
85.51920 417.000
85.53914 401.000
85.55909 393.000
85.57904 420.000
85.59899 411.000
85.61893 420.000
85.63888 403.000
85.65883 387.000
85.67877 415.000
85.69872 416.000
85.71867 433.000
85.73861 437.000
85.75856 414.000
85.77851 432.000
85.79845 440.000
85.81840 434.000
85.83835 396.000
85.85830 395.000
85.87824 461.000
85.89819 429.000
85.91814 421.000
85.93808 414.000
85.95803 393.000
85.97798 483.000
85.99792 406.000
86.01787 407.000
86.03782 425.000
86.05777 423.000
86.07771 407.000
86.09766 445.000
86.11761 400.000
86.13755 401.000
86.15750 412.000
86.17745 443.000
86.19739 412.000
86.21734 408.000
86.23729 440.000
86.25723 460.000
86.27718 405.000
86.29713 425.000
86.31708 480.000
86.33702 399.000
86.35697 444.000
86.37692 442.000
86.39686 428.000
86.41681 428.000
86.43676 442.000
86.45670 442.000
86.47665 446.000
86.49660 434.000
86.51655 408.000
86.53649 461.000
86.55644 445.000
86.57639 462.000
86.59633 407.000
86.61628 482.000
86.63623 461.000
86.65617 430.000
86.67612 469.000
86.69607 481.000
86.71602 462.000
86.73596 489.000
86.75591 428.000
86.77586 484.000
86.79580 439.000
86.81575 452.000
86.83570 486.000
86.85564 468.000
86.87559 414.000
86.89554 508.000
86.91548 438.000
86.93543 439.000
86.95538 442.000
86.97533 466.000
86.99527 459.000
87.01522 434.000
87.03517 430.000
87.05511 430.000
87.07506 448.000
87.09501 431.000
87.11495 425.000
87.13490 448.000
87.15485 418.000
87.17480 493.000
87.19474 460.000
87.21469 416.000
87.23464 402.000
87.25458 450.000
87.27453 432.000
87.29448 420.000
87.31442 415.000
87.33437 431.000
87.35432 425.000
87.37426 419.000
87.39421 411.000
87.41416 443.000
87.43411 404.000
87.45405 410.000
87.47400 432.000
87.49395 419.000
87.51389 449.000
87.53384 434.000
87.55379 447.000
87.57373 425.000
87.59368 424.000
87.61363 438.000
87.63358 419.000
87.65352 373.000
87.67347 430.000
87.69342 418.000
87.71336 461.000
87.73331 430.000
87.75326 425.000
87.77320 378.000
87.79315 423.000
87.81310 415.000
87.83304 424.000
87.85299 407.000
87.87294 398.000
87.89289 442.000
87.91283 390.000
87.93278 445.000
87.95273 380.000
87.97267 401.000
87.99262 415.000
88.01257 405.000
88.03251 414.000
88.05246 430.000
88.07241 429.000
88.09236 377.000
88.11230 436.000
88.13225 427.000
88.15220 422.000
88.17214 429.000
88.19209 460.000
88.21204 427.000
88.23198 456.000
88.25193 422.000
88.27188 416.000
88.29183 427.000
88.31177 404.000
88.33172 412.000
88.35167 419.000
88.37161 380.000
88.39156 458.000
88.41151 405.000
88.43145 405.000
88.45140 424.000
88.47135 419.000
88.49129 420.000
88.51124 435.000
88.53119 423.000
88.55114 414.000
88.57108 410.000
88.59103 421.000
88.61098 368.000
88.63092 410.000
88.65087 394.000
88.67082 389.000
88.69076 414.000
88.71071 413.000
88.73066 404.000
88.75061 413.000
88.77055 402.000
88.79050 405.000
88.81045 421.000
88.83039 405.000
88.85034 410.000
88.87029 410.000
88.89023 412.000
88.91018 407.000
88.93013 409.000
88.95007 407.000
88.97002 416.000
88.98997 394.000
89.00992 403.000
89.02986 413.000
89.04981 428.000
89.06976 436.000
89.08970 398.000
89.10965 410.000
89.12960 444.000
89.14954 459.000
89.16949 419.000
89.18944 392.000
89.20939 433.000
89.22933 379.000
89.24928 460.000
89.26923 463.000
89.28917 426.000
89.30912 447.000
89.32907 408.000
89.34901 413.000
89.36896 408.000
89.38891 458.000
89.40885 413.000
89.42880 404.000
89.44875 435.000
89.46870 428.000
89.48864 416.000
89.50859 438.000
89.52854 468.000
89.54848 425.000
89.56843 436.000
89.58838 468.000
89.60832 453.000
89.62827 436.000
89.64822 486.000
89.66817 471.000
89.68811 472.000
89.70806 472.000
89.72801 463.000
89.74795 547.000
89.76790 519.000
89.78785 558.000
89.80779 521.000
89.82774 538.000
89.84769 555.000
89.86764 547.000
89.88758 571.000
89.90753 533.000
89.92748 493.000
89.94742 491.000
89.96737 515.000
89.98732 516.000
90.00726 505.000
