10.00000 228.000
10.01995 236.000
10.03989 228.000
10.05984 232.000
10.07979 227.000
10.09973 274.000
10.11968 244.000
10.13963 222.000
10.15958 264.000
10.17952 213.000
10.19947 224.000
10.21942 209.000
10.23936 242.000
10.25931 285.000
10.27926 271.000
10.29920 227.000
10.31915 262.000
10.33910 238.000
10.35905 220.000
10.37899 249.000
10.39894 219.000
10.41889 236.000
10.43883 219.000
10.45878 224.000
10.47873 214.000
10.49867 217.000
10.51862 265.000
10.53857 220.000
10.55851 244.000
10.57846 240.000
10.59841 244.000
10.61836 256.000
10.63830 288.000
10.65825 250.000
10.67820 245.000
10.69814 270.000
10.71809 207.000
10.73804 281.000
10.75798 238.000
10.77793 255.000
10.79788 234.000
10.81783 251.000
10.83777 213.000
10.85772 219.000
10.87767 246.000
10.89761 269.000
10.91756 266.000
10.93751 260.000
10.95745 239.000
10.97740 242.000
10.99735 246.000
11.01730 245.000
11.03724 251.000
11.05719 238.000
11.07714 262.000
11.09708 250.000
11.11703 242.000
11.13698 226.000
11.15692 262.000
11.17687 239.000
11.19682 253.000
11.21676 242.000
11.23671 262.000
11.25666 240.000
11.27661 222.000
11.29655 253.000
11.31650 261.000
11.33645 257.000
11.35639 260.000
11.37634 248.000
11.39629 233.000
11.41623 213.000
11.43618 269.000
11.45613 252.000
11.47608 249.000
11.49602 230.000
11.51597 240.000
11.53592 228.000
11.55586 246.000
11.57581 258.000
11.59576 234.000
11.61570 227.000
11.63565 251.000
11.65560 276.000
11.67554 212.000
11.69549 260.000
11.71544 251.000
11.73539 256.000
11.75533 232.000
11.77528 263.000
11.79523 253.000
11.81517 253.000
11.83512 257.000
11.85507 257.000
11.87501 248.000
11.89496 244.000
11.91491 253.000
11.93486 245.000
11.95480 232.000
11.97475 251.000
11.99470 235.000
12.01464 251.000
12.03459 241.000
12.05454 243.000
12.07448 250.000
12.09443 266.000
12.11438 242.000
12.13432 226.000
12.15427 286.000
12.17422 254.000
12.19417 251.000
12.21411 251.000
12.23406 229.000
12.25401 247.000
12.27395 271.000
12.29390 255.000
12.31385 249.000
12.33379 264.000
12.35374 204.000
12.37369 233.000
12.39364 225.000
12.41358 247.000
12.43353 241.000
12.45348 242.000
12.47342 258.000
12.49337 232.000
12.51332 235.000
12.53326 240.000
12.55321 258.000
12.57316 281.000
12.59311 258.000
12.61305 221.000
12.63300 261.000
12.65295 280.000
12.67289 256.000
12.69284 252.000
12.71279 256.000
12.73273 235.000
12.75268 265.000
12.77263 224.000
12.79257 270.000
12.81252 251.000
12.83247 261.000
12.85242 247.000
12.87236 270.000
12.89231 270.000
12.91226 247.000
12.93220 286.000
12.95215 257.000
12.97210 234.000
12.99204 238.000
13.01199 263.000
13.03194 240.000
13.05189 268.000
13.07183 263.000
13.09178 248.000
13.11173 247.000
13.13167 255.000
13.15162 268.000
13.17157 252.000
13.19151 259.000
13.21146 241.000
13.23141 243.000
13.25135 245.000
13.27130 278.000
13.29125 275.000
13.31120 267.000
13.33114 264.000
13.35109 219.000
13.37104 250.000
13.39098 263.000
13.41093 254.000
13.43088 228.000
13.45082 251.000
13.47077 248.000
13.49072 267.000
13.51067 243.000
13.53061 276.000
13.55056 255.000
13.57051 232.000
13.59045 224.000
13.61040 251.000
13.63035 264.000
13.65029 224.000
13.67024 252.000
13.69019 270.000
13.71013 237.000
13.73008 284.000
13.75003 261.000
13.76998 258.000
13.78992 278.000
13.80987 266.000
13.82982 276.000
13.84976 280.000
13.86971 277.000
13.88966 266.000
13.90960 242.000
13.92955 254.000
13.94950 275.000
13.96945 251.000
13.98939 265.000
14.00934 253.000
14.02929 226.000
14.04923 245.000
14.06918 261.000
14.08913 247.000
14.10907 270.000
14.12902 258.000
14.14897 243.000
14.16892 251.000
14.18886 243.000
14.20881 256.000
14.22876 253.000
14.24870 289.000
14.26865 242.000
14.28860 256.000
14.30854 281.000
14.32849 297.000
14.34844 263.000
14.36838 245.000
14.38833 284.000
14.40828 252.000
14.42823 239.000
14.44817 279.000
14.46812 265.000
14.48807 264.000
14.50801 259.000
14.52796 237.000
14.54791 250.000
14.56785 290.000
14.58780 243.000
14.60775 256.000
14.62770 285.000
14.64764 277.000
14.66759 258.000
14.68754 248.000
14.70748 260.000
14.72743 253.000
14.74738 268.000
14.76732 251.000
14.78727 283.000
14.80722 278.000
14.82716 272.000
14.84711 298.000
14.86706 286.000
14.88701 281.000
14.90695 284.000
14.92690 253.000
14.94685 293.000
14.96679 263.000
14.98674 263.000
15.00669 250.000
15.02663 294.000
15.04658 251.000
15.06653 270.000
15.08648 259.000
15.10642 263.000
15.12637 284.000
15.14632 266.000
15.16626 304.000
15.18621 266.000
15.20616 276.000
15.22610 289.000
15.24605 308.000
15.26600 313.000
15.28594 305.000
15.30589 316.000
15.32584 296.000
15.34579 284.000
15.36573 284.000
15.38568 334.000
15.40563 317.000
15.42557 295.000
15.44552 289.000
15.46547 381.000
15.48541 323.000
15.50536 338.000
15.52531 360.000
15.54526 355.000
15.56520 421.000
15.58515 396.000
15.60510 451.000
15.62504 426.000
15.64499 506.000
15.66494 597.000
15.68488 629.000
15.70483 777.000
15.72478 968.000
15.74472 1247.000
15.76467 1421.000
15.78462 1804.000
15.80457 2423.000
15.82451 3313.000
15.84446 4243.000
15.86441 5412.000
15.88435 6798.000
15.90430 7527.000
15.92425 6605.000
15.94419 4677.000
15.96414 2945.000
15.98409 1590.000
16.00404 863.000
16.02398 643.000
16.04393 509.000
16.06388 455.000
16.08382 397.000
16.10377 394.000
16.12372 380.000
16.14366 381.000
16.16361 346.000
16.18356 369.000
16.20351 335.000
16.22345 357.000
16.24340 353.000
16.26335 318.000
16.28329 306.000
16.30324 337.000
16.32319 312.000
16.34313 315.000
16.36308 328.000
16.38303 292.000
16.40297 306.000
16.42292 291.000
16.44287 278.000
16.46282 299.000
16.48276 267.000
16.50271 264.000
16.52266 310.000
16.54260 320.000
16.56255 270.000
16.58250 293.000
16.60244 288.000
16.62239 276.000
16.64234 270.000
16.66229 290.000
16.68223 300.000
16.70218 272.000
16.72213 290.000
16.74207 281.000
16.76202 289.000
16.78197 328.000
16.80191 315.000
16.82186 333.000
16.84181 378.000
16.86175 370.000
16.88170 384.000
16.90165 388.000
16.92160 380.000
16.94154 347.000
16.96149 325.000
16.98144 285.000
17.00138 315.000
17.02133 299.000
17.04128 270.000
17.06122 299.000
17.08117 263.000
17.10112 272.000
17.12107 280.000
17.14101 281.000
17.16096 282.000
17.18091 300.000
17.20085 274.000
17.22080 267.000
17.24075 262.000
17.26069 268.000
17.28064 274.000
17.30059 240.000
17.32053 295.000
17.34048 252.000
17.36043 262.000
17.38038 258.000
17.40032 256.000
17.42027 233.000
17.44022 263.000
17.46016 264.000
17.48011 283.000
17.50006 263.000
17.52000 262.000
17.53995 290.000
17.55990 267.000
17.57985 313.000
17.59979 262.000
17.61974 276.000
17.63969 261.000
17.65963 279.000
17.67958 290.000
17.69953 280.000
17.71947 250.000
17.73942 257.000
17.75937 246.000
17.77932 241.000
17.79926 269.000
17.81921 268.000
17.83916 260.000
17.85910 251.000
17.87905 266.000
17.89900 267.000
17.91894 253.000
17.93889 303.000
17.95884 296.000
17.97878 281.000
17.99873 274.000
18.01868 244.000
18.03863 252.000
18.05857 290.000
18.07852 246.000
18.09847 249.000
18.11841 284.000
18.13836 256.000
18.15831 267.000
18.17825 285.000
18.19820 277.000
18.21815 267.000
18.23810 266.000
18.25804 256.000
18.27799 268.000
18.29794 244.000
18.31788 268.000
18.33783 265.000
18.35778 235.000
18.37772 254.000
18.39767 262.000
18.41762 284.000
18.43756 279.000
18.45751 284.000
18.47746 283.000
18.49741 283.000
18.51735 279.000
18.53730 287.000
18.55725 289.000
18.57719 276.000
18.59714 264.000
18.61709 262.000
18.63703 286.000
18.65698 278.000
18.67693 263.000
18.69688 281.000
18.71682 236.000
18.73677 253.000
18.75672 283.000
18.77666 286.000
18.79661 271.000
18.81656 245.000
18.83650 258.000
18.85645 275.000
18.87640 248.000
18.89634 261.000
18.91629 268.000
18.93624 272.000
18.95619 311.000
18.97613 271.000
18.99608 259.000
19.01603 264.000
19.03597 253.000
19.05592 269.000
19.07587 256.000
19.09581 296.000
19.11576 261.000
19.13571 250.000
19.15566 269.000
19.17560 252.000
19.19555 274.000
19.21550 262.000
19.23544 279.000
19.25539 273.000
19.27534 268.000
19.29528 282.000
19.31523 280.000
19.33518 245.000
19.35513 285.000
19.37507 302.000
19.39502 272.000
19.41497 255.000
19.43491 275.000
19.45486 263.000
19.47481 280.000
19.49475 294.000
19.51470 257.000
19.53465 272.000
19.55459 247.000
19.57454 274.000
19.59449 279.000
19.61444 261.000
19.63438 262.000
19.65433 307.000
19.67428 285.000
19.69422 255.000
19.71417 287.000
19.73412 269.000
19.75406 271.000
19.77401 304.000
19.79396 270.000
19.81391 292.000
19.83385 305.000
19.85380 280.000
19.87375 275.000
19.89369 284.000
19.91364 289.000
19.93359 303.000
19.95353 286.000
19.97348 329.000
19.99343 273.000
20.01337 272.000
20.03332 293.000
20.05327 270.000
20.07322 239.000
20.09316 315.000
20.11311 279.000
20.13306 281.000
20.15300 289.000
20.17295 286.000
20.19290 310.000
20.21284 260.000
20.23279 260.000
20.25274 283.000
20.27269 268.000
20.29263 276.000
20.31258 288.000
20.33253 268.000
20.35247 267.000
20.37242 265.000
20.39237 278.000
20.41231 262.000
20.43226 263.000
20.45221 306.000
20.47215 281.000
20.49210 298.000
20.51205 265.000
20.53200 280.000
20.55194 305.000
20.57189 291.000
20.59184 255.000
20.61178 295.000
20.63173 258.000
20.65168 296.000
20.67162 263.000
20.69157 280.000
20.71152 301.000
20.73147 302.000
20.75141 261.000
20.77136 297.000
20.79131 272.000
20.81125 284.000
20.83120 285.000
20.85115 291.000
20.87109 300.000
20.89104 296.000
20.91099 287.000
20.93094 304.000
20.95088 289.000
20.97083 310.000
20.99078 328.000
21.01072 358.000
21.03067 350.000
21.05062 376.000
21.07056 356.000
21.09051 394.000
21.11046 409.000
21.13040 445.000
21.15035 448.000
21.17030 415.000
21.19025 432.000
21.21019 416.000
21.23014 402.000
21.25009 353.000
21.27003 332.000
21.28998 282.000
21.30993 302.000
21.32987 282.000
21.34982 311.000
21.36977 294.000
21.38972 312.000
21.40966 271.000
21.42961 309.000
21.44956 285.000
21.46950 275.000
21.48945 274.000
21.50940 291.000
21.52934 284.000
21.54929 283.000
21.56924 278.000
21.58918 285.000
21.60913 294.000
21.62908 279.000
21.64903 302.000
21.66897 280.000
21.68892 311.000
21.70887 282.000
21.72881 272.000
21.74876 285.000
21.76871 308.000
21.78865 285.000
21.80860 302.000
21.82855 294.000
21.84850 282.000
21.86844 270.000
21.88839 313.000
21.90834 297.000
21.92828 293.000
21.94823 318.000
21.96818 248.000
21.98812 300.000
22.00807 303.000
22.02802 277.000
22.04796 286.000
22.06791 276.000
22.08786 261.000
22.10781 318.000
22.12775 260.000
22.14770 274.000
22.16765 278.000
22.18759 271.000
22.20754 274.000
22.22749 279.000
22.24743 251.000
22.26738 271.000
22.28733 255.000
22.30728 296.000
22.32722 267.000
22.34717 323.000
22.36712 284.000
22.38706 273.000
22.40701 280.000
22.42696 319.000
22.44690 284.000
22.46685 278.000
22.48680 296.000
22.50675 289.000
22.52669 265.000
22.54664 277.000
22.56659 258.000
22.58653 302.000
22.60648 332.000
22.62643 299.000
22.64637 290.000
22.66632 278.000
22.68627 295.000
22.70621 283.000
22.72616 285.000
22.74611 307.000
22.76606 262.000
22.78600 274.000
22.80595 271.000
22.82590 278.000
22.84584 291.000
22.86579 268.000
22.88574 307.000
22.90568 276.000
22.92563 278.000
22.94558 296.000
22.96553 279.000
22.98547 283.000
23.00542 295.000
23.02537 300.000
23.04531 293.000
23.06526 275.000
23.08521 290.000
23.10515 306.000
23.12510 284.000
23.14505 301.000
23.16499 267.000
23.18494 319.000
23.20489 284.000
23.22484 294.000
23.24478 277.000
23.26473 303.000
23.28468 271.000
23.30462 294.000
23.32457 286.000
23.34452 304.000
23.36446 277.000
23.38441 298.000
23.40436 291.000
23.42431 269.000
23.44425 322.000
23.46420 288.000
23.48415 257.000
23.50409 266.000
23.52404 259.000
23.54399 311.000
23.56393 270.000
23.58388 296.000
23.60383 283.000
23.62377 321.000
23.64372 308.000
23.66367 313.000
23.68362 276.000
23.70356 279.000
23.72351 237.000
23.74346 300.000
23.76340 315.000
23.78335 303.000
23.80330 249.000
23.82324 306.000
23.84319 259.000
23.86314 280.000
23.88309 283.000
23.90303 301.000
23.92298 257.000
23.94293 321.000
23.96287 325.000
23.98282 293.000
24.00277 263.000
24.02271 275.000
24.04266 299.000
24.06261 283.000
24.08256 298.000
24.10250 310.000
24.12245 267.000
24.14240 276.000
24.16234 296.000
24.18229 297.000
24.20224 285.000
24.22218 296.000
24.24213 277.000
24.26208 275.000
24.28202 274.000
24.30197 287.000
24.32192 290.000
24.34187 321.000
24.36181 292.000
24.38176 291.000
24.40171 260.000
24.42165 266.000
24.44160 272.000
24.46155 281.000
24.48149 313.000
24.50144 273.000
24.52139 266.000
24.54134 281.000
24.56128 282.000
24.58123 286.000
24.60118 272.000
24.62112 288.000
24.64107 310.000
24.66102 306.000
24.68096 303.000
24.70091 273.000
24.72086 280.000
24.74080 269.000
24.76075 293.000
24.78070 303.000
24.80065 279.000
24.82059 297.000
24.84054 315.000
24.86049 284.000
24.88043 280.000
24.90038 284.000
24.92033 322.000
24.94027 346.000
24.96022 344.000
24.98017 335.000
25.00012 320.000
25.02006 354.000
25.04001 345.000
25.05996 379.000
25.07990 384.000
25.09985 344.000
25.11980 335.000
25.13974 338.000
25.15969 318.000
25.17964 310.000
25.19958 324.000
25.21953 314.000
25.23948 292.000
25.25943 318.000
25.27937 293.000
25.29932 271.000
25.31927 302.000
25.33921 254.000
25.35916 298.000
25.37911 303.000
25.39905 306.000
25.41900 307.000
25.43895 294.000
25.45890 300.000
25.47884 286.000
25.49879 285.000
25.51874 332.000
25.53868 304.000
25.55863 300.000
25.57858 297.000
25.59852 305.000
25.61847 300.000
25.63842 284.000
25.65837 308.000
25.67831 283.000
25.69826 275.000
25.71821 309.000
25.73815 286.000
25.75810 318.000
25.77805 311.000
25.79799 333.000
25.81794 298.000
25.83789 302.000
25.85783 288.000
25.87778 284.000
25.89773 273.000
25.91768 335.000
25.93762 328.000
25.95757 297.000
25.97752 286.000
25.99746 260.000
26.01741 300.000
26.03736 297.000
26.05730 291.000
26.07725 301.000
26.09720 325.000
26.11715 282.000
26.13709 297.000
26.15704 303.000
26.17699 265.000
26.19693 274.000
26.21688 317.000
26.23683 299.000
26.25677 281.000
26.27672 302.000
26.29667 296.000
26.31661 289.000
26.33656 273.000
26.35651 266.000
26.37646 266.000
26.39640 302.000
26.41635 298.000
26.43630 273.000
26.45624 316.000
26.47619 279.000
26.49614 314.000
26.51608 310.000
26.53603 282.000
26.55598 335.000
26.57593 277.000
26.59587 296.000
26.61582 297.000
26.63577 310.000
26.65571 299.000
26.67566 307.000
26.69561 315.000
26.71555 306.000
26.73550 310.000
26.75545 301.000
26.77539 306.000
26.79534 308.000
26.81529 298.000
26.83524 273.000
26.85518 273.000
26.87513 306.000
26.89508 309.000
26.91502 306.000
26.93497 303.000
26.95492 283.000
26.97486 293.000
26.99481 301.000
27.01476 302.000
27.03471 302.000
27.05465 333.000
27.07460 304.000
27.09455 302.000
27.11449 316.000
27.13444 318.000
27.15439 311.000
27.17433 333.000
27.19428 339.000
27.21423 333.000
27.23417 335.000
27.25412 351.000
27.27407 337.000
27.29402 319.000
27.31396 324.000
27.33391 319.000
27.35386 305.000
27.37380 308.000
27.39375 299.000
27.41370 297.000
27.43364 276.000
27.45359 285.000
27.47354 315.000
27.49349 330.000
27.51343 294.000
27.53338 295.000
27.55333 298.000
27.57327 304.000
27.59322 335.000
27.61317 288.000
27.63311 280.000
27.65306 277.000
27.67301 343.000
27.69296 330.000
27.71290 285.000
27.73285 305.000
27.75280 300.000
27.77274 324.000
27.79269 326.000
27.81264 300.000
27.83258 285.000
27.85253 275.000
27.87248 296.000
27.89242 336.000
27.91237 316.000
27.93232 334.000
27.95227 277.000
27.97221 308.000
27.99216 313.000
28.01211 308.000
28.03205 322.000
28.05200 318.000
28.07195 325.000
28.09189 324.000
28.11184 315.000
28.13179 297.000
28.15174 321.000
28.17168 300.000
28.19163 291.000
28.21158 318.000
28.23152 304.000
28.25147 351.000
28.27142 306.000
28.29136 336.000
28.31131 329.000
28.33126 321.000
28.35120 326.000
28.37115 342.000
28.39110 348.000
28.41105 367.000
28.43099 341.000
28.45094 380.000
28.47089 365.000
28.49083 352.000
28.51078 321.000
28.53073 370.000
28.55067 359.000
28.57062 317.000
28.59057 335.000
28.61052 302.000
28.63046 331.000
28.65041 327.000
28.67036 305.000
28.69030 330.000
28.71025 344.000
28.73020 293.000
28.75014 313.000
28.77009 319.000
28.79004 330.000
28.80998 326.000
28.82993 302.000
28.84988 323.000
28.86983 320.000
28.88977 347.000
28.90972 324.000
28.92967 319.000
28.94961 329.000
28.96956 356.000
28.98951 333.000
29.00945 301.000
29.02940 317.000
29.04935 279.000
29.06930 319.000
29.08924 309.000
29.10919 310.000
29.12914 331.000
29.14908 347.000
29.16903 329.000
29.18898 341.000
29.20892 374.000
29.22887 328.000
29.24882 384.000
29.26877 368.000
29.28871 327.000
29.30866 434.000
29.32861 433.000
29.34855 499.000
29.36850 514.000
29.38845 618.000
29.40839 578.000
29.42834 573.000
29.44829 523.000
29.46823 525.000
29.48818 544.000
29.50813 473.000
29.52808 440.000
29.54802 418.000
29.56797 381.000
29.58792 380.000
29.60786 395.000
29.62781 357.000
29.64776 357.000
29.66770 387.000
29.68765 326.000
29.70760 334.000
29.72755 342.000
29.74749 338.000
29.76744 371.000
29.78739 294.000
29.80733 350.000
29.82728 308.000
29.84723 317.000
29.86717 349.000
29.88712 335.000
29.90707 306.000
29.92701 321.000
29.94696 304.000
29.96691 308.000
29.98686 315.000
30.00680 341.000
30.02675 328.000
30.04670 348.000
30.06664 339.000
30.08659 342.000
30.10654 274.000
30.12648 289.000
30.14643 357.000
30.16638 328.000
30.18633 293.000
30.20627 322.000
30.22622 327.000
30.24617 314.000
30.26611 315.000
30.28606 305.000
30.30601 296.000
30.32595 344.000
30.34590 270.000
30.36585 305.000
30.38579 326.000
30.40574 329.000
30.42569 320.000
30.44564 367.000
30.46558 292.000
30.48553 325.000
30.50548 325.000
30.52542 292.000
30.54537 310.000
30.56532 349.000
30.58526 309.000
30.60521 279.000
30.62516 316.000
30.64511 343.000
30.66505 317.000
30.68500 286.000
30.70495 300.000
30.72489 328.000
30.74484 327.000
30.76479 327.000
30.78473 312.000
30.80468 320.000
30.82463 309.000
30.84458 360.000
30.86452 306.000
30.88447 350.000
30.90442 343.000
30.92436 330.000
30.94431 345.000
30.96426 319.000
30.98420 312.000
31.00415 309.000
31.02410 320.000
31.04404 313.000
31.06399 297.000
31.08394 317.000
31.10389 357.000
31.12383 329.000
31.14378 305.000
31.16373 295.000
31.18367 353.000
31.20362 292.000
31.22357 349.000
31.24351 321.000
31.26346 336.000
31.28341 334.000
31.30336 339.000
31.32330 294.000
31.34325 334.000
31.36320 324.000
31.38314 330.000
31.40309 337.000
31.42304 328.000
31.44298 309.000
31.46293 320.000
31.48288 367.000
31.50282 311.000
31.52277 348.000
31.54272 324.000
31.56267 316.000
31.58261 378.000
31.60256 331.000
31.62251 324.000
31.64245 337.000
31.66240 361.000
31.68235 356.000
31.70229 373.000
31.72224 368.000
31.74219 343.000
31.76214 355.000
31.78208 318.000
31.80203 387.000
31.82198 385.000
31.84192 395.000
31.86187 416.000
31.88182 419.000
31.90176 430.000
31.92171 484.000
31.94166 522.000
31.96160 581.000
31.98155 623.000
32.00150 615.000
32.02145 650.000
32.04139 806.000
32.06134 971.000
32.08129 1065.000
32.10123 979.000
32.12118 833.000
32.14113 755.000
32.16107 707.000
32.18102 631.000
32.20097 525.000
32.22092 465.000
32.24086 325.000
32.26081 375.000
32.28076 343.000
32.30070 362.000
32.32065 363.000
32.34060 332.000
32.36054 387.000
32.38049 350.000
32.40044 353.000
32.42039 416.000
32.44033 369.000
32.46028 440.000
32.48023 405.000
32.50017 472.000
32.52012 494.000
32.54007 430.000
32.56001 432.000
32.57996 430.000
32.59991 405.000
32.61985 392.000
32.63980 394.000
32.65975 340.000
32.67970 357.000
32.69964 357.000
32.71959 312.000
32.73954 344.000
32.75948 322.000
32.77943 329.000
32.79938 337.000
32.81932 350.000
32.83927 339.000
32.85922 340.000
32.87917 308.000
32.89911 274.000
32.91906 319.000
32.93901 321.000
32.95895 324.000
32.97890 324.000
32.99885 327.000
33.01879 332.000
33.03874 359.000
33.05869 352.000
33.07863 336.000
33.09858 334.000
33.11853 282.000
33.13848 296.000
33.15842 323.000
33.17837 327.000
33.19832 318.000
33.21826 325.000
33.23821 338.000
33.25816 354.000
33.27810 343.000
33.29805 345.000
33.31800 327.000
33.33795 325.000
33.35789 315.000
33.37784 311.000
33.39779 299.000
33.41773 298.000
33.43768 328.000
33.45763 321.000
33.47757 312.000
33.49752 322.000
33.51747 317.000
33.53741 332.000
33.55736 288.000
33.57731 312.000
33.59726 322.000
33.61720 343.000
33.63715 300.000
33.65710 299.000
33.67704 331.000
33.69699 315.000
33.71694 301.000
33.73688 303.000
33.75683 334.000
33.77678 317.000
33.79673 330.000
33.81667 341.000
33.83662 326.000
33.85657 315.000
33.87651 321.000
33.89646 297.000
33.91641 299.000
33.93635 341.000
33.95630 315.000
33.97625 348.000
33.99620 325.000
34.01614 326.000
34.03609 348.000
34.05604 332.000
34.07598 346.000
34.09593 335.000
34.11588 302.000
34.13582 320.000
34.15577 325.000
34.17572 348.000
34.19566 319.000
34.21561 292.000
34.23556 332.000
34.25551 340.000
34.27545 323.000
34.29540 363.000
34.31535 315.000
34.33529 308.000
34.35524 354.000
34.37519 296.000
34.39513 321.000
34.41508 374.000
34.43503 374.000
34.45498 344.000
34.47492 312.000
34.49487 334.000
34.51482 367.000
34.53476 380.000
34.55471 386.000
34.57466 394.000
34.59460 347.000
34.61455 365.000
34.63450 382.000
34.65444 400.000
34.67439 402.000
34.69434 388.000
34.71429 438.000
34.73423 468.000
34.75418 492.000
34.77413 449.000
34.79407 470.000
34.81402 485.000
34.83397 543.000
34.85391 558.000
34.87386 542.000
34.89381 582.000
34.91376 567.000
34.93370 549.000
34.95365 492.000
34.97360 495.000
34.99354 425.000
35.01349 461.000
35.03344 448.000
35.05338 412.000
35.07333 403.000
35.09328 406.000
35.11322 432.000
35.13317 419.000
35.15312 404.000
35.17307 405.000
35.19301 423.000
35.21296 435.000
35.23291 438.000
35.25285 463.000
35.27280 486.000
35.29275 478.000
35.31269 590.000
35.33264 555.000
35.35259 596.000
35.37254 665.000
35.39248 704.000
35.41243 870.000
35.43238 1051.000
35.45232 1251.000
35.47227 1347.000
35.49222 1328.000
35.51216 1375.000
35.53211 1466.000
35.55206 1714.000
35.57201 1746.000
35.59195 1683.000
35.61190 1575.000
35.63185 1417.000
35.65179 1302.000
35.67174 1242.000
35.69169 1105.000
35.71163 915.000
35.73158 852.000
35.75153 743.000
35.77147 696.000
35.79142 633.000
35.81137 689.000
35.83132 745.000
35.85126 835.000
35.87121 925.000
35.89116 907.000
35.91110 1070.000
35.93105 1082.000
35.95100 1193.000
35.97094 1165.000
35.99089 1115.000
36.01084 890.000
36.03079 849.000
36.05073 777.000
36.07068 749.000
36.09063 580.000
36.11057 530.000
36.13052 447.000
36.15047 453.000
36.17041 403.000
36.19036 355.000
36.21031 392.000
36.23025 358.000
36.25020 403.000
36.27015 385.000
36.29010 364.000
36.31004 391.000
36.32999 339.000
36.34994 387.000
36.36988 396.000
36.38983 397.000
36.40978 409.000
36.42972 403.000
36.44967 406.000
36.46962 353.000
36.48957 368.000
36.50951 362.000
36.52946 368.000
36.54941 380.000
36.56935 397.000
36.58930 373.000
36.60925 371.000
36.62919 380.000
36.64914 365.000
36.66909 354.000
36.68903 394.000
36.70898 384.000
36.72893 388.000
36.74888 400.000
36.76882 412.000
36.78877 394.000
36.80872 419.000
36.82866 451.000
36.84861 488.000
36.86856 448.000
36.88850 460.000
36.90845 474.000
36.92840 496.000
36.94835 469.000
36.96829 507.000
36.98824 555.000
37.00819 557.000
37.02813 609.000
37.04808 663.000
37.06803 740.000
37.08797 860.000
37.10792 1025.000
37.12787 1189.000
37.14781 1478.000
37.16776 1571.000
37.18771 1573.000
37.20766 1444.000
37.22760 1355.000
37.24755 1257.000
37.26750 1166.000
37.28744 1046.000
37.30739 852.000
37.32734 766.000
37.34728 618.000
37.36723 560.000
37.38718 491.000
37.40713 450.000
37.42707 428.000
37.44702 399.000
37.46697 366.000
37.48691 362.000
37.50686 381.000
37.52681 348.000
37.54675 363.000
37.56670 351.000
37.58665 350.000
37.60660 307.000
37.62654 351.000
37.64649 359.000
37.66644 370.000
37.68638 332.000
37.70633 348.000
37.72628 334.000
37.74622 362.000
37.76617 326.000
37.78612 351.000
37.80606 340.000
37.82601 342.000
37.84596 347.000
37.86591 373.000
37.88585 342.000
37.90580 341.000
37.92575 350.000
37.94569 351.000
37.96564 379.000
37.98559 353.000
38.00553 394.000
38.02548 378.000
38.04543 362.000
38.06538 349.000
38.08532 371.000
38.10527 379.000
38.12522 345.000
38.14516 385.000
38.16511 383.000
38.18506 377.000
38.20500 369.000
38.22495 407.000
38.24490 396.000
38.26484 385.000
38.28479 449.000
38.30474 430.000
38.32469 443.000
38.34463 464.000
38.36458 460.000
38.38453 485.000
38.40447 470.000
38.42442 508.000
38.44437 498.000
38.46431 538.000
38.48426 564.000
38.50421 573.000
38.52416 633.000
38.54410 749.000
38.56405 786.000
38.58400 859.000
38.60394 937.000
38.62389 1158.000
38.64384 1386.000
38.66378 1504.000
38.68373 1589.000
38.70368 1626.000
38.72362 1613.000
38.74357 1521.000
38.76352 1537.000
38.78347 1444.000
38.80341 1327.000
38.82336 1207.000
38.84331 1075.000
38.86325 983.000
38.88320 945.000
38.90315 832.000
38.92309 829.000
38.94304 756.000
38.96299 772.000
38.98294 789.000
39.00288 809.000
39.02283 748.000
39.04278 760.000
39.06272 759.000
39.08267 703.000
39.10262 748.000
39.12256 688.000
39.14251 641.000
39.16246 589.000
39.18241 572.000
39.20235 564.000
39.22230 564.000
39.24225 548.000
39.26219 607.000
39.28214 570.000
39.30209 605.000
39.32203 649.000
39.34198 721.000
39.36193 721.000
39.38187 889.000
39.40182 978.000
39.42177 1148.000
39.44172 1359.000
39.46166 1462.000
39.48161 1642.000
39.50156 1743.000
39.52150 1791.000
39.54145 1702.000
39.56140 1537.000
39.58134 1333.000
39.60129 1192.000
39.62124 1150.000
39.64119 1038.000
39.66113 922.000
39.68108 764.000
39.70103 607.000
39.72097 518.000
39.74092 514.000
39.76087 462.000
39.78081 434.000
39.80076 410.000
39.82071 394.000
39.84065 385.000
39.86060 362.000
39.88055 364.000
39.90050 354.000
39.92044 356.000
39.94039 328.000
39.96034 364.000
39.98028 369.000
40.00023 343.000
40.02018 374.000
40.04012 309.000
40.06007 344.000
40.08002 379.000
40.09997 313.000
40.11991 331.000
40.13986 341.000
40.15981 325.000
40.17975 326.000
40.19970 367.000
40.21965 329.000
40.23959 315.000
40.25954 342.000
40.27949 327.000
40.29943 316.000
40.31938 365.000
40.33933 301.000
40.35928 313.000
40.37922 320.000
40.39917 329.000
40.41912 314.000
40.43906 295.000
40.45901 290.000
40.47896 336.000
40.49890 322.000
40.51885 299.000
40.53880 329.000
40.55875 305.000
40.57869 301.000
40.59864 302.000
40.61859 320.000
40.63853 306.000
40.65848 336.000
40.67843 320.000
40.69837 303.000
40.71832 319.000
40.73827 301.000
40.75822 326.000
40.77816 315.000
40.79811 281.000
40.81806 293.000
40.83800 295.000
40.85795 304.000
40.87790 304.000
40.89784 300.000
40.91779 276.000
40.93774 314.000
40.95768 326.000
40.97763 305.000
40.99758 286.000
41.01753 318.000
41.03747 328.000
41.05742 318.000
41.07737 319.000
41.09731 323.000
41.11726 317.000
41.13721 303.000
41.15715 294.000
41.17710 285.000
41.19705 327.000
41.21700 302.000
41.23694 336.000
41.25689 321.000
41.27684 311.000
41.29678 322.000
41.31673 303.000
41.33668 309.000
41.35662 310.000
41.37657 302.000
41.39652 303.000
41.41646 322.000
41.43641 318.000
41.45636 317.000
41.47631 317.000
41.49625 316.000
41.51620 329.000
41.53615 321.000
41.55609 274.000
41.57604 295.000
41.59599 300.000
41.61593 330.000
41.63588 273.000
41.65583 297.000
41.67578 307.000
41.69572 305.000
41.71567 300.000
41.73562 312.000
41.75556 324.000
41.77551 318.000
41.79546 295.000
41.81540 309.000
41.83535 353.000
41.85530 336.000
41.87524 319.000
41.89519 303.000
41.91514 321.000
41.93509 326.000
41.95503 301.000
41.97498 305.000
41.99493 310.000
42.01487 323.000
42.03482 310.000
42.05477 295.000
42.07471 328.000
42.09466 306.000
42.11461 347.000
42.13456 354.000
42.15450 314.000
42.17445 329.000
42.19440 352.000
42.21434 338.000
42.23429 301.000
42.25424 320.000
42.27418 336.000
42.29413 324.000
42.31408 299.000
42.33403 340.000
42.35397 294.000
42.37392 340.000
42.39387 296.000
42.41381 322.000
42.43376 363.000
42.45371 342.000
42.47365 345.000
42.49360 367.000
42.51355 308.000
42.53349 382.000
42.55344 347.000
42.57339 348.000
42.59334 391.000
42.61328 371.000
42.63323 396.000
42.65318 383.000
42.67312 364.000
42.69307 354.000
42.71302 398.000
42.73296 371.000
42.75291 364.000
42.77286 397.000
42.79281 387.000
42.81275 430.000
42.83270 457.000
42.85265 431.000
42.87259 482.000
42.89254 470.000
42.91249 552.000
42.93243 552.000
42.95238 618.000
42.97233 627.000
42.99227 760.000
43.01222 687.000
43.03217 774.000
43.05212 871.000
43.07206 987.000
43.09201 1079.000
43.11196 1175.000
43.13190 1215.000
43.15185 1390.000
43.17180 1442.000
43.19174 1622.000
43.21169 1531.000
43.23164 1484.000
43.25159 1401.000
43.27153 1387.000
43.29148 1251.000
43.31143 1221.000
43.33137 1132.000
43.35132 1011.000
43.37127 936.000
43.39121 841.000
43.41116 792.000
43.43111 742.000
43.45105 696.000
43.47100 727.000
43.49095 667.000
43.51090 684.000
43.53084 764.000
43.55079 849.000
43.57074 923.000
43.59068 878.000
43.61063 940.000
43.63058 903.000
43.65052 897.000
43.67047 817.000
43.69042 765.000
43.71037 733.000
43.73031 665.000
43.75026 640.000
43.77021 527.000
43.79015 500.000
43.81010 451.000
43.83005 451.000
43.84999 421.000
43.86994 376.000
43.88989 351.000
43.90984 379.000
43.92978 332.000
43.94973 382.000
43.96968 344.000
43.98962 324.000
44.00957 348.000
44.02952 330.000
44.04946 322.000
44.06941 317.000
44.08936 355.000
44.10930 321.000
44.12925 322.000
44.14920 333.000
44.16915 314.000
44.18909 330.000
44.20904 307.000
44.22899 320.000
44.24893 304.000
44.26888 324.000
44.28883 353.000
44.30877 313.000
44.32872 312.000
44.34867 296.000
44.36862 289.000
44.38856 331.000
44.40851 326.000
44.42846 303.000
44.44840 321.000
44.46835 315.000
44.48830 340.000
44.50824 320.000
44.52819 301.000
44.54814 337.000
44.56808 335.000
44.58803 328.000
44.60798 341.000
44.62793 301.000
44.64787 320.000
44.66782 315.000
44.68777 306.000
44.70771 336.000
44.72766 328.000
44.74761 313.000
44.76755 331.000
44.78750 334.000
44.80745 317.000
44.82740 344.000
44.84734 344.000
44.86729 312.000
44.88724 363.000
44.90718 300.000
44.92713 333.000
44.94708 329.000
44.96702 323.000
44.98697 339.000
45.00692 295.000
45.02686 323.000
45.04681 324.000
45.06676 311.000
45.08671 302.000
45.10665 307.000
45.12660 325.000
45.14655 298.000
45.16649 333.000
45.18644 338.000
45.20639 335.000
45.22633 327.000
45.24628 325.000
45.26623 289.000
45.28618 299.000
45.30612 305.000
45.32607 309.000
45.34602 333.000
45.36596 327.000
45.38591 305.000
45.40586 324.000
45.42580 315.000
45.44575 316.000
45.46570 327.000
45.48565 317.000
45.50559 327.000
45.52554 349.000
45.54549 369.000
45.56543 314.000
45.58538 297.000
45.60533 340.000
45.62527 357.000
45.64522 334.000
45.66517 318.000
45.68511 296.000
45.70506 319.000
45.72501 311.000
45.74496 332.000
45.76490 312.000
45.78485 322.000
45.80480 346.000
45.82474 290.000
45.84469 324.000
45.86464 336.000
45.88458 299.000
45.90453 311.000
45.92448 315.000
45.94443 294.000
45.96437 284.000
45.98432 287.000
46.00427 319.000
46.02421 299.000
46.04416 331.000
46.06411 294.000
46.08405 303.000
46.10400 307.000
46.12395 296.000
46.14389 314.000
46.16384 308.000
46.18379 289.000
46.20374 309.000
46.22368 330.000
46.24363 323.000
46.26358 322.000
46.28352 313.000
46.30347 343.000
46.32342 313.000
46.34336 334.000
46.36331 309.000
46.38326 356.000
46.40321 324.000
46.42315 334.000
46.44310 345.000
46.46305 322.000
46.48299 329.000
46.50294 334.000
46.52289 314.000
46.54283 324.000
46.56278 288.000
46.58273 282.000
46.60267 347.000
46.62262 300.000
46.64257 279.000
46.66252 314.000
46.68246 322.000
46.70241 296.000
46.72236 331.000
46.74230 316.000
46.76225 313.000
46.78220 307.000
46.80214 339.000
46.82209 316.000
46.84204 329.000
46.86199 310.000
46.88193 291.000
46.90188 304.000
46.92183 295.000
46.94177 314.000
46.96172 328.000
46.98167 310.000
47.00161 308.000
47.02156 287.000
47.04151 307.000
47.06146 296.000
47.08140 297.000
47.10135 312.000
47.12130 311.000
47.14124 306.000
47.16119 327.000
47.18114 320.000
47.20108 284.000
47.22103 278.000
47.24098 327.000
47.26092 314.000
47.28087 273.000
47.30082 303.000
47.32077 323.000
47.34071 297.000
47.36066 304.000
47.38061 322.000
47.40055 285.000
47.42050 309.000
47.44045 320.000
47.46039 289.000
47.48034 301.000
47.50029 313.000
47.52024 282.000
47.54018 298.000
47.56013 287.000
47.58008 302.000
47.60002 292.000
47.61997 285.000
47.63992 272.000
47.65986 314.000
47.67981 296.000
47.69976 323.000
47.71970 306.000
47.73965 294.000
47.75960 342.000
47.77955 320.000
47.79949 339.000
47.81944 318.000
47.83939 320.000
47.85933 284.000
47.87928 339.000
47.89923 311.000
47.91917 333.000
47.93912 328.000
47.95907 336.000
47.97902 332.000
47.99896 348.000
48.01891 331.000
48.03886 372.000
48.05880 358.000
48.07875 334.000
48.09870 376.000
48.11864 392.000
48.13859 368.000
48.15854 396.000
48.17848 414.000
48.19843 385.000
48.21838 387.000
48.23833 372.000
48.25827 393.000
48.27822 368.000
48.29817 364.000
48.31811 392.000
48.33806 383.000
48.35801 399.000
48.37795 392.000
48.39790 415.000
48.41785 404.000
48.43780 412.000
48.45774 413.000
48.47769 427.000
48.49764 399.000
48.51758 405.000
48.53753 418.000
48.55748 455.000
48.57742 483.000
48.59737 468.000
48.61732 509.000
48.63726 514.000
48.65721 547.000
48.67716 581.000
48.69711 658.000
48.71705 731.000
48.73700 798.000
48.75695 963.000
48.77689 958.000
48.79684 1118.000
48.81679 1339.000
48.83673 1607.000
48.85668 1673.000
48.87663 1779.000
48.89658 1757.000
48.91652 1656.000
48.93647 1609.000
48.95642 1505.000
48.97636 1418.000
48.99631 1351.000
49.01626 1239.000
49.03620 1131.000
49.05615 1048.000
49.07610 817.000
49.09605 762.000
49.11599 657.000
49.13594 629.000
49.15589 569.000
49.17583 516.000
49.19578 493.000
49.21573 453.000
49.23567 433.000
49.25562 419.000
49.27557 445.000
49.29551 376.000
49.31546 386.000
49.33541 364.000
49.35536 384.000
49.37530 374.000
49.39525 354.000
49.41520 337.000
49.43514 363.000
49.45509 362.000
49.47504 367.000
49.49498 352.000
49.51493 336.000
49.53488 324.000
49.55483 322.000
49.57477 368.000
49.59472 365.000
49.61467 349.000
49.63461 326.000
49.65456 359.000
49.67451 325.000
49.69445 309.000
49.71440 317.000
49.73435 350.000
49.75429 339.000
49.77424 334.000
49.79419 309.000
49.81414 284.000
49.83408 351.000
49.85403 353.000
49.87398 313.000
49.89392 311.000
49.91387 296.000
49.93382 327.000
49.95376 327.000
49.97371 312.000
49.99366 311.000
50.01361 290.000
50.03355 308.000
50.05350 312.000
50.07345 298.000
50.09339 322.000
50.11334 310.000
50.13329 319.000
50.15323 336.000
50.17318 306.000
50.19313 353.000
50.21307 301.000
50.23302 313.000
50.25297 289.000
50.27292 338.000
50.29286 285.000
50.31281 309.000
50.33276 295.000
50.35270 327.000
50.37265 297.000
50.39260 321.000
50.41254 320.000
50.43249 289.000
50.45244 281.000
50.47239 311.000
50.49233 312.000
50.51228 306.000
50.53223 298.000
50.55217 312.000
50.57212 299.000
50.59207 315.000
50.61201 300.000
50.63196 280.000
50.65191 318.000
50.67186 319.000
50.69180 300.000
50.71175 334.000
50.73170 314.000
50.75164 345.000
50.77159 311.000
50.79154 334.000
50.81148 330.000
50.83143 299.000
50.85138 299.000
50.87132 328.000
50.89127 301.000
50.91122 305.000
50.93117 297.000
50.95111 317.000
50.97106 273.000
50.99101 300.000
51.01095 286.000
51.03090 321.000
51.05085 278.000
51.07079 290.000
51.09074 314.000
51.11069 269.000
51.13064 325.000
51.15058 283.000
51.17053 324.000
51.19048 354.000
51.21042 325.000
51.23037 314.000
51.25032 290.000
51.27026 335.000
51.29021 311.000
51.31016 336.000
51.33010 327.000
51.35005 311.000
51.37000 341.000
51.38995 302.000
51.40989 308.000
51.42984 330.000
51.44979 291.000
51.46973 306.000
51.48968 310.000
51.50963 340.000
51.52957 300.000
51.54952 296.000
51.56947 299.000
51.58942 303.000
51.60936 292.000
51.62931 298.000
51.64926 334.000
51.66920 316.000
51.68915 316.000
51.70910 302.000
51.72904 294.000
51.74899 271.000
51.76894 286.000
51.78888 320.000
51.80883 308.000
51.82878 308.000
51.84873 306.000
51.86867 301.000
51.88862 305.000
51.90857 288.000
51.92851 331.000
51.94846 343.000
51.96841 334.000
51.98835 354.000
52.00830 331.000
52.02825 320.000
52.04820 328.000
52.06814 345.000
52.08809 375.000
52.10804 359.000
52.12798 352.000
52.14793 393.000
52.16788 369.000
52.18782 341.000
52.20777 356.000
52.22772 357.000
52.24767 337.000
52.26761 370.000
52.28756 340.000
52.30751 346.000
52.32745 321.000
52.34740 329.000
52.36735 322.000
52.38729 291.000
52.40724 306.000
52.42719 314.000
52.44713 294.000
52.46708 321.000
52.48703 290.000
52.50698 324.000
52.52692 314.000
52.54687 299.000
52.56682 281.000
52.58676 303.000
52.60671 300.000
52.62666 317.000
52.64660 295.000
52.66655 323.000
52.68650 295.000
52.70645 327.000
52.72639 255.000
52.74634 339.000
52.76629 307.000
52.78623 346.000
52.80618 298.000
52.82613 307.000
52.84607 302.000
52.86602 296.000
52.88597 303.000
52.90591 314.000
52.92586 283.000
52.94581 329.000
52.96576 298.000
52.98570 286.000
53.00565 309.000
53.02560 303.000
53.04554 319.000
53.06549 304.000
53.08544 288.000
53.10538 329.000
53.12533 321.000
53.14528 349.000
53.16523 312.000
53.18517 321.000
53.20512 324.000
53.22507 327.000
53.24501 360.000
53.26496 370.000
53.28491 346.000
53.30485 354.000
53.32480 339.000
53.34475 377.000
53.36469 357.000
53.38464 385.000
53.40459 346.000
53.42454 376.000
53.44448 369.000
53.46443 368.000
53.48438 365.000
53.50432 346.000
53.52427 352.000
53.54422 349.000
53.56416 343.000
53.58411 285.000
53.60406 351.000
53.62401 351.000
53.64395 327.000
53.66390 331.000
53.68385 313.000
53.70379 336.000
53.72374 373.000
53.74369 322.000
53.76363 346.000
53.78358 321.000
53.80353 319.000
53.82348 301.000
53.84342 348.000
53.86337 326.000
53.88332 321.000
53.90326 305.000
53.92321 309.000
53.94316 323.000
53.96310 328.000
53.98305 316.000
54.00300 315.000
54.02294 278.000
54.04289 326.000
54.06284 322.000
54.08279 315.000
54.10273 316.000
54.12268 306.000
54.14263 319.000
54.16257 318.000
54.18252 304.000
54.20247 283.000
54.22241 290.000
54.24236 302.000
54.26231 325.000
54.28226 283.000
54.30220 320.000
54.32215 303.000
54.34210 299.000
54.36204 290.000
54.38199 308.000
54.40194 312.000
54.42188 281.000
54.44183 286.000
54.46178 308.000
54.48172 293.000
54.50167 296.000
54.52162 299.000
54.54157 342.000
54.56151 327.000
54.58146 324.000
54.60141 297.000
54.62135 310.000
54.64130 304.000
54.66125 280.000
54.68119 335.000
54.70114 297.000
54.72109 299.000
54.74104 337.000
54.76098 302.000
54.78093 360.000
54.80088 294.000
54.82082 280.000
54.84077 299.000
54.86072 282.000
54.88066 339.000
54.90061 283.000
54.92056 293.000
54.94050 317.000
54.96045 293.000
54.98040 291.000
55.00035 315.000
55.02029 301.000
55.04024 284.000
55.06019 280.000
55.08013 290.000
55.10008 333.000
55.12003 278.000
55.13997 312.000
55.15992 277.000
55.17987 325.000
55.19982 313.000
55.21976 282.000
55.23971 308.000
55.25966 300.000
55.27960 317.000
55.29955 304.000
55.31950 300.000
55.33944 345.000
55.35939 291.000
55.37934 273.000
55.39929 303.000
55.41923 289.000
55.43918 329.000
55.45913 315.000
55.47907 288.000
55.49902 282.000
55.51897 300.000
55.53891 301.000
55.55886 278.000
55.57881 332.000
55.59875 283.000
55.61870 282.000
55.63865 269.000
55.65860 289.000
55.67854 350.000
55.69849 295.000
55.71844 306.000
55.73838 272.000
55.75833 331.000
55.77828 276.000
55.79822 273.000
55.81817 286.000
55.83812 295.000
55.85807 300.000
55.87801 309.000
55.89796 285.000
55.91791 285.000
55.93785 296.000
55.95780 294.000
55.97775 308.000
55.99769 268.000
56.01764 320.000
56.03759 313.000
56.05753 271.000
56.07748 308.000
56.09743 329.000
56.11738 319.000
56.13732 307.000
56.15727 341.000
56.17722 300.000
56.19716 277.000
56.21711 288.000
56.23706 301.000
56.25700 332.000
56.27695 297.000
56.29690 304.000
56.31685 285.000
56.33679 316.000
56.35674 295.000
56.37669 288.000
56.39663 297.000
56.41658 263.000
56.43653 275.000
56.45647 314.000
56.47642 282.000
56.49637 308.000
56.51631 288.000
56.53626 303.000
56.55621 269.000
56.57616 290.000
56.59610 309.000
56.61605 329.000
56.63600 323.000
56.65594 286.000
56.67589 293.000
56.69584 320.000
56.71578 325.000
56.73573 320.000
56.75568 319.000
56.77563 305.000
56.79557 292.000
56.81552 301.000
56.83547 329.000
56.85541 316.000
56.87536 354.000
56.89531 318.000
56.91525 312.000
56.93520 347.000
56.95515 298.000
56.97510 276.000
56.99504 279.000
57.01499 302.000
57.03494 323.000
57.05488 284.000
57.07483 322.000
57.09478 294.000
57.11472 292.000
57.13467 297.000
57.15462 320.000
57.17456 334.000
57.19451 318.000
57.21446 270.000
57.23441 324.000
57.25435 317.000
57.27430 290.000
57.29425 311.000
57.31419 293.000
57.33414 299.000
57.35409 302.000
57.37403 291.000
57.39398 298.000
57.41393 275.000
57.43388 325.000
57.45382 304.000
57.47377 299.000
57.49372 311.000
57.51366 298.000
57.53361 291.000
57.55356 322.000
57.57350 302.000
57.59345 299.000
57.61340 263.000
57.63334 293.000
57.65329 341.000
57.67324 286.000
57.69319 334.000
57.71313 307.000
57.73308 307.000
57.75303 298.000
57.77297 299.000
57.79292 330.000
57.81287 334.000
57.83281 307.000
57.85276 270.000
57.87271 306.000
57.89266 326.000
57.91260 333.000
57.93255 306.000
57.95250 314.000
57.97244 319.000
57.99239 325.000
58.01234 335.000
58.03228 363.000
58.05223 353.000
58.07218 365.000
58.09212 341.000
58.11207 387.000
58.13202 367.000
58.15197 410.000
58.17191 387.000
58.19186 430.000
58.21181 445.000
58.23175 445.000
58.25170 483.000
58.27165 495.000
58.29159 447.000
58.31154 440.000
58.33149 418.000
58.35144 431.000
58.37138 440.000
58.39133 392.000
58.41128 409.000
58.43122 412.000
58.45117 400.000
58.47112 385.000
58.49106 384.000
58.51101 368.000
58.53096 370.000
58.55090 314.000
58.57085 319.000
58.59080 320.000
58.61075 312.000
58.63069 312.000
58.65064 336.000
58.67059 310.000
58.69053 308.000
58.71048 305.000
58.73043 315.000
58.75037 328.000
58.77032 282.000
58.79027 323.000
58.81022 332.000
58.83016 273.000
58.85011 301.000
58.87006 322.000
58.89000 298.000
58.90995 309.000
58.92990 336.000
58.94984 289.000
58.96979 300.000
58.98974 284.000
59.00969 291.000
59.02963 291.000
59.04958 308.000
59.06953 339.000
59.08947 313.000
59.10942 281.000
59.12937 292.000
59.14931 292.000
59.16926 340.000
59.18921 311.000
59.20915 317.000
59.22910 310.000
59.24905 286.000
59.26900 276.000
59.28894 289.000
59.30889 333.000
59.32884 312.000
59.34878 300.000
59.36873 305.000
59.38868 288.000
59.40862 311.000
59.42857 299.000
59.44852 318.000
59.46847 310.000
59.48841 283.000
59.50836 285.000
59.52831 303.000
59.54825 293.000
59.56820 320.000
59.58815 311.000
59.60809 315.000
59.62804 286.000
59.64799 292.000
59.66793 277.000
59.68788 308.000
59.70783 305.000
59.72778 317.000
59.74772 273.000
59.76767 304.000
59.78762 299.000
59.80756 303.000
59.82751 298.000
59.84746 296.000
59.86740 289.000
59.88735 278.000
59.90730 318.000
59.92725 299.000
59.94719 274.000
59.96714 309.000
59.98709 278.000
60.00703 303.000
60.02698 328.000
60.04693 312.000
60.06687 296.000
60.08682 334.000
60.10677 331.000
60.12671 347.000
60.14666 286.000
60.16661 315.000
60.18656 293.000
60.20650 299.000
60.22645 364.000
60.24640 313.000
60.26634 308.000
60.28629 333.000
60.30624 317.000
60.32618 283.000
60.34613 291.000
60.36608 313.000
60.38603 298.000
60.40597 309.000
60.42592 304.000
60.44587 312.000
60.46581 340.000
60.48576 313.000
60.50571 328.000
60.52565 310.000
60.54560 311.000
60.56555 301.000
60.58550 285.000
60.60544 304.000
60.62539 311.000
60.64534 325.000
60.66528 304.000
60.68523 313.000
60.70518 313.000
60.72512 293.000
60.74507 284.000
60.76502 294.000
60.78496 310.000
60.80491 299.000
60.82486 329.000
60.84481 316.000
60.86475 301.000
60.88470 324.000
60.90465 340.000
60.92459 313.000
60.94454 288.000
60.96449 307.000
60.98443 327.000
61.00438 322.000
61.02433 317.000
61.04428 331.000
61.06422 333.000
61.08417 325.000
61.10412 324.000
61.12406 320.000
61.14401 325.000
61.16396 330.000
61.18390 339.000
61.20385 344.000
61.22380 340.000
61.24374 315.000
61.26369 332.000
61.28364 332.000
61.30359 330.000
61.32353 354.000
61.34348 349.000
61.36343 362.000
61.38337 386.000
61.40332 398.000
61.42327 388.000
61.44321 411.000
61.46316 426.000
61.48311 431.000
61.50306 509.000
61.52300 467.000
61.54295 553.000
61.56290 576.000
61.58284 523.000
61.60279 554.000
61.62274 572.000
61.64268 556.000
61.66263 517.000
61.68258 528.000
61.70252 523.000
61.72247 526.000
61.74242 531.000
61.76237 531.000
61.78231 515.000
61.80226 469.000
61.82221 435.000
61.84215 474.000
61.86210 481.000
61.88205 444.000
61.90199 477.000
61.92194 464.000
61.94189 443.000
61.96184 483.000
61.98178 525.000
62.00173 553.000
62.02168 565.000
62.04162 571.000
62.06157 647.000
62.08152 664.000
62.10146 681.000
62.12141 768.000
62.14136 764.000
62.16131 772.000
62.18125 730.000
62.20120 690.000
62.22115 694.000
62.24109 688.000
62.26104 659.000
62.28099 612.000
62.30093 655.000
62.32088 633.000
62.34083 583.000
62.36077 611.000
62.38072 532.000
62.40067 567.000
62.42062 602.000
62.44056 545.000
62.46051 502.000
62.48046 632.000
62.50040 563.000
62.52035 571.000
62.54030 603.000
62.56024 591.000
62.58019 640.000
62.60014 661.000
62.62009 700.000
62.64003 808.000
62.65998 789.000
62.67993 849.000
62.69987 853.000
62.71982 860.000
62.73977 843.000
62.75971 845.000
62.77966 757.000
62.79961 747.000
62.81955 737.000
62.83950 717.000
62.85945 698.000
62.87940 702.000
62.89934 634.000
62.91929 603.000
62.93924 608.000
62.95918 531.000
62.97913 518.000
62.99908 467.000
63.01902 433.000
63.03897 413.000
63.05892 436.000
63.07887 416.000
63.09881 384.000
63.11876 377.000
63.13871 326.000
63.15865 350.000
63.17860 335.000
63.19855 360.000
63.21849 372.000
63.23844 331.000
63.25839 350.000
63.27833 339.000
63.29828 311.000
63.31823 350.000
63.33818 366.000
63.35812 337.000
63.37807 330.000
63.39802 324.000
63.41796 323.000
63.43791 304.000
63.45786 323.000
63.47780 313.000
63.49775 329.000
63.51770 319.000
63.53765 305.000
63.55759 307.000
63.57754 321.000
63.59749 315.000
63.61743 296.000
63.63738 281.000
63.65733 346.000
63.67727 347.000
63.69722 307.000
63.71717 317.000
63.73712 329.000
63.75706 341.000
63.77701 302.000
63.79696 311.000
63.81690 362.000
63.83685 313.000
63.85680 283.000
63.87674 308.000
63.89669 335.000
63.91664 346.000
63.93658 315.000
63.95653 330.000
63.97648 310.000
63.99643 308.000
64.01637 310.000
64.03632 333.000
64.05627 317.000
64.07621 362.000
64.09616 325.000
64.11611 343.000
64.13605 345.000
64.15600 342.000
64.17595 350.000
64.19590 351.000
64.21584 348.000
64.23579 380.000
64.25574 353.000
64.27568 393.000
64.29563 395.000
64.31558 388.000
64.33552 412.000
64.35547 449.000
64.37542 419.000
64.39536 464.000
64.41531 523.000
64.43526 563.000
64.45521 574.000
64.47515 621.000
64.49510 571.000
64.51505 552.000
64.53499 626.000
64.55494 590.000
64.57489 631.000
64.59483 618.000
64.61478 659.000
64.63473 613.000
64.65468 684.000
64.67462 645.000
64.69457 593.000
64.71452 569.000
64.73446 498.000
64.75441 510.000
64.77436 489.000
64.79430 466.000
64.81425 479.000
64.83420 441.000
64.85414 408.000
64.87409 421.000
64.89404 364.000
64.91399 373.000
64.93393 367.000
64.95388 370.000
64.97383 300.000
64.99377 351.000
65.01372 342.000
65.03367 350.000
65.05361 321.000
65.07356 308.000
65.09351 353.000
65.11346 359.000
65.13340 328.000
65.15335 370.000
65.17330 333.000
65.19324 351.000
65.21319 313.000
65.23314 340.000
65.25308 335.000
65.27303 358.000
65.29298 350.000
65.31293 344.000
65.33287 377.000
65.35282 346.000
65.37277 358.000
65.39271 332.000
65.41266 330.000
65.43261 353.000
65.45255 342.000
65.47250 341.000
65.49245 396.000
65.51239 407.000
65.53234 398.000
65.55229 401.000
65.57224 422.000
65.59218 437.000
65.61213 453.000
65.63208 422.000
65.65202 437.000
65.67197 445.000
65.69192 438.000
65.71186 456.000
65.73181 473.000
65.75176 485.000
65.77171 490.000
65.79165 474.000
65.81160 456.000
65.83155 436.000
65.85149 458.000
65.87144 434.000
65.89139 451.000
65.91133 406.000
65.93128 408.000
65.95123 435.000
65.97117 424.000
65.99112 448.000
66.01107 385.000
66.03102 400.000
66.05096 394.000
66.07091 370.000
66.09086 376.000
66.11080 412.000
66.13075 404.000
66.15070 419.000
66.17064 364.000
66.19059 411.000
66.21054 412.000
66.23049 451.000
66.25043 435.000
66.27038 446.000
66.29033 461.000
66.31027 480.000
66.33022 438.000
66.35017 474.000
66.37011 489.000
66.39006 488.000
66.41001 474.000
66.42995 535.000
66.44990 463.000
66.46985 445.000
66.48980 454.000
66.50974 478.000
66.52969 431.000
66.54964 443.000
66.56958 456.000
66.58953 465.000
66.60948 417.000
66.62942 408.000
66.64937 443.000
66.66932 460.000
66.68927 453.000
66.70921 393.000
66.72916 444.000
66.74911 454.000
66.76905 444.000
66.78900 456.000
66.80895 461.000
66.82889 524.000
66.84884 515.000
66.86879 532.000
66.88874 556.000
66.90868 558.000
66.92863 565.000
66.94858 550.000
66.96852 527.000
66.98847 549.000
67.00842 614.000
67.02836 619.000
67.04831 621.000
67.06826 597.000
67.08820 570.000
67.10815 519.000
67.12810 502.000
67.14805 514.000
67.16799 427.000
67.18794 448.000
67.20789 459.000
67.22783 437.000
67.24778 393.000
67.26773 418.000
67.28767 442.000
67.30762 375.000
67.32757 388.000
67.34752 348.000
67.36746 358.000
67.38741 335.000
67.40736 347.000
67.42730 309.000
67.44725 320.000
67.46720 343.000
67.48714 311.000
67.50709 330.000
67.52704 355.000
67.54698 318.000
67.56693 343.000
67.58688 341.000
67.60683 335.000
67.62677 351.000
67.64672 348.000
67.66667 364.000
67.68661 367.000
67.70656 358.000
67.72651 376.000
67.74645 399.000
67.76640 429.000
67.78635 399.000
67.80630 392.000
67.82624 437.000
67.84619 429.000
67.86614 385.000
67.88608 414.000
67.90603 428.000
67.92598 447.000
67.94592 451.000
67.96587 449.000
67.98582 480.000
68.00576 527.000
68.02571 476.000
68.04566 466.000
68.06561 449.000
68.08555 417.000
68.10550 467.000
68.12545 460.000
68.14539 437.000
68.16534 432.000
68.18529 426.000
68.20523 417.000
68.22518 415.000
68.24513 378.000
68.26508 344.000
68.28502 435.000
68.30497 385.000
68.32492 379.000
68.34486 365.000
68.36481 373.000
68.38476 350.000
68.40470 377.000
68.42465 315.000
68.44460 344.000
68.46455 351.000
68.48449 334.000
68.50444 329.000
68.52439 312.000
68.54433 303.000
68.56428 296.000
68.58423 335.000
68.60417 317.000
68.62412 313.000
68.64407 304.000
68.66401 279.000
68.68396 307.000
68.70391 300.000
68.72386 297.000
68.74380 301.000
68.76375 333.000
68.78370 294.000
68.80364 290.000
68.82359 318.000
68.84354 298.000
68.86348 290.000
68.88343 305.000
68.90338 295.000
68.92333 297.000
68.94327 307.000
68.96322 307.000
68.98317 302.000
69.00311 279.000
69.02306 287.000
69.04301 261.000
69.06295 312.000
69.08290 311.000
69.10285 291.000
69.12279 304.000
69.14274 336.000
69.16269 294.000
69.18264 277.000
69.20258 314.000
69.22253 314.000
69.24248 304.000
69.26242 309.000
69.28237 334.000
69.30232 277.000
69.32226 302.000
69.34221 292.000
69.36216 291.000
69.38211 317.000
69.40205 287.000
69.42200 318.000
69.44195 279.000
69.46189 331.000
69.48184 276.000
69.50179 306.000
69.52173 275.000
69.54168 290.000
69.56163 299.000
69.58157 304.000
69.60152 295.000
69.62147 326.000
69.64142 304.000
69.66136 312.000
69.68131 291.000
69.70126 280.000
69.72120 308.000
69.74115 330.000
69.76110 304.000
69.78104 285.000
69.80099 300.000
69.82094 310.000
69.84089 358.000
69.86083 275.000
69.88078 325.000
69.90073 330.000
69.92067 316.000
69.94062 313.000
69.96057 278.000
69.98051 334.000
70.00046 307.000
70.02041 315.000
70.04035 282.000
70.06030 310.000
70.08025 327.000
70.10020 310.000
70.12014 316.000
70.14009 305.000
70.16004 312.000
70.17998 297.000
70.19993 276.000
70.21988 307.000
70.23982 299.000
70.25977 292.000
70.27972 291.000
70.29967 307.000
70.31961 311.000
70.33956 320.000
70.35951 316.000
70.37945 300.000
70.39940 297.000
70.41935 290.000
70.43929 294.000
70.45924 300.000
70.47919 287.000
70.49914 286.000
70.51908 290.000
70.53903 295.000
70.55898 316.000
70.57892 295.000
70.59887 285.000
70.61882 278.000
70.63876 273.000
70.65871 276.000
70.67866 282.000
70.69860 304.000
70.71855 311.000
70.73850 305.000
70.75845 296.000
70.77839 292.000
70.79834 312.000
70.81829 311.000
70.83823 306.000
70.85818 278.000
70.87813 297.000
70.89807 306.000
70.91802 336.000
70.93797 272.000
70.95792 308.000
70.97786 316.000
70.99781 306.000
71.01776 327.000
71.03770 307.000
71.05765 330.000
71.07760 316.000
71.09754 288.000
71.11749 312.000
71.13744 270.000
71.15738 285.000
71.17733 284.000
71.19728 281.000
71.21723 327.000
71.23717 296.000
71.25712 304.000
71.27707 323.000
71.29701 284.000
71.31696 272.000
71.33691 274.000
71.35685 326.000
71.37680 287.000
71.39675 309.000
71.41670 315.000
71.43664 310.000
71.45659 298.000
71.47654 313.000
71.49648 310.000
71.51643 318.000
71.53638 293.000
71.55632 270.000
71.57627 300.000
71.59622 300.000
71.61616 299.000
71.63611 319.000
71.65606 283.000
71.67601 305.000
71.69595 302.000
71.71590 321.000
71.73585 287.000
71.75579 299.000
71.77574 285.000
71.79569 292.000
71.81563 328.000
71.83558 286.000
71.85553 329.000
71.87548 290.000
71.89542 336.000
71.91537 316.000
71.93532 307.000
71.95526 335.000
71.97521 329.000
71.99516 344.000
72.01510 310.000
72.03505 301.000
72.05500 334.000
72.07495 322.000
72.09489 325.000
72.11484 321.000
72.13479 312.000
72.15473 306.000
72.17468 330.000
72.19463 295.000
72.21457 316.000
72.23452 336.000
72.25447 325.000
72.27441 313.000
72.29436 334.000
72.31431 343.000
72.33426 355.000
72.35420 335.000
72.37415 374.000
72.39410 360.000
72.41404 334.000
72.43399 364.000
72.45394 375.000
72.47388 333.000
72.49383 342.000
72.51378 327.000
72.53373 353.000
72.55367 295.000
72.57362 349.000
72.59357 324.000
72.61351 348.000
72.63346 322.000
72.65341 327.000
72.67335 323.000
72.69330 340.000
72.71325 321.000
72.73319 363.000
72.75314 344.000
72.77309 323.000
72.79304 303.000
72.81298 304.000
72.83293 315.000
72.85288 298.000
72.87282 331.000
72.89277 310.000
72.91272 275.000
72.93266 286.000
72.95261 332.000
72.97256 276.000
72.99251 295.000
73.01245 292.000
73.03240 306.000
73.05235 317.000
73.07229 289.000
73.09224 302.000
73.11219 328.000
73.13213 325.000
73.15208 315.000
73.17203 296.000
73.19197 283.000
73.21192 313.000
73.23187 294.000
73.25182 338.000
73.27176 329.000
73.29171 302.000
73.31166 285.000
73.33160 342.000
73.35155 311.000
73.37150 275.000
73.39144 331.000
73.41139 316.000
73.43134 322.000
73.45129 361.000
73.47123 280.000
73.49118 352.000
73.51113 302.000
73.53107 306.000
73.55102 355.000
73.57097 315.000
73.59091 314.000
73.61086 337.000
73.63081 336.000
73.65076 376.000
73.67070 306.000
73.69065 329.000
73.71060 362.000
73.73054 336.000
73.75049 360.000
73.77044 348.000
73.79038 364.000
73.81033 374.000
73.83028 377.000
73.85022 399.000
73.87017 403.000
73.89012 409.000
73.91007 402.000
73.93001 396.000
73.94996 378.000
73.96991 375.000
73.98985 396.000
74.00980 372.000
74.02975 388.000
74.04969 373.000
74.06964 357.000
74.08959 359.000
74.10954 354.000
74.12948 362.000
74.14943 361.000
74.16938 356.000
74.18932 367.000
74.20927 326.000
74.22922 292.000
74.24916 302.000
74.26911 345.000
74.28906 343.000
74.30900 312.000
74.32895 322.000
74.34890 314.000
74.36885 308.000
74.38879 304.000
74.40874 354.000
74.42869 344.000
74.44863 316.000
74.46858 300.000
74.48853 331.000
74.50847 314.000
74.52842 322.000
74.54837 340.000
74.56832 306.000
74.58826 321.000
74.60821 306.000
74.62816 313.000
74.64810 319.000
74.66805 302.000
74.68800 302.000
74.70794 350.000
74.72789 324.000
74.74784 377.000
74.76778 340.000
74.78773 349.000
74.80768 364.000
74.82763 373.000
74.84757 407.000
74.86752 397.000
74.88747 364.000
74.90741 368.000
74.92736 440.000
74.94731 407.000
74.96725 453.000
74.98720 457.000
75.00715 464.000
75.02710 460.000
75.04704 457.000
75.06699 424.000
75.08694 499.000
75.10688 485.000
75.12683 547.000
75.14678 534.000
75.16672 557.000
75.18667 504.000
75.20662 575.000
75.22657 561.000
75.24651 513.000
75.26646 525.000
75.28641 495.000
75.30635 467.000
75.32630 479.000
75.34625 497.000
75.36619 472.000
75.38614 463.000
75.40609 449.000
75.42603 422.000
75.44598 430.000
75.46593 421.000
75.48588 393.000
75.50582 424.000
75.52577 417.000
75.54572 352.000
75.56566 372.000
75.58561 395.000
75.60556 340.000
75.62550 356.000
75.64545 349.000
75.66540 339.000
75.68535 330.000
75.70529 338.000
75.72524 273.000
75.74519 338.000
75.76513 335.000
75.78508 330.000
75.80503 317.000
75.82497 326.000
75.84492 317.000
75.86487 327.000
75.88481 278.000
75.90476 327.000
75.92471 318.000
75.94466 352.000
75.96460 330.000
75.98455 316.000
76.00450 323.000
76.02444 305.000
76.04439 303.000
76.06434 332.000
76.08428 329.000
76.10423 366.000
76.12418 325.000
76.14413 368.000
76.16407 349.000
76.18402 339.000
76.20397 346.000
76.22391 353.000
76.24386 312.000
76.26381 316.000
76.28375 327.000
76.30370 340.000
76.32365 291.000
76.34359 346.000
76.36354 307.000
76.38349 350.000
76.40344 310.000
76.42338 314.000
76.44333 312.000
76.46328 299.000
76.48322 300.000
76.50317 328.000
76.52312 325.000
76.54306 275.000
76.56301 333.000
76.58296 304.000
76.60291 289.000
76.62285 303.000
76.64280 285.000
76.66275 269.000
76.68269 310.000
76.70264 356.000
76.72259 317.000
76.74253 322.000
76.76248 283.000
76.78243 314.000
76.80238 305.000
76.82232 279.000
76.84227 311.000
76.86222 304.000
76.88216 352.000
76.90211 306.000
76.92206 316.000
76.94200 317.000
76.96195 294.000
76.98190 311.000
77.00184 284.000
77.02179 286.000
77.04174 301.000
77.06169 302.000
77.08163 314.000
77.10158 286.000
77.12153 293.000
77.14147 289.000
77.16142 310.000
77.18137 314.000
77.20131 293.000
77.22126 343.000
77.24121 331.000
77.26116 289.000
77.28110 291.000
77.30105 304.000
77.32100 288.000
77.34094 289.000
77.36089 296.000
77.38084 316.000
77.40078 265.000
77.42073 284.000
77.44068 304.000
77.46062 308.000
77.48057 295.000
77.50052 293.000
77.52047 292.000
77.54041 301.000
77.56036 321.000
77.58031 327.000
77.60025 310.000
77.62020 280.000
77.64015 326.000
77.66009 295.000
77.68004 325.000
77.69999 299.000
77.71994 283.000
77.73988 308.000
77.75983 349.000
77.77978 328.000
77.79972 308.000
77.81967 311.000
77.83962 303.000
77.85956 319.000
77.87951 272.000
77.89946 330.000
77.91940 326.000
77.93935 330.000
77.95930 310.000
77.97925 317.000
77.99919 327.000
78.01914 317.000
78.03909 312.000
78.05903 350.000
78.07898 327.000
78.09893 351.000
78.11887 393.000
78.13882 390.000
78.15877 383.000
78.17872 391.000
78.19866 421.000
78.21861 412.000
78.23856 415.000
78.25850 421.000
78.27845 399.000
78.29840 408.000
78.31834 408.000
78.33829 455.000
78.35824 446.000
78.37819 470.000
78.39813 501.000
78.41808 478.000
78.43803 453.000
78.45797 487.000
78.47792 508.000
78.49787 464.000
78.51781 430.000
78.53776 462.000
78.55771 443.000
78.57765 476.000
78.59760 379.000
78.61755 355.000
78.63750 401.000
78.65744 416.000
78.67739 409.000
78.69734 373.000
78.71728 394.000
78.73723 359.000
78.75718 375.000
78.77712 368.000
78.79707 349.000
78.81702 359.000
78.83697 361.000
78.85691 351.000
78.87686 365.000
78.89681 316.000
78.91675 329.000
78.93670 386.000
78.95665 368.000
78.97659 381.000
78.99654 378.000
79.01649 354.000
79.03643 400.000
79.05638 414.000
79.07633 358.000
79.09628 451.000
79.11622 443.000
79.13617 454.000
79.15612 432.000
79.17606 441.000
79.19601 399.000
79.21596 431.000
79.23590 382.000
79.25585 424.000
79.27580 408.000
79.29575 389.000
79.31569 395.000
79.33564 416.000
79.35559 380.000
79.37553 392.000
79.39548 356.000
79.41543 401.000
79.43537 360.000
79.45532 373.000
79.47527 343.000
79.49521 304.000
79.51516 358.000
79.53511 335.000
79.55506 334.000
79.57500 294.000
79.59495 307.000
79.61490 308.000
79.63484 326.000
79.65479 273.000
79.67474 324.000
79.69468 299.000
79.71463 335.000
79.73458 307.000
79.75453 279.000
79.77447 291.000
79.79442 308.000
79.81437 291.000
79.83431 313.000
79.85426 299.000
79.87421 301.000
79.89415 297.000
79.91410 301.000
79.93405 306.000
79.95399 305.000
79.97394 292.000
79.99389 306.000
80.01384 283.000
80.03378 306.000
80.05373 323.000
80.07368 312.000
80.09362 348.000
80.11357 289.000
80.13352 305.000
80.15346 337.000
80.17341 327.000
80.19336 312.000
80.21331 296.000
80.23325 309.000
80.25320 326.000
80.27315 329.000
80.29309 343.000
80.31304 320.000
80.33299 314.000
80.35293 342.000
80.37288 340.000
80.39283 327.000
80.41278 305.000
80.43272 304.000
80.45267 296.000
80.47262 324.000
80.49256 346.000
80.51251 308.000
80.53246 294.000
80.55240 303.000
80.57235 319.000
80.59230 286.000
80.61224 308.000
80.63219 292.000
80.65214 315.000
80.67209 289.000
80.69203 292.000
80.71198 313.000
80.73193 303.000
80.75187 304.000
80.77182 305.000
80.79177 310.000
80.81171 276.000
80.83166 304.000
80.85161 318.000
80.87156 317.000
80.89150 322.000
80.91145 307.000
80.93140 303.000
80.95134 270.000
80.97129 311.000
80.99124 312.000
81.01118 312.000
81.03113 319.000
81.05108 299.000
81.07102 315.000
81.09097 302.000
81.11092 320.000
81.13087 358.000
81.15081 304.000
81.17076 316.000
81.19071 309.000
81.21065 305.000
81.23060 329.000
81.25055 311.000
81.27049 309.000
81.29044 315.000
81.31039 317.000
81.33034 306.000
81.35028 273.000
81.37023 295.000
81.39018 301.000
81.41012 317.000
81.43007 284.000
81.45002 298.000
81.46996 306.000
81.48991 292.000
81.50986 290.000
81.52980 306.000
81.54975 330.000
81.56970 313.000
81.58965 316.000
81.60959 315.000
81.62954 313.000
81.64949 283.000
81.66943 296.000
81.68938 332.000
81.70933 304.000
81.72927 306.000
81.74922 295.000
81.76917 295.000
81.78912 347.000
81.80906 306.000
81.82901 297.000
81.84896 277.000
81.86890 317.000
81.88885 260.000
81.90880 273.000
81.92874 302.000
81.94869 303.000
81.96864 301.000
81.98859 304.000
82.00853 283.000
82.02848 302.000
82.04843 310.000
82.06837 307.000
82.08832 283.000
82.10827 301.000
82.12821 309.000
82.14816 321.000
82.16811 326.000
82.18805 291.000
82.20800 320.000
82.22795 320.000
82.24790 318.000
82.26784 288.000
82.28779 295.000
82.30774 287.000
82.32768 285.000
82.34763 323.000
82.36758 321.000
82.38752 296.000
82.40747 280.000
82.42742 292.000
82.44737 313.000
82.46731 340.000
82.48726 332.000
82.50721 345.000
82.52715 335.000
82.54710 326.000
82.56705 371.000
82.58699 313.000
82.60694 341.000
82.62689 345.000
82.64683 366.000
82.66678 357.000
82.68673 346.000
82.70668 355.000
82.72662 333.000
82.74657 335.000
82.76652 327.000
82.78646 357.000
82.80641 348.000
82.82636 387.000
82.84630 345.000
82.86625 332.000
82.88620 368.000
82.90615 330.000
82.92609 357.000
82.94604 336.000
82.96599 308.000
82.98593 363.000
83.00588 347.000
83.02583 332.000
83.04577 323.000
83.06572 330.000
83.08567 316.000
83.10561 345.000
83.12556 310.000
83.14551 315.000
83.16546 372.000
83.18540 314.000
83.20535 308.000
83.22530 331.000
83.24524 339.000
83.26519 309.000
83.28514 331.000
83.30508 320.000
83.32503 319.000
83.34498 310.000
83.36493 350.000
83.38487 341.000
83.40482 306.000
83.42477 305.000
83.44471 314.000
83.46466 313.000
83.48461 296.000
83.50455 349.000
83.52450 326.000
83.54445 322.000
83.56440 325.000
83.58434 339.000
83.60429 349.000
83.62424 319.000
83.64418 301.000
83.66413 321.000
83.68408 287.000
83.70402 305.000
83.72397 308.000
83.74392 322.000
83.76386 345.000
83.78381 339.000
83.80376 347.000
83.82371 306.000
83.84365 335.000
83.86360 329.000
83.88355 337.000
83.90349 324.000
83.92344 299.000
83.94339 337.000
83.96333 359.000
83.98328 335.000
84.00323 319.000
84.02318 352.000
84.04312 328.000
84.06307 357.000
84.08302 291.000
84.10296 325.000
84.12291 293.000
84.14286 319.000
84.16280 312.000
84.18275 302.000
84.20270 305.000
84.22264 304.000
84.24259 331.000
84.26254 314.000
84.28249 333.000
84.30243 276.000
84.32238 325.000
84.34233 324.000
84.36227 318.000
84.38222 318.000
84.40217 299.000
84.42211 314.000
84.44206 304.000
84.46201 299.000
84.48196 315.000
84.50190 313.000
84.52185 296.000
84.54180 322.000
84.56174 331.000
84.58169 319.000
84.60164 331.000
84.62158 343.000
84.64153 349.000
84.66148 332.000
84.68142 328.000
84.70137 343.000
84.72132 365.000
84.74127 359.000
84.76121 349.000
84.78116 369.000
84.80111 353.000
84.82105 322.000
84.84100 349.000
84.86095 368.000
84.88089 338.000
84.90084 360.000
84.92079 354.000
84.94074 402.000
84.96068 363.000
84.98063 375.000
85.00058 391.000
85.02052 378.000
85.04047 393.000
85.06042 385.000
85.08036 360.000
85.10031 369.000
85.12026 375.000
85.14021 358.000
85.16015 369.000
85.18010 395.000
85.20005 356.000
85.21999 349.000
85.23994 344.000
85.25989 335.000
85.27983 358.000
85.29978 327.000
85.31973 331.000
85.33967 353.000
85.35962 312.000
85.37957 334.000
85.39952 333.000
85.41946 300.000
85.43941 323.000
85.45936 328.000
85.47930 293.000
85.49925 311.000
85.51920 328.000
85.53914 324.000
85.55909 319.000
85.57904 282.000
85.59899 327.000
85.61893 300.000
85.63888 310.000
85.65883 301.000
85.67877 281.000
85.69872 278.000
85.71867 304.000
85.73861 290.000
85.75856 318.000
85.77851 303.000
85.79845 310.000
85.81840 311.000
85.83835 280.000
85.85830 339.000
85.87824 306.000
85.89819 317.000
85.91814 276.000
85.93808 301.000
85.95803 294.000
85.97798 287.000
85.99792 293.000
86.01787 311.000
86.03782 289.000
86.05777 307.000
86.07771 298.000
86.09766 304.000
86.11761 306.000
86.13755 307.000
86.15750 294.000
86.17745 295.000
86.19739 308.000
86.21734 253.000
86.23729 305.000
86.25723 307.000
86.27718 319.000
86.29713 315.000
86.31708 298.000
86.33702 290.000
86.35697 290.000
86.37692 290.000
86.39686 280.000
86.41681 286.000
86.43676 295.000
86.45670 303.000
86.47665 303.000
86.49660 272.000
86.51655 312.000
86.53649 282.000
86.55644 310.000
86.57639 310.000
86.59633 287.000
86.61628 276.000
86.63623 289.000
86.65617 314.000
86.67612 327.000
86.69607 318.000
86.71602 311.000
86.73596 306.000
86.75591 301.000
86.77586 316.000
86.79580 317.000
86.81575 311.000
86.83570 296.000
86.85564 319.000
86.87559 277.000
86.89554 309.000
86.91548 335.000
86.93543 296.000
86.95538 312.000
86.97533 313.000
86.99527 337.000
87.01522 319.000
87.03517 310.000
87.05511 333.000
87.07506 297.000
87.09501 339.000
87.11495 313.000
87.13490 330.000
87.15485 326.000
87.17480 334.000
87.19474 333.000
87.21469 329.000
87.23464 374.000
87.25458 334.000
87.27453 346.000
87.29448 328.000
87.31442 313.000
87.33437 354.000
87.35432 340.000
87.37426 334.000
87.39421 325.000
87.41416 301.000
87.43411 308.000
87.45405 313.000
87.47400 289.000
87.49395 338.000
87.51389 320.000
87.53384 313.000
87.55379 329.000
87.57373 335.000
87.59368 309.000
87.61363 339.000
87.63358 320.000
87.65352 289.000
87.67347 316.000
87.69342 298.000
87.71336 321.000
87.73331 311.000
87.75326 319.000
87.77320 334.000
87.79315 319.000
87.81310 339.000
87.83304 296.000
87.85299 316.000
87.87294 297.000
87.89289 307.000
87.91283 315.000
87.93278 345.000
87.95273 316.000
87.97267 299.000
87.99262 325.000
88.01257 273.000
88.03251 311.000
88.05246 311.000
88.07241 281.000
88.09236 301.000
88.11230 297.000
88.13225 313.000
88.15220 339.000
88.17214 308.000
88.19209 290.000
88.21204 287.000
88.23198 302.000
88.25193 290.000
88.27188 298.000
88.29183 316.000
88.31177 288.000
88.33172 322.000
88.35167 287.000
88.37161 293.000
88.39156 294.000
88.41151 290.000
88.43145 310.000
88.45140 286.000
88.47135 296.000
88.49129 288.000
88.51124 282.000
88.53119 291.000
88.55114 289.000
88.57108 289.000
88.59103 283.000
88.61098 306.000
88.63092 337.000
88.65087 267.000
88.67082 285.000
88.69076 310.000
88.71071 310.000
88.73066 291.000
88.75061 297.000
88.77055 300.000
88.79050 312.000
88.81045 336.000
88.83039 247.000
88.85034 299.000
88.87029 276.000
88.89023 314.000
88.91018 317.000
88.93013 292.000
88.95007 315.000
88.97002 302.000
88.98997 320.000
89.00992 313.000
89.02986 314.000
89.04981 303.000
89.06976 285.000
89.08970 306.000
89.10965 276.000
89.12960 286.000
89.14954 321.000
89.16949 299.000
89.18944 290.000
89.20939 300.000
89.22933 325.000
89.24928 288.000
89.26923 299.000
89.28917 302.000
89.30912 317.000
89.32907 278.000
89.34901 336.000
89.36896 290.000
89.38891 312.000
89.40885 299.000
89.42880 301.000
89.44875 308.000
89.46870 296.000
89.48864 287.000
89.50859 308.000
89.52854 296.000
89.54848 318.000
89.56843 315.000
89.58838 312.000
89.60832 297.000
89.62827 316.000
89.64822 307.000
89.66817 315.000
89.68811 313.000
89.70806 316.000
89.72801 327.000
89.74795 319.000
89.76790 307.000
89.78785 314.000
89.80779 308.000
89.82774 327.000
89.84769 289.000
89.86764 287.000
89.88758 291.000
89.90753 307.000
89.92748 289.000
89.94742 304.000
89.96737 357.000
89.98732 296.000
90.00726 322.000
