10.00000 136.000
10.01995 122.000
10.03989 125.000
10.05984 126.000
10.07979 141.000
10.09973 144.000
10.11968 141.000
10.13963 114.000
10.15958 107.000
10.17952 128.000
10.19947 144.000
10.21942 115.000
10.23936 105.000
10.25931 108.000
10.27926 116.000
10.29920 114.000
10.31915 126.000
10.33910 132.000
10.35905 116.000
10.37899 121.000
10.39894 132.000
10.41889 112.000
10.43883 112.000
10.45878 128.000
10.47873 124.000
10.49867 113.000
10.51862 121.000
10.53857 127.000
10.55851 123.000
10.57846 133.000
10.59841 137.000
10.61836 120.000
10.63830 99.000
10.65825 103.000
10.67820 120.000
10.69814 97.000
10.71809 121.000
10.73804 110.000
10.75798 129.000
10.77793 119.000
10.79788 107.000
10.81783 132.000
10.83777 120.000
10.85772 123.000
10.87767 117.000
10.89761 107.000
10.91756 145.000
10.93751 115.000
10.95745 134.000
10.97740 144.000
10.99735 121.000
11.01730 114.000
11.03724 134.000
11.05719 136.000
11.07714 128.000
11.09708 130.000
11.11703 107.000
11.13698 103.000
11.15692 113.000
11.17687 139.000
11.19682 108.000
11.21676 152.000
11.23671 127.000
11.25666 106.000
11.27661 123.000
11.29655 124.000
11.31650 125.000
11.33645 126.000
11.35639 117.000
11.37634 109.000
11.39629 120.000
11.41623 113.000
11.43618 111.000
11.45613 125.000
11.47608 117.000
11.49602 125.000
11.51597 104.000
11.53592 128.000
11.55586 123.000
11.57581 132.000
11.59576 108.000
11.61570 142.000
11.63565 132.000
11.65560 121.000
11.67554 119.000
11.69549 131.000
11.71544 135.000
11.73539 146.000
11.75533 141.000
11.77528 152.000
11.79523 126.000
11.81517 126.000
11.83512 137.000
11.85507 135.000
11.87501 132.000
11.89496 126.000
11.91491 150.000
11.93486 114.000
11.95480 145.000
11.97475 107.000
11.99470 122.000
12.01464 122.000
12.03459 120.000
12.05454 103.000
12.07448 143.000
12.09443 115.000
12.11438 138.000
12.13432 140.000
12.15427 140.000
12.17422 129.000
12.19417 126.000
12.21411 147.000
12.23406 139.000
12.25401 126.000
12.27395 140.000
12.29390 139.000
12.31385 128.000
12.33379 136.000
12.35374 157.000
12.37369 139.000
12.39364 152.000
12.41358 134.000
12.43353 134.000
12.45348 161.000
12.47342 157.000
12.49337 152.000
12.51332 142.000
12.53326 157.000
12.55321 156.000
12.57316 171.000
12.59311 160.000
12.61305 149.000
12.63300 152.000
12.65295 158.000
12.67289 138.000
12.69284 130.000
12.71279 175.000
12.73273 154.000
12.75268 141.000
12.77263 156.000
12.79257 139.000
12.81252 150.000
12.83247 154.000
12.85242 141.000
12.87236 159.000
12.89231 146.000
12.91226 148.000
12.93220 146.000
12.95215 135.000
12.97210 136.000
12.99204 144.000
13.01199 147.000
13.03194 151.000
13.05189 145.000
13.07183 132.000
13.09178 128.000
13.11173 145.000
13.13167 155.000
13.15162 137.000
13.17157 152.000
13.19151 136.000
13.21146 132.000
13.23141 120.000
13.25135 130.000
13.27130 170.000
13.29125 128.000
13.31120 132.000
13.33114 138.000
13.35109 125.000
13.37104 138.000
13.39098 114.000
13.41093 139.000
13.43088 150.000
13.45082 145.000
13.47077 136.000
13.49072 159.000
13.51067 134.000
13.53061 141.000
13.55056 155.000
13.57051 160.000
13.59045 143.000
13.61040 144.000
13.63035 144.000
13.65029 157.000
13.67024 150.000
13.69019 162.000
13.71013 151.000
13.73008 145.000
13.75003 151.000
13.76998 150.000
13.78992 147.000
13.80987 128.000
13.82982 128.000
13.84976 161.000
13.86971 141.000
13.88966 137.000
13.90960 147.000
13.92955 146.000
13.94950 140.000
13.96945 148.000
13.98939 155.000
14.00934 156.000
14.02929 156.000
14.04923 164.000
14.06918 143.000
14.08913 168.000
14.10907 153.000
14.12902 146.000
14.14897 151.000
14.16892 153.000
14.18886 131.000
14.20881 136.000
14.22876 144.000
14.24870 152.000
14.26865 155.000
14.28860 142.000
14.30854 152.000
14.32849 144.000
14.34844 140.000
14.36838 151.000
14.38833 157.000
14.40828 159.000
14.42823 146.000
14.44817 166.000
14.46812 156.000
14.48807 150.000
14.50801 170.000
14.52796 137.000
14.54791 138.000
14.56785 150.000
14.58780 158.000
14.60775 139.000
14.62770 170.000
14.64764 162.000
14.66759 139.000
14.68754 153.000
14.70748 173.000
14.72743 173.000
14.74738 160.000
14.76732 166.000
14.78727 150.000
14.80722 185.000
14.82716 171.000
14.84711 167.000
14.86706 163.000
14.88701 193.000
14.90695 180.000
14.92690 184.000
14.94685 175.000
14.96679 194.000
14.98674 168.000
15.00669 178.000
15.02663 180.000
15.04658 180.000
15.06653 190.000
15.08648 221.000
15.10642 202.000
15.12637 229.000
15.14632 235.000
15.16626 193.000
15.18621 223.000
15.20616 220.000
15.22610 218.000
15.24605 234.000
15.26600 272.000
15.28594 321.000
15.30589 285.000
15.32584 348.000
15.34579 388.000
15.36573 473.000
15.38568 533.000
15.40563 691.000
15.42557 941.000
15.44552 1208.000
15.46547 1620.000
15.48541 2139.000
15.50536 2761.000
15.52531 3353.000
15.54526 3913.000
15.56520 4273.000
15.58515 3848.000
15.60510 2900.000
15.62504 1980.000
15.64499 1129.000
15.66494 718.000
15.68488 482.000
15.70483 414.000
15.72478 285.000
15.74472 275.000
15.76467 237.000
15.78462 204.000
15.80457 194.000
15.82451 207.000
15.84446 174.000
15.86441 154.000
15.88435 185.000
15.90430 167.000
15.92425 171.000
15.94419 175.000
15.96414 170.000
15.98409 138.000
16.00404 132.000
16.02398 156.000
16.04393 151.000
16.06388 166.000
16.08382 151.000
16.10377 130.000
16.12372 147.000
16.14366 133.000
16.16361 133.000
16.18356 152.000
16.20351 135.000
16.22345 109.000
16.24340 123.000
16.26335 122.000
16.28329 122.000
16.30324 132.000
16.32319 147.000
16.34313 120.000
16.36308 134.000
16.38303 130.000
16.40297 159.000
16.42292 117.000
16.44287 110.000
16.46282 137.000
16.48276 145.000
16.50271 137.000
16.52266 120.000
16.54260 131.000
16.56255 121.000
16.58250 124.000
16.60244 129.000
16.62239 120.000
16.64234 124.000
16.66229 143.000
16.68223 115.000
16.70218 124.000
16.72213 127.000
16.74207 129.000
16.76202 121.000
16.78197 125.000
16.80191 118.000
16.82186 150.000
16.84181 139.000
16.86175 126.000
16.88170 138.000
16.90165 111.000
16.92160 119.000
16.94154 117.000
16.96149 101.000
16.98144 143.000
17.00138 111.000
17.02133 106.000
17.04128 121.000
17.06122 125.000
17.08117 127.000
17.10112 127.000
17.12107 146.000
17.14101 125.000
17.16096 153.000
17.18091 111.000
17.20085 132.000
17.22080 120.000
17.24075 126.000
17.26069 129.000
17.28064 100.000
17.30059 117.000
17.32053 120.000
17.34048 123.000
17.36043 133.000
17.38038 117.000
17.40032 114.000
17.42027 137.000
17.44022 120.000
17.46016 137.000
17.48011 123.000
17.50006 126.000
17.52000 108.000
17.53995 130.000
17.55990 133.000
17.57985 110.000
17.59979 114.000
17.61974 116.000
17.63969 134.000
17.65963 109.000
17.67958 123.000
17.69953 101.000
17.71947 141.000
17.73942 115.000
17.75937 122.000
17.77932 123.000
17.79926 128.000
17.81921 158.000
17.83916 125.000
17.85910 129.000
17.87905 110.000
17.89900 117.000
17.91894 138.000
17.93889 136.000
17.95884 141.000
17.97878 144.000
17.99873 129.000
18.01868 165.000
18.03863 140.000
18.05857 156.000
18.07852 179.000
18.09847 182.000
18.11841 232.000
18.13836 265.000
18.15831 318.000
18.17825 375.000
18.19820 478.000
18.21815 534.000
18.23810 657.000
18.25804 715.000
18.27799 730.000
18.29794 667.000
18.31788 601.000
18.33783 504.000
18.35778 426.000
18.37772 350.000
18.39767 291.000
18.41762 257.000
18.43756 220.000
18.45751 175.000
18.47746 161.000
18.49741 146.000
18.51735 133.000
18.53730 120.000
18.55725 138.000
18.57719 140.000
18.59714 106.000
18.61709 124.000
18.63703 115.000
18.65698 116.000
18.67693 102.000
18.69688 120.000
18.71682 121.000
18.73677 136.000
18.75672 130.000
18.77666 116.000
18.79661 123.000
18.81656 124.000
18.83650 118.000
18.85645 120.000
18.87640 126.000
18.89634 115.000
18.91629 126.000
18.93624 126.000
18.95619 145.000
18.97613 122.000
18.99608 112.000
19.01603 141.000
19.03597 123.000
19.05592 117.000
19.07587 144.000
19.09581 105.000
19.11576 119.000
19.13571 123.000
19.15566 138.000
19.17560 102.000
19.19555 131.000
19.21550 135.000
19.23544 110.000
19.25539 116.000
19.27534 118.000
19.29528 123.000
19.31523 122.000
19.33518 111.000
19.35513 119.000
19.37507 127.000
19.39502 124.000
19.41497 113.000
19.43491 120.000
19.45486 124.000
19.47481 115.000
19.49475 136.000
19.51470 139.000
19.53465 142.000
19.55459 137.000
19.57454 113.000
19.59449 135.000
19.61444 128.000
19.63438 126.000
19.65433 119.000
19.67428 127.000
19.69422 134.000
19.71417 115.000
19.73412 135.000
19.75406 122.000
19.77401 122.000
19.79396 113.000
19.81391 122.000
19.83385 121.000
19.85380 129.000
19.87375 134.000
19.89369 120.000
19.91364 130.000
19.93359 122.000
19.95353 122.000
19.97348 115.000
19.99343 128.000
20.01337 121.000
20.03332 121.000
20.05327 110.000
20.07322 119.000
20.09316 131.000
20.11311 124.000
20.13306 112.000
20.15300 124.000
20.17295 133.000
20.19290 128.000
20.21284 124.000
20.23279 143.000
20.25274 123.000
20.27269 130.000
20.29263 116.000
20.31258 118.000
20.33253 122.000
20.35247 119.000
20.37242 129.000
20.39237 139.000
20.41231 116.000
20.43226 160.000
20.45221 134.000
20.47215 100.000
20.49210 129.000
20.51205 135.000
20.53200 109.000
20.55194 133.000
20.57189 112.000
20.59184 106.000
20.61178 134.000
20.63173 122.000
20.65168 128.000
20.67162 104.000
20.69157 120.000
20.71152 119.000
20.73147 135.000
20.75141 113.000
20.77136 135.000
20.79131 125.000
20.81125 117.000
20.83120 103.000
20.85115 109.000
20.87109 121.000
20.89104 132.000
20.91099 129.000
20.93094 116.000
20.95088 144.000
20.97083 119.000
20.99078 126.000
21.01072 117.000
21.03067 110.000
21.05062 133.000
21.07056 118.000
21.09051 126.000
21.11046 128.000
21.13040 132.000
21.15035 121.000
21.17030 133.000
21.19025 136.000
21.21019 117.000
21.23014 135.000
21.25009 120.000
21.27003 137.000
21.28998 150.000
21.30993 121.000
21.32987 131.000
21.34982 133.000
21.36977 139.000
21.38972 131.000
21.40966 130.000
21.42961 133.000
21.44956 129.000
21.46950 127.000
21.48945 141.000
21.50940 151.000
21.52934 126.000
21.54929 145.000
21.56924 144.000
21.58918 105.000
21.60913 105.000
21.62908 129.000
21.64903 111.000
21.66897 121.000
21.68892 129.000
21.70887 132.000
21.72881 126.000
21.74876 129.000
21.76871 128.000
21.78865 130.000
21.80860 117.000
21.82855 107.000
21.84850 124.000
21.86844 121.000
21.88839 101.000
21.90834 151.000
21.92828 117.000
21.94823 124.000
21.96818 110.000
21.98812 130.000
22.00807 123.000
22.02802 115.000
22.04796 140.000
22.06791 127.000
22.08786 128.000
22.10781 110.000
22.12775 127.000
22.14770 127.000
22.16765 109.000
22.18759 132.000
22.20754 111.000
22.22749 126.000
22.24743 113.000
22.26738 128.000
22.28733 118.000
22.30728 123.000
22.32722 149.000
22.34717 130.000
22.36712 117.000
22.38706 127.000
22.40701 124.000
22.42696 120.000
22.44690 134.000
22.46685 115.000
22.48680 149.000
22.50675 115.000
22.52669 140.000
22.54664 133.000
22.56659 127.000
22.58653 121.000
22.60648 119.000
22.62643 127.000
22.64637 115.000
22.66632 128.000
22.68627 132.000
22.70621 138.000
22.72616 133.000
22.74611 127.000
22.76606 127.000
22.78600 138.000
22.80595 119.000
22.82590 120.000
22.84584 123.000
22.86579 133.000
22.88574 134.000
22.90568 121.000
22.92563 130.000
22.94558 110.000
22.96553 127.000
22.98547 135.000
23.00542 124.000
23.02537 148.000
23.04531 100.000
23.06526 124.000
23.08521 139.000
23.10515 142.000
23.12510 128.000
23.14505 139.000
23.16499 118.000
23.18494 159.000
23.20489 137.000
23.22484 127.000
23.24478 130.000
23.26473 121.000
23.28468 131.000
23.30462 116.000
23.32457 120.000
23.34452 141.000
23.36446 112.000
23.38441 135.000
23.40436 118.000
23.42431 138.000
23.44425 121.000
23.46420 130.000
23.48415 146.000
23.50409 123.000
23.52404 123.000
23.54399 123.000
23.56393 140.000
23.58388 126.000
23.60383 127.000
23.62377 127.000
23.64372 123.000
23.66367 111.000
23.68362 126.000
23.70356 155.000
23.72351 132.000
23.74346 118.000
23.76340 110.000
23.78335 126.000
23.80330 123.000
23.82324 106.000
23.84319 132.000
23.86314 123.000
23.88309 123.000
23.90303 139.000
23.92298 143.000
23.94293 130.000
23.96287 142.000
23.98282 127.000
24.00277 129.000
24.02271 118.000
24.04266 118.000
24.06261 175.000
24.08256 136.000
24.10250 137.000
24.12245 131.000
24.14240 108.000
24.16234 132.000
24.18229 151.000
24.20224 129.000
24.22218 136.000
24.24213 119.000
24.26208 131.000
24.28202 118.000
24.30197 134.000
24.32192 131.000
24.34187 153.000
24.36181 121.000
24.38176 146.000
24.40171 139.000
24.42165 116.000
24.44160 157.000
24.46155 133.000
24.48149 138.000
24.50144 170.000
24.52139 127.000
24.54134 141.000
24.56128 135.000
24.58123 132.000
24.60118 115.000
24.62112 132.000
24.64107 117.000
24.66102 132.000
24.68096 123.000
24.70091 110.000
24.72086 124.000
24.74080 130.000
24.76075 119.000
24.78070 126.000
24.80065 146.000
24.82059 145.000
24.84054 113.000
24.86049 121.000
24.88043 145.000
24.90038 137.000
24.92033 131.000
24.94027 145.000
24.96022 157.000
24.98017 123.000
25.00012 143.000
25.02006 167.000
25.04001 127.000
25.05996 136.000
25.07990 131.000
25.09985 142.000
25.11980 135.000
25.13974 123.000
25.15969 122.000
25.17964 138.000
25.19958 132.000
25.21953 137.000
25.23948 105.000
25.25943 139.000
25.27937 126.000
25.29932 149.000
25.31927 129.000
25.33921 118.000
25.35916 137.000
25.37911 145.000
25.39905 135.000
25.41900 150.000
25.43895 131.000
25.45890 145.000
25.47884 131.000
25.49879 140.000
25.51874 133.000
25.53868 131.000
25.55863 160.000
25.57858 144.000
25.59852 129.000
25.61847 155.000
25.63842 126.000
25.65837 119.000
25.67831 158.000
25.69826 141.000
25.71821 142.000
25.73815 122.000
25.75810 143.000
25.77805 141.000
25.79799 134.000
25.81794 152.000
25.83789 138.000
25.85783 142.000
25.87778 146.000
25.89773 131.000
25.91768 139.000
25.93762 124.000
25.95757 132.000
25.97752 142.000
25.99746 131.000
26.01741 140.000
26.03736 136.000
26.05730 126.000
26.07725 115.000
26.09720 129.000
26.11715 140.000
26.13709 139.000
26.15704 144.000
26.17699 137.000
26.19693 127.000
26.21688 145.000
26.23683 144.000
26.25677 131.000
26.27672 126.000
26.29667 111.000
26.31661 131.000
26.33656 147.000
26.35651 136.000
26.37646 136.000
26.39640 122.000
26.41635 139.000
26.43630 124.000
26.45624 139.000
26.47619 130.000
26.49614 165.000
26.51608 143.000
26.53603 132.000
26.55598 129.000
26.57593 138.000
26.59587 120.000
26.61582 137.000
26.63577 130.000
26.65571 129.000
26.67566 137.000
26.69561 153.000
26.71555 124.000
26.73550 151.000
26.75545 141.000
26.77539 126.000
26.79534 137.000
26.81529 156.000
26.83524 130.000
26.85518 131.000
26.87513 141.000
26.89508 149.000
26.91502 136.000
26.93497 118.000
26.95492 146.000
26.97486 141.000
26.99481 127.000
27.01476 142.000
27.03471 134.000
27.05465 123.000
27.07460 127.000
27.09455 151.000
27.11449 114.000
27.13444 140.000
27.15439 140.000
27.17433 134.000
27.19428 118.000
27.21423 132.000
27.23417 138.000
27.25412 134.000
27.27407 135.000
27.29402 126.000
27.31396 146.000
27.33391 122.000
27.35386 125.000
27.37380 142.000
27.39375 113.000
27.41370 144.000
27.43364 144.000
27.45359 128.000
27.47354 156.000
27.49349 168.000
27.51343 158.000
27.53338 136.000
27.55333 143.000
27.57327 128.000
27.59322 122.000
27.61317 131.000
27.63311 128.000
27.65306 159.000
27.67301 153.000
27.69296 148.000
27.71290 143.000
27.73285 125.000
27.75280 137.000
27.77274 136.000
27.79269 151.000
27.81264 129.000
27.83258 135.000
27.85253 142.000
27.87248 147.000
27.89242 139.000
27.91237 133.000
27.93232 144.000
27.95227 139.000
27.97221 163.000
27.99216 147.000
28.01211 137.000
28.03205 169.000
28.05200 138.000
28.07195 129.000
28.09189 132.000
28.11184 139.000
28.13179 105.000
28.15174 159.000
28.17168 141.000
28.19163 123.000
28.21158 113.000
28.23152 134.000
28.25147 144.000
28.27142 125.000
28.29136 145.000
28.31131 119.000
28.33126 150.000
28.35120 140.000
28.37115 132.000
28.39110 137.000
28.41105 147.000
28.43099 147.000
28.45094 127.000
28.47089 124.000
28.49083 135.000
28.51078 163.000
28.53073 149.000
28.55067 128.000
28.57062 139.000
28.59057 160.000
28.61052 136.000
28.63046 145.000
28.65041 144.000
28.67036 134.000
28.69030 170.000
28.71025 135.000
28.73020 125.000
28.75014 141.000
28.77009 135.000
28.79004 132.000
28.80998 145.000
28.82993 153.000
28.84988 138.000
28.86983 147.000
28.88977 137.000
28.90972 127.000
28.92967 139.000
28.94961 152.000
28.96956 131.000
28.98951 152.000
29.00945 142.000
29.02940 155.000
29.04935 148.000
29.06930 155.000
29.08924 138.000
29.10919 136.000
29.12914 134.000
29.14908 131.000
29.16903 142.000
29.18898 130.000
29.20892 156.000
29.22887 131.000
29.24882 136.000
29.26877 133.000
29.28871 150.000
29.30866 131.000
29.32861 158.000
29.34855 140.000
29.36850 138.000
29.38845 151.000
29.40839 144.000
29.42834 149.000
29.44829 132.000
29.46823 136.000
29.48818 139.000
29.50813 117.000
29.52808 149.000
29.54802 161.000
29.56797 147.000
29.58792 155.000
29.60786 154.000
29.62781 138.000
29.64776 140.000
29.66770 165.000
29.68765 149.000
29.70760 141.000
29.72755 130.000
29.74749 164.000
29.76744 163.000
29.78739 154.000
29.80733 172.000
29.82728 191.000
29.84723 199.000
29.86717 181.000
29.88712 202.000
29.90707 239.000
29.92701 224.000
29.94696 271.000
29.96691 280.000
29.98686 328.000
30.00680 415.000
30.02675 514.000
30.04670 591.000
30.06664 755.000
30.08659 829.000
30.10654 950.000
30.12648 901.000
30.14643 919.000
30.16638 870.000
30.18633 837.000
30.20627 795.000
30.22622 630.000
30.24617 612.000
30.26611 577.000
30.28606 510.000
30.30601 429.000
30.32595 400.000
30.34590 387.000
30.36585 318.000
30.38579 268.000
30.40574 276.000
30.42569 232.000
30.44564 208.000
30.46558 183.000
30.48553 170.000
30.50548 170.000
30.52542 178.000
30.54537 164.000
30.56532 131.000
30.58526 154.000
30.60521 163.000
30.62516 158.000
30.64511 157.000
30.66505 164.000
30.68500 146.000
30.70495 146.000
30.72489 153.000
30.74484 139.000
30.76479 151.000
30.78473 159.000
30.80468 129.000
30.82463 134.000
30.84458 122.000
30.86452 152.000
30.88447 150.000
30.90442 150.000
30.92436 134.000
30.94431 138.000
30.96426 165.000
30.98420 178.000
31.00415 133.000
31.02410 145.000
31.04404 151.000
31.06399 126.000
31.08394 142.000
31.10389 147.000
31.12383 140.000
31.14378 137.000
31.16373 117.000
31.18367 154.000
31.20362 151.000
31.22357 148.000
31.24351 169.000
31.26346 157.000
31.28341 161.000
31.30336 141.000
31.32330 159.000
31.34325 172.000
31.36320 177.000
31.38314 176.000
31.40309 216.000
31.42304 214.000
31.44298 255.000
31.46293 332.000
31.48288 374.000
31.50282 457.000
31.52277 468.000
31.54272 470.000
31.56267 417.000
31.58261 396.000
31.60256 340.000
31.62251 305.000
31.64245 256.000
31.66240 227.000
31.68235 223.000
31.70229 187.000
31.72224 185.000
31.74219 159.000
31.76214 170.000
31.78208 154.000
31.80203 126.000
31.82198 148.000
31.84192 124.000
31.86187 144.000
31.88182 138.000
31.90176 142.000
31.92171 147.000
31.94166 166.000
31.96160 157.000
31.98155 150.000
32.00150 128.000
32.02145 132.000
32.04139 136.000
32.06134 149.000
32.08129 158.000
32.10123 134.000
32.12118 155.000
32.14113 168.000
32.16107 142.000
32.18102 134.000
32.20097 137.000
32.22092 146.000
32.24086 123.000
32.26081 137.000
32.28076 166.000
32.30070 153.000
32.32065 162.000
32.34060 132.000
32.36054 158.000
32.38049 137.000
32.40044 134.000
32.42039 147.000
32.44033 117.000
32.46028 125.000
32.48023 150.000
32.50017 138.000
32.52012 131.000
32.54007 124.000
32.56001 124.000
32.57996 127.000
32.59991 151.000
32.61985 123.000
32.63980 151.000
32.65975 151.000
32.67970 134.000
32.69964 146.000
32.71959 140.000
32.73954 154.000
32.75948 135.000
32.77943 124.000
32.79938 143.000
32.81932 125.000
32.83927 150.000
32.85922 142.000
32.87917 134.000
32.89911 133.000
32.91906 149.000
32.93901 135.000
32.95895 129.000
32.97890 143.000
32.99885 119.000
33.01879 135.000
33.03874 126.000
33.05869 129.000
33.07863 141.000
33.09858 140.000
33.11853 116.000
33.13848 154.000
33.15842 143.000
33.17837 121.000
33.19832 142.000
33.21826 142.000
33.23821 125.000
33.25816 117.000
33.27810 133.000
33.29805 125.000
33.31800 154.000
33.33795 129.000
33.35789 150.000
33.37784 159.000
33.39779 129.000
33.41773 141.000
33.43768 166.000
33.45763 153.000
33.47757 128.000
33.49752 117.000
33.51747 146.000
33.53741 124.000
33.55736 114.000
33.57731 168.000
33.59726 131.000
33.61720 120.000
33.63715 146.000
33.65710 130.000
33.67704 147.000
33.69699 140.000
33.71694 136.000
33.73688 136.000
33.75683 154.000
33.77678 125.000
33.79673 143.000
33.81667 144.000
33.83662 139.000
33.85657 154.000
33.87651 149.000
33.89646 125.000
33.91641 135.000
33.93635 146.000
33.95630 144.000
33.97625 138.000
33.99620 144.000
34.01614 142.000
34.03609 146.000
34.05604 141.000
34.07598 123.000
34.09593 146.000
34.11588 146.000
34.13582 153.000
34.15577 151.000
34.17572 148.000
34.19566 135.000
34.21561 141.000
34.23556 147.000
34.25551 133.000
34.27545 163.000
34.29540 143.000
34.31535 138.000
34.33529 147.000
34.35524 165.000
34.37519 164.000
34.39513 166.000
34.41508 123.000
34.43503 151.000
34.45498 131.000
34.47492 139.000
34.49487 153.000
34.51482 123.000
34.53476 144.000
34.55471 152.000
34.57466 123.000
34.59460 119.000
34.61455 135.000
34.63450 161.000
34.65444 138.000
34.67439 140.000
34.69434 144.000
34.71429 131.000
34.73423 153.000
34.75418 139.000
34.77413 143.000
34.79407 162.000
34.81402 159.000
34.83397 145.000
34.85391 162.000
34.87386 159.000
34.89381 171.000
34.91376 153.000
34.93370 146.000
34.95365 167.000
34.97360 137.000
34.99354 142.000
35.01349 182.000
35.03344 173.000
35.05338 179.000
35.07333 189.000
35.09328 173.000
35.11322 198.000
35.13317 210.000
35.15312 195.000
35.17307 229.000
35.19301 231.000
35.21296 237.000
35.23291 308.000
35.25285 344.000
35.27280 394.000
35.29275 470.000
35.31269 570.000
35.33264 682.000
35.35259 855.000
35.37254 1063.000
35.39248 1331.000
35.41243 1531.000
35.43238 1751.000
35.45232 2053.000
35.47227 2215.000
35.49222 2419.000
35.51216 2432.000
35.53211 2325.000
35.55206 2203.000
35.57201 2118.000
35.59195 1953.000
35.61190 1844.000
35.63185 1584.000
35.65179 1418.000
35.67174 1367.000
35.69169 1164.000
35.71163 1033.000
35.73158 984.000
35.75153 859.000
35.77147 740.000
35.79142 698.000
35.81137 633.000
35.83132 603.000
35.85126 561.000
35.87121 556.000
35.89116 557.000
35.91110 578.000
35.93105 508.000
35.95100 404.000
35.97094 377.000
35.99089 367.000
36.01084 315.000
36.03079 283.000
36.05073 263.000
36.07068 203.000
36.09063 183.000
36.11057 193.000
36.13052 193.000
36.15047 167.000
36.17041 205.000
36.19036 222.000
36.21031 198.000
36.23025 192.000
36.25020 200.000
36.27015 238.000
36.29010 201.000
36.31004 211.000
36.32999 234.000
36.34994 221.000
36.36988 218.000
36.38983 228.000
36.40978 211.000
36.42972 208.000
36.44967 202.000
36.46962 203.000
36.48957 189.000
36.50951 186.000
36.52946 188.000
36.54941 200.000
36.56935 172.000
36.58930 160.000
36.60925 147.000
36.62919 189.000
36.64914 143.000
36.66909 165.000
36.68903 152.000
36.70898 170.000
36.72893 161.000
36.74888 164.000
36.76882 172.000
36.78877 183.000
36.80872 182.000
36.82866 207.000
36.84861 211.000
36.86856 192.000
36.88850 181.000
36.90845 200.000
36.92840 197.000
36.94835 187.000
36.96829 190.000
36.98824 204.000
37.00819 191.000
37.02813 262.000
37.04808 254.000
37.06803 266.000
37.08797 275.000
37.10792 342.000
37.12787 311.000
37.14781 338.000
37.16776 364.000
37.18771 311.000
37.20766 350.000
37.22760 307.000
37.24755 330.000
37.26750 297.000
37.28744 315.000
37.30739 275.000
37.32734 259.000
37.34728 290.000
37.36723 282.000
37.38718 246.000
37.40713 261.000
37.42707 284.000
37.44702 261.000
37.46697 280.000
37.48691 257.000
37.50686 293.000
37.52681 269.000
37.54675 252.000
37.56670 281.000
37.58665 265.000
37.60660 257.000
37.62654 243.000
37.64649 252.000
37.66644 235.000
37.68638 218.000
37.70633 170.000
37.72628 179.000
37.74622 188.000
37.76617 177.000
37.78612 161.000
37.80606 177.000
37.82601 170.000
37.84596 122.000
37.86591 133.000
37.88585 198.000
37.90580 167.000
37.92575 149.000
37.94569 150.000
37.96564 147.000
37.98559 102.000
38.00553 135.000
38.02548 156.000
38.04543 150.000
38.06538 143.000
38.08532 138.000
38.10527 137.000
38.12522 134.000
38.14516 117.000
38.16511 144.000
38.18506 129.000
38.20500 135.000
38.22495 150.000
38.24490 131.000
38.26484 155.000
38.28479 122.000
38.30474 128.000
38.32469 131.000
38.34463 142.000
38.36458 148.000
38.38453 166.000
38.40447 142.000
38.42442 155.000
38.44437 132.000
38.46431 131.000
38.48426 150.000
38.50421 134.000
38.52416 130.000
38.54410 131.000
38.56405 140.000
38.58400 155.000
38.60394 149.000
38.62389 130.000
38.64384 142.000
38.66378 144.000
38.68373 142.000
38.70368 159.000
38.72362 131.000
38.74357 149.000
38.76352 139.000
38.78347 161.000
38.80341 168.000
38.82336 126.000
38.84331 110.000
38.86325 136.000
38.88320 157.000
38.90315 168.000
38.92309 151.000
38.94304 147.000
38.96299 160.000
38.98294 137.000
39.00288 161.000
39.02283 146.000
39.04278 153.000
39.06272 154.000
39.08267 155.000
39.10262 172.000
39.12256 167.000
39.14251 171.000
39.16246 168.000
39.18241 185.000
39.20235 194.000
39.22230 185.000
39.24225 218.000
39.26219 241.000
39.28214 277.000
39.30209 339.000
39.32203 392.000
39.34198 458.000
39.36193 593.000
39.38187 571.000
39.40182 550.000
39.42177 551.000
39.44172 461.000
39.46166 463.000
39.48161 406.000
39.50156 338.000
39.52150 336.000
39.54145 236.000
39.56140 253.000
39.58134 168.000
39.60129 170.000
39.62124 140.000
39.64119 165.000
39.66113 130.000
39.68108 159.000
39.70103 139.000
39.72097 154.000
39.74092 131.000
39.76087 152.000
39.78081 136.000
39.80076 130.000
39.82071 144.000
39.84065 156.000
39.86060 152.000
39.88055 145.000
39.90050 130.000
39.92044 148.000
39.94039 136.000
39.96034 113.000
39.98028 151.000
40.00023 124.000
40.02018 130.000
40.04012 106.000
40.06007 122.000
40.08002 131.000
40.09997 146.000
40.11991 134.000
40.13986 130.000
40.15981 120.000
40.17975 113.000
40.19970 123.000
40.21965 126.000
40.23959 118.000
40.25954 122.000
40.27949 127.000
40.29943 139.000
40.31938 122.000
40.33933 121.000
40.35928 129.000
40.37922 163.000
40.39917 122.000
40.41912 136.000
40.43906 131.000
40.45901 126.000
40.47896 137.000
40.49890 110.000
40.51885 155.000
40.53880 112.000
40.55875 108.000
40.57869 125.000
40.59864 131.000
40.61859 123.000
40.63853 129.000
40.65848 127.000
40.67843 123.000
40.69837 113.000
40.71832 113.000
40.73827 129.000
40.75822 119.000
40.77816 119.000
40.79811 120.000
40.81806 132.000
40.83800 131.000
40.85795 114.000
40.87790 143.000
40.89784 128.000
40.91779 111.000
40.93774 110.000
40.95768 140.000
40.97763 114.000
40.99758 121.000
41.01753 133.000
41.03747 105.000
41.05742 131.000
41.07737 139.000
41.09731 136.000
41.11726 127.000
41.13721 131.000
41.15715 132.000
41.17710 123.000
41.19705 139.000
41.21700 133.000
41.23694 149.000
41.25689 124.000
41.27684 138.000
41.29678 130.000
41.31673 127.000
41.33668 142.000
41.35662 137.000
41.37657 118.000
41.39652 146.000
41.41646 136.000
41.43641 122.000
41.45636 117.000
41.47631 134.000
41.49625 121.000
41.51620 115.000
41.53615 126.000
41.55609 130.000
41.57604 127.000
41.59599 127.000
41.61593 139.000
41.63588 141.000
41.65583 131.000
41.67578 155.000
41.69572 147.000
41.71567 114.000
41.73562 138.000
41.75556 166.000
41.77551 156.000
41.79546 122.000
41.81540 136.000
41.83535 143.000
41.85530 142.000
41.87524 145.000
41.89519 137.000
41.91514 173.000
41.93509 129.000
41.95503 160.000
41.97498 128.000
41.99493 134.000
42.01487 144.000
42.03482 151.000
42.05477 137.000
42.07471 141.000
42.09466 138.000
42.11461 137.000
42.13456 133.000
42.15450 143.000
42.17445 116.000
42.19440 145.000
42.21434 140.000
42.23429 137.000
42.25424 133.000
42.27418 138.000
42.29413 133.000
42.31408 141.000
42.33403 152.000
42.35397 134.000
42.37392 135.000
42.39387 142.000
42.41381 137.000
42.43376 117.000
42.45371 121.000
42.47365 126.000
42.49360 117.000
42.51355 158.000
42.53349 123.000
42.55344 129.000
42.57339 134.000
42.59334 136.000
42.61328 106.000
42.63323 140.000
42.65318 131.000
42.67312 147.000
42.69307 129.000
42.71302 133.000
42.73296 131.000
42.75291 151.000
42.77286 130.000
42.79281 131.000
42.81275 163.000
42.83270 155.000
42.85265 157.000
42.87259 205.000
42.89254 169.000
42.91249 185.000
42.93243 215.000
42.95238 190.000
42.97233 231.000
42.99227 280.000
43.01222 309.000
43.03217 334.000
43.05212 348.000
43.07206 416.000
43.09201 456.000
43.11196 482.000
43.13190 576.000
43.15185 552.000
43.17180 552.000
43.19174 575.000
43.21169 524.000
43.23164 549.000
43.25159 581.000
43.27153 494.000
43.29148 495.000
43.31143 509.000
43.33137 484.000
43.35132 486.000
43.37127 488.000
43.39121 456.000
43.41116 460.000
43.43111 444.000
43.45105 430.000
43.47100 405.000
43.49095 372.000
43.51090 355.000
43.53084 284.000
43.55079 281.000
43.57074 229.000
43.59068 215.000
43.61063 225.000
43.63058 179.000
43.65052 213.000
43.67047 132.000
43.69042 158.000
43.71037 140.000
43.73031 141.000
43.75026 151.000
43.77021 149.000
43.79015 159.000
43.81010 129.000
43.83005 121.000
43.84999 134.000
43.86994 140.000
43.88989 136.000
43.90984 125.000
43.92978 124.000
43.94973 148.000
43.96968 135.000
43.98962 148.000
44.00957 121.000
44.02952 131.000
44.04946 126.000
44.06941 144.000
44.08936 134.000
44.10930 121.000
44.12925 128.000
44.14920 145.000
44.16915 145.000
44.18909 148.000
44.20904 161.000
44.22899 137.000
44.24893 119.000
44.26888 150.000
44.28883 151.000
44.30877 145.000
44.32872 136.000
44.34867 154.000
44.36862 144.000
44.38856 138.000
44.40851 144.000
44.42846 133.000
44.44840 142.000
44.46835 158.000
44.48830 157.000
44.50824 158.000
44.52819 139.000
44.54814 162.000
44.56808 158.000
44.58803 164.000
44.60798 143.000
44.62793 180.000
44.64787 191.000
44.66782 174.000
44.68777 173.000
44.70771 205.000
44.72766 216.000
44.74761 176.000
44.76755 205.000
44.78750 231.000
44.80745 231.000
44.82740 216.000
44.84734 189.000
44.86729 240.000
44.88724 227.000
44.90718 210.000
44.92713 217.000
44.94708 223.000
44.96702 203.000
44.98697 230.000
45.00692 210.000
45.02686 198.000
45.04681 227.000
45.06676 231.000
45.08671 239.000
45.10665 257.000
45.12660 229.000
45.14655 246.000
45.16649 253.000
45.18644 260.000
45.20639 275.000
45.22633 231.000
45.24628 243.000
45.26623 225.000
45.28618 232.000
45.30612 218.000
45.32607 223.000
45.34602 177.000
45.36596 178.000
45.38591 192.000
45.40586 164.000
45.42580 152.000
45.44575 169.000
45.46570 153.000
45.48565 153.000
45.50559 168.000
45.52554 168.000
45.54549 140.000
45.56543 143.000
45.58538 147.000
45.60533 147.000
45.62527 121.000
45.64522 121.000
45.66517 132.000
45.68511 109.000
45.70506 139.000
45.72501 123.000
45.74496 111.000
45.76490 139.000
45.78485 114.000
45.80480 115.000
45.82474 139.000
45.84469 130.000
45.86464 106.000
45.88458 127.000
45.90453 126.000
45.92448 127.000
45.94443 125.000
45.96437 140.000
45.98432 103.000
46.00427 113.000
46.02421 136.000
46.04416 128.000
46.06411 104.000
46.08405 123.000
46.10400 117.000
46.12395 112.000
46.14389 135.000
46.16384 129.000
46.18379 133.000
46.20374 121.000
46.22368 120.000
46.24363 112.000
46.26358 106.000
46.28352 136.000
46.30347 123.000
46.32342 104.000
46.34336 115.000
46.36331 120.000
46.38326 127.000
46.40321 125.000
46.42315 112.000
46.44310 127.000
46.46305 140.000
46.48299 124.000
46.50294 127.000
46.52289 142.000
46.54283 96.000
46.56278 112.000
46.58273 114.000
46.60267 132.000
46.62262 119.000
46.64257 117.000
46.66252 124.000
46.68246 144.000
46.70241 146.000
46.72236 115.000
46.74230 130.000
46.76225 104.000
46.78220 110.000
46.80214 130.000
46.82209 113.000
46.84204 132.000
46.86199 116.000
46.88193 115.000
46.90188 110.000
46.92183 116.000
46.94177 123.000
46.96172 137.000
46.98167 137.000
47.00161 129.000
47.02156 124.000
47.04151 144.000
47.06146 127.000
47.08140 119.000
47.10135 125.000
47.12130 115.000
47.14124 105.000
47.16119 134.000
47.18114 127.000
47.20108 120.000
47.22103 135.000
47.24098 138.000
47.26092 124.000
47.28087 129.000
47.30082 141.000
47.32077 122.000
47.34071 114.000
47.36066 120.000
47.38061 116.000
47.40055 133.000
47.42050 114.000
47.44045 121.000
47.46039 119.000
47.48034 159.000
47.50029 87.000
47.52024 116.000
47.54018 128.000
47.56013 119.000
47.58008 117.000
47.60002 120.000
47.61997 129.000
47.63992 130.000
47.65986 130.000
47.67981 111.000
47.69976 118.000
47.71970 133.000
47.73965 128.000
47.75960 129.000
47.77955 107.000
47.79949 146.000
47.81944 141.000
47.83939 104.000
47.85933 122.000
47.87928 119.000
47.89923 131.000
47.91917 135.000
47.93912 149.000
47.95907 126.000
47.97902 139.000
47.99896 132.000
48.01891 119.000
48.03886 134.000
48.05880 161.000
48.07875 149.000
48.09870 147.000
48.11864 119.000
48.13859 146.000
48.15854 135.000
48.17848 150.000
48.19843 133.000
48.21838 139.000
48.23833 125.000
48.25827 186.000
48.27822 173.000
48.29817 163.000
48.31811 162.000
48.33806 167.000
48.35801 172.000
48.37795 150.000
48.39790 219.000
48.41785 223.000
48.43780 197.000
48.45774 259.000
48.47769 286.000
48.49764 357.000
48.51758 382.000
48.53753 385.000
48.55748 481.000
48.57742 474.000
48.59737 435.000
48.61732 430.000
48.63726 388.000
48.65721 354.000
48.67716 345.000
48.69711 338.000
48.71705 307.000
48.73700 304.000
48.75695 273.000
48.77689 207.000
48.79684 185.000
48.81679 171.000
48.83673 181.000
48.85668 139.000
48.87663 142.000
48.89658 155.000
48.91652 146.000
48.93647 139.000
48.95642 143.000
48.97636 127.000
48.99631 145.000
49.01626 128.000
49.03620 131.000
49.05615 142.000
49.07610 120.000
49.09605 126.000
49.11599 121.000
49.13594 111.000
49.15589 140.000
49.17583 131.000
49.19578 106.000
49.21573 153.000
49.23567 118.000
49.25562 117.000
49.27557 110.000
49.29551 144.000
49.31546 114.000
49.33541 116.000
49.35536 121.000
49.37530 116.000
49.39525 116.000
49.41520 125.000
49.43514 107.000
49.45509 117.000
49.47504 103.000
49.49498 121.000
49.51493 118.000
49.53488 103.000
49.55483 128.000
49.57477 112.000
49.59472 114.000
49.61467 111.000
49.63461 114.000
49.65456 128.000
49.67451 99.000
49.69445 139.000
49.71440 118.000
49.73435 124.000
49.75429 139.000
49.77424 116.000
49.79419 106.000
49.81414 113.000
49.83408 129.000
49.85403 125.000
49.87398 124.000
49.89392 121.000
49.91387 131.000
49.93382 98.000
49.95376 121.000
49.97371 127.000
49.99366 110.000
50.01361 125.000
50.03355 106.000
50.05350 124.000
50.07345 114.000
50.09339 117.000
50.11334 113.000
50.13329 116.000
50.15323 131.000
50.17318 121.000
50.19313 134.000
50.21307 123.000
50.23302 125.000
50.25297 121.000
50.27292 113.000
50.29286 121.000
50.31281 141.000
50.33276 126.000
50.35270 124.000
50.37265 131.000
50.39260 121.000
50.41254 116.000
50.43249 115.000
50.45244 122.000
50.47239 118.000
50.49233 114.000
50.51228 110.000
50.53223 127.000
50.55217 108.000
50.57212 137.000
50.59207 105.000
50.61201 97.000
50.63196 133.000
50.65191 104.000
50.67186 135.000
50.69180 104.000
50.71175 102.000
50.73170 102.000
50.75164 116.000
50.77159 115.000
50.79154 117.000
50.81148 132.000
50.83143 130.000
50.85138 124.000
50.87132 102.000
50.89127 136.000
50.91122 113.000
50.93117 125.000
50.95111 130.000
50.97106 123.000
50.99101 104.000
51.01095 106.000
51.03090 108.000
51.05085 117.000
51.07079 123.000
51.09074 123.000
51.11069 123.000
51.13064 131.000
51.15058 126.000
51.17053 130.000
51.19048 128.000
51.21042 117.000
51.23037 105.000
51.25032 110.000
51.27026 119.000
51.29021 118.000
51.31016 143.000
51.33010 111.000
51.35005 111.000
51.37000 100.000
51.38995 104.000
51.40989 127.000
51.42984 99.000
51.44979 127.000
51.46973 112.000
51.48968 109.000
51.50963 118.000
51.52957 119.000
51.54952 121.000
51.56947 123.000
51.58942 108.000
51.60936 130.000
51.62931 109.000
51.64926 109.000
51.66920 117.000
51.68915 123.000
51.70910 108.000
51.72904 144.000
51.74899 114.000
51.76894 115.000
51.78888 113.000
51.80883 122.000
51.82878 136.000
51.84873 129.000
51.86867 128.000
51.88862 147.000
51.90857 115.000
51.92851 127.000
51.94846 112.000
51.96841 96.000
51.98835 145.000
52.00830 122.000
52.02825 116.000
52.04820 126.000
52.06814 117.000
52.08809 120.000
52.10804 126.000
52.12798 128.000
52.14793 129.000
52.16788 146.000
52.18782 126.000
52.20777 118.000
52.22772 153.000
52.24767 126.000
52.26761 136.000
52.28756 133.000
52.30751 135.000
52.32745 117.000
52.34740 128.000
52.36735 137.000
52.38729 158.000
52.40724 144.000
52.42719 143.000
52.44713 147.000
52.46708 148.000
52.48703 142.000
52.50698 156.000
52.52692 130.000
52.54687 128.000
52.56682 153.000
52.58676 140.000
52.60671 124.000
52.62666 132.000
52.64660 153.000
52.66655 125.000
52.68650 121.000
52.70645 134.000
52.72639 144.000
52.74634 145.000
52.76629 136.000
52.78623 118.000
52.80618 137.000
52.82613 165.000
52.84607 128.000
52.86602 126.000
52.88597 139.000
52.90591 129.000
52.92586 138.000
52.94581 146.000
52.96576 131.000
52.98570 149.000
53.00565 140.000
53.02560 153.000
53.04554 120.000
53.06549 128.000
53.08544 133.000
53.10538 114.000
53.12533 132.000
53.14528 123.000
53.16523 119.000
53.18517 125.000
53.20512 108.000
53.22507 133.000
53.24501 126.000
53.26496 140.000
53.28491 145.000
53.30485 145.000
53.32480 150.000
53.34475 131.000
53.36469 188.000
53.38464 176.000
53.40459 178.000
53.42454 171.000
53.44448 194.000
53.46443 204.000
53.48438 226.000
53.50432 238.000
53.52427 241.000
53.54422 257.000
53.56416 240.000
53.58411 244.000
53.60406 262.000
53.62401 251.000
53.64395 248.000
53.66390 244.000
53.68385 268.000
53.70379 246.000
53.72374 225.000
53.74369 236.000
53.76363 235.000
53.78358 218.000
53.80353 215.000
53.82348 212.000
53.84342 228.000
53.86337 159.000
53.88332 178.000
53.90326 178.000
53.92321 165.000
53.94316 182.000
53.96310 166.000
53.98305 166.000
54.00300 151.000
54.02294 160.000
54.04289 145.000
54.06284 127.000
54.08279 131.000
54.10273 148.000
54.12268 150.000
54.14263 126.000
54.16257 117.000
54.18252 118.000
54.20247 127.000
54.22241 130.000
54.24236 122.000
54.26231 115.000
54.28226 113.000
54.30220 110.000
54.32215 129.000
54.34210 106.000
54.36204 114.000
54.38199 106.000
54.40194 118.000
54.42188 112.000
54.44183 103.000
54.46178 123.000
54.48172 118.000
54.50167 146.000
54.52162 121.000
54.54157 118.000
54.56151 101.000
54.58146 113.000
54.60141 117.000
54.62135 133.000
54.64130 124.000
54.66125 122.000
54.68119 105.000
54.70114 118.000
54.72109 124.000
54.74104 120.000
54.76098 110.000
54.78093 120.000
54.80088 124.000
54.82082 133.000
54.84077 116.000
54.86072 130.000
54.88066 120.000
54.90061 110.000
54.92056 124.000
54.94050 101.000
54.96045 124.000
54.98040 124.000
55.00035 133.000
55.02029 145.000
55.04024 116.000
55.06019 109.000
55.08013 119.000
55.10008 98.000
55.12003 133.000
55.13997 107.000
55.15992 111.000
55.17987 115.000
55.19982 131.000
55.21976 122.000
55.23971 109.000
55.25966 126.000
55.27960 105.000
55.29955 116.000
55.31950 111.000
55.33944 127.000
55.35939 135.000
55.37934 120.000
55.39929 113.000
55.41923 115.000
55.43918 121.000
55.45913 127.000
55.47907 141.000
55.49902 134.000
55.51897 126.000
55.53891 122.000
55.55886 103.000
55.57881 124.000
55.59875 127.000
55.61870 111.000
55.63865 112.000
55.65860 106.000
55.67854 136.000
55.69849 119.000
55.71844 119.000
55.73838 137.000
55.75833 105.000
55.77828 120.000
55.79822 127.000
55.81817 107.000
55.83812 123.000
55.85807 106.000
55.87801 123.000
55.89796 115.000
55.91791 108.000
55.93785 111.000
55.95780 126.000
55.97775 117.000
55.99769 134.000
56.01764 137.000
56.03759 121.000
56.05753 121.000
56.07748 108.000
56.09743 120.000
56.11738 132.000
56.13732 130.000
56.15727 116.000
56.17722 124.000
56.19716 128.000
56.21711 135.000
56.23706 125.000
56.25700 119.000
56.27695 126.000
56.29690 129.000
56.31685 155.000
56.33679 152.000
56.35674 121.000
56.37669 130.000
56.39663 158.000
56.41658 131.000
56.43653 135.000
56.45647 144.000
56.47642 137.000
56.49637 132.000
56.51631 151.000
56.53626 150.000
56.55621 130.000
56.57616 157.000
56.59610 150.000
56.61605 142.000
56.63600 164.000
56.65594 162.000
56.67589 154.000
56.69584 140.000
56.71578 166.000
56.73573 153.000
56.75568 184.000
56.77563 174.000
56.79557 187.000
56.81552 203.000
56.83547 245.000
56.85541 222.000
56.87536 264.000
56.89531 259.000
56.91525 335.000
56.93520 344.000
56.95515 362.000
56.97510 416.000
56.99504 458.000
57.01499 452.000
57.03494 502.000
57.05488 486.000
57.07483 566.000
57.09478 627.000
57.11472 624.000
57.13467 619.000
57.15462 659.000
57.17456 650.000
57.19451 608.000
57.21446 604.000
57.23441 583.000
57.25435 577.000
57.27430 538.000
57.29425 554.000
57.31419 534.000
57.33414 502.000
57.35409 441.000
57.37403 457.000
57.39398 414.000
57.41393 397.000
57.43388 387.000
57.45382 371.000
57.47377 321.000
57.49372 279.000
57.51366 281.000
57.53361 287.000
57.55356 264.000
57.57350 281.000
57.59345 239.000
57.61340 264.000
57.63334 247.000
57.65329 211.000
57.67324 237.000
57.69319 185.000
57.71313 192.000
57.73308 162.000
57.75303 184.000
57.77297 166.000
57.79292 164.000
57.81287 148.000
57.83281 150.000
57.85276 151.000
57.87271 139.000
57.89266 141.000
57.91260 147.000
57.93255 123.000
57.95250 140.000
57.97244 138.000
57.99239 108.000
58.01234 140.000
58.03228 120.000
58.05223 123.000
58.07218 113.000
58.09212 136.000
58.11207 132.000
58.13202 116.000
58.15197 116.000
58.17191 115.000
58.19186 130.000
58.21181 129.000
58.23175 133.000
58.25170 135.000
58.27165 115.000
58.29159 132.000
58.31154 118.000
58.33149 109.000
58.35144 124.000
58.37138 106.000
58.39133 135.000
58.41128 117.000
58.43122 136.000
58.45117 120.000
58.47112 127.000
58.49106 106.000
58.51101 117.000
58.53096 111.000
58.55090 134.000
58.57085 111.000
58.59080 127.000
58.61075 132.000
58.63069 131.000
58.65064 117.000
58.67059 101.000
58.69053 105.000
58.71048 121.000
58.73043 113.000
58.75037 123.000
58.77032 107.000
58.79027 121.000
58.81022 131.000
58.83016 123.000
58.85011 116.000
58.87006 109.000
58.89000 118.000
58.90995 126.000
58.92990 113.000
58.94984 130.000
58.96979 110.000
58.98974 104.000
59.00969 128.000
59.02963 124.000
59.04958 139.000
59.06953 127.000
59.08947 111.000
59.10942 123.000
59.12937 125.000
59.14931 104.000
59.16926 115.000
59.18921 121.000
59.20915 139.000
59.22910 118.000
59.24905 128.000
59.26900 143.000
59.28894 101.000
59.30889 112.000
59.32884 124.000
59.34878 113.000
59.36873 132.000
59.38868 110.000
59.40862 127.000
59.42857 105.000
59.44852 120.000
59.46847 119.000
59.48841 108.000
59.50836 117.000
59.52831 127.000
59.54825 113.000
59.56820 124.000
59.58815 108.000
59.60809 130.000
59.62804 114.000
59.64799 133.000
59.66793 119.000
59.68788 124.000
59.70783 119.000
59.72778 105.000
59.74772 110.000
59.76767 109.000
59.78762 112.000
59.80756 106.000
59.82751 109.000
59.84746 104.000
59.86740 114.000
59.88735 111.000
59.90730 114.000
59.92725 131.000
59.94719 127.000
59.96714 137.000
59.98709 97.000
60.00703 116.000
60.02698 131.000
60.04693 125.000
60.06687 130.000
60.08682 109.000
60.10677 123.000
60.12671 106.000
60.14666 107.000
60.16661 130.000
60.18656 130.000
60.20650 126.000
60.22645 126.000
60.24640 119.000
60.26634 123.000
60.28629 116.000
60.30624 121.000
60.32618 123.000
60.34613 118.000
60.36608 105.000
60.38603 117.000
60.40597 131.000
60.42592 104.000
60.44587 92.000
60.46581 117.000
60.48576 113.000
60.50571 135.000
60.52565 122.000
60.54560 110.000
60.56555 117.000
60.58550 114.000
60.60544 131.000
60.62539 135.000
60.64534 113.000
60.66528 130.000
60.68523 113.000
60.70518 113.000
60.72512 115.000
60.74507 114.000
60.76502 120.000
60.78496 125.000
60.80491 126.000
60.82486 127.000
60.84481 111.000
60.86475 125.000
60.88470 133.000
60.90465 117.000
60.92459 121.000
60.94454 123.000
60.96449 112.000
60.98443 116.000
61.00438 112.000
61.02433 125.000
61.04428 137.000
61.06422 146.000
61.08417 133.000
61.10412 128.000
61.12406 121.000
61.14401 123.000
61.16396 137.000
61.18390 124.000
61.20385 144.000
61.22380 135.000
61.24374 128.000
61.26369 155.000
61.28364 117.000
61.30359 145.000
61.32353 150.000
61.34348 155.000
61.36343 162.000
61.38337 163.000
61.40332 149.000
61.42327 157.000
61.44321 153.000
61.46316 181.000
61.48311 200.000
61.50306 245.000
61.52300 257.000
61.54295 242.000
61.56290 278.000
61.58284 256.000
61.60279 264.000
61.62274 247.000
61.64268 229.000
61.66263 245.000
61.68258 223.000
61.70252 191.000
61.72247 208.000
61.74242 183.000
61.76237 194.000
61.78231 161.000
61.80226 174.000
61.82221 145.000
61.84215 172.000
61.86210 146.000
61.88205 155.000
61.90199 150.000
61.92194 151.000
61.94189 150.000
61.96184 141.000
61.98178 138.000
62.00173 149.000
62.02168 119.000
62.04162 153.000
62.06157 142.000
62.08152 140.000
62.10146 133.000
62.12141 143.000
62.14136 139.000
62.16131 131.000
62.18125 134.000
62.20120 149.000
62.22115 131.000
62.24109 138.000
62.26104 134.000
62.28099 167.000
62.30093 145.000
62.32088 165.000
62.34083 164.000
62.36077 150.000
62.38072 178.000
62.40067 219.000
62.42062 192.000
62.44056 207.000
62.46051 241.000
62.48046 259.000
62.50040 278.000
62.52035 267.000
62.54030 289.000
62.56024 336.000
62.58019 358.000
62.60014 410.000
62.62009 448.000
62.64003 511.000
62.65998 537.000
62.67993 566.000
62.69987 637.000
62.71982 599.000
62.73977 643.000
62.75971 648.000
62.77966 663.000
62.79961 665.000
62.81955 646.000
62.83950 583.000
62.85945 632.000
62.87940 589.000
62.89934 655.000
62.91929 554.000
62.93924 537.000
62.95918 526.000
62.97913 504.000
62.99908 475.000
63.01902 483.000
63.03897 437.000
63.05892 395.000
63.07887 422.000
63.09881 360.000
63.11876 349.000
63.13871 344.000
63.15865 339.000
63.17860 330.000
63.19855 302.000
63.21849 295.000
63.23844 255.000
63.25839 230.000
63.27833 266.000
63.29828 252.000
63.31823 200.000
63.33818 217.000
63.35812 228.000
63.37807 183.000
63.39802 200.000
63.41796 183.000
63.43791 187.000
63.45786 180.000
63.47780 166.000
63.49775 166.000
63.51770 152.000
63.53765 169.000
63.55759 153.000
63.57754 132.000
63.59749 141.000
63.61743 170.000
63.63738 140.000
63.65733 143.000
63.67727 108.000
63.69722 129.000
63.71717 133.000
63.73712 141.000
63.75706 122.000
63.77701 124.000
63.79696 118.000
63.81690 136.000
63.83685 126.000
63.85680 127.000
63.87674 134.000
63.89669 126.000
63.91664 142.000
63.93658 125.000
63.95653 136.000
63.97648 115.000
63.99643 123.000
64.01637 147.000
64.03632 130.000
64.05627 123.000
64.07621 134.000
64.09616 103.000
64.11611 133.000
64.13605 135.000
64.15600 145.000
64.17595 115.000
64.19590 129.000
64.21584 141.000
64.23579 144.000
64.25574 132.000
64.27568 127.000
64.29563 152.000
64.31558 137.000
64.33552 125.000
64.35547 129.000
64.37542 137.000
64.39536 142.000
64.41531 163.000
64.43526 159.000
64.45521 171.000
64.47515 153.000
64.49510 202.000
64.51505 182.000
64.53499 187.000
64.55494 211.000
64.57489 229.000
64.59483 242.000
64.61478 261.000
64.63473 296.000
64.65468 313.000
64.67462 283.000
64.69457 262.000
64.71452 280.000
64.73446 236.000
64.75441 254.000
64.77436 227.000
64.79430 217.000
64.81425 230.000
64.83420 221.000
64.85414 212.000
64.87409 203.000
64.89404 190.000
64.91399 200.000
64.93393 191.000
64.95388 183.000
64.97383 160.000
64.99377 147.000
65.01372 117.000
65.03367 130.000
65.05361 139.000
65.07356 125.000
65.09351 143.000
65.11346 142.000
65.13340 127.000
65.15335 131.000
65.17330 136.000
65.19324 118.000
65.21319 137.000
65.23314 127.000
65.25308 125.000
65.27303 123.000
65.29298 137.000
65.31293 102.000
65.33287 118.000
65.35282 125.000
65.37277 134.000
65.39271 126.000
65.41266 157.000
65.43261 140.000
65.45255 130.000
65.47250 132.000
65.49245 110.000
65.51239 118.000
65.53234 125.000
65.55229 126.000
65.57224 116.000
65.59218 128.000
65.61213 140.000
65.63208 129.000
65.65202 149.000
65.67197 143.000
65.69192 147.000
65.71186 158.000
65.73181 171.000
65.75176 159.000
65.77171 131.000
65.79165 136.000
65.81160 147.000
65.83155 149.000
65.85149 145.000
65.87144 181.000
65.89139 185.000
65.91133 167.000
65.93128 175.000
65.95123 183.000
65.97117 172.000
65.99112 174.000
66.01107 189.000
66.03102 169.000
66.05096 166.000
66.07091 159.000
66.09086 177.000
66.11080 179.000
66.13075 153.000
66.15070 151.000
66.17064 167.000
66.19059 171.000
66.21054 151.000
66.23049 147.000
66.25043 151.000
66.27038 158.000
66.29033 146.000
66.31027 172.000
66.33022 158.000
66.35017 154.000
66.37011 165.000
66.39006 141.000
66.41001 171.000
66.42995 145.000
66.44990 141.000
66.46985 140.000
66.48980 166.000
66.50974 154.000
66.52969 129.000
66.54964 146.000
66.56958 151.000
66.58953 164.000
66.60948 146.000
66.62942 147.000
66.64937 164.000
66.66932 140.000
66.68927 152.000
66.70921 149.000
66.72916 189.000
66.74911 175.000
66.76905 180.000
66.78900 164.000
66.80895 177.000
66.82889 174.000
66.84884 163.000
66.86879 201.000
66.88874 180.000
66.90868 211.000
66.92863 239.000
66.94858 257.000
66.96852 238.000
66.98847 256.000
67.00842 204.000
67.02836 222.000
67.04831 196.000
67.06826 211.000
67.08820 191.000
67.10815 219.000
67.12810 217.000
67.14805 180.000
67.16799 180.000
67.18794 189.000
67.20789 167.000
67.22783 161.000
67.24778 180.000
67.26773 135.000
67.28767 141.000
67.30762 143.000
67.32757 132.000
67.34752 136.000
67.36746 146.000
67.38741 126.000
67.40736 122.000
67.42730 125.000
67.44725 118.000
67.46720 119.000
67.48714 133.000
67.50709 134.000
67.52704 112.000
67.54698 110.000
67.56693 113.000
67.58688 129.000
67.60683 125.000
67.62677 126.000
67.64672 147.000
67.66667 114.000
67.68661 121.000
67.70656 116.000
67.72651 118.000
67.74645 125.000
67.76640 136.000
67.78635 109.000
67.80630 127.000
67.82624 112.000
67.84619 111.000
67.86614 120.000
67.88608 119.000
67.90603 114.000
67.92598 111.000
67.94592 124.000
67.96587 121.000
67.98582 118.000
68.00576 116.000
68.02571 122.000
68.04566 110.000
68.06561 118.000
68.08555 104.000
68.10550 120.000
68.12545 111.000
68.14539 106.000
68.16534 137.000
68.18529 118.000
68.20523 104.000
68.22518 106.000
68.24513 112.000
68.26508 117.000
68.28502 118.000
68.30497 120.000
68.32492 102.000
68.34486 111.000
68.36481 104.000
68.38476 111.000
68.40470 113.000
68.42465 120.000
68.44460 109.000
68.46455 108.000
68.48449 106.000
68.50444 103.000
68.52439 130.000
68.54433 123.000
68.56428 119.000
68.58423 123.000
68.60417 115.000
68.62412 110.000
68.64407 113.000
68.66401 112.000
68.68396 132.000
68.70391 97.000
68.72386 123.000
68.74380 141.000
68.76375 129.000
68.78370 125.000
68.80364 114.000
68.82359 103.000
68.84354 126.000
68.86348 119.000
68.88343 116.000
68.90338 103.000
68.92333 126.000
68.94327 106.000
68.96322 111.000
68.98317 114.000
69.00311 116.000
69.02306 121.000
69.04301 110.000
69.06295 101.000
69.08290 131.000
69.10285 124.000
69.12279 114.000
69.14274 107.000
69.16269 99.000
69.18264 114.000
69.20258 116.000
69.22253 113.000
69.24248 119.000
69.26242 102.000
69.28237 120.000
69.30232 104.000
69.32226 123.000
69.34221 110.000
69.36216 125.000
69.38211 116.000
69.40205 106.000
69.42200 99.000
69.44195 110.000
69.46189 116.000
69.48184 115.000
69.50179 123.000
69.52173 120.000
69.54168 115.000
69.56163 97.000
69.58157 82.000
69.60152 109.000
69.62147 108.000
69.64142 107.000
69.66136 106.000
69.68131 118.000
69.70126 97.000
69.72120 119.000
69.74115 117.000
69.76110 92.000
69.78104 110.000
69.80099 120.000
69.82094 105.000
69.84089 113.000
69.86083 98.000
69.88078 100.000
69.90073 117.000
69.92067 94.000
69.94062 117.000
69.96057 110.000
69.98051 112.000
70.00046 97.000
70.02041 112.000
70.04035 117.000
70.06030 120.000
70.08025 113.000
70.10020 121.000
70.12014 119.000
70.14009 107.000
70.16004 100.000
70.17998 107.000
70.19993 107.000
70.21988 111.000
70.23982 103.000
70.25977 110.000
70.27972 113.000
70.29967 98.000
70.31961 123.000
70.33956 105.000
70.35951 94.000
70.37945 119.000
70.39940 112.000
70.41935 100.000
70.43929 130.000
70.45924 113.000
70.47919 121.000
70.49914 103.000
70.51908 120.000
70.53903 119.000
70.55898 105.000
70.57892 108.000
70.59887 111.000
70.61882 106.000
70.63876 109.000
70.65871 117.000
70.67866 110.000
70.69860 99.000
70.71855 114.000
70.73850 108.000
70.75845 117.000
70.77839 126.000
70.79834 105.000
70.81829 120.000
70.83823 118.000
70.85818 116.000
70.87813 127.000
70.89807 116.000
70.91802 136.000
70.93797 110.000
70.95792 136.000
70.97786 106.000
70.99781 98.000
71.01776 134.000
71.03770 133.000
71.05765 144.000
71.07760 136.000
71.09754 125.000
71.11749 143.000
71.13744 141.000
71.15738 132.000
71.17733 132.000
71.19728 135.000
71.21723 158.000
71.23717 131.000
71.25712 148.000
71.27707 159.000
71.29701 113.000
71.31696 165.000
71.33691 159.000
71.35685 145.000
71.37680 149.000
71.39675 148.000
71.41670 135.000
71.43664 140.000
71.45659 140.000
71.47654 158.000
71.49648 134.000
71.51643 148.000
71.53638 106.000
71.55632 125.000
71.57627 141.000
71.59622 137.000
71.61616 126.000
71.63611 136.000
71.65606 140.000
71.67601 126.000
71.69595 132.000
71.71590 132.000
71.73585 128.000
71.75579 142.000
71.77574 131.000
71.79569 127.000
71.81563 107.000
71.83558 119.000
71.85553 130.000
71.87548 123.000
71.89542 118.000
71.91537 127.000
71.93532 140.000
71.95526 158.000
71.97521 110.000
71.99516 117.000
72.01510 113.000
72.03505 121.000
72.05500 118.000
72.07495 115.000
72.09489 136.000
72.11484 125.000
72.13479 129.000
72.15473 104.000
72.17468 106.000
72.19463 117.000
72.21457 115.000
72.23452 110.000
72.25447 131.000
72.27441 102.000
72.29436 143.000
72.31431 134.000
72.33426 118.000
72.35420 116.000
72.37415 125.000
72.39410 114.000
72.41404 111.000
72.43399 95.000
72.45394 107.000
72.47388 112.000
72.49383 129.000
72.51378 114.000
72.53373 109.000
72.55367 114.000
72.57362 98.000
72.59357 130.000
72.61351 104.000
72.63346 115.000
72.65341 115.000
72.67335 126.000
72.69330 105.000
72.71325 120.000
72.73319 128.000
72.75314 132.000
72.77309 117.000
72.79304 118.000
72.81298 85.000
72.83293 96.000
72.85288 96.000
72.87282 104.000
72.89277 99.000
72.91272 125.000
72.93266 105.000
72.95261 105.000
72.97256 106.000
72.99251 144.000
73.01245 120.000
73.03240 121.000
73.05235 107.000
73.07229 126.000
73.09224 109.000
73.11219 122.000
73.13213 123.000
73.15208 116.000
73.17203 108.000
73.19197 103.000
73.21192 131.000
73.23187 123.000
73.25182 109.000
73.27176 119.000
73.29171 119.000
73.31166 115.000
73.33160 138.000
73.35155 115.000
73.37150 116.000
73.39144 113.000
73.41139 139.000
73.43134 122.000
73.45129 108.000
73.47123 137.000
73.49118 129.000
73.51113 118.000
73.53107 134.000
73.55102 133.000
73.57097 110.000
73.59091 114.000
73.61086 111.000
73.63081 134.000
73.65076 138.000
73.67070 135.000
73.69065 172.000
73.71060 139.000
73.73054 159.000
73.75049 182.000
73.77044 153.000
73.79038 152.000
73.81033 158.000
73.83028 159.000
73.85022 134.000
73.87017 143.000
73.89012 158.000
73.91007 196.000
73.93001 145.000
73.94996 142.000
73.96991 159.000
73.98985 156.000
74.00980 172.000
74.02975 171.000
74.04969 171.000
74.06964 175.000
74.08959 154.000
74.10954 156.000
74.12948 189.000
74.14943 184.000
74.16938 198.000
74.18932 189.000
74.20927 201.000
74.22922 182.000
74.24916 212.000
74.26911 193.000
74.28906 213.000
74.30900 203.000
74.32895 205.000
74.34890 233.000
74.36885 208.000
74.38879 207.000
74.40874 182.000
74.42869 193.000
74.44863 179.000
74.46858 193.000
74.48853 196.000
74.50847 183.000
74.52842 185.000
74.54837 158.000
74.56832 171.000
74.58826 174.000
74.60821 149.000
74.62816 174.000
74.64810 157.000
74.66805 160.000
74.68800 163.000
74.70794 134.000
74.72789 155.000
74.74784 137.000
74.76778 144.000
74.78773 147.000
74.80768 153.000
74.82763 133.000
74.84757 153.000
74.86752 139.000
74.88747 140.000
74.90741 164.000
74.92736 150.000
74.94731 159.000
74.96725 154.000
74.98720 148.000
75.00715 149.000
75.02710 159.000
75.04704 157.000
75.06699 145.000
75.08694 168.000
75.10688 155.000
75.12683 134.000
75.14678 173.000
75.16672 187.000
75.18667 173.000
75.20662 166.000
75.22657 157.000
75.24651 157.000
75.26646 160.000
75.28641 165.000
75.30635 150.000
75.32630 179.000
75.34625 182.000
75.36619 170.000
75.38614 152.000
75.40609 140.000
75.42603 154.000
75.44598 163.000
75.46593 141.000
75.48588 158.000
75.50582 154.000
75.52577 152.000
75.54572 170.000
75.56566 165.000
75.58561 130.000
75.60556 152.000
75.62550 155.000
75.64545 145.000
75.66540 128.000
75.68535 135.000
75.70529 132.000
75.72524 153.000
75.74519 115.000
75.76513 120.000
75.78508 115.000
75.80503 140.000
75.82497 157.000
75.84492 118.000
75.86487 130.000
75.88481 102.000
75.90476 120.000
75.92471 127.000
75.94466 127.000
75.96460 106.000
75.98455 135.000
76.00450 128.000
76.02444 123.000
76.04439 153.000
76.06434 118.000
76.08428 132.000
76.10423 126.000
76.12418 128.000
76.14413 130.000
76.16407 129.000
76.18402 135.000
76.20397 122.000
76.22391 120.000
76.24386 133.000
76.26381 111.000
76.28375 147.000
76.30370 111.000
76.32365 117.000
76.34359 127.000
76.36354 123.000
76.38349 125.000
76.40344 113.000
76.42338 123.000
76.44333 141.000
76.46328 116.000
76.48322 110.000
76.50317 129.000
76.52312 128.000
76.54306 114.000
76.56301 127.000
76.58296 114.000
76.60291 140.000
76.62285 122.000
76.64280 107.000
76.66275 94.000
76.68269 107.000
76.70264 116.000
76.72259 129.000
76.74253 124.000
76.76248 107.000
76.78243 109.000
76.80238 114.000
76.82232 115.000
76.84227 111.000
76.86222 126.000
76.88216 111.000
76.90211 113.000
76.92206 138.000
76.94200 111.000
76.96195 106.000
76.98190 112.000
77.00184 127.000
77.02179 131.000
77.04174 112.000
77.06169 97.000
77.08163 114.000
77.10158 126.000
77.12153 122.000
77.14147 120.000
77.16142 115.000
77.18137 109.000
77.20131 121.000
77.22126 139.000
77.24121 120.000
77.26116 129.000
77.28110 135.000
77.30105 135.000
77.32100 121.000
77.34094 140.000
77.36089 134.000
77.38084 128.000
77.40078 137.000
77.42073 134.000
77.44068 137.000
77.46062 164.000
77.48057 146.000
77.50052 182.000
77.52047 138.000
77.54041 151.000
77.56036 184.000
77.58031 150.000
77.60025 136.000
77.62020 148.000
77.64015 156.000
77.66009 148.000
77.68004 139.000
77.69999 147.000
77.71994 147.000
77.73988 149.000
77.75983 146.000
77.77978 112.000
77.79972 139.000
77.81967 181.000
77.83962 123.000
77.85956 144.000
77.87951 115.000
77.89946 112.000
77.91940 100.000
77.93935 119.000
77.95930 129.000
77.97925 125.000
77.99919 119.000
78.01914 101.000
78.03909 128.000
78.05903 129.000
78.07898 111.000
78.09893 131.000
78.11887 107.000
78.13882 122.000
78.15877 126.000
78.17872 119.000
78.19866 114.000
78.21861 128.000
78.23856 120.000
78.25850 116.000
78.27845 131.000
78.29840 115.000
78.31834 128.000
78.33829 122.000
78.35824 142.000
78.37819 122.000
78.39813 143.000
78.41808 142.000
78.43803 157.000
78.45797 146.000
78.47792 151.000
78.49787 141.000
78.51781 136.000
78.53776 135.000
78.55771 128.000
78.57765 144.000
78.59760 109.000
78.61755 110.000
78.63750 145.000
78.65744 141.000
78.67739 141.000
78.69734 123.000
78.71728 101.000
78.73723 146.000
78.75718 133.000
78.77712 117.000
78.79707 146.000
78.81702 129.000
78.83697 138.000
78.85691 118.000
78.87686 127.000
78.89681 117.000
78.91675 128.000
78.93670 109.000
78.95665 125.000
78.97659 150.000
78.99654 125.000
79.01649 122.000
79.03643 99.000
79.05638 131.000
79.07633 120.000
79.09628 128.000
79.11622 124.000
79.13617 125.000
79.15612 137.000
79.17606 134.000
79.19601 159.000
79.21596 134.000
79.23590 138.000
79.25585 129.000
79.27580 137.000
79.29575 132.000
79.31569 163.000
79.33564 134.000
79.35559 121.000
79.37553 114.000
79.39548 154.000
79.41543 130.000
79.43537 122.000
79.45532 126.000
79.47527 141.000
79.49521 144.000
79.51516 119.000
79.53511 146.000
79.55506 101.000
79.57500 152.000
79.59495 113.000
79.61490 134.000
79.63484 128.000
79.65479 128.000
79.67474 122.000
79.69468 131.000
79.71463 121.000
79.73458 113.000
79.75453 109.000
79.77447 134.000
79.79442 121.000
79.81437 119.000
79.83431 123.000
79.85426 147.000
79.87421 113.000
79.89415 126.000
79.91410 110.000
79.93405 116.000
79.95399 121.000
79.97394 103.000
79.99389 117.000
80.01384 109.000
80.03378 85.000
80.05373 124.000
80.07368 128.000
80.09362 111.000
80.11357 107.000
80.13352 109.000
80.15346 99.000
80.17341 113.000
80.19336 106.000
80.21331 107.000
80.23325 104.000
80.25320 121.000
80.27315 118.000
80.29309 116.000
80.31304 116.000
80.33299 103.000
80.35293 114.000
80.37288 119.000
80.39283 104.000
80.41278 93.000
80.43272 127.000
80.45267 117.000
80.47262 111.000
80.49256 124.000
80.51251 103.000
80.53246 121.000
80.55240 113.000
80.57235 116.000
80.59230 106.000
80.61224 113.000
80.63219 107.000
80.65214 107.000
80.67209 95.000
80.69203 112.000
80.71198 106.000
80.73193 102.000
80.75187 91.000
80.77182 115.000
80.79177 95.000
80.81171 102.000
80.83166 108.000
80.85161 114.000
80.87156 109.000
80.89150 120.000
80.91145 108.000
80.93140 120.000
80.95134 98.000
80.97129 104.000
80.99124 106.000
81.01118 97.000
81.03113 89.000
81.05108 105.000
81.07102 112.000
81.09097 110.000
81.11092 109.000
81.13087 116.000
81.15081 129.000
81.17076 123.000
81.19071 119.000
81.21065 109.000
81.23060 135.000
81.25055 101.000
81.27049 98.000
81.29044 107.000
81.31039 109.000
81.33034 97.000
81.35028 106.000
81.37023 103.000
81.39018 112.000
81.41012 98.000
81.43007 114.000
81.45002 101.000
81.46996 92.000
81.48991 112.000
81.50986 122.000
81.52980 110.000
81.54975 115.000
81.56970 117.000
81.58965 107.000
81.60959 121.000
81.62954 104.000
81.64949 97.000
81.66943 109.000
81.68938 106.000
81.70933 128.000
81.72927 113.000
81.74922 108.000
81.76917 106.000
81.78912 111.000
81.80906 105.000
81.82901 97.000
81.84896 118.000
81.86890 120.000
81.88885 92.000
81.90880 118.000
81.92874 106.000
81.94869 99.000
81.96864 116.000
81.98859 113.000
82.00853 119.000
82.02848 108.000
82.04843 120.000
82.06837 128.000
82.08832 129.000
82.10827 124.000
82.12821 109.000
82.14816 118.000
82.16811 106.000
82.18805 118.000
82.20800 119.000
82.22795 120.000
82.24790 138.000
82.26784 131.000
82.28779 138.000
82.30774 136.000
82.32768 127.000
82.34763 114.000
82.36758 127.000
82.38752 151.000
82.40747 125.000
82.42742 127.000
82.44737 128.000
82.46731 118.000
82.48726 126.000
82.50721 132.000
82.52715 127.000
82.54710 123.000
82.56705 126.000
82.58699 123.000
82.60694 123.000
82.62689 120.000
82.64683 119.000
82.66678 118.000
82.68673 105.000
82.70668 122.000
82.72662 100.000
82.74657 121.000
82.76652 129.000
82.78646 123.000
82.80641 115.000
82.82636 107.000
82.84630 121.000
82.86625 123.000
82.88620 145.000
82.90615 136.000
82.92609 126.000
82.94604 110.000
82.96599 107.000
82.98593 102.000
83.00588 125.000
83.02583 125.000
83.04577 117.000
83.06572 109.000
83.08567 132.000
83.10561 124.000
83.12556 111.000
83.14551 112.000
83.16546 103.000
83.18540 111.000
83.20535 113.000
83.22530 120.000
83.24524 109.000
83.26519 111.000
83.28514 109.000
83.30508 117.000
83.32503 116.000
83.34498 119.000
83.36493 111.000
83.38487 116.000
83.40482 130.000
83.42477 129.000
83.44471 117.000
83.46466 96.000
83.48461 115.000
83.50455 94.000
83.52450 103.000
83.54445 115.000
83.56440 123.000
83.58434 113.000
83.60429 95.000
83.62424 108.000
83.64418 118.000
83.66413 116.000
83.68408 94.000
83.70402 107.000
83.72397 110.000
83.74392 118.000
83.76386 116.000
83.78381 112.000
83.80376 107.000
83.82371 107.000
83.84365 123.000
83.86360 104.000
83.88355 111.000
83.90349 108.000
83.92344 118.000
83.94339 129.000
83.96333 104.000
83.98328 117.000
84.00323 124.000
84.02318 114.000
84.04312 100.000
84.06307 91.000
84.08302 101.000
84.10296 114.000
84.12291 129.000
84.14286 118.000
84.16280 111.000
84.18275 120.000
84.20270 101.000
84.22264 115.000
84.24259 109.000
84.26254 113.000
84.28249 122.000
84.30243 120.000
84.32238 99.000
84.34233 101.000
84.36227 119.000
84.38222 114.000
84.40217 108.000
84.42211 115.000
84.44206 125.000
84.46201 110.000
84.48196 124.000
84.50190 102.000
84.52185 97.000
84.54180 115.000
84.56174 128.000
84.58169 122.000
84.60164 122.000
84.62158 123.000
84.64153 131.000
84.66148 118.000
84.68142 111.000
84.70137 109.000
84.72132 128.000
84.74127 116.000
84.76121 139.000
84.78116 123.000
84.80111 143.000
84.82105 109.000
84.84100 145.000
84.86095 136.000
84.88089 142.000
84.90084 145.000
84.92079 148.000
84.94074 146.000
84.96068 143.000
84.98063 134.000
85.00058 152.000
85.02052 143.000
85.04047 120.000
85.06042 110.000
85.08036 145.000
85.10031 149.000
85.12026 103.000
85.14021 124.000
85.16015 125.000
85.18010 136.000
85.20005 126.000
85.21999 99.000
85.23994 128.000
85.25989 128.000
85.27983 108.000
85.29978 113.000
85.31973 124.000
85.33967 135.000
85.35962 114.000
85.37957 104.000
85.39952 123.000
85.41946 127.000
85.43941 112.000
85.45936 104.000
85.47930 121.000
85.49925 102.000
85.51920 110.000
85.53914 106.000
85.55909 138.000
85.57904 130.000
85.59899 130.000
85.61893 110.000
85.63888 118.000
85.65883 116.000
85.67877 94.000
85.69872 95.000
85.71867 97.000
85.73861 145.000
85.75856 120.000
85.77851 102.000
85.79845 117.000
85.81840 112.000
85.83835 131.000
85.85830 112.000
85.87824 133.000
85.89819 121.000
85.91814 104.000
85.93808 137.000
85.95803 128.000
85.97798 104.000
85.99792 122.000
86.01787 90.000
86.03782 101.000
86.05777 96.000
86.07771 116.000
86.09766 117.000
86.11761 105.000
86.13755 111.000
86.15750 117.000
86.17745 104.000
86.19739 145.000
86.21734 110.000
86.23729 120.000
86.25723 104.000
86.27718 99.000
86.29713 105.000
86.31708 118.000
86.33702 125.000
86.35697 118.000
86.37692 111.000
86.39686 114.000
86.41681 119.000
86.43676 96.000
86.45670 100.000
86.47665 109.000
86.49660 106.000
86.51655 118.000
86.53649 99.000
86.55644 114.000
86.57639 106.000
86.59633 107.000
86.61628 105.000
86.63623 123.000
86.65617 96.000
86.67612 133.000
86.69607 126.000
86.71602 124.000
86.73596 120.000
86.75591 129.000
86.77586 130.000
86.79580 120.000
86.81575 121.000
86.83570 115.000
86.85564 140.000
86.87559 110.000
86.89554 121.000
86.91548 140.000
86.93543 134.000
86.95538 144.000
86.97533 128.000
86.99527 122.000
87.01522 129.000
87.03517 132.000
87.05511 126.000
87.07506 142.000
87.09501 130.000
87.11495 158.000
87.13490 127.000
87.15485 153.000
87.17480 138.000
87.19474 148.000
87.21469 152.000
87.23464 118.000
87.25458 129.000
87.27453 165.000
87.29448 143.000
87.31442 116.000
87.33437 149.000
87.35432 141.000
87.37426 128.000
87.39421 129.000
87.41416 131.000
87.43411 150.000
87.45405 134.000
87.47400 132.000
87.49395 138.000
87.51389 114.000
87.53384 119.000
87.55379 135.000
87.57373 145.000
87.59368 143.000
87.61363 116.000
87.63358 123.000
87.65352 137.000
87.67347 102.000
87.69342 112.000
87.71336 134.000
87.73331 120.000
87.75326 138.000
87.77320 117.000
87.79315 126.000
87.81310 113.000
87.83304 108.000
87.85299 112.000
87.87294 120.000
87.89289 129.000
87.91283 123.000
87.93278 112.000
87.95273 122.000
87.97267 110.000
87.99262 112.000
88.01257 109.000
88.03251 94.000
88.05246 128.000
88.07241 140.000
88.09236 130.000
88.11230 95.000
88.13225 123.000
88.15220 97.000
88.17214 107.000
88.19209 92.000
88.21204 129.000
88.23198 130.000
88.25193 121.000
88.27188 133.000
88.29183 102.000
88.31177 101.000
88.33172 120.000
88.35167 111.000
88.37161 98.000
88.39156 105.000
88.41151 115.000
88.43145 110.000
88.45140 110.000
88.47135 127.000
88.49129 98.000
88.51124 116.000
88.53119 91.000
88.55114 109.000
88.57108 104.000
88.59103 107.000
88.61098 117.000
88.63092 113.000
88.65087 112.000
88.67082 100.000
88.69076 106.000
88.71071 97.000
88.73066 101.000
88.75061 118.000
88.77055 104.000
88.79050 102.000
88.81045 113.000
88.83039 96.000
88.85034 86.000
88.87029 106.000
88.89023 119.000
88.91018 90.000
88.93013 101.000
88.95007 116.000
88.97002 119.000
88.98997 110.000
89.00992 118.000
89.02986 120.000
89.04981 100.000
89.06976 94.000
89.08970 112.000
89.10965 106.000
89.12960 105.000
89.14954 111.000
89.16949 122.000
89.18944 115.000
89.20939 114.000
89.22933 118.000
89.24928 116.000
89.26923 115.000
89.28917 110.000
89.30912 115.000
89.32907 115.000
89.34901 115.000
89.36896 92.000
89.38891 116.000
89.40885 116.000
89.42880 102.000
89.44875 129.000
89.46870 120.000
89.48864 111.000
89.50859 110.000
89.52854 149.000
89.54848 135.000
89.56843 110.000
89.58838 122.000
89.60832 132.000
89.62827 124.000
89.64822 131.000
89.66817 144.000
89.68811 146.000
89.70806 136.000
89.72801 155.000
89.74795 150.000
89.76790 160.000
89.78785 173.000
89.80779 159.000
89.82774 174.000
89.84769 176.000
89.86764 179.000
89.88758 171.000
89.90753 195.000
89.92748 214.000
89.94742 195.000
89.96737 189.000
89.98732 186.000
90.00726 243.000
