10.00000 160.000
10.01995 141.000
10.03989 130.000
10.05984 138.000
10.07979 147.000
10.09973 125.000
10.11968 128.000
10.13963 141.000
10.15958 140.000
10.17952 151.000
10.19947 134.000
10.21942 155.000
10.23936 129.000
10.25931 139.000
10.27926 132.000
10.29920 155.000
10.31915 141.000
10.33910 132.000
10.35905 125.000
10.37899 134.000
10.39894 152.000
10.41889 124.000
10.43883 129.000
10.45878 144.000
10.47873 131.000
10.49867 144.000
10.51862 136.000
10.53857 121.000
10.55851 149.000
10.57846 166.000
10.59841 141.000
10.61836 142.000
10.63830 165.000
10.65825 99.000
10.67820 146.000
10.69814 142.000
10.71809 142.000
10.73804 148.000
10.75798 136.000
10.77793 160.000
10.79788 150.000
10.81783 127.000
10.83777 145.000
10.85772 133.000
10.87767 139.000
10.89761 153.000
10.91756 137.000
10.93751 155.000
10.95745 142.000
10.97740 125.000
10.99735 132.000
11.01730 161.000
11.03724 132.000
11.05719 134.000
11.07714 145.000
11.09708 142.000
11.11703 142.000
11.13698 159.000
11.15692 137.000
11.17687 139.000
11.19682 168.000
11.21676 153.000
11.23671 153.000
11.25666 147.000
11.27661 143.000
11.29655 141.000
11.31650 155.000
11.33645 134.000
11.35639 142.000
11.37634 142.000
11.39629 136.000
11.41623 139.000
11.43618 151.000
11.45613 153.000
11.47608 151.000
11.49602 136.000
11.51597 153.000
11.53592 137.000
11.55586 134.000
11.57581 150.000
11.59576 159.000
11.61570 165.000
11.63565 144.000
11.65560 148.000
11.67554 182.000
11.69549 172.000
11.71544 147.000
11.73539 159.000
11.75533 133.000
11.77528 132.000
11.79523 149.000
11.81517 159.000
11.83512 148.000
11.85507 152.000
11.87501 146.000
11.89496 154.000
11.91491 160.000
11.93486 133.000
11.95480 132.000
11.97475 158.000
11.99470 131.000
12.01464 165.000
12.03459 161.000
12.05454 126.000
12.07448 132.000
12.09443 153.000
12.11438 153.000
12.13432 139.000
12.15427 155.000
12.17422 131.000
12.19417 169.000
12.21411 142.000
12.23406 149.000
12.25401 154.000
12.27395 186.000
12.29390 145.000
12.31385 165.000
12.33379 158.000
12.35374 160.000
12.37369 159.000
12.39364 144.000
12.41358 153.000
12.43353 149.000
12.45348 170.000
12.47342 133.000
12.49337 160.000
12.51332 131.000
12.53326 140.000
12.55321 170.000
12.57316 148.000
12.59311 154.000
12.61305 149.000
12.63300 153.000
12.65295 151.000
12.67289 150.000
12.69284 143.000
12.71279 157.000
12.73273 158.000
12.75268 135.000
12.77263 175.000
12.79257 124.000
12.81252 174.000
12.83247 143.000
12.85242 145.000
12.87236 137.000
12.89231 137.000
12.91226 154.000
12.93220 160.000
12.95215 165.000
12.97210 154.000
12.99204 166.000
13.01199 151.000
13.03194 164.000
13.05189 150.000
13.07183 160.000
13.09178 145.000
13.11173 134.000
13.13167 166.000
13.15162 136.000
13.17157 155.000
13.19151 150.000
13.21146 157.000
13.23141 171.000
13.25135 164.000
13.27130 140.000
13.29125 149.000
13.31120 158.000
13.33114 172.000
13.35109 146.000
13.37104 169.000
13.39098 146.000
13.41093 152.000
13.43088 138.000
13.45082 156.000
13.47077 147.000
13.49072 153.000
13.51067 162.000
13.53061 159.000
13.55056 141.000
13.57051 155.000
13.59045 170.000
13.61040 150.000
13.63035 151.000
13.65029 165.000
13.67024 169.000
13.69019 162.000
13.71013 154.000
13.73008 160.000
13.75003 168.000
13.76998 163.000
13.78992 166.000
13.80987 159.000
13.82982 160.000
13.84976 136.000
13.86971 164.000
13.88966 152.000
13.90960 162.000
13.92955 160.000
13.94950 179.000
13.96945 162.000
13.98939 149.000
14.00934 132.000
14.02929 151.000
14.04923 153.000
14.06918 173.000
14.08913 153.000
14.10907 151.000
14.12902 166.000
14.14897 178.000
14.16892 144.000
14.18886 160.000
14.20881 154.000
14.22876 166.000
14.24870 177.000
14.26865 157.000
14.28860 149.000
14.30854 154.000
14.32849 146.000
14.34844 150.000
14.36838 148.000
14.38833 151.000
14.40828 138.000
14.42823 167.000
14.44817 173.000
14.46812 138.000
14.48807 152.000
14.50801 158.000
14.52796 171.000
14.54791 195.000
14.56785 169.000
14.58780 159.000
14.60775 172.000
14.62770 150.000
14.64764 147.000
14.66759 159.000
14.68754 176.000
14.70748 177.000
14.72743 175.000
14.74738 162.000
14.76732 163.000
14.78727 201.000
14.80722 163.000
14.82716 178.000
14.84711 176.000
14.86706 151.000
14.88701 186.000
14.90695 167.000
14.92690 176.000
14.94685 189.000
14.96679 161.000
14.98674 214.000
15.00669 203.000
15.02663 181.000
15.04658 157.000
15.06653 174.000
15.08648 192.000
15.10642 183.000
15.12637 182.000
15.14632 168.000
15.16626 197.000
15.18621 201.000
15.20616 219.000
15.22610 215.000
15.24605 214.000
15.26600 224.000
15.28594 287.000
15.30589 251.000
15.32584 279.000
15.34579 293.000
15.36573 337.000
15.38568 412.000
15.40563 523.000
15.42557 620.000
15.44552 835.000
15.46547 942.000
15.48541 1037.000
15.50536 1235.000
15.52531 1413.000
15.54526 1668.000
15.56520 1997.000
15.58515 2362.000
15.60510 2799.000
15.62504 3110.000
15.64499 3353.000
15.66494 3126.000
15.68488 2779.000
15.70483 2148.000
15.72478 1746.000
15.74472 1245.000
15.76467 995.000
15.78462 862.000
15.80457 887.000
15.82451 928.000
15.84446 982.000
15.86441 969.000
15.88435 872.000
15.90430 889.000
15.92425 779.000
15.94419 698.000
15.96414 572.000
15.98409 436.000
16.00404 396.000
16.02398 344.000
16.04393 240.000
16.06388 247.000
16.08382 230.000
16.10377 220.000
16.12372 192.000
16.14366 195.000
16.16361 200.000
16.18356 192.000
16.20351 192.000
16.22345 187.000
16.24340 180.000
16.26335 181.000
16.28329 200.000
16.30324 178.000
16.32319 180.000
16.34313 155.000
16.36308 156.000
16.38303 188.000
16.40297 196.000
16.42292 178.000
16.44287 170.000
16.46282 156.000
16.48276 180.000
16.50271 167.000
16.52266 177.000
16.54260 173.000
16.56255 175.000
16.58250 181.000
16.60244 181.000
16.62239 194.000
16.64234 167.000
16.66229 195.000
16.68223 163.000
16.70218 173.000
16.72213 160.000
16.74207 161.000
16.76202 167.000
16.78197 154.000
16.80191 199.000
16.82186 167.000
16.84181 186.000
16.86175 153.000
16.88170 158.000
16.90165 169.000
16.92160 169.000
16.94154 149.000
16.96149 161.000
16.98144 164.000
17.00138 186.000
17.02133 131.000
17.04128 158.000
17.06122 138.000
17.08117 161.000
17.10112 168.000
17.12107 170.000
17.14101 171.000
17.16096 166.000
17.18091 148.000
17.20085 183.000
17.22080 156.000
17.24075 172.000
17.26069 155.000
17.28064 179.000
17.30059 158.000
17.32053 160.000
17.34048 161.000
17.36043 169.000
17.38038 153.000
17.40032 144.000
17.42027 165.000
17.44022 152.000
17.46016 164.000
17.48011 162.000
17.50006 162.000
17.52000 171.000
17.53995 181.000
17.55990 164.000
17.57985 153.000
17.59979 156.000
17.61974 155.000
17.63969 167.000
17.65963 164.000
17.67958 167.000
17.69953 165.000
17.71947 169.000
17.73942 180.000
17.75937 152.000
17.77932 171.000
17.79926 184.000
17.81921 179.000
17.83916 150.000
17.85910 161.000
17.87905 167.000
17.89900 161.000
17.91894 169.000
17.93889 159.000
17.95884 175.000
17.97878 177.000
17.99873 166.000
18.01868 185.000
18.03863 160.000
18.05857 160.000
18.07852 168.000
18.09847 172.000
18.11841 161.000
18.13836 193.000
18.15831 158.000
18.17825 156.000
18.19820 152.000
18.21815 150.000
18.23810 154.000
18.25804 150.000
18.27799 170.000
18.29794 147.000
18.31788 141.000
18.33783 177.000
18.35778 161.000
18.37772 194.000
18.39767 157.000
18.41762 164.000
18.43756 165.000
18.45751 154.000
18.47746 153.000
18.49741 157.000
18.51735 147.000
18.53730 187.000
18.55725 172.000
18.57719 158.000
18.59714 164.000
18.61709 153.000
18.63703 174.000
18.65698 141.000
18.67693 162.000
18.69688 158.000
18.71682 192.000
18.73677 171.000
18.75672 161.000
18.77666 147.000
18.79661 170.000
18.81656 159.000
18.83650 162.000
18.85645 141.000
18.87640 141.000
18.89634 169.000
18.91629 144.000
18.93624 139.000
18.95619 153.000
18.97613 171.000
18.99608 164.000
19.01603 160.000
19.03597 173.000
19.05592 164.000
19.07587 170.000
19.09581 167.000
19.11576 173.000
19.13571 174.000
19.15566 138.000
19.17560 172.000
19.19555 182.000
19.21550 164.000
19.23544 162.000
19.25539 155.000
19.27534 159.000
19.29528 143.000
19.31523 123.000
19.33518 156.000
19.35513 161.000
19.37507 189.000
19.39502 157.000
19.41497 158.000
19.43491 133.000
19.45486 174.000
19.47481 161.000
19.49475 141.000
19.51470 180.000
19.53465 160.000
19.55459 173.000
19.57454 176.000
19.59449 156.000
19.61444 168.000
19.63438 153.000
19.65433 157.000
19.67428 159.000
19.69422 176.000
19.71417 162.000
19.73412 146.000
19.75406 160.000
19.77401 159.000
19.79396 155.000
19.81391 161.000
19.83385 150.000
19.85380 152.000
19.87375 172.000
19.89369 160.000
19.91364 181.000
19.93359 169.000
19.95353 153.000
19.97348 171.000
19.99343 155.000
20.01337 135.000
20.03332 157.000
20.05327 174.000
20.07322 169.000
20.09316 163.000
20.11311 180.000
20.13306 141.000
20.15300 163.000
20.17295 166.000
20.19290 154.000
20.21284 155.000
20.23279 147.000
20.25274 150.000
20.27269 167.000
20.29263 169.000
20.31258 153.000
20.33253 181.000
20.35247 153.000
20.37242 169.000
20.39237 155.000
20.41231 171.000
20.43226 167.000
20.45221 190.000
20.47215 175.000
20.49210 169.000
20.51205 170.000
20.53200 151.000
20.55194 154.000
20.57189 165.000
20.59184 200.000
20.61178 196.000
20.63173 207.000
20.65168 200.000
20.67162 204.000
20.69157 219.000
20.71152 179.000
20.73147 211.000
20.75141 203.000
20.77136 195.000
20.79131 197.000
20.81125 196.000
20.83120 180.000
20.85115 193.000
20.87109 168.000
20.89104 178.000
20.91099 184.000
20.93094 167.000
20.95088 158.000
20.97083 170.000
20.99078 156.000
21.01072 164.000
21.03067 189.000
21.05062 156.000
21.07056 169.000
21.09051 168.000
21.11046 158.000
21.13040 163.000
21.15035 145.000
21.17030 158.000
21.19025 202.000
21.21019 168.000
21.23014 169.000
21.25009 163.000
21.27003 139.000
21.28998 165.000
21.30993 168.000
21.32987 142.000
21.34982 149.000
21.36977 125.000
21.38972 138.000
21.40966 176.000
21.42961 142.000
21.44956 169.000
21.46950 146.000
21.48945 155.000
21.50940 174.000
21.52934 142.000
21.54929 156.000
21.56924 136.000
21.58918 164.000
21.60913 159.000
21.62908 161.000
21.64903 148.000
21.66897 153.000
21.68892 192.000
21.70887 155.000
21.72881 162.000
21.74876 168.000
21.76871 173.000
21.78865 145.000
21.80860 135.000
21.82855 147.000
21.84850 153.000
21.86844 156.000
21.88839 156.000
21.90834 160.000
21.92828 226.000
21.94823 154.000
21.96818 147.000
21.98812 150.000
22.00807 154.000
22.02802 164.000
22.04796 152.000
22.06791 164.000
22.08786 154.000
22.10781 165.000
22.12775 147.000
22.14770 156.000
22.16765 167.000
22.18759 161.000
22.20754 157.000
22.22749 167.000
22.24743 161.000
22.26738 138.000
22.28733 151.000
22.30728 160.000
22.32722 152.000
22.34717 161.000
22.36712 168.000
22.38706 157.000
22.40701 149.000
22.42696 171.000
22.44690 172.000
22.46685 177.000
22.48680 168.000
22.50675 135.000
22.52669 205.000
22.54664 156.000
22.56659 161.000
22.58653 167.000
22.60648 165.000
22.62643 156.000
22.64637 150.000
22.66632 149.000
22.68627 160.000
22.70621 183.000
22.72616 148.000
22.74611 146.000
22.76606 152.000
22.78600 177.000
22.80595 182.000
22.82590 177.000
22.84584 165.000
22.86579 152.000
22.88574 165.000
22.90568 168.000
22.92563 148.000
22.94558 162.000
22.96553 164.000
22.98547 159.000
23.00542 161.000
23.02537 154.000
23.04531 177.000
23.06526 152.000
23.08521 167.000
23.10515 161.000
23.12510 151.000
23.14505 166.000
23.16499 171.000
23.18494 158.000
23.20489 170.000
23.22484 172.000
23.24478 159.000
23.26473 155.000
23.28468 167.000
23.30462 165.000
23.32457 180.000
23.34452 172.000
23.36446 156.000
23.38441 165.000
23.40436 153.000
23.42431 180.000
23.44425 156.000
23.46420 179.000
23.48415 150.000
23.50409 176.000
23.52404 143.000
23.54399 173.000
23.56393 190.000
23.58388 156.000
23.60383 185.000
23.62377 178.000
23.64372 178.000
23.66367 183.000
23.68362 174.000
23.70356 156.000
23.72351 139.000
23.74346 147.000
23.76340 157.000
23.78335 130.000
23.80330 150.000
23.82324 158.000
23.84319 155.000
23.86314 166.000
23.88309 157.000
23.90303 165.000
23.92298 172.000
23.94293 156.000
23.96287 165.000
23.98282 164.000
24.00277 149.000
24.02271 179.000
24.04266 175.000
24.06261 161.000
24.08256 190.000
24.10250 173.000
24.12245 166.000
24.14240 171.000
24.16234 174.000
24.18229 184.000
24.20224 158.000
24.22218 172.000
24.24213 163.000
24.26208 178.000
24.28202 163.000
24.30197 167.000
24.32192 153.000
24.34187 170.000
24.36181 165.000
24.38176 143.000
24.40171 183.000
24.42165 162.000
24.44160 153.000
24.46155 158.000
24.48149 186.000
24.50144 175.000
24.52139 159.000
24.54134 154.000
24.56128 176.000
24.58123 158.000
24.60118 190.000
24.62112 189.000
24.64107 146.000
24.66102 161.000
24.68096 168.000
24.70091 171.000
24.72086 164.000
24.74080 150.000
24.76075 161.000
24.78070 176.000
24.80065 180.000
24.82059 173.000
24.84054 143.000
24.86049 191.000
24.88043 156.000
24.90038 161.000
24.92033 165.000
24.94027 172.000
24.96022 146.000
24.98017 156.000
25.00012 165.000
25.02006 170.000
25.04001 210.000
25.05996 154.000
25.07990 153.000
25.09985 186.000
25.11980 173.000
25.13974 143.000
25.15969 184.000
25.17964 160.000
25.19958 180.000
25.21953 168.000
25.23948 176.000
25.25943 174.000
25.27937 167.000
25.29932 154.000
25.31927 127.000
25.33921 172.000
25.35916 142.000
25.37911 151.000
25.39905 166.000
25.41900 147.000
25.43895 180.000
25.45890 175.000
25.47884 169.000
25.49879 151.000
25.51874 162.000
25.53868 162.000
25.55863 152.000
25.57858 191.000
25.59852 163.000
25.61847 149.000
25.63842 181.000
25.65837 160.000
25.67831 155.000
25.69826 182.000
25.71821 189.000
25.73815 166.000
25.75810 173.000
25.77805 180.000
25.79799 160.000
25.81794 140.000
25.83789 163.000
25.85783 158.000
25.87778 167.000
25.89773 150.000
25.91768 161.000
25.93762 149.000
25.95757 147.000
25.97752 161.000
25.99746 173.000
26.01741 150.000
26.03736 158.000
26.05730 154.000
26.07725 159.000
26.09720 176.000
26.11715 173.000
26.13709 158.000
26.15704 160.000
26.17699 182.000
26.19693 139.000
26.21688 161.000
26.23683 170.000
26.25677 152.000
26.27672 165.000
26.29667 168.000
26.31661 177.000
26.33656 152.000
26.35651 149.000
26.37646 149.000
26.39640 154.000
26.41635 151.000
26.43630 186.000
26.45624 147.000
26.47619 168.000
26.49614 176.000
26.51608 182.000
26.53603 166.000
26.55598 182.000
26.57593 168.000
26.59587 171.000
26.61582 170.000
26.63577 166.000
26.65571 190.000
26.67566 159.000
26.69561 158.000
26.71555 172.000
26.73550 155.000
26.75545 136.000
26.77539 164.000
26.79534 176.000
26.81529 171.000
26.83524 159.000
26.85518 174.000
26.87513 152.000
26.89508 182.000
26.91502 148.000
26.93497 154.000
26.95492 164.000
26.97486 200.000
26.99481 184.000
27.01476 173.000
27.03471 181.000
27.05465 189.000
27.07460 161.000
27.09455 172.000
27.11449 174.000
27.13444 185.000
27.15439 178.000
27.17433 179.000
27.19428 160.000
27.21423 154.000
27.23417 174.000
27.25412 193.000
27.27407 190.000
27.29402 172.000
27.31396 169.000
27.33391 156.000
27.35386 172.000
27.37380 156.000
27.39375 173.000
27.41370 167.000
27.43364 182.000
27.45359 194.000
27.47354 175.000
27.49349 173.000
27.51343 164.000
27.53338 186.000
27.55333 186.000
27.57327 169.000
27.59322 203.000
27.61317 172.000
27.63311 179.000
27.65306 170.000
27.67301 187.000
27.69296 183.000
27.71290 171.000
27.73285 161.000
27.75280 158.000
27.77274 163.000
27.79269 165.000
27.81264 174.000
27.83258 193.000
27.85253 166.000
27.87248 174.000
27.89242 173.000
27.91237 156.000
27.93232 173.000
27.95227 151.000
27.97221 170.000
27.99216 173.000
28.01211 152.000
28.03205 174.000
28.05200 219.000
28.07195 144.000
28.09189 167.000
28.11184 179.000
28.13179 160.000
28.15174 164.000
28.17168 179.000
28.19163 188.000
28.21158 162.000
28.23152 180.000
28.25147 170.000
28.27142 174.000
28.29136 176.000
28.31131 166.000
28.33126 168.000
28.35120 166.000
28.37115 168.000
28.39110 156.000
28.41105 185.000
28.43099 167.000
28.45094 195.000
28.47089 167.000
28.49083 188.000
28.51078 140.000
28.53073 161.000
28.55067 155.000
28.57062 161.000
28.59057 175.000
28.61052 188.000
28.63046 160.000
28.65041 173.000
28.67036 170.000
28.69030 176.000
28.71025 155.000
28.73020 193.000
28.75014 155.000
28.77009 145.000
28.79004 189.000
28.80998 182.000
28.82993 156.000
28.84988 185.000
28.86983 188.000
28.88977 183.000
28.90972 198.000
28.92967 159.000
28.94961 169.000
28.96956 188.000
28.98951 187.000
29.00945 175.000
29.02940 173.000
29.04935 178.000
29.06930 191.000
29.08924 152.000
29.10919 189.000
29.12914 172.000
29.14908 182.000
29.16903 201.000
29.18898 198.000
29.20892 217.000
29.22887 168.000
29.24882 207.000
29.26877 191.000
29.28871 190.000
29.30866 193.000
29.32861 156.000
29.34855 171.000
29.36850 195.000
29.38845 172.000
29.40839 179.000
29.42834 193.000
29.44829 199.000
29.46823 187.000
29.48818 157.000
29.50813 171.000
29.52808 180.000
29.54802 170.000
29.56797 171.000
29.58792 166.000
29.60786 169.000
29.62781 187.000
29.64776 149.000
29.66770 163.000
29.68765 193.000
29.70760 175.000
29.72755 179.000
29.74749 187.000
29.76744 165.000
29.78739 169.000
29.80733 180.000
29.82728 172.000
29.84723 201.000
29.86717 194.000
29.88712 184.000
29.90707 166.000
29.92701 197.000
29.94696 197.000
29.96691 178.000
29.98686 205.000
30.00680 169.000
30.02675 184.000
30.04670 200.000
30.06664 157.000
30.08659 188.000
30.10654 168.000
30.12648 181.000
30.14643 170.000
30.16638 169.000
30.18633 173.000
30.20627 152.000
30.22622 155.000
30.24617 197.000
30.26611 203.000
30.28606 156.000
30.30601 173.000
30.32595 159.000
30.34590 175.000
30.36585 167.000
30.38579 164.000
30.40574 163.000
30.42569 177.000
30.44564 174.000
30.46558 185.000
30.48553 162.000
30.50548 172.000
30.52542 165.000
30.54537 181.000
30.56532 185.000
30.58526 182.000
30.60521 160.000
30.62516 170.000
30.64511 179.000
30.66505 175.000
30.68500 163.000
30.70495 170.000
30.72489 168.000
30.74484 173.000
30.76479 180.000
30.78473 171.000
30.80468 175.000
30.82463 177.000
30.84458 165.000
30.86452 178.000
30.88447 166.000
30.90442 160.000
30.92436 161.000
30.94431 153.000
30.96426 172.000
30.98420 175.000
31.00415 186.000
31.02410 167.000
31.04404 168.000
31.06399 191.000
31.08394 165.000
31.10389 178.000
31.12383 187.000
31.14378 155.000
31.16373 164.000
31.18367 182.000
31.20362 152.000
31.22357 194.000
31.24351 201.000
31.26346 188.000
31.28341 162.000
31.30336 179.000
31.32330 185.000
31.34325 173.000
31.36320 174.000
31.38314 192.000
31.40309 184.000
31.42304 190.000
31.44298 202.000
31.46293 200.000
31.48288 185.000
31.50282 190.000
31.52277 202.000
31.54272 224.000
31.56267 248.000
31.58261 232.000
31.60256 285.000
31.62251 309.000
31.64245 355.000
31.66240 382.000
31.68235 445.000
31.70229 520.000
31.72224 529.000
31.74219 563.000
31.76214 564.000
31.78208 534.000
31.80203 513.000
31.82198 433.000
31.84192 427.000
31.86187 341.000
31.88182 283.000
31.90176 279.000
31.92171 223.000
31.94166 244.000
31.96160 227.000
31.98155 212.000
32.00150 224.000
32.02145 195.000
32.04139 219.000
32.06134 214.000
32.08129 211.000
32.10123 228.000
32.12118 222.000
32.14113 268.000
32.16107 271.000
32.18102 284.000
32.20097 289.000
32.22092 275.000
32.24086 265.000
32.26081 293.000
32.28076 268.000
32.30070 288.000
32.32065 291.000
32.34060 304.000
32.36054 270.000
32.38049 296.000
32.40044 280.000
32.42039 278.000
32.44033 271.000
32.46028 250.000
32.48023 243.000
32.50017 217.000
32.52012 240.000
32.54007 225.000
32.56001 195.000
32.57996 195.000
32.59991 196.000
32.61985 186.000
32.63980 163.000
32.65975 173.000
32.67970 190.000
32.69964 168.000
32.71959 166.000
32.73954 172.000
32.75948 176.000
32.77943 180.000
32.79938 151.000
32.81932 167.000
32.83927 198.000
32.85922 163.000
32.87917 162.000
32.89911 186.000
32.91906 151.000
32.93901 173.000
32.95895 173.000
32.97890 168.000
32.99885 195.000
33.01879 161.000
33.03874 200.000
33.05869 188.000
33.07863 187.000
33.09858 186.000
33.11853 156.000
33.13848 165.000
33.15842 167.000
33.17837 166.000
33.19832 177.000
33.21826 170.000
33.23821 175.000
33.25816 163.000
33.27810 185.000
33.29805 188.000
33.31800 197.000
33.33795 192.000
33.35789 158.000
33.37784 188.000
33.39779 178.000
33.41773 173.000
33.43768 186.000
33.45763 172.000
33.47757 185.000
33.49752 187.000
33.51747 172.000
33.53741 172.000
33.55736 193.000
33.57731 181.000
33.59726 164.000
33.61720 178.000
33.63715 162.000
33.65710 174.000
33.67704 195.000
33.69699 181.000
33.71694 161.000
33.73688 173.000
33.75683 182.000
33.77678 149.000
33.79673 179.000
33.81667 182.000
33.83662 180.000
33.85657 189.000
33.87651 182.000
33.89646 185.000
33.91641 221.000
33.93635 216.000
33.95630 212.000
33.97625 216.000
33.99620 199.000
34.01614 214.000
34.03609 198.000
34.05604 207.000
34.07598 228.000
34.09593 200.000
34.11588 220.000
34.13582 250.000
34.15577 228.000
34.17572 236.000
34.19566 226.000
34.21561 265.000
34.23556 224.000
34.25551 234.000
34.27545 244.000
34.29540 245.000
34.31535 214.000
34.33529 238.000
34.35524 233.000
34.37519 222.000
34.39513 217.000
34.41508 243.000
34.43503 226.000
34.45498 197.000
34.47492 216.000
34.49487 189.000
34.51482 201.000
34.53476 199.000
34.55471 236.000
34.57466 185.000
34.59460 203.000
34.61455 223.000
34.63450 194.000
34.65444 222.000
34.67439 209.000
34.69434 210.000
34.71429 185.000
34.73423 166.000
34.75418 168.000
34.77413 198.000
34.79407 168.000
34.81402 206.000
34.83397 193.000
34.85391 187.000
34.87386 212.000
34.89381 207.000
34.91376 195.000
34.93370 213.000
34.95365 208.000
34.97360 245.000
34.99354 214.000
35.01349 272.000
35.03344 243.000
35.05338 237.000
35.07333 260.000
35.09328 295.000
35.11322 321.000
35.13317 318.000
35.15312 391.000
35.17307 428.000
35.19301 498.000
35.21296 563.000
35.23291 585.000
35.25285 641.000
35.27280 779.000
35.29275 892.000
35.31269 1094.000
35.33264 1139.000
35.35259 1224.000
35.37254 1281.000
35.39248 1296.000
35.41243 1298.000
35.43238 1385.000
35.45232 1190.000
35.47227 1161.000
35.49222 965.000
35.51216 931.000
35.53211 769.000
35.55206 656.000
35.57201 525.000
35.59195 535.000
35.61190 460.000
35.63185 447.000
35.65179 385.000
35.67174 375.000
35.69169 361.000
35.71163 362.000
35.73158 387.000
35.75153 307.000
35.77147 309.000
35.79142 287.000
35.81137 269.000
35.83132 283.000
35.85126 241.000
35.87121 242.000
35.89116 241.000
35.91110 194.000
35.93105 208.000
35.95100 217.000
35.97094 204.000
35.99089 216.000
36.01084 193.000
36.03079 200.000
36.05073 223.000
36.07068 220.000
36.09063 193.000
36.11057 242.000
36.13052 202.000
36.15047 235.000
36.17041 196.000
36.19036 217.000
36.21031 204.000
36.23025 215.000
36.25020 224.000
36.27015 221.000
36.29010 197.000
36.31004 229.000
36.32999 234.000
36.34994 195.000
36.36988 228.000
36.38983 198.000
36.40978 202.000
36.42972 193.000
36.44967 234.000
36.46962 237.000
36.48957 235.000
36.50951 225.000
36.52946 263.000
36.54941 259.000
36.56935 298.000
36.58930 298.000
36.60925 299.000
36.62919 294.000
36.64914 317.000
36.66909 331.000
36.68903 338.000
36.70898 397.000
36.72893 332.000
36.74888 349.000
36.76882 336.000
36.78877 368.000
36.80872 396.000
36.82866 402.000
36.84861 408.000
36.86856 431.000
36.88850 401.000
36.90845 467.000
36.92840 391.000
36.94835 353.000
36.96829 398.000
36.98824 343.000
37.00819 367.000
37.02813 317.000
37.04808 307.000
37.06803 248.000
37.08797 225.000
37.10792 246.000
37.12787 228.000
37.14781 197.000
37.16776 205.000
37.18771 193.000
37.20766 189.000
37.22760 216.000
37.24755 192.000
37.26750 191.000
37.28744 187.000
37.30739 184.000
37.32734 207.000
37.34728 204.000
37.36723 177.000
37.38718 195.000
37.40713 158.000
37.42707 185.000
37.44702 182.000
37.46697 181.000
37.48691 222.000
37.50686 172.000
37.52681 187.000
37.54675 183.000
37.56670 186.000
37.58665 180.000
37.60660 178.000
37.62654 193.000
37.64649 212.000
37.66644 184.000
37.68638 228.000
37.70633 199.000
37.72628 184.000
37.74622 199.000
37.76617 199.000
37.78612 178.000
37.80606 177.000
37.82601 184.000
37.84596 187.000
37.86591 214.000
37.88585 186.000
37.90580 220.000
37.92575 185.000
37.94569 199.000
37.96564 177.000
37.98559 188.000
38.00553 233.000
38.02548 190.000
38.04543 196.000
38.06538 203.000
38.08532 209.000
38.10527 201.000
38.12522 191.000
38.14516 192.000
38.16511 189.000
38.18506 221.000
38.20500 202.000
38.22495 202.000
38.24490 235.000
38.26484 215.000
38.28479 245.000
38.30474 236.000
38.32469 240.000
38.34463 253.000
38.36458 281.000
38.38453 307.000
38.40447 309.000
38.42442 351.000
38.44437 383.000
38.46431 466.000
38.48426 520.000
38.50421 592.000
38.52416 706.000
38.54410 747.000
38.56405 903.000
38.58400 974.000
38.60394 1020.000
38.62389 1071.000
38.64384 1055.000
38.66378 993.000
38.68373 1015.000
38.70368 965.000
38.72362 918.000
38.74357 910.000
38.76352 869.000
38.78347 843.000
38.80341 805.000
38.82336 854.000
38.84331 795.000
38.86325 814.000
38.88320 904.000
38.90315 868.000
38.92309 808.000
38.94304 798.000
38.96299 788.000
38.98294 673.000
39.00288 639.000
39.02283 582.000
39.04278 520.000
39.06272 429.000
39.08267 413.000
39.10262 380.000
39.12256 339.000
39.14251 297.000
39.16246 269.000
39.18241 260.000
39.20235 271.000
39.22230 234.000
39.24225 224.000
39.26219 247.000
39.28214 225.000
39.30209 230.000
39.32203 221.000
39.34198 195.000
39.36193 190.000
39.38187 175.000
39.40182 197.000
39.42177 183.000
39.44172 195.000
39.46166 188.000
39.48161 211.000
39.50156 219.000
39.52150 179.000
39.54145 192.000
39.56140 211.000
39.58134 185.000
39.60129 171.000
39.62124 162.000
39.64119 190.000
39.66113 198.000
39.68108 184.000
39.70103 161.000
39.72097 195.000
39.74092 169.000
39.76087 203.000
39.78081 181.000
39.80076 180.000
39.82071 169.000
39.84065 178.000
39.86060 171.000
39.88055 193.000
39.90050 167.000
39.92044 194.000
39.94039 186.000
39.96034 181.000
39.98028 200.000
40.00023 193.000
40.02018 185.000
40.04012 154.000
40.06007 178.000
40.08002 167.000
40.09997 199.000
40.11991 150.000
40.13986 168.000
40.15981 169.000
40.17975 149.000
40.19970 195.000
40.21965 183.000
40.23959 162.000
40.25954 171.000
40.27949 184.000
40.29943 186.000
40.31938 160.000
40.33933 178.000
40.35928 175.000
40.37922 179.000
40.39917 190.000
40.41912 165.000
40.43906 169.000
40.45901 192.000
40.47896 167.000
40.49890 177.000
40.51885 176.000
40.53880 178.000
40.55875 198.000
40.57869 170.000
40.59864 195.000
40.61859 184.000
40.63853 193.000
40.65848 182.000
40.67843 189.000
40.69837 189.000
40.71832 172.000
40.73827 167.000
40.75822 199.000
40.77816 217.000
40.79811 186.000
40.81806 198.000
40.83800 177.000
40.85795 203.000
40.87790 199.000
40.89784 170.000
40.91779 202.000
40.93774 177.000
40.95768 187.000
40.97763 209.000
40.99758 196.000
41.01753 201.000
41.03747 202.000
41.05742 236.000
41.07737 198.000
41.09731 214.000
41.11726 224.000
41.13721 251.000
41.15715 250.000
41.17710 261.000
41.19705 304.000
41.21700 348.000
41.23694 377.000
41.25689 416.000
41.27684 498.000
41.29678 507.000
41.31673 641.000
41.33668 682.000
41.35662 734.000
41.37657 755.000
41.39652 769.000
41.41646 751.000
41.43641 672.000
41.45636 638.000
41.47631 585.000
41.49625 537.000
41.51620 483.000
41.53615 430.000
41.55609 354.000
41.57604 356.000
41.59599 308.000
41.61593 275.000
41.63588 260.000
41.65583 242.000
41.67578 213.000
41.69572 224.000
41.71567 226.000
41.73562 215.000
41.75556 213.000
41.77551 206.000
41.79546 208.000
41.81540 188.000
41.83535 175.000
41.85530 167.000
41.87524 195.000
41.89519 209.000
41.91514 224.000
41.93509 217.000
41.95503 176.000
41.97498 149.000
41.99493 201.000
42.01487 183.000
42.03482 195.000
42.05477 183.000
42.07471 199.000
42.09466 177.000
42.11461 195.000
42.13456 153.000
42.15450 199.000
42.17445 195.000
42.19440 170.000
42.21434 183.000
42.23429 177.000
42.25424 189.000
42.27418 193.000
42.29413 174.000
42.31408 209.000
42.33403 193.000
42.35397 193.000
42.37392 207.000
42.39387 193.000
42.41381 183.000
42.43376 186.000
42.45371 164.000
42.47365 154.000
42.49360 186.000
42.51355 186.000
42.53349 217.000
42.55344 187.000
42.57339 208.000
42.59334 177.000
42.61328 195.000
42.63323 205.000
42.65318 209.000
42.67312 207.000
42.69307 192.000
42.71302 228.000
42.73296 194.000
42.75291 197.000
42.77286 207.000
42.79281 231.000
42.81275 225.000
42.83270 246.000
42.85265 258.000
42.87259 260.000
42.89254 257.000
42.91249 288.000
42.93243 311.000
42.95238 378.000
42.97233 362.000
42.99227 370.000
43.01222 436.000
43.03217 453.000
43.05212 462.000
43.07206 398.000
43.09201 370.000
43.11196 367.000
43.13190 325.000
43.15185 308.000
43.17180 333.000
43.19174 301.000
43.21169 266.000
43.23164 268.000
43.25159 216.000
43.27153 258.000
43.29148 207.000
43.31143 211.000
43.33137 199.000
43.35132 199.000
43.37127 198.000
43.39121 183.000
43.41116 195.000
43.43111 204.000
43.45105 199.000
43.47100 192.000
43.49095 202.000
43.51090 176.000
43.53084 193.000
43.55079 175.000
43.57074 197.000
43.59068 186.000
43.61063 207.000
43.63058 158.000
43.65052 176.000
43.67047 185.000
43.69042 202.000
43.71037 174.000
43.73031 166.000
43.75026 204.000
43.77021 170.000
43.79015 167.000
43.81010 191.000
43.83005 172.000
43.84999 177.000
43.86994 172.000
43.88989 191.000
43.90984 144.000
43.92978 180.000
43.94973 197.000
43.96968 196.000
43.98962 203.000
44.00957 196.000
44.02952 156.000
44.04946 207.000
44.06941 191.000
44.08936 185.000
44.10930 191.000
44.12925 184.000
44.14920 231.000
44.16915 207.000
44.18909 219.000
44.20904 202.000
44.22899 200.000
44.24893 183.000
44.26888 204.000
44.28883 229.000
44.30877 233.000
44.32872 225.000
44.34867 227.000
44.36862 257.000
44.38856 266.000
44.40851 276.000
44.42846 299.000
44.44840 300.000
44.46835 315.000
44.48830 356.000
44.50824 345.000
44.52819 390.000
44.54814 391.000
44.56808 412.000
44.58803 446.000
44.60798 429.000
44.62793 423.000
44.64787 467.000
44.66782 436.000
44.68777 433.000
44.70771 422.000
44.72766 379.000
44.74761 354.000
44.76755 330.000
44.78750 276.000
44.80745 286.000
44.82740 247.000
44.84734 255.000
44.86729 247.000
44.88724 220.000
44.90718 213.000
44.92713 211.000
44.94708 197.000
44.96702 203.000
44.98697 207.000
45.00692 177.000
45.02686 192.000
45.04681 217.000
45.06676 168.000
45.08671 177.000
45.10665 172.000
45.12660 180.000
45.14655 182.000
45.16649 177.000
45.18644 177.000
45.20639 181.000
45.22633 191.000
45.24628 186.000
45.26623 177.000
45.28618 162.000
45.30612 163.000
45.32607 182.000
45.34602 166.000
45.36596 171.000
45.38591 188.000
45.40586 166.000
45.42580 179.000
45.44575 167.000
45.46570 164.000
45.48565 189.000
45.50559 157.000
45.52554 168.000
45.54549 176.000
45.56543 155.000
45.58538 186.000
45.60533 183.000
45.62527 186.000
45.64522 173.000
45.66517 167.000
45.68511 181.000
45.70506 188.000
45.72501 160.000
45.74496 197.000
45.76490 177.000
45.78485 197.000
45.80480 189.000
45.82474 160.000
45.84469 164.000
45.86464 177.000
45.88458 168.000
45.90453 157.000
45.92448 163.000
45.94443 173.000
45.96437 172.000
45.98432 195.000
46.00427 175.000
46.02421 181.000
46.04416 188.000
46.06411 190.000
46.08405 186.000
46.10400 182.000
46.12395 185.000
46.14389 201.000
46.16384 196.000
46.18379 201.000
46.20374 191.000
46.22368 187.000
46.24363 173.000
46.26358 187.000
46.28352 194.000
46.30347 187.000
46.32342 180.000
46.34336 197.000
46.36331 188.000
46.38326 186.000
46.40321 180.000
46.42315 179.000
46.44310 175.000
46.46305 175.000
46.48299 170.000
46.50294 159.000
46.52289 172.000
46.54283 185.000
46.56278 181.000
46.58273 193.000
46.60267 171.000
46.62262 152.000
46.64257 158.000
46.66252 178.000
46.68246 177.000
46.70241 200.000
46.72236 174.000
46.74230 174.000
46.76225 170.000
46.78220 189.000
46.80214 167.000
46.82209 167.000
46.84204 166.000
46.86199 177.000
46.88193 182.000
46.90188 177.000
46.92183 160.000
46.94177 187.000
46.96172 196.000
46.98167 165.000
47.00161 180.000
47.02156 175.000
47.04151 208.000
47.06146 171.000
47.08140 173.000
47.10135 156.000
47.12130 189.000
47.14124 161.000
47.16119 161.000
47.18114 171.000
47.20108 192.000
47.22103 156.000
47.24098 173.000
47.26092 155.000
47.28087 182.000
47.30082 193.000
47.32077 165.000
47.34071 177.000
47.36066 167.000
47.38061 151.000
47.40055 172.000
47.42050 187.000
47.44045 175.000
47.46039 181.000
47.48034 168.000
47.50029 186.000
47.52024 207.000
47.54018 165.000
47.56013 174.000
47.58008 182.000
47.60002 157.000
47.61997 172.000
47.63992 182.000
47.65986 185.000
47.67981 185.000
47.69976 199.000
47.71970 166.000
47.73965 195.000
47.75960 206.000
47.77955 173.000
47.79949 191.000
47.81944 213.000
47.83939 181.000
47.85933 203.000
47.87928 209.000
47.89923 191.000
47.91917 216.000
47.93912 197.000
47.95907 203.000
47.97902 224.000
47.99896 254.000
48.01891 226.000
48.03886 237.000
48.05880 266.000
48.07875 262.000
48.09870 273.000
48.11864 307.000
48.13859 355.000
48.15854 346.000
48.17848 426.000
48.19843 511.000
48.21838 532.000
48.23833 610.000
48.25827 649.000
48.27822 744.000
48.29817 853.000
48.31811 833.000
48.33806 888.000
48.35801 784.000
48.37795 752.000
48.39790 762.000
48.41785 769.000
48.43780 690.000
48.45774 685.000
48.47769 585.000
48.49764 605.000
48.51758 555.000
48.53753 573.000
48.55748 524.000
48.57742 495.000
48.59737 464.000
48.61732 494.000
48.63726 388.000
48.65721 381.000
48.67716 377.000
48.69711 345.000
48.71705 359.000
48.73700 317.000
48.75695 279.000
48.77689 279.000
48.79684 221.000
48.81679 255.000
48.83673 221.000
48.85668 207.000
48.87663 194.000
48.89658 216.000
48.91652 203.000
48.93647 212.000
48.95642 190.000
48.97636 203.000
48.99631 201.000
49.01626 179.000
49.03620 188.000
49.05615 178.000
49.07610 181.000
49.09605 164.000
49.11599 156.000
49.13594 159.000
49.15589 180.000
49.17583 179.000
49.19578 197.000
49.21573 188.000
49.23567 188.000
49.25562 172.000
49.27557 168.000
49.29551 201.000
49.31546 191.000
49.33541 193.000
49.35536 167.000
49.37530 176.000
49.39525 189.000
49.41520 190.000
49.43514 171.000
49.45509 180.000
49.47504 167.000
49.49498 166.000
49.51493 161.000
49.53488 178.000
49.55483 179.000
49.57477 191.000
49.59472 179.000
49.61467 162.000
49.63461 188.000
49.65456 173.000
49.67451 173.000
49.69445 146.000
49.71440 162.000
49.73435 209.000
49.75429 166.000
49.77424 196.000
49.79419 170.000
49.81414 172.000
49.83408 185.000
49.85403 151.000
49.87398 175.000
49.89392 195.000
49.91387 159.000
49.93382 178.000
49.95376 178.000
49.97371 161.000
49.99366 163.000
50.01361 164.000
50.03355 184.000
50.05350 176.000
50.07345 174.000
50.09339 150.000
50.11334 164.000
50.13329 182.000
50.15323 161.000
50.17318 193.000
50.19313 165.000
50.21307 160.000
50.23302 177.000
50.25297 157.000
50.27292 183.000
50.29286 172.000
50.31281 179.000
50.33276 184.000
50.35270 177.000
50.37265 151.000
50.39260 168.000
50.41254 190.000
50.43249 175.000
50.45244 156.000
50.47239 171.000
50.49233 158.000
50.51228 167.000
50.53223 180.000
50.55217 170.000
50.57212 150.000
50.59207 170.000
50.61201 166.000
50.63196 171.000
50.65191 173.000
50.67186 189.000
50.69180 159.000
50.71175 176.000
50.73170 166.000
50.75164 169.000
50.77159 176.000
50.79154 180.000
50.81148 167.000
50.83143 168.000
50.85138 167.000
50.87132 160.000
50.89127 180.000
50.91122 158.000
50.93117 132.000
50.95111 181.000
50.97106 177.000
50.99101 174.000
51.01095 138.000
51.03090 158.000
51.05085 189.000
51.07079 185.000
51.09074 177.000
51.11069 191.000
51.13064 196.000
51.15058 178.000
51.17053 167.000
51.19048 175.000
51.21042 213.000
51.23037 177.000
51.25032 190.000
51.27026 191.000
51.29021 224.000
51.31016 196.000
51.33010 172.000
51.35005 196.000
51.37000 170.000
51.38995 179.000
51.40989 157.000
51.42984 174.000
51.44979 181.000
51.46973 153.000
51.48968 162.000
51.50963 150.000
51.52957 177.000
51.54952 162.000
51.56947 163.000
51.58942 176.000
51.60936 192.000
51.62931 195.000
51.64926 160.000
51.66920 188.000
51.68915 156.000
51.70910 188.000
51.72904 188.000
51.74899 176.000
51.76894 182.000
51.78888 176.000
51.80883 147.000
51.82878 163.000
51.84873 188.000
51.86867 162.000
51.88862 170.000
51.90857 171.000
51.92851 205.000
51.94846 164.000
51.96841 163.000
51.98835 166.000
52.00830 169.000
52.02825 183.000
52.04820 171.000
52.06814 212.000
52.08809 206.000
52.10804 197.000
52.12798 210.000
52.14793 208.000
52.16788 230.000
52.18782 211.000
52.20777 221.000
52.22772 238.000
52.24767 229.000
52.26761 259.000
52.28756 236.000
52.30751 301.000
52.32745 244.000
52.34740 237.000
52.36735 248.000
52.38729 247.000
52.40724 268.000
52.42719 267.000
52.44713 229.000
52.46708 267.000
52.48703 276.000
52.50698 267.000
52.52692 293.000
52.54687 254.000
52.56682 288.000
52.58676 265.000
52.60671 287.000
52.62666 271.000
52.64660 228.000
52.66655 271.000
52.68650 218.000
52.70645 230.000
52.72639 234.000
52.74634 214.000
52.76629 225.000
52.78623 196.000
52.80618 184.000
52.82613 181.000
52.84607 212.000
52.86602 194.000
52.88597 207.000
52.90591 161.000
52.92586 169.000
52.94581 191.000
52.96576 161.000
52.98570 173.000
53.00565 177.000
53.02560 179.000
53.04554 184.000
53.06549 218.000
53.08544 162.000
53.10538 187.000
53.12533 175.000
53.14528 195.000
53.16523 175.000
53.18517 203.000
53.20512 215.000
53.22507 174.000
53.24501 216.000
53.26496 200.000
53.28491 230.000
53.30485 223.000
53.32480 229.000
53.34475 207.000
53.36469 222.000
53.38464 237.000
53.40459 223.000
53.42454 226.000
53.44448 240.000
53.46443 240.000
53.48438 240.000
53.50432 233.000
53.52427 241.000
53.54422 199.000
53.56416 220.000
53.58411 214.000
53.60406 212.000
53.62401 201.000
53.64395 217.000
53.66390 215.000
53.68385 191.000
53.70379 190.000
53.72374 205.000
53.74369 199.000
53.76363 176.000
53.78358 172.000
53.80353 185.000
53.82348 177.000
53.84342 185.000
53.86337 171.000
53.88332 177.000
53.90326 164.000
53.92321 179.000
53.94316 187.000
53.96310 183.000
53.98305 181.000
54.00300 169.000
54.02294 181.000
54.04289 167.000
54.06284 169.000
54.08279 158.000
54.10273 189.000
54.12268 166.000
54.14263 181.000
54.16257 166.000
54.18252 160.000
54.20247 142.000
54.22241 177.000
54.24236 172.000
54.26231 185.000
54.28226 182.000
54.30220 179.000
54.32215 158.000
54.34210 171.000
54.36204 183.000
54.38199 177.000
54.40194 185.000
54.42188 175.000
54.44183 161.000
54.46178 164.000
54.48172 196.000
54.50167 160.000
54.52162 209.000
54.54157 153.000
54.56151 193.000
54.58146 194.000
54.60141 168.000
54.62135 166.000
54.64130 167.000
54.66125 182.000
54.68119 161.000
54.70114 167.000
54.72109 148.000
54.74104 174.000
54.76098 183.000
54.78093 171.000
54.80088 177.000
54.82082 169.000
54.84077 169.000
54.86072 174.000
54.88066 188.000
54.90061 165.000
54.92056 177.000
54.94050 171.000
54.96045 161.000
54.98040 177.000
55.00035 174.000
55.02029 196.000
55.04024 155.000
55.06019 178.000
55.08013 176.000
55.10008 157.000
55.12003 179.000
55.13997 187.000
55.15992 163.000
55.17987 180.000
55.19982 146.000
55.21976 167.000
55.23971 169.000
55.25966 172.000
55.27960 187.000
55.29955 184.000
55.31950 164.000
55.33944 171.000
55.35939 170.000
55.37934 188.000
55.39929 158.000
55.41923 162.000
55.43918 149.000
55.45913 177.000
55.47907 175.000
55.49902 156.000
55.51897 156.000
55.53891 181.000
55.55886 161.000
55.57881 188.000
55.59875 175.000
55.61870 176.000
55.63865 154.000
55.65860 179.000
55.67854 174.000
55.69849 185.000
55.71844 145.000
55.73838 181.000
55.75833 167.000
55.77828 155.000
55.79822 174.000
55.81817 170.000
55.83812 166.000
55.85807 171.000
55.87801 169.000
55.89796 164.000
55.91791 153.000
55.93785 191.000
55.95780 181.000
55.97775 170.000
55.99769 187.000
56.01764 187.000
56.03759 178.000
56.05753 179.000
56.07748 186.000
56.09743 183.000
56.11738 178.000
56.13732 165.000
56.15727 171.000
56.17722 167.000
56.19716 163.000
56.21711 190.000
56.23706 180.000
56.25700 181.000
56.27695 166.000
56.29690 165.000
56.31685 183.000
56.33679 184.000
56.35674 173.000
56.37669 180.000
56.39663 196.000
56.41658 183.000
56.43653 199.000
56.45647 184.000
56.47642 211.000
56.49637 209.000
56.51631 190.000
56.53626 228.000
56.55621 204.000
56.57616 217.000
56.59610 195.000
56.61605 230.000
56.63600 224.000
56.65594 193.000
56.67589 226.000
56.69584 214.000
56.71578 255.000
56.73573 222.000
56.75568 224.000
56.77563 219.000
56.79557 235.000
56.81552 211.000
56.83547 224.000
56.85541 204.000
56.87536 234.000
56.89531 233.000
56.91525 232.000
56.93520 239.000
56.95515 235.000
56.97510 243.000
56.99504 240.000
57.01499 243.000
57.03494 224.000
57.05488 272.000
57.07483 287.000
57.09478 274.000
57.11472 270.000
57.13467 289.000
57.15462 252.000
57.17456 294.000
57.19451 268.000
57.21446 261.000
57.23441 243.000
57.25435 224.000
57.27430 265.000
57.29425 237.000
57.31419 254.000
57.33414 205.000
57.35409 206.000
57.37403 221.000
57.39398 185.000
57.41393 183.000
57.43388 203.000
57.45382 169.000
57.47377 192.000
57.49372 208.000
57.51366 180.000
57.53361 182.000
57.55356 177.000
57.57350 181.000
57.59345 186.000
57.61340 169.000
57.63334 170.000
57.65329 183.000
57.67324 168.000
57.69319 172.000
57.71313 190.000
57.73308 157.000
57.75303 177.000
57.77297 187.000
57.79292 198.000
57.81287 191.000
57.83281 182.000
57.85276 177.000
57.87271 206.000
57.89266 180.000
57.91260 205.000
57.93255 190.000
57.95250 172.000
57.97244 193.000
57.99239 195.000
58.01234 220.000
58.03228 199.000
58.05223 212.000
58.07218 238.000
58.09212 240.000
58.11207 277.000
58.13202 239.000
58.15197 278.000
58.17191 314.000
58.19186 286.000
58.21181 276.000
58.23175 277.000
58.25170 291.000
58.27165 225.000
58.29159 248.000
58.31154 250.000
58.33149 230.000
58.35144 250.000
58.37138 223.000
58.39133 221.000
58.41128 210.000
58.43122 233.000
58.45117 155.000
58.47112 182.000
58.49106 166.000
58.51101 183.000
58.53096 194.000
58.55090 182.000
58.57085 164.000
58.59080 175.000
58.61075 189.000
58.63069 176.000
58.65064 189.000
58.67059 179.000
58.69053 152.000
58.71048 188.000
58.73043 185.000
58.75037 179.000
58.77032 164.000
58.79027 174.000
58.81022 185.000
58.83016 159.000
58.85011 166.000
58.87006 207.000
58.89000 179.000
58.90995 181.000
58.92990 166.000
58.94984 170.000
58.96979 177.000
58.98974 173.000
59.00969 152.000
59.02963 170.000
59.04958 194.000
59.06953 159.000
59.08947 188.000
59.10942 146.000
59.12937 190.000
59.14931 174.000
59.16926 172.000
59.18921 213.000
59.20915 171.000
59.22910 193.000
59.24905 176.000
59.26900 185.000
59.28894 165.000
59.30889 183.000
59.32884 166.000
59.34878 170.000
59.36873 171.000
59.38868 176.000
59.40862 194.000
59.42857 181.000
59.44852 182.000
59.46847 164.000
59.48841 161.000
59.50836 188.000
59.52831 147.000
59.54825 175.000
59.56820 160.000
59.58815 182.000
59.60809 166.000
59.62804 164.000
59.64799 172.000
59.66793 178.000
59.68788 166.000
59.70783 186.000
59.72778 147.000
59.74772 182.000
59.76767 152.000
59.78762 169.000
59.80756 184.000
59.82751 161.000
59.84746 178.000
59.86740 173.000
59.88735 170.000
59.90730 175.000
59.92725 166.000
59.94719 171.000
59.96714 169.000
59.98709 191.000
60.00703 162.000
60.02698 170.000
60.04693 157.000
60.06687 171.000
60.08682 156.000
60.10677 177.000
60.12671 180.000
60.14666 177.000
60.16661 171.000
60.18656 155.000
60.20650 146.000
60.22645 165.000
60.24640 193.000
60.26634 180.000
60.28629 173.000
60.30624 173.000
60.32618 186.000
60.34613 196.000
60.36608 161.000
60.38603 186.000
60.40597 158.000
60.42592 178.000
60.44587 186.000
60.46581 162.000
60.48576 181.000
60.50571 160.000
60.52565 166.000
60.54560 163.000
60.56555 175.000
60.58550 153.000
60.60544 171.000
60.62539 166.000
60.64534 186.000
60.66528 172.000
60.68523 168.000
60.70518 172.000
60.72512 170.000
60.74507 177.000
60.76502 163.000
60.78496 167.000
60.80491 182.000
60.82486 170.000
60.84481 179.000
60.86475 172.000
60.88470 179.000
60.90465 145.000
60.92459 182.000
60.94454 182.000
60.96449 156.000
60.98443 187.000
61.00438 172.000
61.02433 186.000
61.04428 178.000
61.06422 168.000
61.08417 190.000
61.10412 200.000
61.12406 193.000
61.14401 226.000
61.16396 207.000
61.18390 238.000
61.20385 226.000
61.22380 212.000
61.24374 238.000
61.26369 251.000
61.28364 264.000
61.30359 315.000
61.32353 332.000
61.34348 323.000
61.36343 358.000
61.38337 425.000
61.40332 467.000
61.42327 511.000
61.44321 496.000
61.46316 544.000
61.48311 518.000
61.50306 582.000
61.52300 537.000
61.54295 532.000
61.56290 484.000
61.58284 504.000
61.60279 459.000
61.62274 429.000
61.64268 449.000
61.66263 400.000
61.68258 354.000
61.70252 370.000
61.72247 316.000
61.74242 283.000
61.76237 297.000
61.78231 238.000
61.80226 245.000
61.82221 270.000
61.84215 207.000
61.86210 226.000
61.88205 235.000
61.90199 210.000
61.92194 211.000
61.94189 203.000
61.96184 198.000
61.98178 198.000
62.00173 217.000
62.02168 185.000
62.04162 192.000
62.06157 188.000
62.08152 201.000
62.10146 198.000
62.12141 210.000
62.14136 198.000
62.16131 217.000
62.18125 195.000
62.20120 182.000
62.22115 177.000
62.24109 197.000
62.26104 167.000
62.28099 192.000
62.30093 163.000
62.32088 167.000
62.34083 175.000
62.36077 181.000
62.38072 163.000
62.40067 167.000
62.42062 154.000
62.44056 192.000
62.46051 192.000
62.48046 172.000
62.50040 187.000
62.52035 203.000
62.54030 194.000
62.56024 169.000
62.58019 205.000
62.60014 191.000
62.62009 167.000
62.64003 203.000
62.65998 216.000
62.67993 208.000
62.69987 189.000
62.71982 219.000
62.73977 230.000
62.75971 265.000
62.77966 210.000
62.79961 218.000
62.81955 271.000
62.83950 224.000
62.85945 227.000
62.87940 249.000
62.89934 245.000
62.91929 290.000
62.93924 281.000
62.95918 255.000
62.97913 234.000
62.99908 258.000
63.01902 268.000
63.03897 241.000
63.05892 237.000
63.07887 246.000
63.09881 242.000
63.11876 275.000
63.13871 244.000
63.15865 224.000
63.17860 240.000
63.19855 230.000
63.21849 257.000
63.23844 223.000
63.25839 258.000
63.27833 263.000
63.29828 260.000
63.31823 273.000
63.33818 277.000
63.35812 292.000
63.37807 295.000
63.39802 322.000
63.41796 297.000
63.43791 326.000
63.45786 339.000
63.47780 322.000
63.49775 373.000
63.51770 352.000
63.53765 369.000
63.55759 356.000
63.57754 324.000
63.59749 356.000
63.61743 310.000
63.63738 326.000
63.65733 314.000
63.67727 321.000
63.69722 305.000
63.71717 294.000
63.73712 303.000
63.75706 294.000
63.77701 293.000
63.79696 260.000
63.81690 272.000
63.83685 213.000
63.85680 232.000
63.87674 212.000
63.89669 233.000
63.91664 207.000
63.93658 232.000
63.95653 229.000
63.97648 196.000
63.99643 192.000
64.01637 194.000
64.03632 192.000
64.05627 192.000
64.07621 180.000
64.09616 182.000
64.11611 197.000
64.13605 208.000
64.15600 158.000
64.17595 179.000
64.19590 186.000
64.21584 176.000
64.23579 178.000
64.25574 174.000
64.27568 190.000
64.29563 200.000
64.31558 180.000
64.33552 192.000
64.35547 158.000
64.37542 172.000
64.39536 169.000
64.41531 181.000
64.43526 176.000
64.45521 187.000
64.47515 198.000
64.49510 177.000
64.51505 162.000
64.53499 169.000
64.55494 173.000
64.57489 171.000
64.59483 171.000
64.61478 168.000
64.63473 155.000
64.65468 155.000
64.67462 190.000
64.69457 178.000
64.71452 169.000
64.73446 168.000
64.75441 193.000
64.77436 195.000
64.79430 180.000
64.81425 170.000
64.83420 190.000
64.85414 159.000
64.87409 167.000
64.89404 195.000
64.91399 175.000
64.93393 194.000
64.95388 177.000
64.97383 183.000
64.99377 160.000
65.01372 179.000
65.03367 190.000
65.05361 176.000
65.07356 214.000
65.09351 196.000
65.11346 173.000
65.13340 208.000
65.15335 229.000
65.17330 211.000
65.19324 215.000
65.21319 206.000
65.23314 206.000
65.25308 235.000
65.27303 211.000
65.29298 227.000
65.31293 244.000
65.33287 237.000
65.35282 232.000
65.37277 269.000
65.39271 243.000
65.41266 237.000
65.43261 226.000
65.45255 260.000
65.47250 259.000
65.49245 264.000
65.51239 255.000
65.53234 266.000
65.55229 266.000
65.57224 256.000
65.59218 288.000
65.61213 306.000
65.63208 299.000
65.65202 305.000
65.67197 278.000
65.69192 328.000
65.71186 321.000
65.73181 344.000
65.75176 331.000
65.77171 316.000
65.79165 354.000
65.81160 341.000
65.83155 344.000
65.85149 331.000
65.87144 385.000
65.89139 377.000
65.91133 358.000
65.93128 370.000
65.95123 406.000
65.97117 376.000
65.99112 373.000
66.01107 425.000
66.03102 440.000
66.05096 383.000
66.07091 408.000
66.09086 376.000
66.11080 374.000
66.13075 393.000
66.15070 375.000
66.17064 346.000
66.19059 327.000
66.21054 321.000
66.23049 308.000
66.25043 261.000
66.27038 312.000
66.29033 284.000
66.31027 291.000
66.33022 301.000
66.35017 279.000
66.37011 266.000
66.39006 274.000
66.41001 245.000
66.42995 281.000
66.44990 246.000
66.46985 288.000
66.48980 263.000
66.50974 284.000
66.52969 260.000
66.54964 255.000
66.56958 236.000
66.58953 251.000
66.60948 263.000
66.62942 253.000
66.64937 232.000
66.66932 259.000
66.68927 236.000
66.70921 240.000
66.72916 240.000
66.74911 198.000
66.76905 207.000
66.78900 202.000
66.80895 210.000
66.82889 190.000
66.84884 171.000
66.86879 171.000
66.88874 211.000
66.90868 183.000
66.92863 194.000
66.94858 172.000
66.96852 174.000
66.98847 181.000
67.00842 192.000
67.02836 171.000
67.04831 189.000
67.06826 176.000
67.08820 190.000
67.10815 212.000
67.12810 206.000
67.14805 186.000
67.16799 206.000
67.18794 191.000
67.20789 183.000
67.22783 185.000
67.24778 201.000
67.26773 217.000
67.28767 187.000
67.30762 208.000
67.32757 207.000
67.34752 185.000
67.36746 183.000
67.38741 176.000
67.40736 206.000
67.42730 204.000
67.44725 199.000
67.46720 172.000
67.48714 226.000
67.50709 233.000
67.52704 205.000
67.54698 195.000
67.56693 215.000
67.58688 216.000
67.60683 218.000
67.62677 186.000
67.64672 206.000
67.66667 215.000
67.68661 209.000
67.70656 238.000
67.72651 224.000
67.74645 236.000
67.76640 231.000
67.78635 234.000
67.80630 262.000
67.82624 237.000
67.84619 241.000
67.86614 265.000
67.88608 287.000
67.90603 269.000
67.92598 274.000
67.94592 291.000
67.96587 288.000
67.98582 298.000
68.00576 301.000
68.02571 307.000
68.04566 287.000
68.06561 267.000
68.08555 279.000
68.10550 273.000
68.12545 260.000
68.14539 259.000
68.16534 247.000
68.18529 226.000
68.20523 251.000
68.22518 224.000
68.24513 216.000
68.26508 208.000
68.28502 185.000
68.30497 196.000
68.32492 192.000
68.34486 220.000
68.36481 186.000
68.38476 195.000
68.40470 179.000
68.42465 219.000
68.44460 195.000
68.46455 184.000
68.48449 169.000
68.50444 155.000
68.52439 167.000
68.54433 152.000
68.56428 195.000
68.58423 156.000
68.60417 160.000
68.62412 179.000
68.64407 146.000
68.66401 178.000
68.68396 178.000
68.70391 177.000
68.72386 168.000
68.74380 186.000
68.76375 174.000
68.78370 162.000
68.80364 181.000
68.82359 160.000
68.84354 176.000
68.86348 182.000
68.88343 181.000
68.90338 185.000
68.92333 169.000
68.94327 181.000
68.96322 160.000
68.98317 164.000
69.00311 175.000
69.02306 164.000
69.04301 184.000
69.06295 166.000
69.08290 179.000
69.10285 182.000
69.12279 161.000
69.14274 181.000
69.16269 169.000
69.18264 193.000
69.20258 202.000
69.22253 156.000
69.24248 179.000
69.26242 157.000
69.28237 193.000
69.30232 177.000
69.32226 178.000
69.34221 196.000
69.36216 171.000
69.38211 182.000
69.40205 161.000
69.42200 154.000
69.44195 164.000
69.46189 151.000
69.48184 160.000
69.50179 169.000
69.52173 158.000
69.54168 196.000
69.56163 171.000
69.58157 171.000
69.60152 160.000
69.62147 156.000
69.64142 152.000
69.66136 180.000
69.68131 161.000
69.70126 170.000
69.72120 155.000
69.74115 176.000
69.76110 172.000
69.78104 145.000
69.80099 152.000
69.82094 180.000
69.84089 192.000
69.86083 162.000
69.88078 170.000
69.90073 161.000
69.92067 160.000
69.94062 179.000
69.96057 159.000
69.98051 179.000
70.00046 182.000
70.02041 166.000
70.04035 140.000
70.06030 171.000
70.08025 168.000
70.10020 174.000
70.12014 179.000
70.14009 173.000
70.16004 167.000
70.17998 169.000
70.19993 164.000
70.21988 175.000
70.23982 142.000
70.25977 164.000
70.27972 156.000
70.29967 178.000
70.31961 164.000
70.33956 153.000
70.35951 167.000
70.37945 170.000
70.39940 177.000
70.41935 152.000
70.43929 191.000
70.45924 177.000
70.47919 151.000
70.49914 171.000
70.51908 172.000
70.53903 166.000
70.55898 185.000
70.57892 163.000
70.59887 194.000
70.61882 184.000
70.63876 163.000
70.65871 179.000
70.67866 168.000
70.69860 152.000
70.71855 175.000
70.73850 169.000
70.75845 172.000
70.77839 157.000
70.79834 183.000
70.81829 166.000
70.83823 178.000
70.85818 175.000
70.87813 167.000
70.89807 158.000
70.91802 163.000
70.93797 157.000
70.95792 169.000
70.97786 200.000
70.99781 159.000
71.01776 153.000
71.03770 163.000
71.05765 169.000
71.07760 160.000
71.09754 183.000
71.11749 174.000
71.13744 167.000
71.15738 146.000
71.17733 162.000
71.19728 188.000
71.21723 177.000
71.23717 182.000
71.25712 196.000
71.27707 181.000
71.29701 164.000
71.31696 178.000
71.33691 177.000
71.35685 154.000
71.37680 168.000
71.39675 159.000
71.41670 162.000
71.43664 156.000
71.45659 187.000
71.47654 165.000
71.49648 182.000
71.51643 185.000
71.53638 173.000
71.55632 182.000
71.57627 158.000
71.59622 167.000
71.61616 164.000
71.63611 172.000
71.65606 167.000
71.67601 192.000
71.69595 178.000
71.71590 171.000
71.73585 169.000
71.75579 164.000
71.77574 192.000
71.79569 184.000
71.81563 185.000
71.83558 199.000
71.85553 175.000
71.87548 158.000
71.89542 172.000
71.91537 193.000
71.93532 207.000
71.95526 182.000
71.97521 186.000
71.99516 168.000
72.01510 211.000
72.03505 181.000
72.05500 192.000
72.07495 174.000
72.09489 180.000
72.11484 197.000
72.13479 187.000
72.15473 205.000
72.17468 208.000
72.19463 223.000
72.21457 227.000
72.23452 191.000
72.25447 245.000
72.27441 214.000
72.29436 240.000
72.31431 208.000
72.33426 222.000
72.35420 216.000
72.37415 221.000
72.39410 260.000
72.41404 229.000
72.43399 226.000
72.45394 199.000
72.47388 257.000
72.49383 218.000
72.51378 243.000
72.53373 258.000
72.55367 263.000
72.57362 229.000
72.59357 236.000
72.61351 252.000
72.63346 222.000
72.65341 247.000
72.67335 246.000
72.69330 256.000
72.71325 265.000
72.73319 269.000
72.75314 236.000
72.77309 236.000
72.79304 225.000
72.81298 241.000
72.83293 231.000
72.85288 247.000
72.87282 252.000
72.89277 253.000
72.91272 228.000
72.93266 274.000
72.95261 233.000
72.97256 242.000
72.99251 227.000
73.01245 224.000
73.03240 229.000
73.05235 198.000
73.07229 223.000
73.09224 201.000
73.11219 219.000
73.13213 197.000
73.15208 201.000
73.17203 214.000
73.19197 205.000
73.21192 184.000
73.23187 198.000
73.25182 204.000
73.27176 184.000
73.29171 170.000
73.31166 172.000
73.33160 169.000
73.35155 196.000
73.37150 164.000
73.39144 189.000
73.41139 163.000
73.43134 174.000
73.45129 168.000
73.47123 185.000
73.49118 146.000
73.51113 183.000
73.53107 169.000
73.55102 165.000
73.57097 176.000
73.59091 162.000
73.61086 180.000
73.63081 165.000
73.65076 178.000
73.67070 155.000
73.69065 160.000
73.71060 159.000
73.73054 159.000
73.75049 152.000
73.77044 169.000
73.79038 154.000
73.81033 184.000
73.83028 169.000
73.85022 169.000
73.87017 154.000
73.89012 154.000
73.91007 153.000
73.93001 156.000
73.94996 171.000
73.96991 161.000
73.98985 177.000
74.00980 186.000
74.02975 192.000
74.04969 168.000
74.06964 174.000
74.08959 171.000
74.10954 166.000
74.12948 173.000
74.14943 175.000
74.16938 149.000
74.18932 190.000
74.20927 189.000
74.22922 179.000
74.24916 166.000
74.26911 177.000
74.28906 191.000
74.30900 179.000
74.32895 161.000
74.34890 192.000
74.36885 192.000
74.38879 172.000
74.40874 194.000
74.42869 180.000
74.44863 187.000
74.46858 177.000
74.48853 196.000
74.50847 186.000
74.52842 189.000
74.54837 160.000
74.56832 170.000
74.58826 173.000
74.60821 202.000
74.62816 197.000
74.64810 201.000
74.66805 190.000
74.68800 207.000
74.70794 182.000
74.72789 206.000
74.74784 189.000
74.76778 204.000
74.78773 207.000
74.80768 194.000
74.82763 225.000
74.84757 251.000
74.86752 215.000
74.88747 240.000
74.90741 235.000
74.92736 241.000
74.94731 226.000
74.96725 223.000
74.98720 236.000
75.00715 193.000
75.02710 230.000
75.04704 248.000
75.06699 240.000
75.08694 269.000
75.10688 259.000
75.12683 270.000
75.14678 239.000
75.16672 270.000
75.18667 234.000
75.20662 238.000
75.22657 268.000
75.24651 218.000
75.26646 239.000
75.28641 207.000
75.30635 199.000
75.32630 223.000
75.34625 200.000
75.36619 230.000
75.38614 186.000
75.40609 213.000
75.42603 194.000
75.44598 210.000
75.46593 179.000
75.48588 198.000
75.50582 180.000
75.52577 184.000
75.54572 197.000
75.56566 186.000
75.58561 178.000
75.60556 198.000
75.62550 182.000
75.64545 166.000
75.66540 164.000
75.68535 185.000
75.70529 188.000
75.72524 192.000
75.74519 187.000
75.76513 188.000
75.78508 180.000
75.80503 204.000
75.82497 165.000
75.84492 183.000
75.86487 171.000
75.88481 185.000
75.90476 171.000
75.92471 145.000
75.94466 183.000
75.96460 168.000
75.98455 173.000
76.00450 200.000
76.02444 177.000
76.04439 173.000
76.06434 180.000
76.08428 176.000
76.10423 168.000
76.12418 193.000
76.14413 176.000
76.16407 193.000
76.18402 194.000
76.20397 146.000
76.22391 164.000
76.24386 169.000
76.26381 169.000
76.28375 185.000
76.30370 170.000
76.32365 181.000
76.34359 170.000
76.36354 161.000
76.38349 180.000
76.40344 175.000
76.42338 194.000
76.44333 151.000
76.46328 163.000
76.48322 169.000
76.50317 170.000
76.52312 158.000
76.54306 179.000
76.56301 189.000
76.58296 204.000
76.60291 179.000
76.62285 190.000
76.64280 180.000
76.66275 191.000
76.68269 146.000
76.70264 185.000
76.72259 168.000
76.74253 172.000
76.76248 181.000
76.78243 188.000
76.80238 169.000
76.82232 168.000
76.84227 180.000
76.86222 170.000
76.88216 202.000
76.90211 177.000
76.92206 181.000
76.94200 202.000
76.96195 181.000
76.98190 171.000
77.00184 182.000
77.02179 213.000
77.04174 188.000
77.06169 185.000
77.08163 199.000
77.10158 212.000
77.12153 201.000
77.14147 205.000
77.16142 233.000
77.18137 186.000
77.20131 191.000
77.22126 218.000
77.24121 193.000
77.26116 188.000
77.28110 213.000
77.30105 236.000
77.32100 194.000
77.34094 199.000
77.36089 206.000
77.38084 198.000
77.40078 211.000
77.42073 206.000
77.44068 203.000
77.46062 204.000
77.48057 197.000
77.50052 210.000
77.52047 221.000
77.54041 195.000
77.56036 192.000
77.58031 190.000
77.60025 241.000
77.62020 236.000
77.64015 212.000
77.66009 227.000
77.68004 215.000
77.69999 226.000
77.71994 219.000
77.73988 230.000
77.75983 205.000
77.77978 246.000
77.79972 234.000
77.81967 199.000
77.83962 229.000
77.85956 221.000
77.87951 218.000
77.89946 234.000
77.91940 235.000
77.93935 215.000
77.95930 191.000
77.97925 232.000
77.99919 197.000
78.01914 212.000
78.03909 204.000
78.05903 217.000
78.07898 211.000
78.09893 202.000
78.11887 176.000
78.13882 194.000
78.15877 200.000
78.17872 219.000
78.19866 190.000
78.21861 200.000
78.23856 174.000
78.25850 196.000
78.27845 202.000
78.29840 215.000
78.31834 191.000
78.33829 187.000
78.35824 207.000
78.37819 165.000
78.39813 189.000
78.41808 189.000
78.43803 189.000
78.45797 151.000
78.47792 199.000
78.49787 188.000
78.51781 164.000
78.53776 159.000
78.55771 186.000
78.57765 152.000
78.59760 187.000
78.61755 176.000
78.63750 188.000
78.65744 183.000
78.67739 171.000
78.69734 189.000
78.71728 187.000
78.73723 164.000
78.75718 163.000
78.77712 176.000
78.79707 183.000
78.81702 163.000
78.83697 166.000
78.85691 185.000
78.87686 209.000
78.89681 162.000
78.91675 151.000
78.93670 177.000
78.95665 177.000
78.97659 155.000
78.99654 176.000
79.01649 167.000
79.03643 158.000
79.05638 174.000
79.07633 187.000
79.09628 148.000
79.11622 204.000
79.13617 162.000
79.15612 173.000
79.17606 174.000
79.19601 179.000
79.21596 157.000
79.23590 145.000
79.25585 166.000
79.27580 157.000
79.29575 149.000
79.31569 174.000
79.33564 175.000
79.35559 161.000
79.37553 188.000
79.39548 167.000
79.41543 167.000
79.43537 151.000
79.45532 181.000
79.47527 182.000
79.49521 177.000
79.51516 166.000
79.53511 172.000
79.55506 179.000
79.57500 176.000
79.59495 164.000
79.61490 156.000
79.63484 190.000
79.65479 163.000
79.67474 171.000
79.69468 158.000
79.71463 193.000
79.73458 190.000
79.75453 168.000
79.77447 169.000
79.79442 187.000
79.81437 165.000
79.83431 175.000
79.85426 163.000
79.87421 182.000
79.89415 167.000
79.91410 201.000
79.93405 169.000
79.95399 152.000
79.97394 192.000
79.99389 189.000
80.01384 187.000
80.03378 183.000
80.05373 175.000
80.07368 212.000
80.09362 183.000
80.11357 206.000
80.13352 189.000
80.15346 170.000
80.17341 176.000
80.19336 205.000
80.21331 173.000
80.23325 190.000
80.25320 207.000
80.27315 171.000
80.29309 175.000
80.31304 176.000
80.33299 147.000
80.35293 173.000
80.37288 186.000
80.39283 159.000
80.41278 200.000
80.43272 176.000
80.45267 170.000
80.47262 160.000
80.49256 162.000
80.51251 169.000
80.53246 179.000
80.55240 182.000
80.57235 168.000
80.59230 195.000
80.61224 156.000
80.63219 183.000
80.65214 182.000
80.67209 197.000
80.69203 171.000
80.71198 195.000
80.73193 188.000
80.75187 175.000
80.77182 181.000
80.79177 167.000
80.81171 191.000
80.83166 186.000
80.85161 164.000
80.87156 184.000
80.89150 192.000
80.91145 169.000
80.93140 180.000
80.95134 174.000
80.97129 169.000
80.99124 196.000
81.01118 186.000
81.03113 191.000
81.05108 189.000
81.07102 164.000
81.09097 184.000
81.11092 185.000
81.13087 178.000
81.15081 171.000
81.17076 184.000
81.19071 179.000
81.21065 189.000
81.23060 170.000
81.25055 175.000
81.27049 174.000
81.29044 160.000
81.31039 182.000
81.33034 154.000
81.35028 169.000
81.37023 169.000
81.39018 168.000
81.41012 176.000
81.43007 165.000
81.45002 157.000
81.46996 162.000
81.48991 158.000
81.50986 212.000
81.52980 156.000
81.54975 160.000
81.56970 198.000
81.58965 178.000
81.60959 177.000
81.62954 180.000
81.64949 158.000
81.66943 156.000
81.68938 180.000
81.70933 148.000
81.72927 158.000
81.74922 218.000
81.76917 163.000
81.78912 183.000
81.80906 175.000
81.82901 165.000
81.84896 156.000
81.86890 159.000
81.88885 169.000
81.90880 178.000
81.92874 176.000
81.94869 188.000
81.96864 179.000
81.98859 172.000
82.00853 175.000
82.02848 168.000
82.04843 166.000
82.06837 193.000
82.08832 163.000
82.10827 196.000
82.12821 181.000
82.14816 193.000
82.16811 178.000
82.18805 218.000
82.20800 201.000
82.22795 202.000
82.24790 190.000
82.26784 179.000
82.28779 211.000
82.30774 179.000
82.32768 185.000
82.34763 186.000
82.36758 206.000
82.38752 180.000
82.40747 178.000
82.42742 205.000
82.44737 202.000
82.46731 200.000
82.48726 199.000
82.50721 186.000
82.52715 186.000
82.54710 176.000
82.56705 199.000
82.58699 168.000
82.60694 166.000
82.62689 185.000
82.64683 201.000
82.66678 169.000
82.68673 175.000
82.70668 195.000
82.72662 181.000
82.74657 173.000
82.76652 174.000
82.78646 175.000
82.80641 175.000
82.82636 188.000
82.84630 207.000
82.86625 182.000
82.88620 176.000
82.90615 176.000
82.92609 202.000
82.94604 173.000
82.96599 200.000
82.98593 190.000
83.00588 187.000
83.02583 198.000
83.04577 184.000
83.06572 195.000
83.08567 181.000
83.10561 171.000
83.12556 196.000
83.14551 179.000
83.16546 203.000
83.18540 183.000
83.20535 194.000
83.22530 176.000
83.24524 199.000
83.26519 192.000
83.28514 200.000
83.30508 184.000
83.32503 187.000
83.34498 190.000
83.36493 211.000
83.38487 199.000
83.40482 217.000
83.42477 210.000
83.44471 195.000
83.46466 214.000
83.48461 231.000
83.50455 226.000
83.52450 192.000
83.54445 190.000
83.56440 196.000
83.58434 219.000
83.60429 227.000
83.62424 226.000
83.64418 227.000
83.66413 215.000
83.68408 244.000
83.70402 244.000
83.72397 211.000
83.74392 241.000
83.76386 251.000
83.78381 237.000
83.80376 231.000
83.82371 236.000
83.84365 217.000
83.86360 194.000
83.88355 242.000
83.90349 219.000
83.92344 224.000
83.94339 225.000
83.96333 224.000
83.98328 213.000
84.00323 203.000
84.02318 232.000
84.04312 204.000
84.06307 243.000
84.08302 197.000
84.10296 210.000
84.12291 220.000
84.14286 197.000
84.16280 198.000
84.18275 193.000
84.20270 204.000
84.22264 186.000
84.24259 189.000
84.26254 164.000
84.28249 189.000
84.30243 163.000
84.32238 179.000
84.34233 188.000
84.36227 173.000
84.38222 179.000
84.40217 179.000
84.42211 170.000
84.44206 172.000
84.46201 200.000
84.48196 154.000
84.50190 188.000
84.52185 172.000
84.54180 154.000
84.56174 163.000
84.58169 151.000
84.60164 165.000
84.62158 149.000
84.64153 185.000
84.66148 161.000
84.68142 167.000
84.70137 161.000
84.72132 159.000
84.74127 139.000
84.76121 165.000
84.78116 162.000
84.80111 140.000
84.82105 146.000
84.84100 164.000
84.86095 161.000
84.88089 157.000
84.90084 159.000
84.92079 168.000
84.94074 162.000
84.96068 176.000
84.98063 161.000
85.00058 164.000
85.02052 178.000
85.04047 168.000
85.06042 182.000
85.08036 156.000
85.10031 166.000
85.12026 152.000
85.14021 160.000
85.16015 153.000
85.18010 165.000
85.20005 172.000
85.21999 180.000
85.23994 172.000
85.25989 171.000
85.27983 161.000
85.29978 159.000
85.31973 155.000
85.33967 161.000
85.35962 148.000
85.37957 173.000
85.39952 176.000
85.41946 165.000
85.43941 165.000
85.45936 192.000
85.47930 161.000
85.49925 147.000
85.51920 173.000
85.53914 171.000
85.55909 148.000
85.57904 188.000
85.59899 165.000
85.61893 175.000
85.63888 183.000
85.65883 166.000
85.67877 188.000
85.69872 177.000
85.71867 169.000
85.73861 184.000
85.75856 174.000
85.77851 201.000
85.79845 162.000
85.81840 170.000
85.83835 164.000
85.85830 165.000
85.87824 177.000
85.89819 171.000
85.91814 165.000
85.93808 195.000
85.95803 163.000
85.97798 152.000
85.99792 210.000
86.01787 184.000
86.03782 167.000
86.05777 172.000
86.07771 172.000
86.09766 188.000
86.11761 160.000
86.13755 191.000
86.15750 183.000
86.17745 181.000
86.19739 179.000
86.21734 186.000
86.23729 156.000
86.25723 167.000
86.27718 183.000
86.29713 210.000
86.31708 201.000
86.33702 179.000
86.35697 194.000
86.37692 198.000
86.39686 188.000
86.41681 181.000
86.43676 186.000
86.45670 203.000
86.47665 204.000
86.49660 158.000
86.51655 194.000
86.53649 179.000
86.55644 201.000
86.57639 208.000
86.59633 204.000
86.61628 206.000
86.63623 175.000
86.65617 208.000
86.67612 181.000
86.69607 177.000
86.71602 200.000
86.73596 189.000
86.75591 183.000
86.77586 208.000
86.79580 209.000
86.81575 206.000
86.83570 207.000
86.85564 194.000
86.87559 200.000
86.89554 194.000
86.91548 170.000
86.93543 191.000
86.95538 196.000
86.97533 182.000
86.99527 158.000
87.01522 173.000
87.03517 176.000
87.05511 173.000
87.07506 191.000
87.09501 198.000
87.11495 197.000
87.13490 180.000
87.15485 164.000
87.17480 179.000
87.19474 194.000
87.21469 150.000
87.23464 158.000
87.25458 168.000
87.27453 183.000
87.29448 162.000
87.31442 165.000
87.33437 169.000
87.35432 171.000
87.37426 166.000
87.39421 156.000
87.41416 187.000
87.43411 165.000
87.45405 175.000
87.47400 165.000
87.49395 175.000
87.51389 170.000
87.53384 157.000
87.55379 147.000
87.57373 158.000
87.59368 187.000
87.61363 169.000
87.63358 184.000
87.65352 188.000
87.67347 173.000
87.69342 157.000
87.71336 162.000
87.73331 176.000
87.75326 162.000
87.77320 170.000
87.79315 163.000
87.81310 175.000
87.83304 178.000
87.85299 143.000
87.87294 163.000
87.89289 157.000
87.91283 169.000
87.93278 166.000
87.95273 166.000
87.97267 169.000
87.99262 167.000
88.01257 135.000
88.03251 168.000
88.05246 171.000
88.07241 134.000
88.09236 164.000
88.11230 168.000
88.13225 167.000
88.15220 160.000
88.17214 148.000
88.19209 170.000
88.21204 153.000
88.23198 177.000
88.25193 170.000
88.27188 161.000
88.29183 171.000
88.31177 182.000
88.33172 166.000
88.35167 174.000
88.37161 141.000
88.39156 165.000
88.41151 189.000
88.43145 178.000
88.45140 160.000
88.47135 140.000
88.49129 158.000
88.51124 168.000
88.53119 184.000
88.55114 181.000
88.57108 187.000
88.59103 140.000
88.61098 180.000
88.63092 165.000
88.65087 147.000
88.67082 188.000
88.69076 181.000
88.71071 183.000
88.73066 168.000
88.75061 172.000
88.77055 160.000
88.79050 181.000
88.81045 159.000
88.83039 170.000
88.85034 157.000
88.87029 171.000
88.89023 166.000
88.91018 172.000
88.93013 185.000
88.95007 162.000
88.97002 156.000
88.98997 166.000
89.00992 160.000
89.02986 154.000
89.04981 198.000
89.06976 180.000
89.08970 150.000
89.10965 167.000
89.12960 181.000
89.14954 154.000
89.16949 196.000
89.18944 148.000
89.20939 166.000
89.22933 194.000
89.24928 164.000
89.26923 168.000
89.28917 192.000
89.30912 162.000
89.32907 162.000
89.34901 188.000
89.36896 165.000
89.38891 153.000
89.40885 160.000
89.42880 162.000
89.44875 184.000
89.46870 198.000
89.48864 179.000
89.50859 166.000
89.52854 178.000
89.54848 170.000
89.56843 194.000
89.58838 175.000
89.60832 192.000
89.62827 183.000
89.64822 189.000
89.66817 170.000
89.68811 210.000
89.70806 205.000
89.72801 192.000
89.74795 187.000
89.76790 196.000
89.78785 180.000
89.80779 200.000
89.82774 193.000
89.84769 208.000
89.86764 215.000
89.88758 175.000
89.90753 211.000
89.92748 193.000
89.94742 195.000
89.96737 212.000
89.98732 205.000
90.00726 191.000
