10.00000 81.000
10.01995 82.000
10.03989 82.000
10.05984 85.000
10.07979 77.000
10.09973 89.000
10.11968 73.000
10.13963 96.000
10.15958 89.000
10.17952 89.000
10.19947 98.000
10.21942 84.000
10.23936 102.000
10.25931 71.000
10.27926 85.000
10.29920 77.000
10.31915 94.000
10.33910 92.000
10.35905 88.000
10.37899 88.000
10.39894 82.000
10.41889 70.000
10.43883 80.000
10.45878 91.000
10.47873 89.000
10.49867 93.000
10.51862 92.000
10.53857 80.000
10.55851 68.000
10.57846 77.000
10.59841 111.000
10.61836 88.000
10.63830 83.000
10.65825 75.000
10.67820 83.000
10.69814 72.000
10.71809 93.000
10.73804 89.000
10.75798 85.000
10.77793 82.000
10.79788 67.000
10.81783 86.000
10.83777 98.000
10.85772 88.000
10.87767 83.000
10.89761 80.000
10.91756 87.000
10.93751 80.000
10.95745 81.000
10.97740 81.000
10.99735 108.000
11.01730 82.000
11.03724 75.000
11.05719 85.000
11.07714 92.000
11.09708 97.000
11.11703 102.000
11.13698 92.000
11.15692 98.000
11.17687 87.000
11.19682 90.000
11.21676 101.000
11.23671 80.000
11.25666 81.000
11.27661 73.000
11.29655 77.000
11.31650 74.000
11.33645 71.000
11.35639 85.000
11.37634 95.000
11.39629 80.000
11.41623 97.000
11.43618 82.000
11.45613 86.000
11.47608 72.000
11.49602 72.000
11.51597 78.000
11.53592 75.000
11.55586 95.000
11.57581 79.000
11.59576 82.000
11.61570 84.000
11.63565 77.000
11.65560 73.000
11.67554 102.000
11.69549 81.000
11.71544 97.000
11.73539 96.000
11.75533 77.000
11.77528 66.000
11.79523 65.000
11.81517 86.000
11.83512 71.000
11.85507 88.000
11.87501 97.000
11.89496 94.000
11.91491 75.000
11.93486 73.000
11.95480 100.000
11.97475 89.000
11.99470 96.000
12.01464 90.000
12.03459 85.000
12.05454 79.000
12.07448 70.000
12.09443 85.000
12.11438 80.000
12.13432 78.000
12.15427 76.000
12.17422 92.000
12.19417 81.000
12.21411 70.000
12.23406 83.000
12.25401 74.000
12.27395 96.000
12.29390 86.000
12.31385 86.000
12.33379 70.000
12.35374 88.000
12.37369 85.000
12.39364 71.000
12.41358 80.000
12.43353 81.000
12.45348 80.000
12.47342 83.000
12.49337 93.000
12.51332 95.000
12.53326 105.000
12.55321 95.000
12.57316 81.000
12.59311 85.000
12.61305 85.000
12.63300 71.000
12.65295 84.000
12.67289 86.000
12.69284 74.000
12.71279 86.000
12.73273 79.000
12.75268 75.000
12.77263 97.000
12.79257 75.000
12.81252 78.000
12.83247 82.000
12.85242 82.000
12.87236 86.000
12.89231 88.000
12.91226 76.000
12.93220 58.000
12.95215 88.000
12.97210 77.000
12.99204 80.000
13.01199 80.000
13.03194 89.000
13.05189 86.000
13.07183 79.000
13.09178 86.000
13.11173 95.000
13.13167 84.000
13.15162 77.000
13.17157 88.000
13.19151 71.000
13.21146 67.000
13.23141 91.000
13.25135 101.000
13.27130 73.000
13.29125 69.000
13.31120 75.000
13.33114 74.000
13.35109 98.000
13.37104 82.000
13.39098 82.000
13.41093 65.000
13.43088 80.000
13.45082 74.000
13.47077 68.000
13.49072 92.000
13.51067 92.000
13.53061 91.000
13.55056 85.000
13.57051 95.000
13.59045 90.000
13.61040 89.000
13.63035 89.000
13.65029 72.000
13.67024 88.000
13.69019 84.000
13.71013 88.000
13.73008 68.000
13.75003 83.000
13.76998 94.000
13.78992 82.000
13.80987 94.000
13.82982 76.000
13.84976 79.000
13.86971 84.000
13.88966 75.000
13.90960 84.000
13.92955 95.000
13.94950 88.000
13.96945 88.000
13.98939 77.000
14.00934 82.000
14.02929 91.000
14.04923 72.000
14.06918 87.000
14.08913 86.000
14.10907 94.000
14.12902 76.000
14.14897 80.000
14.16892 81.000
14.18886 103.000
14.20881 93.000
14.22876 80.000
14.24870 97.000
14.26865 86.000
14.28860 69.000
14.30854 88.000
14.32849 97.000
14.34844 77.000
14.36838 93.000
14.38833 85.000
14.40828 90.000
14.42823 82.000
14.44817 94.000
14.46812 67.000
14.48807 99.000
14.50801 70.000
14.52796 89.000
14.54791 78.000
14.56785 90.000
14.58780 72.000
14.60775 101.000
14.62770 89.000
14.64764 89.000
14.66759 121.000
14.68754 86.000
14.70748 66.000
14.72743 94.000
14.74738 94.000
14.76732 83.000
14.78727 81.000
14.80722 111.000
14.82716 101.000
14.84711 89.000
14.86706 75.000
14.88701 104.000
14.90695 78.000
14.92690 106.000
14.94685 86.000
14.96679 108.000
14.98674 85.000
15.00669 116.000
15.02663 110.000
15.04658 116.000
15.06653 115.000
15.08648 117.000
15.10642 124.000
15.12637 132.000
15.14632 119.000
15.16626 144.000
15.18621 141.000
15.20616 126.000
15.22610 105.000
15.24605 131.000
15.26600 127.000
15.28594 130.000
15.30589 137.000
15.32584 138.000
15.34579 146.000
15.36573 141.000
15.38568 184.000
15.40563 168.000
15.42557 141.000
15.44552 146.000
15.46547 199.000
15.48541 165.000
15.50536 179.000
15.52531 200.000
15.54526 208.000
15.56520 226.000
15.58515 238.000
15.60510 315.000
15.62504 385.000
15.64499 459.000
15.66494 648.000
15.68488 928.000
15.70483 1402.000
15.72478 2134.000
15.74472 3061.000
15.76467 4503.000
15.78462 6311.000
15.80457 8046.000
15.82451 9495.000
15.84446 9746.000
15.86441 8672.000
15.88435 7106.000
15.90430 5195.000
15.92425 3123.000
15.94419 1769.000
15.96414 1035.000
15.98409 781.000
16.00404 782.000
16.02398 952.000
16.04393 1296.000
16.06388 1726.000
16.08382 2095.000
16.10377 2544.000
16.12372 2850.000
16.14366 2834.000
16.16361 2515.000
16.18356 2145.000
16.20351 1515.000
16.22345 1097.000
16.24340 730.000
16.26335 531.000
16.28329 346.000
16.30324 251.000
16.32319 217.000
16.34313 194.000
16.36308 169.000
16.38303 161.000
16.40297 174.000
16.42292 155.000
16.44287 140.000
16.46282 155.000
16.48276 124.000
16.50271 147.000
16.52266 142.000
16.54260 115.000
16.56255 121.000
16.58250 113.000
16.60244 111.000
16.62239 93.000
16.64234 92.000
16.66229 133.000
16.68223 124.000
16.70218 108.000
16.72213 95.000
16.74207 110.000
16.76202 128.000
16.78197 110.000
16.80191 102.000
16.82186 102.000
16.84181 104.000
16.86175 100.000
16.88170 111.000
16.90165 103.000
16.92160 107.000
16.94154 114.000
16.96149 120.000
16.98144 91.000
17.00138 95.000
17.02133 104.000
17.04128 116.000
17.06122 97.000
17.08117 117.000
17.10112 96.000
17.12107 115.000
17.14101 105.000
17.16096 105.000
17.18091 76.000
17.20085 86.000
17.22080 84.000
17.24075 85.000
17.26069 67.000
17.28064 115.000
17.30059 98.000
17.32053 82.000
17.34048 80.000
17.36043 100.000
17.38038 97.000
17.40032 103.000
17.42027 87.000
17.44022 104.000
17.46016 77.000
17.48011 87.000
17.50006 74.000
17.52000 87.000
17.53995 84.000
17.55990 80.000
17.57985 103.000
17.59979 89.000
17.61974 90.000
17.63969 99.000
17.65963 77.000
17.67958 72.000
17.69953 92.000
17.71947 74.000
17.73942 85.000
17.75937 95.000
17.77932 99.000
17.79926 80.000
17.81921 86.000
17.83916 84.000
17.85910 76.000
17.87905 102.000
17.89900 98.000
17.91894 86.000
17.93889 77.000
17.95884 70.000
17.97878 87.000
17.99873 80.000
18.01868 96.000
18.03863 85.000
18.05857 93.000
18.07852 78.000
18.09847 79.000
18.11841 77.000
18.13836 89.000
18.15831 93.000
18.17825 86.000
18.19820 77.000
18.21815 102.000
18.23810 98.000
18.25804 122.000
18.27799 95.000
18.29794 138.000
18.31788 131.000
18.33783 158.000
18.35778 142.000
18.37772 144.000
18.39767 139.000
18.41762 99.000
18.43756 107.000
18.45751 98.000
18.47746 109.000
18.49741 72.000
18.51735 97.000
18.53730 87.000
18.55725 88.000
18.57719 82.000
18.59714 80.000
18.61709 88.000
18.63703 77.000
18.65698 83.000
18.67693 84.000
18.69688 83.000
18.71682 82.000
18.73677 67.000
18.75672 84.000
18.77666 92.000
18.79661 73.000
18.81656 88.000
18.83650 71.000
18.85645 88.000
18.87640 82.000
18.89634 81.000
18.91629 75.000
18.93624 77.000
18.95619 69.000
18.97613 66.000
18.99608 77.000
19.01603 84.000
19.03597 79.000
19.05592 65.000
19.07587 88.000
19.09581 67.000
19.11576 89.000
19.13571 87.000
19.15566 69.000
19.17560 80.000
19.19555 86.000
19.21550 100.000
19.23544 91.000
19.25539 86.000
19.27534 96.000
19.29528 82.000
19.31523 77.000
19.33518 84.000
19.35513 87.000
19.37507 70.000
19.39502 80.000
19.41497 71.000
19.43491 72.000
19.45486 90.000
19.47481 76.000
19.49475 79.000
19.51470 93.000
19.53465 72.000
19.55459 80.000
19.57454 89.000
19.59449 86.000
19.61444 78.000
19.63438 67.000
19.65433 87.000
19.67428 79.000
19.69422 99.000
19.71417 72.000
19.73412 84.000
19.75406 75.000
19.77401 76.000
19.79396 76.000
19.81391 67.000
19.83385 67.000
19.85380 74.000
19.87375 74.000
19.89369 71.000
19.91364 80.000
19.93359 71.000
19.95353 67.000
19.97348 81.000
19.99343 80.000
20.01337 86.000
20.03332 75.000
20.05327 81.000
20.07322 64.000
20.09316 88.000
20.11311 97.000
20.13306 82.000
20.15300 78.000
20.17295 86.000
20.19290 68.000
20.21284 84.000
20.23279 82.000
20.25274 90.000
20.27269 69.000
20.29263 84.000
20.31258 87.000
20.33253 79.000
20.35247 81.000
20.37242 81.000
20.39237 80.000
20.41231 85.000
20.43226 79.000
20.45221 90.000
20.47215 68.000
20.49210 94.000
20.51205 83.000
20.53200 83.000
20.55194 83.000
20.57189 100.000
20.59184 80.000
20.61178 74.000
20.63173 89.000
20.65168 88.000
20.67162 86.000
20.69157 83.000
20.71152 109.000
20.73147 81.000
20.75141 99.000
20.77136 119.000
20.79131 139.000
20.81125 150.000
20.83120 198.000
20.85115 172.000
20.87109 191.000
20.89104 173.000
20.91099 194.000
20.93094 157.000
20.95088 182.000
20.97083 137.000
20.99078 148.000
21.01072 123.000
21.03067 141.000
21.05062 116.000
21.07056 118.000
21.09051 110.000
21.11046 112.000
21.13040 113.000
21.15035 90.000
21.17030 89.000
21.19025 85.000
21.21019 91.000
21.23014 91.000
21.25009 90.000
21.27003 89.000
21.28998 93.000
21.30993 101.000
21.32987 82.000
21.34982 87.000
21.36977 80.000
21.38972 89.000
21.40966 79.000
21.42961 79.000
21.44956 67.000
21.46950 84.000
21.48945 81.000
21.50940 78.000
21.52934 92.000
21.54929 63.000
21.56924 79.000
21.58918 62.000
21.60913 78.000
21.62908 77.000
21.64903 87.000
21.66897 89.000
21.68892 81.000
21.70887 79.000
21.72881 76.000
21.74876 83.000
21.76871 72.000
21.78865 83.000
21.80860 76.000
21.82855 78.000
21.84850 86.000
21.86844 83.000
21.88839 77.000
21.90834 93.000
21.92828 75.000
21.94823 70.000
21.96818 62.000
21.98812 80.000
22.00807 65.000
22.02802 90.000
22.04796 88.000
22.06791 95.000
22.08786 82.000
22.10781 94.000
22.12775 63.000
22.14770 75.000
22.16765 77.000
22.18759 90.000
22.20754 76.000
22.22749 78.000
22.24743 82.000
22.26738 79.000
22.28733 85.000
22.30728 80.000
22.32722 75.000
22.34717 93.000
22.36712 85.000
22.38706 76.000
22.40701 72.000
22.42696 86.000
22.44690 76.000
22.46685 86.000
22.48680 80.000
22.50675 86.000
22.52669 86.000
22.54664 84.000
22.56659 86.000
22.58653 80.000
22.60648 86.000
22.62643 77.000
22.64637 70.000
22.66632 80.000
22.68627 67.000
22.70621 83.000
22.72616 77.000
22.74611 79.000
22.76606 81.000
22.78600 85.000
22.80595 79.000
22.82590 77.000
22.84584 92.000
22.86579 74.000
22.88574 69.000
22.90568 73.000
22.92563 78.000
22.94558 92.000
22.96553 83.000
22.98547 84.000
23.00542 85.000
23.02537 92.000
23.04531 101.000
23.06526 95.000
23.08521 85.000
23.10515 81.000
23.12510 65.000
23.14505 94.000
23.16499 72.000
23.18494 91.000
23.20489 81.000
23.22484 70.000
23.24478 101.000
23.26473 63.000
23.28468 78.000
23.30462 83.000
23.32457 68.000
23.34452 89.000
23.36446 88.000
23.38441 87.000
23.40436 91.000
23.42431 80.000
23.44425 86.000
23.46420 78.000
23.48415 90.000
23.50409 83.000
23.52404 91.000
23.54399 97.000
23.56393 72.000
23.58388 89.000
23.60383 82.000
23.62377 83.000
23.64372 97.000
23.66367 87.000
23.68362 106.000
23.70356 68.000
23.72351 92.000
23.74346 75.000
23.76340 78.000
23.78335 90.000
23.80330 84.000
23.82324 80.000
23.84319 88.000
23.86314 81.000
23.88309 78.000
23.90303 81.000
23.92298 104.000
23.94293 97.000
23.96287 77.000
23.98282 70.000
24.00277 83.000
24.02271 86.000
24.04266 82.000
24.06261 90.000
24.08256 76.000
24.10250 72.000
24.12245 85.000
24.14240 74.000
24.16234 93.000
24.18229 67.000
24.20224 89.000
24.22218 92.000
24.24213 77.000
24.26208 75.000
24.28202 76.000
24.30197 81.000
24.32192 92.000
24.34187 78.000
24.36181 74.000
24.38176 67.000
24.40171 70.000
24.42165 84.000
24.44160 69.000
24.46155 70.000
24.48149 86.000
24.50144 77.000
24.52139 78.000
24.54134 76.000
24.56128 84.000
24.58123 75.000
24.60118 66.000
24.62112 77.000
24.64107 81.000
24.66102 92.000
24.68096 84.000
24.70091 88.000
24.72086 79.000
24.74080 80.000
24.76075 74.000
24.78070 73.000
24.80065 87.000
24.82059 87.000
24.84054 91.000
24.86049 75.000
24.88043 104.000
24.90038 81.000
24.92033 75.000
24.94027 74.000
24.96022 92.000
24.98017 94.000
25.00012 82.000
25.02006 88.000
25.04001 77.000
25.05996 79.000
25.07990 90.000
25.09985 82.000
25.11980 90.000
25.13974 87.000
25.15969 85.000
25.17964 94.000
25.19958 66.000
25.21953 88.000
25.23948 78.000
25.25943 75.000
25.27937 84.000
25.29932 95.000
25.31927 86.000
25.33921 96.000
25.35916 94.000
25.37911 84.000
25.39905 70.000
25.41900 91.000
25.43895 65.000
25.45890 80.000
25.47884 71.000
25.49879 83.000
25.51874 67.000
25.53868 74.000
25.55863 90.000
25.57858 82.000
25.59852 72.000
25.61847 88.000
25.63842 82.000
25.65837 72.000
25.67831 99.000
25.69826 83.000
25.71821 86.000
25.73815 94.000
25.75810 80.000
25.77805 91.000
25.79799 97.000
25.81794 94.000
25.83789 89.000
25.85783 98.000
25.87778 75.000
25.89773 73.000
25.91768 92.000
25.93762 89.000
25.95757 97.000
25.97752 77.000
25.99746 88.000
26.01741 104.000
26.03736 76.000
26.05730 86.000
26.07725 78.000
26.09720 87.000
26.11715 92.000
26.13709 80.000
26.15704 75.000
26.17699 78.000
26.19693 87.000
26.21688 84.000
26.23683 88.000
26.25677 83.000
26.27672 63.000
26.29667 87.000
26.31661 93.000
26.33656 83.000
26.35651 71.000
26.37646 89.000
26.39640 81.000
26.41635 77.000
26.43630 83.000
26.45624 91.000
26.47619 72.000
26.49614 90.000
26.51608 89.000
26.53603 85.000
26.55598 95.000
26.57593 92.000
26.59587 92.000
26.61582 87.000
26.63577 70.000
26.65571 106.000
26.67566 91.000
26.69561 65.000
26.71555 92.000
26.73550 75.000
26.75545 99.000
26.77539 91.000
26.79534 96.000
26.81529 72.000
26.83524 96.000
26.85518 77.000
26.87513 97.000
26.89508 75.000
26.91502 84.000
26.93497 97.000
26.95492 91.000
26.97486 82.000
26.99481 89.000
27.01476 100.000
27.03471 96.000
27.05465 98.000
27.07460 86.000
27.09455 81.000
27.11449 75.000
27.13444 100.000
27.15439 97.000
27.17433 80.000
27.19428 88.000
27.21423 91.000
27.23417 87.000
27.25412 68.000
27.27407 83.000
27.29402 116.000
27.31396 89.000
27.33391 91.000
27.35386 98.000
27.37380 82.000
27.39375 73.000
27.41370 109.000
27.43364 89.000
27.45359 68.000
27.47354 93.000
27.49349 88.000
27.51343 100.000
27.53338 95.000
27.55333 96.000
27.57327 100.000
27.59322 79.000
27.61317 91.000
27.63311 94.000
27.65306 78.000
27.67301 103.000
27.69296 93.000
27.71290 70.000
27.73285 87.000
27.75280 86.000
27.77274 83.000
27.79269 83.000
27.81264 86.000
27.83258 86.000
27.85253 88.000
27.87248 84.000
27.89242 89.000
27.91237 85.000
27.93232 77.000
27.95227 97.000
27.97221 89.000
27.99216 100.000
28.01211 89.000
28.03205 92.000
28.05200 116.000
28.07195 75.000
28.09189 86.000
28.11184 84.000
28.13179 86.000
28.15174 93.000
28.17168 89.000
28.19163 94.000
28.21158 92.000
28.23152 107.000
28.25147 74.000
28.27142 88.000
28.29136 87.000
28.31131 86.000
28.33126 70.000
28.35120 82.000
28.37115 82.000
28.39110 90.000
28.41105 91.000
28.43099 68.000
28.45094 82.000
28.47089 81.000
28.49083 83.000
28.51078 81.000
28.53073 87.000
28.55067 89.000
28.57062 73.000
28.59057 86.000
28.61052 83.000
28.63046 93.000
28.65041 88.000
28.67036 92.000
28.69030 89.000
28.71025 82.000
28.73020 87.000
28.75014 95.000
28.77009 75.000
28.79004 100.000
28.80998 92.000
28.82993 102.000
28.84988 99.000
28.86983 76.000
28.88977 82.000
28.90972 80.000
28.92967 80.000
28.94961 86.000
28.96956 80.000
28.98951 86.000
29.00945 81.000
29.02940 85.000
29.04935 92.000
29.06930 85.000
29.08924 104.000
29.10919 99.000
29.12914 85.000
29.14908 93.000
29.16903 97.000
29.18898 88.000
29.20892 89.000
29.22887 103.000
29.24882 95.000
29.26877 98.000
29.28871 104.000
29.30866 96.000
29.32861 125.000
29.34855 97.000
29.36850 95.000
29.38845 108.000
29.40839 115.000
29.42834 90.000
29.44829 92.000
29.46823 106.000
29.48818 114.000
29.50813 94.000
29.52808 97.000
29.54802 89.000
29.56797 108.000
29.58792 78.000
29.60786 91.000
29.62781 83.000
29.64776 108.000
29.66770 74.000
29.68765 86.000
29.70760 80.000
29.72755 85.000
29.74749 100.000
29.76744 89.000
29.78739 98.000
29.80733 83.000
29.82728 101.000
29.84723 80.000
29.86717 86.000
29.88712 92.000
29.90707 109.000
29.92701 97.000
29.94696 100.000
29.96691 108.000
29.98686 86.000
30.00680 97.000
30.02675 112.000
30.04670 121.000
30.06664 135.000
30.08659 163.000
30.10654 153.000
30.12648 165.000
30.14643 168.000
30.16638 183.000
30.18633 203.000
30.20627 187.000
30.22622 184.000
30.24617 200.000
30.26611 169.000
30.28606 140.000
30.30601 139.000
30.32595 121.000
30.34590 136.000
30.36585 112.000
30.38579 100.000
30.40574 116.000
30.42569 117.000
30.44564 100.000
30.46558 73.000
30.48553 103.000
30.50548 90.000
30.52542 108.000
30.54537 101.000
30.56532 110.000
30.58526 82.000
30.60521 96.000
30.62516 124.000
30.64511 96.000
30.66505 86.000
30.68500 115.000
30.70495 80.000
30.72489 88.000
30.74484 91.000
30.76479 102.000
30.78473 87.000
30.80468 91.000
30.82463 89.000
30.84458 98.000
30.86452 96.000
30.88447 90.000
30.90442 108.000
30.92436 90.000
30.94431 109.000
30.96426 95.000
30.98420 82.000
31.00415 105.000
31.02410 98.000
31.04404 95.000
31.06399 113.000
31.08394 101.000
31.10389 84.000
31.12383 101.000
31.14378 93.000
31.16373 106.000
31.18367 112.000
31.20362 98.000
31.22357 107.000
31.24351 88.000
31.26346 91.000
31.28341 101.000
31.30336 81.000
31.32330 97.000
31.34325 93.000
31.36320 96.000
31.38314 80.000
31.40309 105.000
31.42304 95.000
31.44298 88.000
31.46293 77.000
31.48288 110.000
31.50282 106.000
31.52277 122.000
31.54272 89.000
31.56267 80.000
31.58261 94.000
31.60256 112.000
31.62251 95.000
31.64245 117.000
31.66240 117.000
31.68235 113.000
31.70229 118.000
31.72224 94.000
31.74219 133.000
31.76214 112.000
31.78208 120.000
31.80203 166.000
31.82198 211.000
31.84192 214.000
31.86187 271.000
31.88182 355.000
31.90176 373.000
31.92171 472.000
31.94166 581.000
31.96160 657.000
31.98155 788.000
32.00150 749.000
32.02145 836.000
32.04139 724.000
32.06134 720.000
32.08129 714.000
32.10123 637.000
32.12118 454.000
32.14113 398.000
32.16107 322.000
32.18102 269.000
32.20097 200.000
32.22092 170.000
32.24086 132.000
32.26081 152.000
32.28076 111.000
32.30070 138.000
32.32065 142.000
32.34060 135.000
32.36054 114.000
32.38049 135.000
32.40044 154.000
32.42039 157.000
32.44033 167.000
32.46028 183.000
32.48023 217.000
32.50017 239.000
32.52012 257.000
32.54007 275.000
32.56001 275.000
32.57996 300.000
32.59991 335.000
32.61985 303.000
32.63980 324.000
32.65975 306.000
32.67970 292.000
32.69964 284.000
32.71959 235.000
32.73954 244.000
32.75948 213.000
32.77943 192.000
32.79938 162.000
32.81932 154.000
32.83927 153.000
32.85922 122.000
32.87917 130.000
32.89911 123.000
32.91906 118.000
32.93901 97.000
32.95895 110.000
32.97890 106.000
32.99885 117.000
33.01879 99.000
33.03874 99.000
33.05869 118.000
33.07863 80.000
33.09858 98.000
33.11853 92.000
33.13848 106.000
33.15842 100.000
33.17837 100.000
33.19832 92.000
33.21826 120.000
33.23821 98.000
33.25816 112.000
33.27810 100.000
33.29805 89.000
33.31800 76.000
33.33795 105.000
33.35789 90.000
33.37784 83.000
33.39779 82.000
33.41773 85.000
33.43768 93.000
33.45763 111.000
33.47757 94.000
33.49752 101.000
33.51747 89.000
33.53741 86.000
33.55736 106.000
33.57731 99.000
33.59726 108.000
33.61720 98.000
33.63715 98.000
33.65710 98.000
33.67704 111.000
33.69699 102.000
33.71694 82.000
33.73688 101.000
33.75683 85.000
33.77678 96.000
33.79673 80.000
33.81667 80.000
33.83662 82.000
33.85657 113.000
33.87651 111.000
33.89646 96.000
33.91641 96.000
33.93635 95.000
33.95630 114.000
33.97625 106.000
33.99620 121.000
34.01614 93.000
34.03609 104.000
34.05604 105.000
34.07598 110.000
34.09593 107.000
34.11588 108.000
34.13582 129.000
34.15577 109.000
34.17572 95.000
34.19566 150.000
34.21561 109.000
34.23556 133.000
34.25551 143.000
34.27545 135.000
34.29540 156.000
34.31535 164.000
34.33529 150.000
34.35524 194.000
34.37519 202.000
34.39513 219.000
34.41508 212.000
34.43503 196.000
34.45498 194.000
34.47492 194.000
34.49487 188.000
34.51482 151.000
34.53476 172.000
34.55471 176.000
34.57466 176.000
34.59460 156.000
34.61455 156.000
34.63450 152.000
34.65444 139.000
34.67439 141.000
34.69434 150.000
34.71429 128.000
34.73423 122.000
34.75418 144.000
34.77413 135.000
34.79407 142.000
34.81402 104.000
34.83397 128.000
34.85391 120.000
34.87386 134.000
34.89381 113.000
34.91376 122.000
34.93370 113.000
34.95365 94.000
34.97360 120.000
34.99354 105.000
35.01349 88.000
35.03344 101.000
35.05338 116.000
35.07333 115.000
35.09328 122.000
35.11322 130.000
35.13317 114.000
35.15312 131.000
35.17307 139.000
35.19301 163.000
35.21296 136.000
35.23291 147.000
35.25285 167.000
35.27280 187.000
35.29275 174.000
35.31269 215.000
35.33264 221.000
35.35259 280.000
35.37254 335.000
35.39248 387.000
35.41243 498.000
35.43238 627.000
35.45232 711.000
35.47227 819.000
35.49222 892.000
35.51216 939.000
35.53211 1095.000
35.55206 1084.000
35.57201 1123.000
35.59195 1085.000
35.61190 1022.000
35.63185 930.000
35.65179 753.000
35.67174 613.000
35.69169 592.000
35.71163 435.000
35.73158 377.000
35.75153 318.000
35.77147 256.000
35.79142 242.000
35.81137 182.000
35.83132 170.000
35.85126 184.000
35.87121 167.000
35.89116 141.000
35.91110 143.000
35.93105 135.000
35.95100 120.000
35.97094 158.000
35.99089 133.000
36.01084 123.000
36.03079 134.000
36.05073 119.000
36.07068 125.000
36.09063 113.000
36.11057 112.000
36.13052 116.000
36.15047 115.000
36.17041 120.000
36.19036 135.000
36.21031 135.000
36.23025 136.000
36.25020 94.000
36.27015 123.000
36.29010 116.000
36.31004 115.000
36.32999 114.000
36.34994 134.000
36.36988 130.000
36.38983 127.000
36.40978 108.000
36.42972 111.000
36.44967 143.000
36.46962 109.000
36.48957 134.000
36.50951 132.000
36.52946 112.000
36.54941 132.000
36.56935 137.000
36.58930 135.000
36.60925 139.000
36.62919 142.000
36.64914 161.000
36.66909 183.000
36.68903 185.000
36.70898 241.000
36.72893 290.000
36.74888 323.000
36.76882 345.000
36.78877 388.000
36.80872 373.000
36.82866 424.000
36.84861 338.000
36.86856 359.000
36.88850 362.000
36.90845 299.000
36.92840 240.000
36.94835 230.000
36.96829 199.000
36.98824 183.000
37.00819 154.000
37.02813 129.000
37.04808 138.000
37.06803 133.000
37.08797 153.000
37.10792 129.000
37.12787 106.000
37.14781 110.000
37.16776 152.000
37.18771 145.000
37.20766 137.000
37.22760 162.000
37.24755 137.000
37.26750 140.000
37.28744 142.000
37.30739 121.000
37.32734 122.000
37.34728 143.000
37.36723 96.000
37.38718 116.000
37.40713 120.000
37.42707 112.000
37.44702 115.000
37.46697 95.000
37.48691 104.000
37.50686 102.000
37.52681 91.000
37.54675 121.000
37.56670 101.000
37.58665 106.000
37.60660 104.000
37.62654 106.000
37.64649 90.000
37.66644 99.000
37.68638 97.000
37.70633 110.000
37.72628 105.000
37.74622 106.000
37.76617 92.000
37.78612 90.000
37.80606 104.000
37.82601 100.000
37.84596 108.000
37.86591 94.000
37.88585 109.000
37.90580 120.000
37.92575 110.000
37.94569 115.000
37.96564 95.000
37.98559 116.000
38.00553 89.000
38.02548 77.000
38.04543 101.000
38.06538 112.000
38.08532 107.000
38.10527 98.000
38.12522 100.000
38.14516 110.000
38.16511 107.000
38.18506 111.000
38.20500 97.000
38.22495 109.000
38.24490 122.000
38.26484 99.000
38.28479 101.000
38.30474 111.000
38.32469 122.000
38.34463 106.000
38.36458 110.000
38.38453 121.000
38.40447 106.000
38.42442 123.000
38.44437 108.000
38.46431 131.000
38.48426 154.000
38.50421 140.000
38.52416 157.000
38.54410 169.000
38.56405 178.000
38.58400 157.000
38.60394 175.000
38.62389 249.000
38.64384 240.000
38.66378 239.000
38.68373 239.000
38.70368 232.000
38.72362 251.000
38.74357 265.000
38.76352 257.000
38.78347 232.000
38.80341 249.000
38.82336 233.000
38.84331 256.000
38.86325 232.000
38.88320 227.000
38.90315 231.000
38.92309 273.000
38.94304 290.000
38.96299 354.000
38.98294 425.000
39.00288 477.000
39.02283 514.000
39.04278 622.000
39.06272 675.000
39.08267 656.000
39.10262 677.000
39.12256 707.000
39.14251 668.000
39.16246 625.000
39.18241 649.000
39.20235 554.000
39.22230 517.000
39.24225 449.000
39.26219 410.000
39.28214 361.000
39.30209 317.000
39.32203 293.000
39.34198 239.000
39.36193 215.000
39.38187 196.000
39.40182 214.000
39.42177 178.000
39.44172 184.000
39.46166 169.000
39.48161 151.000
39.50156 138.000
39.52150 140.000
39.54145 112.000
39.56140 132.000
39.58134 105.000
39.60129 117.000
39.62124 124.000
39.64119 108.000
39.66113 130.000
39.68108 109.000
39.70103 128.000
39.72097 111.000
39.74092 118.000
39.76087 97.000
39.78081 115.000
39.80076 116.000
39.82071 112.000
39.84065 111.000
39.86060 102.000
39.88055 112.000
39.90050 117.000
39.92044 117.000
39.94039 123.000
39.96034 105.000
39.98028 103.000
40.00023 123.000
40.02018 105.000
40.04012 93.000
40.06007 101.000
40.08002 95.000
40.09997 107.000
40.11991 99.000
40.13986 107.000
40.15981 106.000
40.17975 91.000
40.19970 105.000
40.21965 123.000
40.23959 125.000
40.25954 86.000
40.27949 94.000
40.29943 124.000
40.31938 106.000
40.33933 91.000
40.35928 105.000
40.37922 93.000
40.39917 104.000
40.41912 85.000
40.43906 80.000
40.45901 81.000
40.47896 112.000
40.49890 101.000
40.51885 112.000
40.53880 94.000
40.55875 95.000
40.57869 99.000
40.59864 107.000
40.61859 95.000
40.63853 100.000
40.65848 125.000
40.67843 78.000
40.69837 91.000
40.71832 114.000
40.73827 106.000
40.75822 86.000
40.77816 106.000
40.79811 108.000
40.81806 112.000
40.83800 98.000
40.85795 98.000
40.87790 103.000
40.89784 103.000
40.91779 111.000
40.93774 91.000
40.95768 114.000
40.97763 108.000
40.99758 118.000
41.01753 110.000
41.03747 108.000
41.05742 117.000
41.07737 117.000
41.09731 105.000
41.11726 114.000
41.13721 121.000
41.15715 124.000
41.17710 120.000
41.19705 108.000
41.21700 133.000
41.23694 114.000
41.25689 131.000
41.27684 139.000
41.29678 139.000
41.31673 157.000
41.33668 169.000
41.35662 164.000
41.37657 194.000
41.39652 213.000
41.41646 242.000
41.43641 328.000
41.45636 331.000
41.47631 464.000
41.49625 658.000
41.51620 908.000
41.53615 1095.000
41.55609 1279.000
41.57604 1385.000
41.59599 1392.000
41.61593 1360.000
41.63588 1203.000
41.65583 1100.000
41.67578 984.000
41.69572 904.000
41.71567 752.000
41.73562 629.000
41.75556 496.000
41.77551 363.000
41.79546 267.000
41.81540 221.000
41.83535 208.000
41.85530 176.000
41.87524 170.000
41.89519 183.000
41.91514 154.000
41.93509 140.000
41.95503 139.000
41.97498 113.000
41.99493 114.000
42.01487 119.000
42.03482 117.000
42.05477 108.000
42.07471 119.000
42.09466 101.000
42.11461 104.000
42.13456 112.000
42.15450 113.000
42.17445 104.000
42.19440 109.000
42.21434 107.000
42.23429 112.000
42.25424 90.000
42.27418 116.000
42.29413 97.000
42.31408 107.000
42.33403 128.000
42.35397 119.000
42.37392 117.000
42.39387 116.000
42.41381 114.000
42.43376 98.000
42.45371 116.000
42.47365 109.000
42.49360 128.000
42.51355 108.000
42.53349 103.000
42.55344 113.000
42.57339 113.000
42.59334 99.000
42.61328 135.000
42.63323 97.000
42.65318 107.000
42.67312 108.000
42.69307 122.000
42.71302 99.000
42.73296 110.000
42.75291 82.000
42.77286 116.000
42.79281 89.000
42.81275 107.000
42.83270 108.000
42.85265 107.000
42.87259 129.000
42.89254 124.000
42.91249 123.000
42.93243 118.000
42.95238 111.000
42.97233 136.000
42.99227 150.000
43.01222 127.000
43.03217 158.000
43.05212 187.000
43.07206 188.000
43.09201 180.000
43.11196 231.000
43.13190 266.000
43.15185 344.000
43.17180 374.000
43.19174 369.000
43.21169 480.000
43.23164 469.000
43.25159 484.000
43.27153 418.000
43.29148 396.000
43.31143 426.000
43.33137 393.000
43.35132 329.000
43.37127 303.000
43.39121 282.000
43.41116 267.000
43.43111 217.000
43.45105 199.000
43.47100 174.000
43.49095 160.000
43.51090 132.000
43.53084 157.000
43.55079 140.000
43.57074 132.000
43.59068 123.000
43.61063 123.000
43.63058 112.000
43.65052 101.000
43.67047 128.000
43.69042 87.000
43.71037 112.000
43.73031 112.000
43.75026 116.000
43.77021 106.000
43.79015 98.000
43.81010 103.000
43.83005 95.000
43.84999 91.000
43.86994 110.000
43.88989 101.000
43.90984 87.000
43.92978 108.000
43.94973 97.000
43.96968 112.000
43.98962 96.000
44.00957 89.000
44.02952 89.000
44.04946 95.000
44.06941 99.000
44.08936 108.000
44.10930 104.000
44.12925 103.000
44.14920 86.000
44.16915 106.000
44.18909 79.000
44.20904 78.000
44.22899 88.000
44.24893 89.000
44.26888 73.000
44.28883 96.000
44.30877 88.000
44.32872 96.000
44.34867 81.000
44.36862 114.000
44.38856 98.000
44.40851 96.000
44.42846 89.000
44.44840 100.000
44.46835 100.000
44.48830 101.000
44.50824 109.000
44.52819 79.000
44.54814 74.000
44.56808 84.000
44.58803 76.000
44.60798 100.000
44.62793 84.000
44.64787 98.000
44.66782 101.000
44.68777 98.000
44.70771 110.000
44.72766 99.000
44.74761 103.000
44.76755 95.000
44.78750 109.000
44.80745 114.000
44.82740 123.000
44.84734 134.000
44.86729 136.000
44.88724 147.000
44.90718 136.000
44.92713 147.000
44.94708 135.000
44.96702 123.000
44.98697 134.000
45.00692 91.000
45.02686 104.000
45.04681 102.000
45.06676 101.000
45.08671 108.000
45.10665 88.000
45.12660 83.000
45.14655 91.000
45.16649 95.000
45.18644 83.000
45.20639 108.000
45.22633 80.000
45.24628 73.000
45.26623 94.000
45.28618 80.000
45.30612 92.000
45.32607 101.000
45.34602 88.000
45.36596 91.000
45.38591 103.000
45.40586 96.000
45.42580 92.000
45.44575 78.000
45.46570 81.000
45.48565 87.000
45.50559 95.000
45.52554 81.000
45.54549 81.000
45.56543 98.000
45.58538 79.000
45.60533 104.000
45.62527 82.000
45.64522 87.000
45.66517 84.000
45.68511 87.000
45.70506 88.000
45.72501 95.000
45.74496 71.000
45.76490 94.000
45.78485 87.000
45.80480 104.000
45.82474 92.000
45.84469 79.000
45.86464 83.000
45.88458 101.000
45.90453 93.000
45.92448 91.000
45.94443 97.000
45.96437 87.000
45.98432 92.000
46.00427 99.000
46.02421 95.000
46.04416 79.000
46.06411 88.000
46.08405 100.000
46.10400 86.000
46.12395 75.000
46.14389 110.000
46.16384 78.000
46.18379 95.000
46.20374 79.000
46.22368 74.000
46.24363 85.000
46.26358 106.000
46.28352 83.000
46.30347 90.000
46.32342 90.000
46.34336 98.000
46.36331 104.000
46.38326 89.000
46.40321 98.000
46.42315 92.000
46.44310 98.000
46.46305 101.000
46.48299 84.000
46.50294 85.000
46.52289 92.000
46.54283 104.000
46.56278 84.000
46.58273 96.000
46.60267 75.000
46.62262 84.000
46.64257 76.000
46.66252 77.000
46.68246 89.000
46.70241 98.000
46.72236 99.000
46.74230 78.000
46.76225 84.000
46.78220 86.000
46.80214 92.000
46.82209 79.000
46.84204 85.000
46.86199 90.000
46.88193 87.000
46.90188 96.000
46.92183 69.000
46.94177 75.000
46.96172 83.000
46.98167 89.000
47.00161 101.000
47.02156 85.000
47.04151 81.000
47.06146 83.000
47.08140 77.000
47.10135 83.000
47.12130 90.000
47.14124 96.000
47.16119 98.000
47.18114 83.000
47.20108 76.000
47.22103 95.000
47.24098 73.000
47.26092 91.000
47.28087 89.000
47.30082 88.000
47.32077 91.000
47.34071 79.000
47.36066 70.000
47.38061 86.000
47.40055 82.000
47.42050 85.000
47.44045 97.000
47.46039 85.000
47.48034 90.000
47.50029 92.000
47.52024 89.000
47.54018 84.000
47.56013 107.000
47.58008 93.000
47.60002 76.000
47.61997 95.000
47.63992 90.000
47.65986 90.000
47.67981 83.000
47.69976 86.000
47.71970 100.000
47.73965 90.000
47.75960 99.000
47.77955 97.000
47.79949 92.000
47.81944 90.000
47.83939 93.000
47.85933 99.000
47.87928 96.000
47.89923 85.000
47.91917 97.000
47.93912 93.000
47.95907 94.000
47.97902 106.000
47.99896 91.000
48.01891 95.000
48.03886 119.000
48.05880 119.000
48.07875 120.000
48.09870 124.000
48.11864 114.000
48.13859 119.000
48.15854 133.000
48.17848 119.000
48.19843 116.000
48.21838 134.000
48.23833 147.000
48.25827 132.000
48.27822 156.000
48.29817 168.000
48.31811 170.000
48.33806 210.000
48.35801 197.000
48.37795 240.000
48.39790 268.000
48.41785 341.000
48.43780 354.000
48.45774 477.000
48.47769 609.000
48.49764 658.000
48.51758 814.000
48.53753 857.000
48.55748 722.000
48.57742 748.000
48.59737 723.000
48.61732 675.000
48.63726 745.000
48.65721 643.000
48.67716 591.000
48.69711 523.000
48.71705 435.000
48.73700 453.000
48.75695 334.000
48.77689 310.000
48.79684 272.000
48.81679 255.000
48.83673 234.000
48.85668 223.000
48.87663 205.000
48.89658 183.000
48.91652 189.000
48.93647 172.000
48.95642 141.000
48.97636 147.000
48.99631 130.000
49.01626 131.000
49.03620 133.000
49.05615 112.000
49.07610 116.000
49.09605 123.000
49.11599 114.000
49.13594 113.000
49.15589 114.000
49.17583 94.000
49.19578 99.000
49.21573 101.000
49.23567 105.000
49.25562 126.000
49.27557 109.000
49.29551 108.000
49.31546 111.000
49.33541 125.000
49.35536 105.000
49.37530 114.000
49.39525 104.000
49.41520 94.000
49.43514 115.000
49.45509 101.000
49.47504 101.000
49.49498 109.000
49.51493 85.000
49.53488 88.000
49.55483 109.000
49.57477 75.000
49.59472 104.000
49.61467 97.000
49.63461 92.000
49.65456 82.000
49.67451 90.000
49.69445 77.000
49.71440 102.000
49.73435 91.000
49.75429 101.000
49.77424 105.000
49.79419 98.000
49.81414 98.000
49.83408 89.000
49.85403 79.000
49.87398 93.000
49.89392 109.000
49.91387 83.000
49.93382 92.000
49.95376 95.000
49.97371 97.000
49.99366 102.000
50.01361 88.000
50.03355 87.000
50.05350 73.000
50.07345 85.000
50.09339 77.000
50.11334 76.000
50.13329 82.000
50.15323 87.000
50.17318 72.000
50.19313 94.000
50.21307 84.000
50.23302 84.000
50.25297 85.000
50.27292 81.000
50.29286 79.000
50.31281 99.000
50.33276 85.000
50.35270 72.000
50.37265 79.000
50.39260 82.000
50.41254 78.000
50.43249 91.000
50.45244 82.000
50.47239 79.000
50.49233 88.000
50.51228 88.000
50.53223 86.000
50.55217 85.000
50.57212 102.000
50.59207 108.000
50.61201 85.000
50.63196 96.000
50.65191 88.000
50.67186 90.000
50.69180 81.000
50.71175 81.000
50.73170 98.000
50.75164 93.000
50.77159 87.000
50.79154 99.000
50.81148 96.000
50.83143 86.000
50.85138 85.000
50.87132 95.000
50.89127 96.000
50.91122 78.000
50.93117 76.000
50.95111 86.000
50.97106 82.000
50.99101 85.000
51.01095 90.000
51.03090 89.000
51.05085 85.000
51.07079 100.000
51.09074 74.000
51.11069 64.000
51.13064 75.000
51.15058 95.000
51.17053 90.000
51.19048 78.000
51.21042 81.000
51.23037 97.000
51.25032 86.000
51.27026 77.000
51.29021 81.000
51.31016 77.000
51.33010 90.000
51.35005 79.000
51.37000 78.000
51.38995 90.000
51.40989 94.000
51.42984 82.000
51.44979 99.000
51.46973 95.000
51.48968 84.000
51.50963 107.000
51.52957 74.000
51.54952 94.000
51.56947 83.000
51.58942 72.000
51.60936 79.000
51.62931 72.000
51.64926 89.000
51.66920 85.000
51.68915 93.000
51.70910 87.000
51.72904 87.000
51.74899 78.000
51.76894 89.000
51.78888 81.000
51.80883 64.000
51.82878 91.000
51.84873 94.000
51.86867 75.000
51.88862 84.000
51.90857 99.000
51.92851 88.000
51.94846 96.000
51.96841 73.000
51.98835 86.000
52.00830 87.000
52.02825 96.000
52.04820 91.000
52.06814 90.000
52.08809 84.000
52.10804 95.000
52.12798 85.000
52.14793 87.000
52.16788 88.000
52.18782 90.000
52.20777 77.000
52.22772 68.000
52.24767 85.000
52.26761 79.000
52.28756 72.000
52.30751 83.000
52.32745 79.000
52.34740 87.000
52.36735 84.000
52.38729 92.000
52.40724 86.000
52.42719 82.000
52.44713 76.000
52.46708 76.000
52.48703 78.000
52.50698 87.000
52.52692 77.000
52.54687 94.000
52.56682 92.000
52.58676 94.000
52.60671 87.000
52.62666 102.000
52.64660 100.000
52.66655 99.000
52.68650 105.000
52.70645 116.000
52.72639 125.000
52.74634 140.000
52.76629 154.000
52.78623 172.000
52.80618 202.000
52.82613 197.000
52.84607 222.000
52.86602 287.000
52.88597 249.000
52.90591 301.000
52.92586 268.000
52.94581 268.000
52.96576 253.000
52.98570 244.000
53.00565 203.000
53.02560 219.000
53.04554 219.000
53.06549 222.000
53.08544 175.000
53.10538 171.000
53.12533 135.000
53.14528 140.000
53.16523 128.000
53.18517 121.000
53.20512 109.000
53.22507 116.000
53.24501 95.000
53.26496 111.000
53.28491 105.000
53.30485 112.000
53.32480 95.000
53.34475 126.000
53.36469 96.000
53.38464 104.000
53.40459 118.000
53.42454 105.000
53.44448 110.000
53.46443 127.000
53.48438 95.000
53.50432 132.000
53.52427 106.000
53.54422 120.000
53.56416 115.000
53.58411 129.000
53.60406 116.000
53.62401 123.000
53.64395 121.000
53.66390 138.000
53.68385 150.000
53.70379 109.000
53.72374 132.000
53.74369 122.000
53.76363 107.000
53.78358 107.000
53.80353 113.000
53.82348 103.000
53.84342 85.000
53.86337 94.000
53.88332 96.000
53.90326 120.000
53.92321 103.000
53.94316 81.000
53.96310 107.000
53.98305 80.000
54.00300 66.000
54.02294 91.000
54.04289 88.000
54.06284 78.000
54.08279 87.000
54.10273 90.000
54.12268 78.000
54.14263 76.000
54.16257 94.000
54.18252 88.000
54.20247 83.000
54.22241 90.000
54.24236 93.000
54.26231 93.000
54.28226 96.000
54.30220 82.000
54.32215 72.000
54.34210 86.000
54.36204 91.000
54.38199 77.000
54.40194 87.000
54.42188 106.000
54.44183 74.000
54.46178 83.000
54.48172 99.000
54.50167 100.000
54.52162 97.000
54.54157 93.000
54.56151 98.000
54.58146 104.000
54.60141 70.000
54.62135 94.000
54.64130 89.000
54.66125 77.000
54.68119 76.000
54.70114 78.000
54.72109 107.000
54.74104 86.000
54.76098 72.000
54.78093 99.000
54.80088 85.000
54.82082 81.000
54.84077 81.000
54.86072 87.000
54.88066 84.000
54.90061 89.000
54.92056 73.000
54.94050 80.000
54.96045 108.000
54.98040 98.000
55.00035 81.000
55.02029 95.000
55.04024 84.000
55.06019 96.000
55.08013 79.000
55.10008 108.000
55.12003 85.000
55.13997 90.000
55.15992 85.000
55.17987 81.000
55.19982 84.000
55.21976 78.000
55.23971 80.000
55.25966 103.000
55.27960 72.000
55.29955 74.000
55.31950 73.000
55.33944 95.000
55.35939 77.000
55.37934 84.000
55.39929 83.000
55.41923 80.000
55.43918 92.000
55.45913 93.000
55.47907 75.000
55.49902 73.000
55.51897 85.000
55.53891 95.000
55.55886 78.000
55.57881 76.000
55.59875 96.000
55.61870 101.000
55.63865 101.000
55.65860 87.000
55.67854 98.000
55.69849 84.000
55.71844 73.000
55.73838 68.000
55.75833 91.000
55.77828 84.000
55.79822 84.000
55.81817 86.000
55.83812 71.000
55.85807 98.000
55.87801 73.000
55.89796 85.000
55.91791 76.000
55.93785 70.000
55.95780 82.000
55.97775 100.000
55.99769 85.000
56.01764 83.000
56.03759 83.000
56.05753 87.000
56.07748 103.000
56.09743 83.000
56.11738 98.000
56.13732 90.000
56.15727 90.000
56.17722 90.000
56.19716 78.000
56.21711 77.000
56.23706 89.000
56.25700 77.000
56.27695 93.000
56.29690 96.000
56.31685 107.000
56.33679 82.000
56.35674 95.000
56.37669 87.000
56.39663 93.000
56.41658 77.000
56.43653 105.000
56.45647 96.000
56.47642 97.000
56.49637 95.000
56.51631 82.000
56.53626 87.000
56.55621 95.000
56.57616 72.000
56.59610 93.000
56.61605 87.000
56.63600 83.000
56.65594 95.000
56.67589 110.000
56.69584 91.000
56.71578 84.000
56.73573 99.000
56.75568 78.000
56.77563 96.000
56.79557 98.000
56.81552 113.000
56.83547 85.000
56.85541 87.000
56.87536 105.000
56.89531 100.000
56.91525 109.000
56.93520 95.000
56.95515 105.000
56.97510 117.000
56.99504 113.000
57.01499 122.000
57.03494 136.000
57.05488 129.000
57.07483 127.000
57.09478 140.000
57.11472 154.000
57.13467 157.000
57.15462 165.000
57.17456 152.000
57.19451 158.000
57.21446 204.000
57.23441 198.000
57.25435 205.000
57.27430 208.000
57.29425 200.000
57.31419 192.000
57.33414 216.000
57.35409 230.000
57.37403 237.000
57.39398 228.000
57.41393 304.000
57.43388 307.000
57.45382 279.000
57.47377 310.000
57.49372 336.000
57.51366 329.000
57.53361 339.000
57.55356 288.000
57.57350 286.000
57.59345 286.000
57.61340 286.000
57.63334 244.000
57.65329 246.000
57.67324 229.000
57.69319 242.000
57.71313 185.000
57.73308 186.000
57.75303 140.000
57.77297 152.000
57.79292 151.000
57.81287 126.000
57.83281 144.000
57.85276 106.000
57.87271 109.000
57.89266 104.000
57.91260 98.000
57.93255 109.000
57.95250 98.000
57.97244 91.000
57.99239 108.000
58.01234 112.000
58.03228 98.000
58.05223 77.000
58.07218 81.000
58.09212 77.000
58.11207 102.000
58.13202 103.000
58.15197 97.000
58.17191 103.000
58.19186 115.000
58.21181 111.000
58.23175 97.000
58.25170 112.000
58.27165 124.000
58.29159 111.000
58.31154 125.000
58.33149 115.000
58.35144 116.000
58.37138 86.000
58.39133 85.000
58.41128 102.000
58.43122 69.000
58.45117 98.000
58.47112 82.000
58.49106 104.000
58.51101 109.000
58.53096 89.000
58.55090 100.000
58.57085 98.000
58.59080 100.000
58.61075 95.000
58.63069 99.000
58.65064 92.000
58.67059 93.000
58.69053 75.000
58.71048 94.000
58.73043 106.000
58.75037 84.000
58.77032 83.000
58.79027 66.000
58.81022 97.000
58.83016 74.000
58.85011 75.000
58.87006 83.000
58.89000 75.000
58.90995 111.000
58.92990 96.000
58.94984 86.000
58.96979 84.000
58.98974 76.000
59.00969 96.000
59.02963 90.000
59.04958 69.000
59.06953 66.000
59.08947 81.000
59.10942 94.000
59.12937 87.000
59.14931 91.000
59.16926 82.000
59.18921 86.000
59.20915 91.000
59.22910 89.000
59.24905 91.000
59.26900 81.000
59.28894 84.000
59.30889 94.000
59.32884 101.000
59.34878 81.000
59.36873 92.000
59.38868 96.000
59.40862 91.000
59.42857 94.000
59.44852 102.000
59.46847 99.000
59.48841 84.000
59.50836 96.000
59.52831 83.000
59.54825 93.000
59.56820 90.000
59.58815 78.000
59.60809 96.000
59.62804 94.000
59.64799 92.000
59.66793 84.000
59.68788 97.000
59.70783 82.000
59.72778 94.000
59.74772 84.000
59.76767 88.000
59.78762 99.000
59.80756 102.000
59.82751 92.000
59.84746 94.000
59.86740 95.000
59.88735 96.000
59.90730 85.000
59.92725 88.000
59.94719 93.000
59.96714 103.000
59.98709 83.000
60.00703 88.000
60.02698 98.000
60.04693 76.000
60.06687 93.000
60.08682 84.000
60.10677 103.000
60.12671 103.000
60.14666 95.000
60.16661 79.000
60.18656 86.000
60.20650 98.000
60.22645 97.000
60.24640 108.000
60.26634 97.000
60.28629 99.000
60.30624 99.000
60.32618 86.000
60.34613 100.000
60.36608 77.000
60.38603 93.000
60.40597 90.000
60.42592 87.000
60.44587 74.000
60.46581 76.000
60.48576 96.000
60.50571 96.000
60.52565 93.000
60.54560 73.000
60.56555 90.000
60.58550 95.000
60.60544 108.000
60.62539 71.000
60.64534 83.000
60.66528 90.000
60.68523 107.000
60.70518 80.000
60.72512 109.000
60.74507 102.000
60.76502 100.000
60.78496 80.000
60.80491 87.000
60.82486 84.000
60.84481 104.000
60.86475 88.000
60.88470 104.000
60.90465 87.000
60.92459 78.000
60.94454 97.000
60.96449 94.000
60.98443 92.000
61.00438 96.000
61.02433 86.000
61.04428 101.000
61.06422 113.000
61.08417 83.000
61.10412 84.000
61.12406 79.000
61.14401 99.000
61.16396 97.000
61.18390 92.000
61.20385 95.000
61.22380 100.000
61.24374 79.000
61.26369 108.000
61.28364 97.000
61.30359 125.000
61.32353 109.000
61.34348 101.000
61.36343 114.000
61.38337 110.000
61.40332 98.000
61.42327 141.000
61.44321 121.000
61.46316 129.000
61.48311 148.000
61.50306 168.000
61.52300 174.000
61.54295 159.000
61.56290 181.000
61.58284 166.000
61.60279 189.000
61.62274 196.000
61.64268 206.000
61.66263 210.000
61.68258 238.000
61.70252 253.000
61.72247 307.000
61.74242 272.000
61.76237 346.000
61.78231 356.000
61.80226 341.000
61.82221 347.000
61.84215 388.000
61.86210 390.000
61.88205 365.000
61.90199 352.000
61.92194 336.000
61.94189 328.000
61.96184 287.000
61.98178 264.000
62.00173 299.000
62.02168 272.000
62.04162 258.000
62.06157 239.000
62.08152 239.000
62.10146 216.000
62.12141 211.000
62.14136 173.000
62.16131 148.000
62.18125 126.000
62.20120 148.000
62.22115 130.000
62.24109 137.000
62.26104 119.000
62.28099 108.000
62.30093 127.000
62.32088 110.000
62.34083 116.000
62.36077 115.000
62.38072 123.000
62.40067 125.000
62.42062 101.000
62.44056 130.000
62.46051 120.000
62.48046 124.000
62.50040 133.000
62.52035 145.000
62.54030 128.000
62.56024 146.000
62.58019 151.000
62.60014 146.000
62.62009 149.000
62.64003 145.000
62.65998 152.000
62.67993 171.000
62.69987 167.000
62.71982 166.000
62.73977 206.000
62.75971 197.000
62.77966 232.000
62.79961 248.000
62.81955 277.000
62.83950 293.000
62.85945 294.000
62.87940 307.000
62.89934 280.000
62.91929 266.000
62.93924 300.000
62.95918 273.000
62.97913 294.000
62.99908 314.000
63.01902 340.000
63.03897 312.000
63.05892 303.000
63.07887 305.000
63.09881 267.000
63.11876 234.000
63.13871 228.000
63.15865 246.000
63.17860 239.000
63.19855 194.000
63.21849 197.000
63.23844 160.000
63.25839 161.000
63.27833 160.000
63.29828 148.000
63.31823 143.000
63.33818 131.000
63.35812 125.000
63.37807 117.000
63.39802 115.000
63.41796 118.000
63.43791 127.000
63.45786 126.000
63.47780 130.000
63.49775 128.000
63.51770 150.000
63.53765 144.000
63.55759 153.000
63.57754 172.000
63.59749 170.000
63.61743 184.000
63.63738 171.000
63.65733 198.000
63.67727 163.000
63.69722 190.000
63.71717 224.000
63.73712 172.000
63.75706 197.000
63.77701 200.000
63.79696 184.000
63.81690 218.000
63.83685 200.000
63.85680 204.000
63.87674 201.000
63.89669 156.000
63.91664 166.000
63.93658 187.000
63.95653 221.000
63.97648 165.000
63.99643 151.000
64.01637 147.000
64.03632 154.000
64.05627 145.000
64.07621 130.000
64.09616 150.000
64.11611 150.000
64.13605 139.000
64.15600 131.000
64.17595 122.000
64.19590 133.000
64.21584 128.000
64.23579 96.000
64.25574 114.000
64.27568 144.000
64.29563 120.000
64.31558 97.000
64.33552 109.000
64.35547 130.000
64.37542 103.000
64.39536 128.000
64.41531 104.000
64.43526 106.000
64.45521 105.000
64.47515 106.000
64.49510 76.000
64.51505 99.000
64.53499 98.000
64.55494 97.000
64.57489 114.000
64.59483 88.000
64.61478 108.000
64.63473 82.000
64.65468 87.000
64.67462 99.000
64.69457 90.000
64.71452 104.000
64.73446 93.000
64.75441 85.000
64.77436 79.000
64.79430 105.000
64.81425 89.000
64.83420 80.000
64.85414 92.000
64.87409 106.000
64.89404 78.000
64.91399 105.000
64.93393 81.000
64.95388 85.000
64.97383 94.000
64.99377 107.000
65.01372 110.000
65.03367 114.000
65.05361 91.000
65.07356 89.000
65.09351 97.000
65.11346 115.000
65.13340 92.000
65.15335 81.000
65.17330 95.000
65.19324 96.000
65.21319 106.000
65.23314 93.000
65.25308 99.000
65.27303 119.000
65.29298 130.000
65.31293 132.000
65.33287 139.000
65.35282 152.000
65.37277 179.000
65.39271 191.000
65.41266 173.000
65.43261 190.000
65.45255 189.000
65.47250 211.000
65.49245 207.000
65.51239 164.000
65.53234 215.000
65.55229 187.000
65.57224 189.000
65.59218 189.000
65.61213 191.000
65.63208 160.000
65.65202 195.000
65.67197 154.000
65.69192 172.000
65.71186 164.000
65.73181 151.000
65.75176 142.000
65.77171 165.000
65.79165 132.000
65.81160 143.000
65.83155 150.000
65.85149 131.000
65.87144 137.000
65.89139 111.000
65.91133 127.000
65.93128 164.000
65.95123 143.000
65.97117 145.000
65.99112 160.000
66.01107 169.000
66.03102 180.000
66.05096 154.000
66.07091 166.000
66.09086 191.000
66.11080 175.000
66.13075 197.000
66.15070 165.000
66.17064 165.000
66.19059 191.000
66.21054 205.000
66.23049 193.000
66.25043 178.000
66.27038 171.000
66.29033 225.000
66.31027 198.000
66.33022 178.000
66.35017 195.000
66.37011 160.000
66.39006 167.000
66.41001 160.000
66.42995 155.000
66.44990 153.000
66.46985 146.000
66.48980 136.000
66.50974 137.000
66.52969 145.000
66.54964 140.000
66.56958 122.000
66.58953 148.000
66.60948 143.000
66.62942 133.000
66.64937 139.000
66.66932 124.000
66.68927 135.000
66.70921 119.000
66.72916 160.000
66.74911 139.000
66.76905 140.000
66.78900 152.000
66.80895 125.000
66.82889 145.000
66.84884 145.000
66.86879 153.000
66.88874 158.000
66.90868 158.000
66.92863 173.000
66.94858 166.000
66.96852 150.000
66.98847 154.000
67.00842 143.000
67.02836 154.000
67.04831 153.000
67.06826 156.000
67.08820 138.000
67.10815 132.000
67.12810 170.000
67.14805 120.000
67.16799 139.000
67.18794 130.000
67.20789 122.000
67.22783 122.000
67.24778 121.000
67.26773 109.000
67.28767 121.000
67.30762 109.000
67.32757 116.000
67.34752 124.000
67.36746 130.000
67.38741 123.000
67.40736 92.000
67.42730 104.000
67.44725 90.000
67.46720 94.000
67.48714 110.000
67.50709 107.000
67.52704 115.000
67.54698 116.000
67.56693 138.000
67.58688 130.000
67.60683 144.000
67.62677 109.000
67.64672 163.000
67.66667 158.000
67.68661 129.000
67.70656 110.000
67.72651 140.000
67.74645 160.000
67.76640 153.000
67.78635 151.000
67.80630 146.000
67.82624 130.000
67.84619 144.000
67.86614 156.000
67.88608 153.000
67.90603 146.000
67.92598 139.000
67.94592 137.000
67.96587 147.000
67.98582 126.000
68.00576 142.000
68.02571 128.000
68.04566 147.000
68.06561 118.000
68.08555 127.000
68.10550 111.000
68.12545 125.000
68.14539 115.000
68.16534 136.000
68.18529 105.000
68.20523 130.000
68.22518 113.000
68.24513 123.000
68.26508 118.000
68.28502 125.000
68.30497 102.000
68.32492 120.000
68.34486 112.000
68.36481 115.000
68.38476 113.000
68.40470 124.000
68.42465 110.000
68.44460 109.000
68.46455 123.000
68.48449 126.000
68.50444 109.000
68.52439 119.000
68.54433 103.000
68.56428 93.000
68.58423 83.000
68.60417 109.000
68.62412 114.000
68.64407 81.000
68.66401 96.000
68.68396 113.000
68.70391 97.000
68.72386 84.000
68.74380 93.000
68.76375 106.000
68.78370 81.000
68.80364 104.000
68.82359 99.000
68.84354 82.000
68.86348 94.000
68.88343 86.000
68.90338 85.000
68.92333 74.000
68.94327 82.000
68.96322 83.000
68.98317 83.000
69.00311 85.000
69.02306 86.000
69.04301 73.000
69.06295 94.000
69.08290 84.000
69.10285 95.000
69.12279 87.000
69.14274 90.000
69.16269 80.000
69.18264 87.000
69.20258 82.000
69.22253 93.000
69.24248 96.000
69.26242 83.000
69.28237 96.000
69.30232 91.000
69.32226 95.000
69.34221 90.000
69.36216 94.000
69.38211 92.000
69.40205 77.000
69.42200 77.000
69.44195 76.000
69.46189 96.000
69.48184 99.000
69.50179 97.000
69.52173 77.000
69.54168 84.000
69.56163 75.000
69.58157 95.000
69.60152 98.000
69.62147 83.000
69.64142 86.000
69.66136 84.000
69.68131 74.000
69.70126 87.000
69.72120 101.000
69.74115 91.000
69.76110 93.000
69.78104 75.000
69.80099 80.000
69.82094 89.000
69.84089 84.000
69.86083 82.000
69.88078 78.000
69.90073 74.000
69.92067 82.000
69.94062 87.000
69.96057 95.000
69.98051 78.000
70.00046 77.000
70.02041 75.000
70.04035 89.000
70.06030 85.000
70.08025 89.000
70.10020 78.000
70.12014 63.000
70.14009 82.000
70.16004 81.000
70.17998 78.000
70.19993 90.000
70.21988 80.000
70.23982 83.000
70.25977 97.000
70.27972 92.000
70.29967 65.000
70.31961 70.000
70.33956 91.000
70.35951 91.000
70.37945 97.000
70.39940 93.000
70.41935 89.000
70.43929 80.000
70.45924 87.000
70.47919 100.000
70.49914 89.000
70.51908 76.000
70.53903 91.000
70.55898 66.000
70.57892 78.000
70.59887 100.000
70.61882 100.000
70.63876 84.000
70.65871 82.000
70.67866 83.000
70.69860 70.000
70.71855 76.000
70.73850 91.000
70.75845 93.000
70.77839 77.000
70.79834 82.000
70.81829 95.000
70.83823 90.000
70.85818 80.000
70.87813 83.000
70.89807 74.000
70.91802 90.000
70.93797 99.000
70.95792 83.000
70.97786 100.000
70.99781 93.000
71.01776 97.000
71.03770 77.000
71.05765 81.000
71.07760 89.000
71.09754 79.000
71.11749 85.000
71.13744 91.000
71.15738 96.000
71.17733 89.000
71.19728 86.000
71.21723 102.000
71.23717 98.000
71.25712 100.000
71.27707 101.000
71.29701 98.000
71.31696 93.000
71.33691 97.000
71.35685 89.000
71.37680 75.000
71.39675 98.000
71.41670 93.000
71.43664 88.000
71.45659 87.000
71.47654 73.000
71.49648 88.000
71.51643 77.000
71.53638 83.000
71.55632 97.000
71.57627 98.000
71.59622 84.000
71.61616 85.000
71.63611 86.000
71.65606 95.000
71.67601 93.000
71.69595 96.000
71.71590 84.000
71.73585 79.000
71.75579 109.000
71.77574 89.000
71.79569 89.000
71.81563 87.000
71.83558 80.000
71.85553 95.000
71.87548 87.000
71.89542 88.000
71.91537 85.000
71.93532 91.000
71.95526 75.000
71.97521 80.000
71.99516 85.000
72.01510 95.000
72.03505 82.000
72.05500 91.000
72.07495 83.000
72.09489 97.000
72.11484 94.000
72.13479 80.000
72.15473 77.000
72.17468 94.000
72.19463 109.000
72.21457 103.000
72.23452 83.000
72.25447 88.000
72.27441 84.000
72.29436 94.000
72.31431 89.000
72.33426 86.000
72.35420 97.000
72.37415 109.000
72.39410 101.000
72.41404 99.000
72.43399 103.000
72.45394 97.000
72.47388 107.000
72.49383 112.000
72.51378 103.000
72.53373 94.000
72.55367 121.000
72.57362 119.000
72.59357 116.000
72.61351 125.000
72.63346 130.000
72.65341 132.000
72.67335 142.000
72.69330 141.000
72.71325 141.000
72.73319 143.000
72.75314 160.000
72.77309 160.000
72.79304 145.000
72.81298 149.000
72.83293 164.000
72.85288 152.000
72.87282 135.000
72.89277 121.000
72.91272 138.000
72.93266 140.000
72.95261 154.000
72.97256 146.000
72.99251 151.000
73.01245 159.000
73.03240 164.000
73.05235 169.000
73.07229 136.000
73.09224 158.000
73.11219 153.000
73.13213 150.000
73.15208 149.000
73.17203 158.000
73.19197 191.000
73.21192 163.000
73.23187 169.000
73.25182 160.000
73.27176 161.000
73.29171 164.000
73.31166 142.000
73.33160 147.000
73.35155 157.000
73.37150 163.000
73.39144 182.000
73.41139 126.000
73.43134 159.000
73.45129 150.000
73.47123 125.000
73.49118 134.000
73.51113 111.000
73.53107 130.000
73.55102 121.000
73.57097 125.000
73.59091 111.000
73.61086 119.000
73.63081 99.000
73.65076 93.000
73.67070 125.000
73.69065 104.000
73.71060 111.000
73.73054 107.000
73.75049 93.000
73.77044 105.000
73.79038 83.000
73.81033 79.000
73.83028 81.000
73.85022 102.000
73.87017 102.000
73.89012 91.000
73.91007 104.000
73.93001 99.000
73.94996 103.000
73.96991 93.000
73.98985 91.000
74.00980 106.000
74.02975 96.000
74.04969 96.000
74.06964 91.000
74.08959 91.000
74.10954 92.000
74.12948 88.000
74.14943 111.000
74.16938 91.000
74.18932 96.000
74.20927 115.000
74.22922 87.000
74.24916 114.000
74.26911 94.000
74.28906 109.000
74.30900 120.000
74.32895 119.000
74.34890 132.000
74.36885 106.000
74.38879 133.000
74.40874 148.000
74.42869 116.000
74.44863 124.000
74.46858 113.000
74.48853 110.000
74.50847 106.000
74.52842 107.000
74.54837 110.000
74.56832 112.000
74.58826 88.000
74.60821 116.000
74.62816 111.000
74.64810 113.000
74.66805 129.000
74.68800 115.000
74.70794 119.000
74.72789 87.000
74.74784 99.000
74.76778 96.000
74.78773 108.000
74.80768 93.000
74.82763 93.000
74.84757 97.000
74.86752 105.000
74.88747 119.000
74.90741 101.000
74.92736 99.000
74.94731 95.000
74.96725 119.000
74.98720 104.000
75.00715 126.000
75.02710 125.000
75.04704 116.000
75.06699 91.000
75.08694 124.000
75.10688 117.000
75.12683 126.000
75.14678 150.000
75.16672 135.000
75.18667 144.000
75.20662 121.000
75.22657 126.000
75.24651 117.000
75.26646 131.000
75.28641 125.000
75.30635 125.000
75.32630 149.000
75.34625 129.000
75.36619 134.000
75.38614 135.000
75.40609 127.000
75.42603 122.000
75.44598 123.000
75.46593 138.000
75.48588 106.000
75.50582 112.000
75.52577 101.000
75.54572 111.000
75.56566 106.000
75.58561 124.000
75.60556 104.000
75.62550 91.000
75.64545 116.000
75.66540 105.000
75.68535 96.000
75.70529 84.000
75.72524 95.000
75.74519 93.000
75.76513 74.000
75.78508 93.000
75.80503 82.000
75.82497 71.000
75.84492 85.000
75.86487 98.000
75.88481 79.000
75.90476 77.000
75.92471 98.000
75.94466 88.000
75.96460 80.000
75.98455 79.000
76.00450 85.000
76.02444 100.000
76.04439 94.000
76.06434 89.000
76.08428 88.000
76.10423 95.000
76.12418 91.000
76.14413 89.000
76.16407 73.000
76.18402 79.000
76.20397 101.000
76.22391 66.000
76.24386 78.000
76.26381 75.000
76.28375 97.000
76.30370 86.000
76.32365 77.000
76.34359 85.000
76.36354 92.000
76.38349 94.000
76.40344 99.000
76.42338 102.000
76.44333 107.000
76.46328 90.000
76.48322 89.000
76.50317 70.000
76.52312 87.000
76.54306 96.000
76.56301 82.000
76.58296 66.000
76.60291 83.000
76.62285 99.000
76.64280 73.000
76.66275 94.000
76.68269 78.000
76.70264 72.000
76.72259 93.000
76.74253 93.000
76.76248 58.000
76.78243 99.000
76.80238 84.000
76.82232 91.000
76.84227 59.000
76.86222 81.000
76.88216 80.000
76.90211 71.000
76.92206 70.000
76.94200 69.000
76.96195 93.000
76.98190 83.000
77.00184 86.000
77.02179 108.000
77.04174 87.000
77.06169 104.000
77.08163 82.000
77.10158 75.000
77.12153 81.000
77.14147 109.000
77.16142 92.000
77.18137 107.000
77.20131 127.000
77.22126 101.000
77.24121 119.000
77.26116 86.000
77.28110 105.000
77.30105 101.000
77.32100 113.000
77.34094 119.000
77.36089 116.000
77.38084 123.000
77.40078 117.000
77.42073 113.000
77.44068 116.000
77.46062 135.000
77.48057 124.000
77.50052 114.000
77.52047 119.000
77.54041 111.000
77.56036 112.000
77.58031 124.000
77.60025 112.000
77.62020 93.000
77.64015 108.000
77.66009 106.000
77.68004 114.000
77.69999 109.000
77.71994 116.000
77.73988 120.000
77.75983 116.000
77.77978 96.000
77.79972 120.000
77.81967 137.000
77.83962 124.000
77.85956 144.000
77.87951 120.000
77.89946 120.000
77.91940 137.000
77.93935 139.000
77.95930 152.000
77.97925 154.000
77.99919 141.000
78.01914 185.000
78.03909 175.000
78.05903 179.000
78.07898 152.000
78.09893 167.000
78.11887 168.000
78.13882 195.000
78.15877 198.000
78.17872 208.000
78.19866 206.000
78.21861 203.000
78.23856 207.000
78.25850 186.000
78.27845 203.000
78.29840 180.000
78.31834 200.000
78.33829 170.000
78.35824 188.000
78.37819 170.000
78.39813 188.000
78.41808 191.000
78.43803 180.000
78.45797 183.000
78.47792 139.000
78.49787 155.000
78.51781 135.000
78.53776 138.000
78.55771 138.000
78.57765 124.000
78.59760 143.000
78.61755 133.000
78.63750 91.000
78.65744 119.000
78.67739 111.000
78.69734 107.000
78.71728 128.000
78.73723 100.000
78.75718 106.000
78.77712 91.000
78.79707 94.000
78.81702 88.000
78.83697 100.000
78.85691 82.000
78.87686 87.000
78.89681 107.000
78.91675 80.000
78.93670 82.000
78.95665 94.000
78.97659 89.000
78.99654 81.000
79.01649 87.000
79.03643 93.000
79.05638 81.000
79.07633 86.000
79.09628 88.000
79.11622 78.000
79.13617 86.000
79.15612 103.000
79.17606 74.000
79.19601 86.000
79.21596 80.000
79.23590 85.000
79.25585 89.000
79.27580 77.000
79.29575 98.000
79.31569 92.000
79.33564 83.000
79.35559 94.000
79.37553 99.000
79.39548 101.000
79.41543 90.000
79.43537 89.000
79.45532 72.000
79.47527 72.000
79.49521 88.000
79.51516 94.000
79.53511 83.000
79.55506 89.000
79.57500 84.000
79.59495 86.000
79.61490 93.000
79.63484 100.000
79.65479 89.000
79.67474 71.000
79.69468 77.000
79.71463 84.000
79.73458 80.000
79.75453 84.000
79.77447 98.000
79.79442 82.000
79.81437 88.000
79.83431 84.000
79.85426 80.000
79.87421 89.000
79.89415 82.000
79.91410 78.000
79.93405 96.000
79.95399 87.000
79.97394 72.000
79.99389 95.000
80.01384 87.000
80.03378 87.000
80.05373 91.000
80.07368 79.000
80.09362 95.000
80.11357 85.000
80.13352 77.000
80.15346 86.000
80.17341 106.000
80.19336 91.000
80.21331 92.000
80.23325 84.000
80.25320 96.000
80.27315 95.000
80.29309 83.000
80.31304 88.000
80.33299 115.000
80.35293 99.000
80.37288 94.000
80.39283 98.000
80.41278 78.000
80.43272 82.000
80.45267 80.000
80.47262 97.000
80.49256 93.000
80.51251 86.000
80.53246 75.000
80.55240 88.000
80.57235 94.000
80.59230 93.000
80.61224 75.000
80.63219 90.000
80.65214 78.000
80.67209 108.000
80.69203 79.000
80.71198 81.000
80.73193 95.000
80.75187 84.000
80.77182 93.000
80.79177 61.000
80.81171 92.000
80.83166 83.000
80.85161 79.000
80.87156 80.000
80.89150 82.000
80.91145 83.000
80.93140 92.000
80.95134 77.000
80.97129 96.000
80.99124 79.000
81.01118 103.000
81.03113 91.000
81.05108 83.000
81.07102 77.000
81.09097 84.000
81.11092 82.000
81.13087 62.000
81.15081 82.000
81.17076 73.000
81.19071 84.000
81.21065 65.000
81.23060 72.000
81.25055 77.000
81.27049 85.000
81.29044 76.000
81.31039 63.000
81.33034 87.000
81.35028 84.000
81.37023 85.000
81.39018 97.000
81.41012 72.000
81.43007 93.000
81.45002 82.000
81.46996 93.000
81.48991 83.000
81.50986 74.000
81.52980 72.000
81.54975 79.000
81.56970 80.000
81.58965 76.000
81.60959 72.000
81.62954 78.000
81.64949 61.000
81.66943 78.000
81.68938 85.000
81.70933 74.000
81.72927 72.000
81.74922 91.000
81.76917 76.000
81.78912 82.000
81.80906 77.000
81.82901 86.000
81.84896 84.000
81.86890 78.000
81.88885 75.000
81.90880 84.000
81.92874 89.000
81.94869 81.000
81.96864 76.000
81.98859 82.000
82.00853 79.000
82.02848 83.000
82.04843 75.000
82.06837 83.000
82.08832 86.000
82.10827 74.000
82.12821 75.000
82.14816 104.000
82.16811 86.000
82.18805 76.000
82.20800 67.000
82.22795 85.000
82.24790 77.000
82.26784 85.000
82.28779 88.000
82.30774 88.000
82.32768 73.000
82.34763 88.000
82.36758 78.000
82.38752 97.000
82.40747 92.000
82.42742 93.000
82.44737 92.000
82.46731 95.000
82.48726 88.000
82.50721 80.000
82.52715 98.000
82.54710 79.000
82.56705 84.000
82.58699 67.000
82.60694 82.000
82.62689 94.000
82.64683 73.000
82.66678 76.000
82.68673 73.000
82.70668 90.000
82.72662 67.000
82.74657 91.000
82.76652 84.000
82.78646 89.000
82.80641 112.000
82.82636 111.000
82.84630 96.000
82.86625 93.000
82.88620 94.000
82.90615 97.000
82.92609 95.000
82.94604 96.000
82.96599 84.000
82.98593 87.000
83.00588 109.000
83.02583 98.000
83.04577 78.000
83.06572 93.000
83.08567 83.000
83.10561 82.000
83.12556 86.000
83.14551 98.000
83.16546 84.000
83.18540 84.000
83.20535 89.000
83.22530 94.000
83.24524 89.000
83.26519 99.000
83.28514 84.000
83.30508 78.000
83.32503 92.000
83.34498 76.000
83.36493 82.000
83.38487 93.000
83.40482 91.000
83.42477 88.000
83.44471 82.000
83.46466 91.000
83.48461 92.000
83.50455 75.000
83.52450 86.000
83.54445 100.000
83.56440 102.000
83.58434 89.000
83.60429 89.000
83.62424 94.000
83.64418 96.000
83.66413 95.000
83.68408 107.000
83.70402 89.000
83.72397 118.000
83.74392 86.000
83.76386 103.000
83.78381 96.000
83.80376 99.000
83.82371 102.000
83.84365 92.000
83.86360 91.000
83.88355 102.000
83.90349 126.000
83.92344 131.000
83.94339 121.000
83.96333 130.000
83.98328 111.000
84.00323 123.000
84.02318 103.000
84.04312 126.000
84.06307 128.000
84.08302 105.000
84.10296 92.000
84.12291 135.000
84.14286 120.000
84.16280 121.000
84.18275 112.000
84.20270 125.000
84.22264 117.000
84.24259 116.000
84.26254 138.000
84.28249 123.000
84.30243 116.000
84.32238 106.000
84.34233 90.000
84.36227 146.000
84.38222 119.000
84.40217 118.000
84.42211 115.000
84.44206 125.000
84.46201 116.000
84.48196 101.000
84.50190 118.000
84.52185 110.000
84.54180 110.000
84.56174 100.000
84.58169 96.000
84.60164 125.000
84.62158 89.000
84.64153 117.000
84.66148 105.000
84.68142 101.000
84.70137 87.000
84.72132 95.000
84.74127 89.000
84.76121 97.000
84.78116 101.000
84.80111 79.000
84.82105 81.000
84.84100 88.000
84.86095 97.000
84.88089 84.000
84.90084 73.000
84.92079 75.000
84.94074 81.000
84.96068 92.000
84.98063 78.000
85.00058 84.000
85.02052 88.000
85.04047 81.000
85.06042 89.000
85.08036 87.000
85.10031 80.000
85.12026 75.000
85.14021 86.000
85.16015 89.000
85.18010 73.000
85.20005 80.000
85.21999 91.000
85.23994 76.000
85.25989 77.000
85.27983 77.000
85.29978 78.000
85.31973 84.000
85.33967 92.000
85.35962 86.000
85.37957 81.000
85.39952 87.000
85.41946 97.000
85.43941 80.000
85.45936 79.000
85.47930 89.000
85.49925 81.000
85.51920 63.000
85.53914 77.000
85.55909 84.000
85.57904 100.000
85.59899 85.000
85.61893 96.000
85.63888 95.000
85.65883 72.000
85.67877 85.000
85.69872 65.000
85.71867 100.000
85.73861 84.000
85.75856 85.000
85.77851 83.000
85.79845 78.000
85.81840 85.000
85.83835 79.000
85.85830 87.000
85.87824 87.000
85.89819 85.000
85.91814 74.000
85.93808 72.000
85.95803 96.000
85.97798 82.000
85.99792 69.000
86.01787 70.000
86.03782 79.000
86.05777 79.000
86.07771 81.000
86.09766 75.000
86.11761 84.000
86.13755 92.000
86.15750 91.000
86.17745 78.000
86.19739 82.000
86.21734 72.000
86.23729 92.000
86.25723 89.000
86.27718 89.000
86.29713 95.000
86.31708 79.000
86.33702 77.000
86.35697 83.000
86.37692 84.000
86.39686 107.000
86.41681 79.000
86.43676 76.000
86.45670 88.000
86.47665 79.000
86.49660 78.000
86.51655 91.000
86.53649 76.000
86.55644 92.000
86.57639 105.000
86.59633 100.000
86.61628 106.000
86.63623 129.000
86.65617 109.000
86.67612 109.000
86.69607 95.000
86.71602 123.000
86.73596 106.000
86.75591 106.000
86.77586 110.000
86.79580 110.000
86.81575 108.000
86.83570 101.000
86.85564 107.000
86.87559 122.000
86.89554 106.000
86.91548 101.000
86.93543 96.000
86.95538 113.000
86.97533 113.000
86.99527 92.000
87.01522 82.000
87.03517 87.000
87.05511 121.000
87.07506 99.000
87.09501 104.000
87.11495 93.000
87.13490 102.000
87.15485 123.000
87.17480 107.000
87.19474 109.000
87.21469 95.000
87.23464 118.000
87.25458 99.000
87.27453 113.000
87.29448 118.000
87.31442 122.000
87.33437 91.000
87.35432 105.000
87.37426 109.000
87.39421 111.000
87.41416 102.000
87.43411 100.000
87.45405 107.000
87.47400 107.000
87.49395 107.000
87.51389 94.000
87.53384 83.000
87.55379 108.000
87.57373 99.000
87.59368 102.000
87.61363 108.000
87.63358 100.000
87.65352 94.000
87.67347 83.000
87.69342 101.000
87.71336 90.000
87.73331 103.000
87.75326 81.000
87.77320 102.000
87.79315 95.000
87.81310 96.000
87.83304 82.000
87.85299 75.000
87.87294 84.000
87.89289 87.000
87.91283 79.000
87.93278 84.000
87.95273 77.000
87.97267 76.000
87.99262 92.000
88.01257 89.000
88.03251 74.000
88.05246 78.000
88.07241 90.000
88.09236 69.000
88.11230 79.000
88.13225 75.000
88.15220 85.000
88.17214 73.000
88.19209 67.000
88.21204 84.000
88.23198 67.000
88.25193 79.000
88.27188 77.000
88.29183 80.000
88.31177 86.000
88.33172 76.000
88.35167 77.000
88.37161 71.000
88.39156 79.000
88.41151 80.000
88.43145 100.000
88.45140 82.000
88.47135 88.000
88.49129 97.000
88.51124 64.000
88.53119 72.000
88.55114 84.000
88.57108 79.000
88.59103 76.000
88.61098 89.000
88.63092 84.000
88.65087 87.000
88.67082 79.000
88.69076 76.000
88.71071 92.000
88.73066 81.000
88.75061 96.000
88.77055 81.000
88.79050 74.000
88.81045 78.000
88.83039 87.000
88.85034 79.000
88.87029 78.000
88.89023 83.000
88.91018 83.000
88.93013 88.000
88.95007 87.000
88.97002 97.000
88.98997 69.000
89.00992 90.000
89.02986 76.000
89.04981 85.000
89.06976 80.000
89.08970 97.000
89.10965 97.000
89.12960 79.000
89.14954 94.000
89.16949 85.000
89.18944 78.000
89.20939 80.000
89.22933 93.000
89.24928 83.000
89.26923 106.000
89.28917 82.000
89.30912 100.000
89.32907 82.000
89.34901 94.000
89.36896 97.000
89.38891 85.000
89.40885 87.000
89.42880 72.000
89.44875 93.000
89.46870 88.000
89.48864 81.000
89.50859 91.000
89.52854 105.000
89.54848 78.000
89.56843 82.000
89.58838 74.000
89.60832 92.000
89.62827 110.000
89.64822 94.000
89.66817 89.000
89.68811 83.000
89.70806 86.000
89.72801 105.000
89.74795 85.000
89.76790 82.000
89.78785 87.000
89.80779 101.000
89.82774 81.000
89.84769 90.000
89.86764 112.000
89.88758 110.000
89.90753 102.000
89.92748 84.000
89.94742 92.000
89.96737 99.000
89.98732 80.000
90.00726 113.000
