10.00000 220.000
10.01995 241.000
10.03989 207.000
10.05984 234.000
10.07979 214.000
10.09973 232.000
10.11968 226.000
10.13963 207.000
10.15958 213.000
10.17952 197.000
10.19947 200.000
10.21942 202.000
10.23936 224.000
10.25931 208.000
10.27926 228.000
10.29920 219.000
10.31915 221.000
10.33910 238.000
10.35905 194.000
10.37899 221.000
10.39894 204.000
10.41889 196.000
10.43883 210.000
10.45878 207.000
10.47873 205.000
10.49867 210.000
10.51862 221.000
10.53857 217.000
10.55851 192.000
10.57846 216.000
10.59841 237.000
10.61836 223.000
10.63830 229.000
10.65825 194.000
10.67820 205.000
10.69814 210.000
10.71809 195.000
10.73804 198.000
10.75798 222.000
10.77793 195.000
10.79788 195.000
10.81783 224.000
10.83777 236.000
10.85772 213.000
10.87767 210.000
10.89761 219.000
10.91756 216.000
10.93751 199.000
10.95745 246.000
10.97740 197.000
10.99735 197.000
11.01730 217.000
11.03724 217.000
11.05719 203.000
11.07714 214.000
11.09708 219.000
11.11703 211.000
11.13698 217.000
11.15692 216.000
11.17687 214.000
11.19682 192.000
11.21676 184.000
11.23671 208.000
11.25666 214.000
11.27661 216.000
11.29655 221.000
11.31650 215.000
11.33645 225.000
11.35639 198.000
11.37634 207.000
11.39629 188.000
11.41623 195.000
11.43618 219.000
11.45613 219.000
11.47608 210.000
11.49602 205.000
11.51597 217.000
11.53592 216.000
11.55586 240.000
11.57581 206.000
11.59576 208.000
11.61570 220.000
11.63565 193.000
11.65560 198.000
11.67554 202.000
11.69549 209.000
11.71544 190.000
11.73539 220.000
11.75533 212.000
11.77528 206.000
11.79523 217.000
11.81517 199.000
11.83512 206.000
11.85507 195.000
11.87501 192.000
11.89496 230.000
11.91491 223.000
11.93486 232.000
11.95480 221.000
11.97475 242.000
11.99470 234.000
12.01464 225.000
12.03459 223.000
12.05454 223.000
12.07448 223.000
12.09443 189.000
12.11438 184.000
12.13432 199.000
12.15427 227.000
12.17422 223.000
12.19417 199.000
12.21411 221.000
12.23406 192.000
12.25401 225.000
12.27395 230.000
12.29390 204.000
12.31385 219.000
12.33379 211.000
12.35374 223.000
12.37369 221.000
12.39364 205.000
12.41358 233.000
12.43353 221.000
12.45348 217.000
12.47342 226.000
12.49337 205.000
12.51332 224.000
12.53326 225.000
12.55321 202.000
12.57316 230.000
12.59311 200.000
12.61305 216.000
12.63300 205.000
12.65295 241.000
12.67289 233.000
12.69284 216.000
12.71279 211.000
12.73273 244.000
12.75268 201.000
12.77263 230.000
12.79257 235.000
12.81252 206.000
12.83247 217.000
12.85242 201.000
12.87236 203.000
12.89231 183.000
12.91226 214.000
12.93220 204.000
12.95215 193.000
12.97210 217.000
12.99204 259.000
13.01199 238.000
13.03194 208.000
13.05189 209.000
13.07183 210.000
13.09178 197.000
13.11173 207.000
13.13167 225.000
13.15162 226.000
13.17157 221.000
13.19151 198.000
13.21146 197.000
13.23141 198.000
13.25135 210.000
13.27130 199.000
13.29125 209.000
13.31120 226.000
13.33114 216.000
13.35109 205.000
13.37104 200.000
13.39098 209.000
13.41093 229.000
13.43088 199.000
13.45082 240.000
13.47077 199.000
13.49072 204.000
13.51067 212.000
13.53061 230.000
13.55056 227.000
13.57051 217.000
13.59045 237.000
13.61040 219.000
13.63035 218.000
13.65029 200.000
13.67024 221.000
13.69019 212.000
13.71013 215.000
13.73008 221.000
13.75003 201.000
13.76998 216.000
13.78992 223.000
13.80987 214.000
13.82982 211.000
13.84976 197.000
13.86971 232.000
13.88966 254.000
13.90960 249.000
13.92955 218.000
13.94950 207.000
13.96945 231.000
13.98939 223.000
14.00934 210.000
14.02929 216.000
14.04923 219.000
14.06918 198.000
14.08913 253.000
14.10907 190.000
14.12902 223.000
14.14897 216.000
14.16892 206.000
14.18886 231.000
14.20881 227.000
14.22876 196.000
14.24870 238.000
14.26865 249.000
14.28860 251.000
14.30854 233.000
14.32849 202.000
14.34844 202.000
14.36838 206.000
14.38833 225.000
14.40828 205.000
14.42823 198.000
14.44817 184.000
14.46812 226.000
14.48807 224.000
14.50801 220.000
14.52796 208.000
14.54791 217.000
14.56785 196.000
14.58780 222.000
14.60775 218.000
14.62770 252.000
14.64764 218.000
14.66759 227.000
14.68754 208.000
14.70748 232.000
14.72743 210.000
14.74738 214.000
14.76732 216.000
14.78727 232.000
14.80722 214.000
14.82716 215.000
14.84711 208.000
14.86706 212.000
14.88701 221.000
14.90695 196.000
14.92690 223.000
14.94685 247.000
14.96679 191.000
14.98674 223.000
15.00669 246.000
15.02663 213.000
15.04658 229.000
15.06653 222.000
15.08648 182.000
15.10642 240.000
15.12637 224.000
15.14632 203.000
15.16626 229.000
15.18621 227.000
15.20616 243.000
15.22610 216.000
15.24605 224.000
15.26600 212.000
15.28594 225.000
15.30589 215.000
15.32584 201.000
15.34579 265.000
15.36573 222.000
15.38568 228.000
15.40563 209.000
15.42557 220.000
15.44552 218.000
15.46547 250.000
15.48541 220.000
15.50536 247.000
15.52531 245.000
15.54526 234.000
15.56520 227.000
15.58515 239.000
15.60510 256.000
15.62504 251.000
15.64499 216.000
15.66494 260.000
15.68488 271.000
15.70483 243.000
15.72478 299.000
15.74472 366.000
15.76467 426.000
15.78462 491.000
15.80457 554.000
15.82451 623.000
15.84446 657.000
15.86441 649.000
15.88435 690.000
15.90430 630.000
15.92425 532.000
15.94419 390.000
15.96414 348.000
15.98409 322.000
16.00404 390.000
16.02398 361.000
16.04393 397.000
16.06388 404.000
16.08382 392.000
16.10377 397.000
16.12372 419.000
16.14366 464.000
16.16361 428.000
16.18356 472.000
16.20351 512.000
16.22345 556.000
16.24340 619.000
16.26335 683.000
16.28329 871.000
16.30324 1003.000
16.32319 1283.000
16.34313 1475.000
16.36308 1841.000
16.38303 2147.000
16.40297 2393.000
16.42292 2385.000
16.44287 2230.000
16.46282 1972.000
16.48276 1387.000
16.50271 975.000
16.52266 661.000
16.54260 469.000
16.56255 391.000
16.58250 333.000
16.60244 327.000
16.62239 301.000
16.64234 247.000
16.66229 273.000
16.68223 249.000
16.70218 244.000
16.72213 230.000
16.74207 261.000
16.76202 269.000
16.78197 260.000
16.80191 226.000
16.82186 261.000
16.84181 261.000
16.86175 266.000
16.88170 231.000
16.90165 244.000
16.92160 243.000
16.94154 255.000
16.96149 256.000
16.98144 244.000
17.00138 264.000
17.02133 236.000
17.04128 219.000
17.06122 236.000
17.08117 236.000
17.10112 231.000
17.12107 282.000
17.14101 264.000
17.16096 242.000
17.18091 238.000
17.20085 236.000
17.22080 190.000
17.24075 243.000
17.26069 243.000
17.28064 243.000
17.30059 239.000
17.32053 252.000
17.34048 250.000
17.36043 235.000
17.38038 254.000
17.40032 233.000
17.42027 248.000
17.44022 230.000
17.46016 227.000
17.48011 219.000
17.50006 235.000
17.52000 235.000
17.53995 232.000
17.55990 237.000
17.57985 228.000
17.59979 224.000
17.61974 241.000
17.63969 246.000
17.65963 218.000
17.67958 241.000
17.69953 219.000
17.71947 248.000
17.73942 225.000
17.75937 236.000
17.77932 223.000
17.79926 232.000
17.81921 227.000
17.83916 215.000
17.85910 230.000
17.87905 230.000
17.89900 239.000
17.91894 202.000
17.93889 223.000
17.95884 248.000
17.97878 220.000
17.99873 207.000
18.01868 228.000
18.03863 210.000
18.05857 245.000
18.07852 220.000
18.09847 210.000
18.11841 219.000
18.13836 204.000
18.15831 217.000
18.17825 240.000
18.19820 228.000
18.21815 197.000
18.23810 230.000
18.25804 223.000
18.27799 248.000
18.29794 241.000
18.31788 221.000
18.33783 255.000
18.35778 306.000
18.37772 315.000
18.39767 314.000
18.41762 272.000
18.43756 278.000
18.45751 255.000
18.47746 261.000
18.49741 217.000
18.51735 239.000
18.53730 244.000
18.55725 217.000
18.57719 222.000
18.59714 202.000
18.61709 201.000
18.63703 237.000
18.65698 238.000
18.67693 211.000
18.69688 219.000
18.71682 218.000
18.73677 247.000
18.75672 205.000
18.77666 193.000
18.79661 195.000
18.81656 207.000
18.83650 228.000
18.85645 212.000
18.87640 223.000
18.89634 213.000
18.91629 218.000
18.93624 216.000
18.95619 214.000
18.97613 198.000
18.99608 227.000
19.01603 218.000
19.03597 210.000
19.05592 232.000
19.07587 219.000
19.09581 210.000
19.11576 224.000
19.13571 239.000
19.15566 192.000
19.17560 219.000
19.19555 226.000
19.21550 211.000
19.23544 216.000
19.25539 190.000
19.27534 253.000
19.29528 208.000
19.31523 197.000
19.33518 219.000
19.35513 225.000
19.37507 213.000
19.39502 219.000
19.41497 226.000
19.43491 213.000
19.45486 209.000
19.47481 230.000
19.49475 222.000
19.51470 209.000
19.53465 201.000
19.55459 214.000
19.57454 224.000
19.59449 232.000
19.61444 191.000
19.63438 228.000
19.65433 202.000
19.67428 231.000
19.69422 208.000
19.71417 193.000
19.73412 202.000
19.75406 209.000
19.77401 203.000
19.79396 245.000
19.81391 214.000
19.83385 231.000
19.85380 239.000
19.87375 220.000
19.89369 235.000
19.91364 200.000
19.93359 218.000
19.95353 200.000
19.97348 215.000
19.99343 228.000
20.01337 236.000
20.03332 226.000
20.05327 236.000
20.07322 213.000
20.09316 228.000
20.11311 220.000
20.13306 207.000
20.15300 206.000
20.17295 224.000
20.19290 233.000
20.21284 245.000
20.23279 220.000
20.25274 221.000
20.27269 224.000
20.29263 249.000
20.31258 217.000
20.33253 204.000
20.35247 240.000
20.37242 219.000
20.39237 207.000
20.41231 231.000
20.43226 221.000
20.45221 231.000
20.47215 232.000
20.49210 252.000
20.51205 229.000
20.53200 276.000
20.55194 288.000
20.57189 263.000
20.59184 288.000
20.61178 323.000
20.63173 342.000
20.65168 334.000
20.67162 365.000
20.69157 374.000
20.71152 493.000
20.73147 520.000
20.75141 545.000
20.77136 606.000
20.79131 616.000
20.81125 645.000
20.83120 550.000
20.85115 530.000
20.87109 480.000
20.89104 487.000
20.91099 401.000
20.93094 409.000
20.95088 365.000
20.97083 360.000
20.99078 362.000
21.01072 341.000
21.03067 368.000
21.05062 336.000
21.07056 302.000
21.09051 296.000
21.11046 267.000
21.13040 252.000
21.15035 252.000
21.17030 245.000
21.19025 229.000
21.21019 245.000
21.23014 235.000
21.25009 231.000
21.27003 243.000
21.28998 232.000
21.30993 230.000
21.32987 211.000
21.34982 227.000
21.36977 226.000
21.38972 239.000
21.40966 243.000
21.42961 238.000
21.44956 222.000
21.46950 212.000
21.48945 232.000
21.50940 201.000
21.52934 207.000
21.54929 195.000
21.56924 226.000
21.58918 213.000
21.60913 229.000
21.62908 203.000
21.64903 210.000
21.66897 229.000
21.68892 207.000
21.70887 223.000
21.72881 195.000
21.74876 200.000
21.76871 216.000
21.78865 217.000
21.80860 252.000
21.82855 206.000
21.84850 223.000
21.86844 214.000
21.88839 190.000
21.90834 207.000
21.92828 228.000
21.94823 199.000
21.96818 235.000
21.98812 201.000
22.00807 195.000
22.02802 219.000
22.04796 205.000
22.06791 212.000
22.08786 212.000
22.10781 220.000
22.12775 213.000
22.14770 231.000
22.16765 199.000
22.18759 217.000
22.20754 232.000
22.22749 251.000
22.24743 227.000
22.26738 227.000
22.28733 219.000
22.30728 218.000
22.32722 219.000
22.34717 213.000
22.36712 202.000
22.38706 216.000
22.40701 219.000
22.42696 205.000
22.44690 243.000
22.46685 238.000
22.48680 222.000
22.50675 223.000
22.52669 226.000
22.54664 220.000
22.56659 222.000
22.58653 226.000
22.60648 218.000
22.62643 221.000
22.64637 211.000
22.66632 240.000
22.68627 228.000
22.70621 212.000
22.72616 232.000
22.74611 230.000
22.76606 237.000
22.78600 232.000
22.80595 241.000
22.82590 226.000
22.84584 218.000
22.86579 203.000
22.88574 220.000
22.90568 224.000
22.92563 222.000
22.94558 209.000
22.96553 215.000
22.98547 213.000
23.00542 226.000
23.02537 245.000
23.04531 225.000
23.06526 224.000
23.08521 249.000
23.10515 242.000
23.12510 212.000
23.14505 246.000
23.16499 208.000
23.18494 217.000
23.20489 196.000
23.22484 205.000
23.24478 220.000
23.26473 219.000
23.28468 222.000
23.30462 241.000
23.32457 206.000
23.34452 214.000
23.36446 244.000
23.38441 226.000
23.40436 249.000
23.42431 196.000
23.44425 242.000
23.46420 213.000
23.48415 211.000
23.50409 221.000
23.52404 196.000
23.54399 205.000
23.56393 228.000
23.58388 250.000
23.60383 216.000
23.62377 214.000
23.64372 258.000
23.66367 231.000
23.68362 201.000
23.70356 218.000
23.72351 219.000
23.74346 224.000
23.76340 225.000
23.78335 209.000
23.80330 212.000
23.82324 227.000
23.84319 209.000
23.86314 206.000
23.88309 249.000
23.90303 210.000
23.92298 202.000
23.94293 195.000
23.96287 230.000
23.98282 252.000
24.00277 218.000
24.02271 225.000
24.04266 226.000
24.06261 193.000
24.08256 190.000
24.10250 201.000
24.12245 232.000
24.14240 216.000
24.16234 207.000
24.18229 235.000
24.20224 247.000
24.22218 207.000
24.24213 221.000
24.26208 201.000
24.28202 252.000
24.30197 220.000
24.32192 236.000
24.34187 239.000
24.36181 226.000
24.38176 231.000
24.40171 225.000
24.42165 212.000
24.44160 217.000
24.46155 234.000
24.48149 195.000
24.50144 209.000
24.52139 236.000
24.54134 242.000
24.56128 230.000
24.58123 231.000
24.60118 213.000
24.62112 223.000
24.64107 211.000
24.66102 240.000
24.68096 210.000
24.70091 241.000
24.72086 242.000
24.74080 224.000
24.76075 251.000
24.78070 234.000
24.80065 234.000
24.82059 249.000
24.84054 233.000
24.86049 224.000
24.88043 210.000
24.90038 224.000
24.92033 248.000
24.94027 230.000
24.96022 232.000
24.98017 231.000
25.00012 218.000
25.02006 234.000
25.04001 224.000
25.05996 234.000
25.07990 228.000
25.09985 234.000
25.11980 232.000
25.13974 228.000
25.15969 254.000
25.17964 237.000
25.19958 210.000
25.21953 221.000
25.23948 245.000
25.25943 204.000
25.27937 199.000
25.29932 211.000
25.31927 209.000
25.33921 224.000
25.35916 233.000
25.37911 213.000
25.39905 235.000
25.41900 229.000
25.43895 222.000
25.45890 238.000
25.47884 237.000
25.49879 222.000
25.51874 225.000
25.53868 224.000
25.55863 224.000
25.57858 221.000
25.59852 220.000
25.61847 219.000
25.63842 225.000
25.65837 232.000
25.67831 226.000
25.69826 240.000
25.71821 197.000
25.73815 255.000
25.75810 237.000
25.77805 236.000
25.79799 218.000
25.81794 251.000
25.83789 226.000
25.85783 223.000
25.87778 247.000
25.89773 248.000
25.91768 228.000
25.93762 230.000
25.95757 230.000
25.97752 229.000
25.99746 229.000
26.01741 247.000
26.03736 238.000
26.05730 216.000
26.07725 227.000
26.09720 218.000
26.11715 240.000
26.13709 243.000
26.15704 241.000
26.17699 202.000
26.19693 234.000
26.21688 209.000
26.23683 222.000
26.25677 203.000
26.27672 240.000
26.29667 229.000
26.31661 238.000
26.33656 215.000
26.35651 248.000
26.37646 212.000
26.39640 229.000
26.41635 221.000
26.43630 218.000
26.45624 223.000
26.47619 252.000
26.49614 245.000
26.51608 209.000
26.53603 267.000
26.55598 226.000
26.57593 241.000
26.59587 224.000
26.61582 263.000
26.63577 238.000
26.65571 240.000
26.67566 218.000
26.69561 234.000
26.71555 254.000
26.73550 235.000
26.75545 218.000
26.77539 237.000
26.79534 264.000
26.81529 245.000
26.83524 239.000
26.85518 230.000
26.87513 213.000
26.89508 263.000
26.91502 236.000
26.93497 226.000
26.95492 237.000
26.97486 253.000
26.99481 239.000
27.01476 252.000
27.03471 215.000
27.05465 223.000
27.07460 213.000
27.09455 201.000
27.11449 254.000
27.13444 232.000
27.15439 236.000
27.17433 232.000
27.19428 258.000
27.21423 237.000
27.23417 237.000
27.25412 236.000
27.27407 248.000
27.29402 215.000
27.31396 227.000
27.33391 261.000
27.35386 238.000
27.37380 270.000
27.39375 223.000
27.41370 241.000
27.43364 232.000
27.45359 243.000
27.47354 224.000
27.49349 229.000
27.51343 249.000
27.53338 223.000
27.55333 265.000
27.57327 241.000
27.59322 240.000
27.61317 240.000
27.63311 246.000
27.65306 238.000
27.67301 225.000
27.69296 222.000
27.71290 235.000
27.73285 241.000
27.75280 226.000
27.77274 241.000
27.79269 245.000
27.81264 226.000
27.83258 236.000
27.85253 246.000
27.87248 240.000
27.89242 227.000
27.91237 212.000
27.93232 237.000
27.95227 215.000
27.97221 247.000
27.99216 207.000
28.01211 243.000
28.03205 203.000
28.05200 248.000
28.07195 243.000
28.09189 239.000
28.11184 255.000
28.13179 216.000
28.15174 241.000
28.17168 227.000
28.19163 222.000
28.21158 246.000
28.23152 250.000
28.25147 224.000
28.27142 226.000
28.29136 242.000
28.31131 225.000
28.33126 247.000
28.35120 251.000
28.37115 218.000
28.39110 261.000
28.41105 229.000
28.43099 250.000
28.45094 258.000
28.47089 231.000
28.49083 226.000
28.51078 225.000
28.53073 248.000
28.55067 233.000
28.57062 235.000
28.59057 252.000
28.61052 226.000
28.63046 239.000
28.65041 236.000
28.67036 221.000
28.69030 248.000
28.71025 233.000
28.73020 236.000
28.75014 238.000
28.77009 238.000
28.79004 254.000
28.80998 232.000
28.82993 237.000
28.84988 230.000
28.86983 244.000
28.88977 247.000
28.90972 241.000
28.92967 242.000
28.94961 268.000
28.96956 244.000
28.98951 255.000
29.00945 225.000
29.02940 248.000
29.04935 237.000
29.06930 217.000
29.08924 234.000
29.10919 242.000
29.12914 230.000
29.14908 214.000
29.16903 248.000
29.18898 254.000
29.20892 238.000
29.22887 239.000
29.24882 258.000
29.26877 231.000
29.28871 220.000
29.30866 233.000
29.32861 238.000
29.34855 236.000
29.36850 260.000
29.38845 255.000
29.40839 251.000
29.42834 255.000
29.44829 242.000
29.46823 214.000
29.48818 262.000
29.50813 263.000
29.52808 252.000
29.54802 253.000
29.56797 261.000
29.58792 235.000
29.60786 256.000
29.62781 262.000
29.64776 261.000
29.66770 240.000
29.68765 279.000
29.70760 221.000
29.72755 260.000
29.74749 237.000
29.76744 247.000
29.78739 245.000
29.80733 249.000
29.82728 262.000
29.84723 225.000
29.86717 239.000
29.88712 273.000
29.90707 270.000
29.92701 258.000
29.94696 240.000
29.96691 260.000
29.98686 244.000
30.00680 229.000
30.02675 247.000
30.04670 306.000
30.06664 282.000
30.08659 294.000
30.10654 309.000
30.12648 287.000
30.14643 341.000
30.16638 345.000
30.18633 372.000
30.20627 426.000
30.22622 441.000
30.24617 438.000
30.26611 398.000
30.28606 394.000
30.30601 397.000
30.32595 349.000
30.34590 310.000
30.36585 285.000
30.38579 299.000
30.40574 268.000
30.42569 284.000
30.44564 261.000
30.46558 265.000
30.48553 276.000
30.50548 260.000
30.52542 264.000
30.54537 270.000
30.56532 246.000
30.58526 249.000
30.60521 247.000
30.62516 261.000
30.64511 223.000
30.66505 234.000
30.68500 240.000
30.70495 248.000
30.72489 253.000
30.74484 236.000
30.76479 263.000
30.78473 260.000
30.80468 234.000
30.82463 264.000
30.84458 268.000
30.86452 255.000
30.88447 262.000
30.90442 254.000
30.92436 248.000
30.94431 254.000
30.96426 266.000
30.98420 264.000
31.00415 287.000
31.02410 234.000
31.04404 267.000
31.06399 269.000
31.08394 248.000
31.10389 245.000
31.12383 213.000
31.14378 241.000
31.16373 238.000
31.18367 251.000
31.20362 246.000
31.22357 259.000
31.24351 256.000
31.26346 259.000
31.28341 259.000
31.30336 259.000
31.32330 233.000
31.34325 262.000
31.36320 241.000
31.38314 259.000
31.40309 230.000
31.42304 283.000
31.44298 223.000
31.46293 247.000
31.48288 285.000
31.50282 245.000
31.52277 241.000
31.54272 232.000
31.56267 250.000
31.58261 266.000
31.60256 248.000
31.62251 258.000
31.64245 252.000
31.66240 245.000
31.68235 235.000
31.70229 250.000
31.72224 246.000
31.74219 244.000
31.76214 223.000
31.78208 250.000
31.80203 260.000
31.82198 212.000
31.84192 296.000
31.86187 226.000
31.88182 274.000
31.90176 233.000
31.92171 241.000
31.94166 241.000
31.96160 264.000
31.98155 279.000
32.00150 262.000
32.02145 276.000
32.04139 294.000
32.06134 281.000
32.08129 283.000
32.10123 306.000
32.12118 273.000
32.14113 311.000
32.16107 267.000
32.18102 245.000
32.20097 272.000
32.22092 291.000
32.24086 290.000
32.26081 247.000
32.28076 284.000
32.30070 281.000
32.32065 288.000
32.34060 286.000
32.36054 298.000
32.38049 313.000
32.40044 289.000
32.42039 320.000
32.44033 375.000
32.46028 412.000
32.48023 464.000
32.50017 404.000
32.52012 370.000
32.54007 400.000
32.56001 387.000
32.57996 347.000
32.59991 347.000
32.61985 287.000
32.63980 317.000
32.65975 305.000
32.67970 296.000
32.69964 291.000
32.71959 280.000
32.73954 301.000
32.75948 271.000
32.77943 265.000
32.79938 277.000
32.81932 261.000
32.83927 281.000
32.85922 273.000
32.87917 287.000
32.89911 295.000
32.91906 317.000
32.93901 312.000
32.95895 302.000
32.97890 332.000
32.99885 329.000
33.01879 357.000
33.03874 400.000
33.05869 377.000
33.07863 414.000
33.09858 438.000
33.11853 449.000
33.13848 424.000
33.15842 474.000
33.17837 521.000
33.19832 428.000
33.21826 436.000
33.23821 467.000
33.25816 465.000
33.27810 413.000
33.29805 382.000
33.31800 371.000
33.33795 343.000
33.35789 321.000
33.37784 301.000
33.39779 304.000
33.41773 289.000
33.43768 302.000
33.45763 279.000
33.47757 290.000
33.49752 297.000
33.51747 292.000
33.53741 280.000
33.55736 276.000
33.57731 263.000
33.59726 282.000
33.61720 250.000
33.63715 274.000
33.65710 302.000
33.67704 284.000
33.69699 290.000
33.71694 292.000
33.73688 291.000
33.75683 267.000
33.77678 288.000
33.79673 249.000
33.81667 263.000
33.83662 268.000
33.85657 301.000
33.87651 283.000
33.89646 289.000
33.91641 291.000
33.93635 320.000
33.95630 290.000
33.97625 278.000
33.99620 273.000
34.01614 303.000
34.03609 331.000
34.05604 344.000
34.07598 340.000
34.09593 394.000
34.11588 461.000
34.13582 466.000
34.15577 514.000
34.17572 547.000
34.19566 546.000
34.21561 599.000
34.23556 610.000
34.25551 646.000
34.27545 602.000
34.29540 615.000
34.31535 595.000
34.33529 625.000
34.35524 540.000
34.37519 555.000
34.39513 544.000
34.41508 537.000
34.43503 494.000
34.45498 497.000
34.47492 417.000
34.49487 461.000
34.51482 465.000
34.53476 438.000
34.55471 434.000
34.57466 356.000
34.59460 385.000
34.61455 343.000
34.63450 360.000
34.65444 341.000
34.67439 320.000
34.69434 353.000
34.71429 310.000
34.73423 283.000
34.75418 300.000
34.77413 324.000
34.79407 311.000
34.81402 326.000
34.83397 307.000
34.85391 356.000
34.87386 325.000
34.89381 325.000
34.91376 344.000
34.93370 302.000
34.95365 342.000
34.97360 425.000
34.99354 400.000
35.01349 426.000
35.03344 483.000
35.05338 470.000
35.07333 473.000
35.09328 514.000
35.11322 502.000
35.13317 500.000
35.15312 492.000
35.17307 496.000
35.19301 509.000
35.21296 536.000
35.23291 507.000
35.25285 484.000
35.27280 529.000
35.29275 583.000
35.31269 611.000
35.33264 621.000
35.35259 697.000
35.37254 812.000
35.39248 984.000
35.41243 1173.000
35.43238 1337.000
35.45232 1415.000
35.47227 1655.000
35.49222 1967.000
35.51216 2334.000
35.53211 2565.000
35.55206 2347.000
35.57201 2053.000
35.59195 2166.000
35.61190 2220.000
35.63185 1950.000
35.65179 1569.000
35.67174 1301.000
35.69169 1096.000
35.71163 1028.000
35.73158 812.000
35.75153 704.000
35.77147 585.000
35.79142 505.000
35.81137 543.000
35.83132 472.000
35.85126 409.000
35.87121 400.000
35.89116 434.000
35.91110 373.000
35.93105 374.000
35.95100 382.000
35.97094 369.000
35.99089 352.000
36.01084 337.000
36.03079 320.000
36.05073 310.000
36.07068 344.000
36.09063 332.000
36.11057 290.000
36.13052 317.000
36.15047 322.000
36.17041 323.000
36.19036 319.000
36.21031 301.000
36.23025 330.000
36.25020 344.000
36.27015 337.000
36.29010 371.000
36.31004 450.000
36.32999 474.000
36.34994 508.000
36.36988 518.000
36.38983 574.000
36.40978 576.000
36.42972 584.000
36.44967 667.000
36.46962 629.000
36.48957 565.000
36.50951 558.000
36.52946 547.000
36.54941 473.000
36.56935 472.000
36.58930 406.000
36.60925 415.000
36.62919 370.000
36.64914 364.000
36.66909 334.000
36.68903 349.000
36.70898 322.000
36.72893 378.000
36.74888 343.000
36.76882 324.000
36.78877 305.000
36.80872 306.000
36.82866 322.000
36.84861 308.000
36.86856 311.000
36.88850 312.000
36.90845 327.000
36.92840 329.000
36.94835 334.000
36.96829 335.000
36.98824 354.000
37.00819 330.000
37.02813 324.000
37.04808 341.000
37.06803 390.000
37.08797 385.000
37.10792 403.000
37.12787 394.000
37.14781 375.000
37.16776 399.000
37.18771 376.000
37.20766 387.000
37.22760 409.000
37.24755 385.000
37.26750 434.000
37.28744 340.000
37.30739 353.000
37.32734 331.000
37.34728 336.000
37.36723 347.000
37.38718 288.000
37.40713 292.000
37.42707 274.000
37.44702 275.000
37.46697 271.000
37.48691 262.000
37.50686 302.000
37.52681 272.000
37.54675 270.000
37.56670 267.000
37.58665 299.000
37.60660 274.000
37.62654 253.000
37.64649 251.000
37.66644 280.000
37.68638 257.000
37.70633 266.000
37.72628 239.000
37.74622 262.000
37.76617 271.000
37.78612 269.000
37.80606 288.000
37.82601 273.000
37.84596 257.000
37.86591 281.000
37.88585 291.000
37.90580 298.000
37.92575 276.000
37.94569 272.000
37.96564 303.000
37.98559 277.000
38.00553 279.000
38.02548 323.000
38.04543 310.000
38.06538 273.000
38.08532 301.000
38.10527 310.000
38.12522 298.000
38.14516 310.000
38.16511 307.000
38.18506 316.000
38.20500 337.000
38.22495 303.000
38.24490 309.000
38.26484 280.000
38.28479 345.000
38.30474 347.000
38.32469 315.000
38.34463 340.000
38.36458 408.000
38.38453 363.000
38.40447 402.000
38.42442 364.000
38.44437 448.000
38.46431 414.000
38.48426 478.000
38.50421 509.000
38.52416 536.000
38.54410 610.000
38.56405 702.000
38.58400 796.000
38.60394 926.000
38.62389 1069.000
38.64384 1283.000
38.66378 1500.000
38.68373 1591.000
38.70368 1586.000
38.72362 1467.000
38.74357 1459.000
38.76352 1375.000
38.78347 1255.000
38.80341 1137.000
38.82336 1098.000
38.84331 932.000
38.86325 860.000
38.88320 762.000
38.90315 687.000
38.92309 688.000
38.94304 734.000
38.96299 723.000
38.98294 747.000
39.00288 715.000
39.02283 654.000
39.04278 595.000
39.06272 574.000
39.08267 548.000
39.10262 486.000
39.12256 497.000
39.14251 447.000
39.16246 441.000
39.18241 405.000
39.20235 392.000
39.22230 376.000
39.24225 346.000
39.26219 340.000
39.28214 346.000
39.30209 328.000
39.32203 318.000
39.34198 301.000
39.36193 313.000
39.38187 303.000
39.40182 293.000
39.42177 275.000
39.44172 280.000
39.46166 286.000
39.48161 261.000
39.50156 259.000
39.52150 270.000
39.54145 288.000
39.56140 286.000
39.58134 316.000
39.60129 284.000
39.62124 263.000
39.64119 271.000
39.66113 278.000
39.68108 255.000
39.70103 280.000
39.72097 293.000
39.74092 276.000
39.76087 256.000
39.78081 280.000
39.80076 255.000
39.82071 270.000
39.84065 256.000
39.86060 283.000
39.88055 265.000
39.90050 223.000
39.92044 258.000
39.94039 263.000
39.96034 282.000
39.98028 280.000
40.00023 274.000
40.02018 259.000
40.04012 268.000
40.06007 261.000
40.08002 268.000
40.09997 261.000
40.11991 230.000
40.13986 271.000
40.15981 289.000
40.17975 243.000
40.19970 257.000
40.21965 265.000
40.23959 237.000
40.25954 246.000
40.27949 254.000
40.29943 251.000
40.31938 279.000
40.33933 249.000
40.35928 252.000
40.37922 253.000
40.39917 262.000
40.41912 251.000
40.43906 259.000
40.45901 269.000
40.47896 289.000
40.49890 265.000
40.51885 258.000
40.53880 304.000
40.55875 263.000
40.57869 287.000
40.59864 236.000
40.61859 234.000
40.63853 260.000
40.65848 273.000
40.67843 262.000
40.69837 252.000
40.71832 269.000
40.73827 273.000
40.75822 280.000
40.77816 257.000
40.79811 281.000
40.81806 256.000
40.83800 280.000
40.85795 301.000
40.87790 286.000
40.89784 272.000
40.91779 284.000
40.93774 266.000
40.95768 324.000
40.97763 279.000
40.99758 305.000
41.01753 287.000
41.03747 300.000
41.05742 250.000
41.07737 300.000
41.09731 316.000
41.11726 365.000
41.13721 335.000
41.15715 339.000
41.17710 360.000
41.19705 375.000
41.21700 410.000
41.23694 464.000
41.25689 544.000
41.27684 631.000
41.29678 857.000
41.31673 1131.000
41.33668 1407.000
41.35662 1629.000
41.37657 1801.000
41.39652 1708.000
41.41646 1905.000
41.43641 1797.000
41.45636 1802.000
41.47631 1512.000
41.49625 1395.000
41.51620 1283.000
41.53615 1181.000
41.55609 978.000
41.57604 862.000
41.59599 763.000
41.61593 682.000
41.63588 588.000
41.65583 544.000
41.67578 495.000
41.69572 482.000
41.71567 445.000
41.73562 375.000
41.75556 380.000
41.77551 396.000
41.79546 346.000
41.81540 358.000
41.83535 322.000
41.85530 319.000
41.87524 336.000
41.89519 313.000
41.91514 302.000
41.93509 306.000
41.95503 251.000
41.97498 312.000
41.99493 292.000
42.01487 306.000
42.03482 283.000
42.05477 297.000
42.07471 281.000
42.09466 296.000
42.11461 292.000
42.13456 262.000
42.15450 288.000
42.17445 275.000
42.19440 323.000
42.21434 253.000
42.23429 247.000
42.25424 298.000
42.27418 256.000
42.29413 263.000
42.31408 285.000
42.33403 251.000
42.35397 269.000
42.37392 306.000
42.39387 284.000
42.41381 274.000
42.43376 263.000
42.45371 281.000
42.47365 262.000
42.49360 278.000
42.51355 284.000
42.53349 280.000
42.55344 292.000
42.57339 243.000
42.59334 261.000
42.61328 293.000
42.63323 289.000
42.65318 286.000
42.67312 293.000
42.69307 272.000
42.71302 298.000
42.73296 273.000
42.75291 292.000
42.77286 306.000
42.79281 253.000
42.81275 298.000
42.83270 297.000
42.85265 310.000
42.87259 326.000
42.89254 295.000
42.91249 324.000
42.93243 301.000
42.95238 324.000
42.97233 326.000
42.99227 328.000
43.01222 351.000
43.03217 368.000
43.05212 336.000
43.07206 387.000
43.09201 358.000
43.11196 410.000
43.13190 363.000
43.15185 398.000
43.17180 411.000
43.19174 403.000
43.21169 405.000
43.23164 436.000
43.25159 451.000
43.27153 441.000
43.29148 490.000
43.31143 466.000
43.33137 431.000
43.35132 409.000
43.37127 392.000
43.39121 398.000
43.41116 334.000
43.43111 338.000
43.45105 312.000
43.47100 334.000
43.49095 289.000
43.51090 281.000
43.53084 275.000
43.55079 292.000
43.57074 281.000
43.59068 263.000
43.61063 259.000
43.63058 281.000
43.65052 267.000
43.67047 266.000
43.69042 274.000
43.71037 251.000
43.73031 271.000
43.75026 213.000
43.77021 253.000
43.79015 253.000
43.81010 235.000
43.83005 233.000
43.84999 270.000
43.86994 235.000
43.88989 241.000
43.90984 275.000
43.92978 244.000
43.94973 263.000
43.96968 242.000
43.98962 262.000
44.00957 233.000
44.02952 239.000
44.04946 258.000
44.06941 239.000
44.08936 231.000
44.10930 247.000
44.12925 235.000
44.14920 236.000
44.16915 247.000
44.18909 236.000
44.20904 254.000
44.22899 252.000
44.24893 244.000
44.26888 243.000
44.28883 225.000
44.30877 249.000
44.32872 228.000
44.34867 260.000
44.36862 252.000
44.38856 236.000
44.40851 226.000
44.42846 247.000
44.44840 243.000
44.46835 265.000
44.48830 269.000
44.50824 245.000
44.52819 245.000
44.54814 243.000
44.56808 241.000
44.58803 269.000
44.60798 236.000
44.62793 220.000
44.64787 267.000
44.66782 257.000
44.68777 255.000
44.70771 250.000
44.72766 249.000
44.74761 278.000
44.76755 293.000
44.78750 275.000
44.80745 300.000
44.82740 328.000
44.84734 287.000
44.86729 279.000
44.88724 302.000
44.90718 287.000
44.92713 264.000
44.94708 251.000
44.96702 265.000
44.98697 250.000
45.00692 234.000
45.02686 254.000
45.04681 252.000
45.06676 240.000
45.08671 234.000
45.10665 252.000
45.12660 237.000
45.14655 253.000
45.16649 243.000
45.18644 255.000
45.20639 239.000
45.22633 280.000
45.24628 233.000
45.26623 239.000
45.28618 245.000
45.30612 247.000
45.32607 234.000
45.34602 278.000
45.36596 220.000
45.38591 221.000
45.40586 257.000
45.42580 238.000
45.44575 226.000
45.46570 250.000
45.48565 232.000
45.50559 235.000
45.52554 255.000
45.54549 251.000
45.56543 244.000
45.58538 264.000
45.60533 224.000
45.62527 239.000
45.64522 247.000
45.66517 216.000
45.68511 252.000
45.70506 245.000
45.72501 255.000
45.74496 264.000
45.76490 215.000
45.78485 248.000
45.80480 226.000
45.82474 264.000
45.84469 250.000
45.86464 206.000
45.88458 222.000
45.90453 240.000
45.92448 254.000
45.94443 238.000
45.96437 272.000
45.98432 243.000
46.00427 259.000
46.02421 239.000
46.04416 255.000
46.06411 240.000
46.08405 230.000
46.10400 237.000
46.12395 225.000
46.14389 253.000
46.16384 267.000
46.18379 237.000
46.20374 270.000
46.22368 270.000
46.24363 299.000
46.26358 244.000
46.28352 274.000
46.30347 242.000
46.32342 268.000
46.34336 264.000
46.36331 274.000
46.38326 261.000
46.40321 262.000
46.42315 262.000
46.44310 278.000
46.46305 239.000
46.48299 234.000
46.50294 229.000
46.52289 246.000
46.54283 237.000
46.56278 284.000
46.58273 239.000
46.60267 235.000
46.62262 258.000
46.64257 236.000
46.66252 224.000
46.68246 236.000
46.70241 234.000
46.72236 244.000
46.74230 255.000
46.76225 247.000
46.78220 236.000
46.80214 235.000
46.82209 243.000
46.84204 231.000
46.86199 257.000
46.88193 231.000
46.90188 237.000
46.92183 240.000
46.94177 252.000
46.96172 256.000
46.98167 257.000
47.00161 216.000
47.02156 270.000
47.04151 247.000
47.06146 248.000
47.08140 251.000
47.10135 278.000
47.12130 231.000
47.14124 244.000
47.16119 203.000
47.18114 237.000
47.20108 242.000
47.22103 240.000
47.24098 224.000
47.26092 218.000
47.28087 246.000
47.30082 233.000
47.32077 225.000
47.34071 233.000
47.36066 246.000
47.38061 229.000
47.40055 262.000
47.42050 240.000
47.44045 224.000
47.46039 259.000
47.48034 236.000
47.50029 237.000
47.52024 266.000
47.54018 244.000
47.56013 225.000
47.58008 239.000
47.60002 257.000
47.61997 247.000
47.63992 225.000
47.65986 254.000
47.67981 227.000
47.69976 228.000
47.71970 221.000
47.73965 237.000
47.75960 223.000
47.77955 258.000
47.79949 247.000
47.81944 226.000
47.83939 232.000
47.85933 219.000
47.87928 244.000
47.89923 237.000
47.91917 255.000
47.93912 246.000
47.95907 245.000
47.97902 245.000
47.99896 254.000
48.01891 243.000
48.03886 253.000
48.05880 256.000
48.07875 259.000
48.09870 290.000
48.11864 252.000
48.13859 261.000
48.15854 244.000
48.17848 265.000
48.19843 258.000
48.21838 273.000
48.23833 260.000
48.25827 259.000
48.27822 255.000
48.29817 241.000
48.31811 216.000
48.33806 267.000
48.35801 265.000
48.37795 264.000
48.39790 268.000
48.41785 278.000
48.43780 278.000
48.45774 296.000
48.47769 294.000
48.49764 289.000
48.51758 287.000
48.53753 287.000
48.55748 299.000
48.57742 299.000
48.59737 338.000
48.61732 352.000
48.63726 348.000
48.65721 372.000
48.67716 386.000
48.69711 437.000
48.71705 461.000
48.73700 484.000
48.75695 540.000
48.77689 553.000
48.79684 617.000
48.81679 586.000
48.83673 630.000
48.85668 646.000
48.87663 582.000
48.89658 539.000
48.91652 549.000
48.93647 527.000
48.95642 473.000
48.97636 493.000
48.99631 447.000
49.01626 423.000
49.03620 425.000
49.05615 372.000
49.07610 399.000
49.09605 328.000
49.11599 328.000
49.13594 327.000
49.15589 335.000
49.17583 315.000
49.19578 316.000
49.21573 310.000
49.23567 280.000
49.25562 307.000
49.27557 317.000
49.29551 282.000
49.31546 273.000
49.33541 285.000
49.35536 292.000
49.37530 258.000
49.39525 273.000
49.41520 286.000
49.43514 287.000
49.45509 260.000
49.47504 260.000
49.49498 276.000
49.51493 242.000
49.53488 257.000
49.55483 266.000
49.57477 262.000
49.59472 288.000
49.61467 235.000
49.63461 265.000
49.65456 267.000
49.67451 274.000
49.69445 263.000
49.71440 249.000
49.73435 244.000
49.75429 257.000
49.77424 255.000
49.79419 256.000
49.81414 252.000
49.83408 235.000
49.85403 233.000
49.87398 272.000
49.89392 219.000
49.91387 241.000
49.93382 248.000
49.95376 265.000
49.97371 234.000
49.99366 273.000
50.01361 240.000
50.03355 249.000
50.05350 222.000
50.07345 252.000
50.09339 263.000
50.11334 225.000
50.13329 242.000
50.15323 256.000
50.17318 236.000
50.19313 213.000
50.21307 235.000
50.23302 225.000
50.25297 229.000
50.27292 246.000
50.29286 252.000
50.31281 237.000
50.33276 251.000
50.35270 262.000
50.37265 262.000
50.39260 250.000
50.41254 270.000
50.43249 234.000
50.45244 247.000
50.47239 275.000
50.49233 281.000
50.51228 221.000
50.53223 241.000
50.55217 240.000
50.57212 277.000
50.59207 218.000
50.61201 251.000
50.63196 242.000
50.65191 219.000
50.67186 219.000
50.69180 255.000
50.71175 232.000
50.73170 231.000
50.75164 266.000
50.77159 262.000
50.79154 262.000
50.81148 228.000
50.83143 255.000
50.85138 209.000
50.87132 247.000
50.89127 242.000
50.91122 248.000
50.93117 244.000
50.95111 229.000
50.97106 282.000
50.99101 253.000
51.01095 209.000
51.03090 252.000
51.05085 247.000
51.07079 258.000
51.09074 232.000
51.11069 265.000
51.13064 234.000
51.15058 242.000
51.17053 260.000
51.19048 238.000
51.21042 281.000
51.23037 266.000
51.25032 274.000
51.27026 243.000
51.29021 243.000
51.31016 282.000
51.33010 257.000
51.35005 264.000
51.37000 229.000
51.38995 269.000
51.40989 266.000
51.42984 236.000
51.44979 243.000
51.46973 261.000
51.48968 280.000
51.50963 241.000
51.52957 226.000
51.54952 246.000
51.56947 203.000
51.58942 244.000
51.60936 250.000
51.62931 238.000
51.64926 236.000
51.66920 253.000
51.68915 245.000
51.70910 232.000
51.72904 244.000
51.74899 226.000
51.76894 239.000
51.78888 239.000
51.80883 226.000
51.82878 253.000
51.84873 253.000
51.86867 227.000
51.88862 245.000
51.90857 219.000
51.92851 215.000
51.94846 227.000
51.96841 242.000
51.98835 239.000
52.00830 241.000
52.02825 222.000
52.04820 263.000
52.06814 232.000
52.08809 248.000
52.10804 236.000
52.12798 254.000
52.14793 249.000
52.16788 236.000
52.18782 218.000
52.20777 267.000
52.22772 261.000
52.24767 249.000
52.26761 220.000
52.28756 262.000
52.30751 256.000
52.32745 259.000
52.34740 253.000
52.36735 241.000
52.38729 266.000
52.40724 253.000
52.42719 238.000
52.44713 265.000
52.46708 259.000
52.48703 236.000
52.50698 236.000
52.52692 249.000
52.54687 224.000
52.56682 243.000
52.58676 254.000
52.60671 237.000
52.62666 239.000
52.64660 235.000
52.66655 256.000
52.68650 248.000
52.70645 261.000
52.72639 243.000
52.74634 273.000
52.76629 282.000
52.78623 265.000
52.80618 261.000
52.82613 286.000
52.84607 260.000
52.86602 289.000
52.88597 278.000
52.90591 294.000
52.92586 315.000
52.94581 351.000
52.96576 339.000
52.98570 369.000
53.00565 409.000
53.02560 409.000
53.04554 460.000
53.06549 525.000
53.08544 497.000
53.10538 434.000
53.12533 417.000
53.14528 401.000
53.16523 378.000
53.18517 393.000
53.20512 428.000
53.22507 454.000
53.24501 395.000
53.26496 391.000
53.28491 340.000
53.30485 334.000
53.32480 333.000
53.34475 344.000
53.36469 320.000
53.38464 328.000
53.40459 357.000
53.42454 351.000
53.44448 328.000
53.46443 342.000
53.48438 338.000
53.50432 320.000
53.52427 331.000
53.54422 307.000
53.56416 287.000
53.58411 294.000
53.60406 283.000
53.62401 299.000
53.64395 297.000
53.66390 318.000
53.68385 318.000
53.70379 336.000
53.72374 278.000
53.74369 325.000
53.76363 294.000
53.78358 297.000
53.80353 282.000
53.82348 280.000
53.84342 260.000
53.86337 282.000
53.88332 299.000
53.90326 248.000
53.92321 265.000
53.94316 266.000
53.96310 272.000
53.98305 257.000
54.00300 245.000
54.02294 254.000
54.04289 241.000
54.06284 254.000
54.08279 285.000
54.10273 242.000
54.12268 249.000
54.14263 262.000
54.16257 272.000
54.18252 231.000
54.20247 273.000
54.22241 245.000
54.24236 225.000
54.26231 258.000
54.28226 223.000
54.30220 265.000
54.32215 289.000
54.34210 247.000
54.36204 243.000
54.38199 245.000
54.40194 284.000
54.42188 228.000
54.44183 227.000
54.46178 225.000
54.48172 274.000
54.50167 248.000
54.52162 231.000
54.54157 237.000
54.56151 236.000
54.58146 237.000
54.60141 263.000
54.62135 234.000
54.64130 218.000
54.66125 246.000
54.68119 236.000
54.70114 239.000
54.72109 249.000
54.74104 216.000
54.76098 223.000
54.78093 253.000
54.80088 216.000
54.82082 238.000
54.84077 235.000
54.86072 234.000
54.88066 239.000
54.90061 257.000
54.92056 264.000
54.94050 251.000
54.96045 213.000
54.98040 236.000
55.00035 256.000
55.02029 261.000
55.04024 234.000
55.06019 254.000
55.08013 236.000
55.10008 244.000
55.12003 243.000
55.13997 240.000
55.15992 257.000
55.17987 257.000
55.19982 272.000
55.21976 227.000
55.23971 218.000
55.25966 233.000
55.27960 238.000
55.29955 249.000
55.31950 235.000
55.33944 264.000
55.35939 250.000
55.37934 227.000
55.39929 217.000
55.41923 238.000
55.43918 263.000
55.45913 252.000
55.47907 245.000
55.49902 245.000
55.51897 244.000
55.53891 269.000
55.55886 240.000
55.57881 242.000
55.59875 258.000
55.61870 252.000
55.63865 268.000
55.65860 232.000
55.67854 249.000
55.69849 242.000
55.71844 264.000
55.73838 240.000
55.75833 221.000
55.77828 212.000
55.79822 239.000
55.81817 240.000
55.83812 264.000
55.85807 252.000
55.87801 254.000
55.89796 235.000
55.91791 216.000
55.93785 227.000
55.95780 230.000
55.97775 225.000
55.99769 248.000
56.01764 249.000
56.03759 212.000
56.05753 254.000
56.07748 235.000
56.09743 229.000
56.11738 275.000
56.13732 235.000
56.15727 240.000
56.17722 233.000
56.19716 245.000
56.21711 237.000
56.23706 257.000
56.25700 238.000
56.27695 253.000
56.29690 233.000
56.31685 240.000
56.33679 238.000
56.35674 225.000
56.37669 259.000
56.39663 280.000
56.41658 249.000
56.43653 245.000
56.45647 261.000
56.47642 227.000
56.49637 241.000
56.51631 243.000
56.53626 243.000
56.55621 246.000
56.57616 244.000
56.59610 213.000
56.61605 254.000
56.63600 237.000
56.65594 273.000
56.67589 246.000
56.69584 233.000
56.71578 268.000
56.73573 238.000
56.75568 276.000
56.77563 256.000
56.79557 264.000
56.81552 244.000
56.83547 240.000
56.85541 223.000
56.87536 236.000
56.89531 258.000
56.91525 264.000
56.93520 277.000
56.95515 259.000
56.97510 266.000
56.99504 276.000
57.01499 290.000
57.03494 297.000
57.05488 269.000
57.07483 282.000
57.09478 269.000
57.11472 270.000
57.13467 276.000
57.15462 289.000
57.17456 326.000
57.19451 348.000
57.21446 333.000
57.23441 394.000
57.25435 397.000
57.27430 436.000
57.29425 395.000
57.31419 354.000
57.33414 350.000
57.35409 335.000
57.37403 352.000
57.39398 322.000
57.41393 379.000
57.43388 361.000
57.45382 353.000
57.47377 324.000
57.49372 288.000
57.51366 317.000
57.53361 332.000
57.55356 316.000
57.57350 304.000
57.59345 307.000
57.61340 380.000
57.63334 378.000
57.65329 383.000
57.67324 409.000
57.69319 467.000
57.71313 471.000
57.73308 474.000
57.75303 614.000
57.77297 656.000
57.79292 678.000
57.81287 680.000
57.83281 627.000
57.85276 575.000
57.87271 545.000
57.89266 489.000
57.91260 471.000
57.93255 468.000
57.95250 498.000
57.97244 452.000
57.99239 437.000
58.01234 398.000
58.03228 367.000
58.05223 302.000
58.07218 330.000
58.09212 332.000
58.11207 370.000
58.13202 356.000
58.15197 303.000
58.17191 355.000
58.19186 339.000
58.21181 360.000
58.23175 378.000
58.25170 370.000
58.27165 410.000
58.29159 370.000
58.31154 374.000
58.33149 344.000
58.35144 336.000
58.37138 340.000
58.39133 338.000
58.41128 345.000
58.43122 354.000
58.45117 338.000
58.47112 305.000
58.49106 324.000
58.51101 308.000
58.53096 315.000
58.55090 290.000
58.57085 300.000
58.59080 269.000
58.61075 276.000
58.63069 291.000
58.65064 252.000
58.67059 268.000
58.69053 279.000
58.71048 264.000
58.73043 255.000
58.75037 247.000
58.77032 264.000
58.79027 243.000
58.81022 254.000
58.83016 268.000
58.85011 246.000
58.87006 258.000
58.89000 257.000
58.90995 263.000
58.92990 234.000
58.94984 263.000
58.96979 247.000
58.98974 256.000
59.00969 256.000
59.02963 235.000
59.04958 263.000
59.06953 250.000
59.08947 250.000
59.10942 242.000
59.12937 267.000
59.14931 260.000
59.16926 239.000
59.18921 225.000
59.20915 255.000
59.22910 248.000
59.24905 246.000
59.26900 280.000
59.28894 232.000
59.30889 266.000
59.32884 281.000
59.34878 246.000
59.36873 232.000
59.38868 257.000
59.40862 273.000
59.42857 245.000
59.44852 239.000
59.46847 238.000
59.48841 239.000
59.50836 230.000
59.52831 239.000
59.54825 268.000
59.56820 258.000
59.58815 252.000
59.60809 253.000
59.62804 229.000
59.64799 257.000
59.66793 235.000
59.68788 212.000
59.70783 244.000
59.72778 248.000
59.74772 255.000
59.76767 239.000
59.78762 249.000
59.80756 202.000
59.82751 291.000
59.84746 248.000
59.86740 250.000
59.88735 243.000
59.90730 256.000
59.92725 213.000
59.94719 229.000
59.96714 249.000
59.98709 242.000
60.00703 246.000
60.02698 293.000
60.04693 276.000
60.06687 220.000
60.08682 250.000
60.10677 231.000
60.12671 230.000
60.14666 241.000
60.16661 233.000
60.18656 255.000
60.20650 256.000
60.22645 231.000
60.24640 284.000
60.26634 250.000
60.28629 203.000
60.30624 261.000
60.32618 252.000
60.34613 254.000
60.36608 235.000
60.38603 280.000
60.40597 227.000
60.42592 267.000
60.44587 248.000
60.46581 258.000
60.48576 232.000
60.50571 269.000
60.52565 239.000
60.54560 258.000
60.56555 237.000
60.58550 255.000
60.60544 261.000
60.62539 272.000
60.64534 265.000
60.66528 227.000
60.68523 250.000
60.70518 265.000
60.72512 224.000
60.74507 266.000
60.76502 243.000
60.78496 263.000
60.80491 238.000
60.82486 296.000
60.84481 283.000
60.86475 246.000
60.88470 250.000
60.90465 274.000
60.92459 272.000
60.94454 279.000
60.96449 286.000
60.98443 269.000
61.00438 300.000
61.02433 252.000
61.04428 296.000
61.06422 290.000
61.08417 283.000
61.10412 286.000
61.12406 294.000
61.14401 302.000
61.16396 304.000
61.18390 310.000
61.20385 342.000
61.22380 348.000
61.24374 315.000
61.26369 320.000
61.28364 321.000
61.30359 309.000
61.32353 358.000
61.34348 332.000
61.36343 339.000
61.38337 391.000
61.40332 360.000
61.42327 418.000
61.44321 417.000
61.46316 473.000
61.48311 491.000
61.50306 524.000
61.52300 593.000
61.54295 591.000
61.56290 565.000
61.58284 518.000
61.60279 534.000
61.62274 473.000
61.64268 459.000
61.66263 460.000
61.68258 504.000
61.70252 481.000
61.72247 465.000
61.74242 481.000
61.76237 431.000
61.78231 460.000
61.80226 412.000
61.82221 397.000
61.84215 455.000
61.86210 435.000
61.88205 390.000
61.90199 432.000
61.92194 466.000
61.94189 505.000
61.96184 449.000
61.98178 463.000
62.00173 448.000
62.02168 454.000
62.04162 438.000
62.06157 430.000
62.08152 451.000
62.10146 455.000
62.12141 491.000
62.14136 440.000
62.16131 460.000
62.18125 450.000
62.20120 432.000
62.22115 429.000
62.24109 420.000
62.26104 406.000
62.28099 398.000
62.30093 369.000
62.32088 448.000
62.34083 413.000
62.36077 399.000
62.38072 378.000
62.40067 375.000
62.42062 399.000
62.44056 388.000
62.46051 363.000
62.48046 379.000
62.50040 395.000
62.52035 357.000
62.54030 418.000
62.56024 331.000
62.58019 393.000
62.60014 375.000
62.62009 342.000
62.64003 369.000
62.65998 385.000
62.67993 362.000
62.69987 391.000
62.71982 383.000
62.73977 417.000
62.75971 412.000
62.77966 406.000
62.79961 381.000
62.81955 401.000
62.83950 474.000
62.85945 474.000
62.87940 440.000
62.89934 519.000
62.91929 465.000
62.93924 395.000
62.95918 370.000
62.97913 399.000
62.99908 376.000
63.01902 390.000
63.03897 396.000
63.05892 412.000
63.07887 355.000
63.09881 360.000
63.11876 350.000
63.13871 373.000
63.15865 277.000
63.17860 302.000
63.19855 284.000
63.21849 305.000
63.23844 279.000
63.25839 269.000
63.27833 309.000
63.29828 267.000
63.31823 262.000
63.33818 272.000
63.35812 270.000
63.37807 257.000
63.39802 263.000
63.41796 262.000
63.43791 269.000
63.45786 247.000
63.47780 238.000
63.49775 276.000
63.51770 256.000
63.53765 253.000
63.55759 242.000
63.57754 235.000
63.59749 277.000
63.61743 276.000
63.63738 253.000
63.65733 249.000
63.67727 256.000
63.69722 263.000
63.71717 262.000
63.73712 241.000
63.75706 232.000
63.77701 252.000
63.79696 286.000
63.81690 255.000
63.83685 246.000
63.85680 272.000
63.87674 244.000
63.89669 250.000
63.91664 258.000
63.93658 236.000
63.95653 243.000
63.97648 258.000
63.99643 280.000
64.01637 275.000
64.03632 249.000
64.05627 265.000
64.07621 266.000
64.09616 259.000
64.11611 265.000
64.13605 254.000
64.15600 288.000
64.17595 237.000
64.19590 239.000
64.21584 268.000
64.23579 246.000
64.25574 259.000
64.27568 257.000
64.29563 259.000
64.31558 276.000
64.33552 274.000
64.35547 274.000
64.37542 274.000
64.39536 227.000
64.41531 259.000
64.43526 277.000
64.45521 262.000
64.47515 273.000
64.49510 284.000
64.51505 283.000
64.53499 282.000
64.55494 248.000
64.57489 297.000
64.59483 296.000
64.61478 304.000
64.63473 310.000
64.65468 283.000
64.67462 285.000
64.69457 308.000
64.71452 326.000
64.73446 315.000
64.75441 306.000
64.77436 303.000
64.79430 272.000
64.81425 301.000
64.83420 290.000
64.85414 279.000
64.87409 305.000
64.89404 308.000
64.91399 306.000
64.93393 310.000
64.95388 268.000
64.97383 306.000
64.99377 313.000
65.01372 303.000
65.03367 286.000
65.05361 292.000
65.07356 308.000
65.09351 281.000
65.11346 283.000
65.13340 281.000
65.15335 268.000
65.17330 290.000
65.19324 291.000
65.21319 256.000
65.23314 289.000
65.25308 289.000
65.27303 294.000
65.29298 271.000
65.31293 296.000
65.33287 270.000
65.35282 291.000
65.37277 305.000
65.39271 297.000
65.41266 289.000
65.43261 289.000
65.45255 296.000
65.47250 300.000
65.49245 304.000
65.51239 278.000
65.53234 302.000
65.55229 339.000
65.57224 324.000
65.59218 347.000
65.61213 361.000
65.63208 335.000
65.65202 369.000
65.67197 357.000
65.69192 356.000
65.71186 394.000
65.73181 320.000
65.75176 368.000
65.77171 373.000
65.79165 397.000
65.81160 354.000
65.83155 378.000
65.85149 408.000
65.87144 357.000
65.89139 353.000
65.91133 338.000
65.93128 377.000
65.95123 344.000
65.97117 340.000
65.99112 345.000
66.01107 327.000
66.03102 312.000
66.05096 315.000
66.07091 301.000
66.09086 310.000
66.11080 304.000
66.13075 293.000
66.15070 313.000
66.17064 350.000
66.19059 327.000
66.21054 340.000
66.23049 365.000
66.25043 396.000
66.27038 449.000
66.29033 406.000
66.31027 438.000
66.33022 500.000
66.35017 400.000
66.37011 399.000
66.39006 395.000
66.41001 363.000
66.42995 379.000
66.44990 370.000
66.46985 353.000
66.48980 373.000
66.50974 368.000
66.52969 369.000
66.54964 335.000
66.56958 322.000
66.58953 312.000
66.60948 298.000
66.62942 314.000
66.64937 303.000
66.66932 300.000
66.68927 285.000
66.70921 273.000
66.72916 297.000
66.74911 286.000
66.76905 274.000
66.78900 268.000
66.80895 245.000
66.82889 245.000
66.84884 284.000
66.86879 260.000
66.88874 275.000
66.90868 237.000
66.92863 266.000
66.94858 218.000
66.96852 268.000
66.98847 247.000
67.00842 270.000
67.02836 250.000
67.04831 260.000
67.06826 249.000
67.08820 282.000
67.10815 235.000
67.12810 305.000
67.14805 234.000
67.16799 294.000
67.18794 278.000
67.20789 276.000
67.22783 267.000
67.24778 240.000
67.26773 276.000
67.28767 287.000
67.30762 240.000
67.32757 250.000
67.34752 253.000
67.36746 281.000
67.38741 274.000
67.40736 269.000
67.42730 239.000
67.44725 278.000
67.46720 272.000
67.48714 271.000
67.50709 297.000
67.52704 245.000
67.54698 277.000
67.56693 265.000
67.58688 289.000
67.60683 264.000
67.62677 297.000
67.64672 293.000
67.66667 248.000
67.68661 340.000
67.70656 302.000
67.72651 292.000
67.74645 323.000
67.76640 329.000
67.78635 371.000
67.80630 386.000
67.82624 357.000
67.84619 342.000
67.86614 383.000
67.88608 366.000
67.90603 409.000
67.92598 364.000
67.94592 426.000
67.96587 400.000
67.98582 454.000
68.00576 448.000
68.02571 449.000
68.04566 453.000
68.06561 468.000
68.08555 421.000
68.10550 421.000
68.12545 428.000
68.14539 371.000
68.16534 418.000
68.18529 415.000
68.20523 407.000
68.22518 404.000
68.24513 365.000
68.26508 396.000
68.28502 400.000
68.30497 387.000
68.32492 371.000
68.34486 381.000
68.36481 348.000
68.38476 378.000
68.40470 317.000
68.42465 365.000
68.44460 333.000
68.46455 327.000
68.48449 323.000
68.50444 309.000
68.52439 312.000
68.54433 297.000
68.56428 288.000
68.58423 259.000
68.60417 268.000
68.62412 292.000
68.64407 256.000
68.66401 287.000
68.68396 277.000
68.70391 255.000
68.72386 271.000
68.74380 266.000
68.76375 268.000
68.78370 265.000
68.80364 253.000
68.82359 268.000
68.84354 229.000
68.86348 255.000
68.88343 256.000
68.90338 263.000
68.92333 249.000
68.94327 260.000
68.96322 287.000
68.98317 249.000
69.00311 266.000
69.02306 287.000
69.04301 249.000
69.06295 242.000
69.08290 259.000
69.10285 246.000
69.12279 243.000
69.14274 230.000
69.16269 244.000
69.18264 214.000
69.20258 263.000
69.22253 245.000
69.24248 244.000
69.26242 244.000
69.28237 252.000
69.30232 256.000
69.32226 246.000
69.34221 268.000
69.36216 255.000
69.38211 287.000
69.40205 234.000
69.42200 255.000
69.44195 231.000
69.46189 242.000
69.48184 240.000
69.50179 230.000
69.52173 249.000
69.54168 255.000
69.56163 265.000
69.58157 229.000
69.60152 251.000
69.62147 238.000
69.64142 216.000
69.66136 267.000
69.68131 254.000
69.70126 291.000
69.72120 253.000
69.74115 234.000
69.76110 263.000
69.78104 255.000
69.80099 251.000
69.82094 237.000
69.84089 276.000
69.86083 280.000
69.88078 237.000
69.90073 240.000
69.92067 268.000
69.94062 265.000
69.96057 268.000
69.98051 233.000
70.00046 236.000
70.02041 270.000
70.04035 236.000
70.06030 252.000
70.08025 246.000
70.10020 223.000
70.12014 236.000
70.14009 221.000
70.16004 240.000
70.17998 247.000
70.19993 243.000
70.21988 252.000
70.23982 249.000
70.25977 255.000
70.27972 239.000
70.29967 247.000
70.31961 229.000
70.33956 240.000
70.35951 255.000
70.37945 272.000
70.39940 236.000
70.41935 240.000
70.43929 236.000
70.45924 265.000
70.47919 244.000
70.49914 255.000
70.51908 247.000
70.53903 231.000
70.55898 232.000
70.57892 228.000
70.59887 234.000
70.61882 261.000
70.63876 247.000
70.65871 227.000
70.67866 226.000
70.69860 236.000
70.71855 222.000
70.73850 255.000
70.75845 254.000
70.77839 234.000
70.79834 252.000
70.81829 245.000
70.83823 223.000
70.85818 249.000
70.87813 247.000
70.89807 236.000
70.91802 250.000
70.93797 215.000
70.95792 232.000
70.97786 261.000
70.99781 246.000
71.01776 210.000
71.03770 238.000
71.05765 255.000
71.07760 215.000
71.09754 251.000
71.11749 246.000
71.13744 221.000
71.15738 251.000
71.17733 250.000
71.19728 237.000
71.21723 256.000
71.23717 235.000
71.25712 227.000
71.27707 235.000
71.29701 242.000
71.31696 252.000
71.33691 248.000
71.35685 237.000
71.37680 254.000
71.39675 225.000
71.41670 242.000
71.43664 239.000
71.45659 256.000
71.47654 275.000
71.49648 224.000
71.51643 243.000
71.53638 229.000
71.55632 245.000
71.57627 258.000
71.59622 258.000
71.61616 265.000
71.63611 242.000
71.65606 271.000
71.67601 228.000
71.69595 237.000
71.71590 259.000
71.73585 241.000
71.75579 244.000
71.77574 229.000
71.79569 256.000
71.81563 263.000
71.83558 253.000
71.85553 239.000
71.87548 244.000
71.89542 283.000
71.91537 230.000
71.93532 235.000
71.95526 253.000
71.97521 260.000
71.99516 282.000
72.01510 270.000
72.03505 291.000
72.05500 266.000
72.07495 268.000
72.09489 307.000
72.11484 328.000
72.13479 338.000
72.15473 343.000
72.17468 348.000
72.19463 316.000
72.21457 336.000
72.23452 328.000
72.25447 336.000
72.27441 337.000
72.29436 366.000
72.31431 360.000
72.33426 365.000
72.35420 390.000
72.37415 379.000
72.39410 372.000
72.41404 392.000
72.43399 372.000
72.45394 367.000
72.47388 362.000
72.49383 350.000
72.51378 313.000
72.53373 324.000
72.55367 302.000
72.57362 360.000
72.59357 341.000
72.61351 277.000
72.63346 328.000
72.65341 299.000
72.67335 313.000
72.69330 323.000
72.71325 285.000
72.73319 274.000
72.75314 299.000
72.77309 255.000
72.79304 281.000
72.81298 284.000
72.83293 282.000
72.85288 277.000
72.87282 274.000
72.89277 279.000
72.91272 258.000
72.93266 231.000
72.95261 260.000
72.97256 267.000
72.99251 262.000
73.01245 246.000
73.03240 268.000
73.05235 236.000
73.07229 295.000
73.09224 255.000
73.11219 258.000
73.13213 263.000
73.15208 237.000
73.17203 239.000
73.19197 279.000
73.21192 255.000
73.23187 281.000
73.25182 256.000
73.27176 259.000
73.29171 241.000
73.31166 253.000
73.33160 269.000
73.35155 269.000
73.37150 277.000
73.39144 241.000
73.41139 256.000
73.43134 237.000
73.45129 252.000
73.47123 245.000
73.49118 266.000
73.51113 233.000
73.53107 260.000
73.55102 264.000
73.57097 257.000
73.59091 232.000
73.61086 253.000
73.63081 261.000
73.65076 234.000
73.67070 261.000
73.69065 291.000
73.71060 257.000
73.73054 237.000
73.75049 254.000
73.77044 276.000
73.79038 254.000
73.81033 253.000
73.83028 296.000
73.85022 278.000
73.87017 278.000
73.89012 294.000
73.91007 259.000
73.93001 290.000
73.94996 269.000
73.96991 270.000
73.98985 278.000
74.00980 262.000
74.02975 280.000
74.04969 298.000
74.06964 266.000
74.08959 328.000
74.10954 243.000
74.12948 290.000
74.14943 307.000
74.16938 311.000
74.18932 300.000
74.20927 332.000
74.22922 291.000
74.24916 338.000
74.26911 315.000
74.28906 285.000
74.30900 272.000
74.32895 280.000
74.34890 252.000
74.36885 316.000
74.38879 288.000
74.40874 309.000
74.42869 291.000
74.44863 317.000
74.46858 311.000
74.48853 302.000
74.50847 283.000
74.52842 321.000
74.54837 270.000
74.56832 279.000
74.58826 283.000
74.60821 270.000
74.62816 313.000
74.64810 293.000
74.66805 268.000
74.68800 271.000
74.70794 247.000
74.72789 246.000
74.74784 259.000
74.76778 305.000
74.78773 244.000
74.80768 260.000
74.82763 270.000
74.84757 267.000
74.86752 265.000
74.88747 278.000
74.90741 312.000
74.92736 303.000
74.94731 317.000
74.96725 309.000
74.98720 318.000
75.00715 327.000
75.02710 352.000
75.04704 331.000
75.06699 312.000
75.08694 367.000
75.10688 320.000
75.12683 338.000
75.14678 339.000
75.16672 363.000
75.18667 359.000
75.20662 350.000
75.22657 317.000
75.24651 310.000
75.26646 335.000
75.28641 315.000
75.30635 343.000
75.32630 314.000
75.34625 339.000
75.36619 339.000
75.38614 323.000
75.40609 302.000
75.42603 338.000
75.44598 309.000
75.46593 298.000
75.48588 306.000
75.50582 286.000
75.52577 301.000
75.54572 264.000
75.56566 262.000
75.58561 275.000
75.60556 278.000
75.62550 248.000
75.64545 275.000
75.66540 268.000
75.68535 273.000
75.70529 273.000
75.72524 264.000
75.74519 286.000
75.76513 258.000
75.78508 224.000
75.80503 254.000
75.82497 233.000
75.84492 238.000
75.86487 242.000
75.88481 239.000
75.90476 239.000
75.92471 245.000
75.94466 257.000
75.96460 246.000
75.98455 258.000
76.00450 267.000
76.02444 247.000
76.04439 238.000
76.06434 221.000
76.08428 261.000
76.10423 242.000
76.12418 234.000
76.14413 237.000
76.16407 205.000
76.18402 221.000
76.20397 228.000
76.22391 237.000
76.24386 261.000
76.26381 247.000
76.28375 240.000
76.30370 245.000
76.32365 258.000
76.34359 235.000
76.36354 283.000
76.38349 217.000
76.40344 218.000
76.42338 235.000
76.44333 262.000
76.46328 239.000
76.48322 252.000
76.50317 232.000
76.52312 223.000
76.54306 233.000
76.56301 262.000
76.58296 245.000
76.60291 245.000
76.62285 259.000
76.64280 252.000
76.66275 249.000
76.68269 231.000
76.70264 249.000
76.72259 233.000
76.74253 223.000
76.76248 211.000
76.78243 227.000
76.80238 241.000
76.82232 249.000
76.84227 253.000
76.86222 271.000
76.88216 227.000
76.90211 229.000
76.92206 250.000
76.94200 263.000
76.96195 261.000
76.98190 215.000
77.00184 236.000
77.02179 248.000
77.04174 232.000
77.06169 285.000
77.08163 246.000
77.10158 248.000
77.12153 287.000
77.14147 248.000
77.16142 291.000
77.18137 256.000
77.20131 287.000
77.22126 256.000
77.24121 273.000
77.26116 274.000
77.28110 282.000
77.30105 288.000
77.32100 273.000
77.34094 290.000
77.36089 262.000
77.38084 278.000
77.40078 279.000
77.42073 269.000
77.44068 319.000
77.46062 268.000
77.48057 284.000
77.50052 267.000
77.52047 316.000
77.54041 304.000
77.56036 284.000
77.58031 282.000
77.60025 264.000
77.62020 269.000
77.64015 260.000
77.66009 267.000
77.68004 287.000
77.69999 274.000
77.71994 283.000
77.73988 280.000
77.75983 300.000
77.77978 292.000
77.79972 283.000
77.81967 265.000
77.83962 256.000
77.85956 290.000
77.87951 279.000
77.89946 261.000
77.91940 259.000
77.93935 265.000
77.95930 253.000
77.97925 241.000
77.99919 250.000
78.01914 229.000
78.03909 247.000
78.05903 239.000
78.07898 247.000
78.09893 236.000
78.11887 237.000
78.13882 242.000
78.15877 269.000
78.17872 247.000
78.19866 244.000
78.21861 225.000
78.23856 252.000
78.25850 223.000
78.27845 259.000
78.29840 242.000
78.31834 231.000
78.33829 275.000
78.35824 266.000
78.37819 259.000
78.39813 242.000
78.41808 256.000
78.43803 240.000
78.45797 228.000
78.47792 259.000
78.49787 255.000
78.51781 254.000
78.53776 260.000
78.55771 244.000
78.57765 261.000
78.59760 232.000
78.61755 236.000
78.63750 246.000
78.65744 277.000
78.67739 234.000
78.69734 263.000
78.71728 255.000
78.73723 240.000
78.75718 226.000
78.77712 241.000
78.79707 223.000
78.81702 247.000
78.83697 246.000
78.85691 211.000
78.87686 221.000
78.89681 266.000
78.91675 242.000
78.93670 237.000
78.95665 255.000
78.97659 247.000
78.99654 260.000
79.01649 255.000
79.03643 255.000
79.05638 196.000
79.07633 253.000
79.09628 270.000
79.11622 249.000
79.13617 252.000
79.15612 238.000
79.17606 242.000
79.19601 252.000
79.21596 254.000
79.23590 246.000
79.25585 266.000
79.27580 258.000
79.29575 267.000
79.31569 222.000
79.33564 243.000
79.35559 266.000
79.37553 246.000
79.39548 254.000
79.41543 257.000
79.43537 249.000
79.45532 264.000
79.47527 252.000
79.49521 235.000
79.51516 253.000
79.53511 263.000
79.55506 273.000
79.57500 257.000
79.59495 222.000
79.61490 224.000
79.63484 229.000
79.65479 232.000
79.67474 239.000
79.69468 270.000
79.71463 257.000
79.73458 249.000
79.75453 259.000
79.77447 253.000
79.79442 225.000
79.81437 251.000
79.83431 244.000
79.85426 241.000
79.87421 225.000
79.89415 247.000
79.91410 253.000
79.93405 247.000
79.95399 242.000
79.97394 242.000
79.99389 255.000
80.01384 268.000
80.03378 263.000
80.05373 236.000
80.07368 255.000
80.09362 257.000
80.11357 261.000
80.13352 255.000
80.15346 255.000
80.17341 257.000
80.19336 247.000
80.21331 265.000
80.23325 283.000
80.25320 230.000
80.27315 248.000
80.29309 261.000
80.31304 275.000
80.33299 234.000
80.35293 246.000
80.37288 225.000
80.39283 250.000
80.41278 242.000
80.43272 239.000
80.45267 273.000
80.47262 242.000
80.49256 266.000
80.51251 239.000
80.53246 243.000
80.55240 247.000
80.57235 259.000
80.59230 280.000
80.61224 227.000
80.63219 250.000
80.65214 211.000
80.67209 242.000
80.69203 235.000
80.71198 239.000
80.73193 260.000
80.75187 240.000
80.77182 221.000
80.79177 251.000
80.81171 253.000
80.83166 222.000
80.85161 209.000
80.87156 244.000
80.89150 244.000
80.91145 271.000
80.93140 212.000
80.95134 235.000
80.97129 210.000
80.99124 241.000
81.01118 243.000
81.03113 215.000
81.05108 226.000
81.07102 197.000
81.09097 272.000
81.11092 238.000
81.13087 231.000
81.15081 243.000
81.17076 215.000
81.19071 207.000
81.21065 224.000
81.23060 220.000
81.25055 287.000
81.27049 266.000
81.29044 227.000
81.31039 228.000
81.33034 220.000
81.35028 210.000
81.37023 245.000
81.39018 212.000
81.41012 238.000
81.43007 257.000
81.45002 251.000
81.46996 243.000
81.48991 227.000
81.50986 244.000
81.52980 261.000
81.54975 262.000
81.56970 230.000
81.58965 268.000
81.60959 224.000
81.62954 232.000
81.64949 232.000
81.66943 231.000
81.68938 210.000
81.70933 218.000
81.72927 250.000
81.74922 229.000
81.76917 270.000
81.78912 256.000
81.80906 248.000
81.82901 234.000
81.84896 236.000
81.86890 244.000
81.88885 260.000
81.90880 232.000
81.92874 215.000
81.94869 264.000
81.96864 270.000
81.98859 250.000
82.00853 267.000
82.02848 252.000
82.04843 257.000
82.06837 240.000
82.08832 240.000
82.10827 266.000
82.12821 254.000
82.14816 235.000
82.16811 221.000
82.18805 249.000
82.20800 283.000
82.22795 265.000
82.24790 271.000
82.26784 233.000
82.28779 287.000
82.30774 259.000
82.32768 265.000
82.34763 278.000
82.36758 289.000
82.38752 257.000
82.40747 308.000
82.42742 273.000
82.44737 264.000
82.46731 280.000
82.48726 310.000
82.50721 328.000
82.52715 311.000
82.54710 297.000
82.56705 287.000
82.58699 281.000
82.60694 297.000
82.62689 284.000
82.64683 266.000
82.66678 304.000
82.68673 275.000
82.70668 282.000
82.72662 288.000
82.74657 282.000
82.76652 276.000
82.78646 309.000
82.80641 271.000
82.82636 273.000
82.84630 254.000
82.86625 282.000
82.88620 307.000
82.90615 285.000
82.92609 278.000
82.94604 273.000
82.96599 300.000
82.98593 267.000
83.00588 291.000
83.02583 278.000
83.04577 281.000
83.06572 243.000
83.08567 287.000
83.10561 257.000
83.12556 249.000
83.14551 294.000
83.16546 259.000
83.18540 261.000
83.20535 263.000
83.22530 295.000
83.24524 259.000
83.26519 265.000
83.28514 272.000
83.30508 262.000
83.32503 244.000
83.34498 253.000
83.36493 268.000
83.38487 251.000
83.40482 267.000
83.42477 280.000
83.44471 293.000
83.46466 253.000
83.48461 276.000
83.50455 251.000
83.52450 237.000
83.54445 274.000
83.56440 236.000
83.58434 252.000
83.60429 243.000
83.62424 282.000
83.64418 310.000
83.66413 287.000
83.68408 272.000
83.70402 270.000
83.72397 276.000
83.74392 270.000
83.76386 258.000
83.78381 278.000
83.80376 268.000
83.82371 263.000
83.84365 260.000
83.86360 251.000
83.88355 238.000
83.90349 266.000
83.92344 251.000
83.94339 275.000
83.96333 285.000
83.98328 278.000
84.00323 232.000
84.02318 255.000
84.04312 253.000
84.06307 249.000
84.08302 277.000
84.10296 257.000
84.12291 249.000
84.14286 296.000
84.16280 245.000
84.18275 221.000
84.20270 253.000
84.22264 267.000
84.24259 262.000
84.26254 274.000
84.28249 251.000
84.30243 241.000
84.32238 234.000
84.34233 226.000
84.36227 221.000
84.38222 237.000
84.40217 253.000
84.42211 235.000
84.44206 244.000
84.46201 221.000
84.48196 256.000
84.50190 233.000
84.52185 239.000
84.54180 245.000
84.56174 238.000
84.58169 238.000
84.60164 227.000
84.62158 251.000
84.64153 258.000
84.66148 258.000
84.68142 243.000
84.70137 261.000
84.72132 246.000
84.74127 248.000
84.76121 261.000
84.78116 280.000
84.80111 249.000
84.82105 230.000
84.84100 231.000
84.86095 236.000
84.88089 214.000
84.90084 250.000
84.92079 254.000
84.94074 255.000
84.96068 265.000
84.98063 251.000
85.00058 235.000
85.02052 228.000
85.04047 253.000
85.06042 217.000
85.08036 251.000
85.10031 235.000
85.12026 258.000
85.14021 235.000
85.16015 238.000
85.18010 250.000
85.20005 233.000
85.21999 238.000
85.23994 250.000
85.25989 246.000
85.27983 235.000
85.29978 206.000
85.31973 242.000
85.33967 225.000
85.35962 239.000
85.37957 250.000
85.39952 232.000
85.41946 236.000
85.43941 207.000
85.45936 206.000
85.47930 226.000
85.49925 242.000
85.51920 226.000
85.53914 204.000
85.55909 233.000
85.57904 210.000
85.59899 213.000
85.61893 233.000
85.63888 227.000
85.65883 221.000
85.67877 241.000
85.69872 237.000
85.71867 234.000
85.73861 223.000
85.75856 229.000
85.77851 269.000
85.79845 262.000
85.81840 226.000
85.83835 229.000
85.85830 246.000
85.87824 241.000
85.89819 252.000
85.91814 224.000
85.93808 253.000
85.95803 251.000
85.97798 215.000
85.99792 271.000
86.01787 268.000
86.03782 277.000
86.05777 240.000
86.07771 238.000
86.09766 220.000
86.11761 250.000
86.13755 253.000
86.15750 239.000
86.17745 246.000
86.19739 265.000
86.21734 271.000
86.23729 273.000
86.25723 285.000
86.27718 264.000
86.29713 236.000
86.31708 238.000
86.33702 272.000
86.35697 226.000
86.37692 266.000
86.39686 253.000
86.41681 228.000
86.43676 243.000
86.45670 245.000
86.47665 276.000
86.49660 282.000
86.51655 232.000
86.53649 266.000
86.55644 252.000
86.57639 245.000
86.59633 240.000
86.61628 250.000
86.63623 269.000
86.65617 281.000
86.67612 248.000
86.69607 226.000
86.71602 267.000
86.73596 249.000
86.75591 231.000
86.77586 215.000
86.79580 232.000
86.81575 265.000
86.83570 251.000
86.85564 240.000
86.87559 248.000
86.89554 258.000
86.91548 243.000
86.93543 252.000
86.95538 245.000
86.97533 247.000
86.99527 268.000
87.01522 218.000
87.03517 264.000
87.05511 268.000
87.07506 226.000
87.09501 229.000
87.11495 267.000
87.13490 240.000
87.15485 250.000
87.17480 223.000
87.19474 240.000
87.21469 244.000
87.23464 240.000
87.25458 282.000
87.27453 256.000
87.29448 261.000
87.31442 231.000
87.33437 235.000
87.35432 250.000
87.37426 256.000
87.39421 256.000
87.41416 265.000
87.43411 255.000
87.45405 279.000
87.47400 254.000
87.49395 249.000
87.51389 220.000
87.53384 252.000
87.55379 257.000
87.57373 217.000
87.59368 243.000
87.61363 234.000
87.63358 248.000
87.65352 235.000
87.67347 266.000
87.69342 245.000
87.71336 257.000
87.73331 223.000
87.75326 207.000
87.77320 243.000
87.79315 243.000
87.81310 217.000
87.83304 251.000
87.85299 248.000
87.87294 247.000
87.89289 261.000
87.91283 225.000
87.93278 251.000
87.95273 266.000
87.97267 231.000
87.99262 240.000
88.01257 241.000
88.03251 260.000
88.05246 271.000
88.07241 203.000
88.09236 223.000
88.11230 230.000
88.13225 208.000
88.15220 249.000
88.17214 254.000
88.19209 249.000
88.21204 231.000
88.23198 225.000
88.25193 254.000
88.27188 239.000
88.29183 245.000
88.31177 242.000
88.33172 262.000
88.35167 271.000
88.37161 229.000
88.39156 250.000
88.41151 220.000
88.43145 232.000
88.45140 254.000
88.47135 215.000
88.49129 243.000
88.51124 222.000
88.53119 264.000
88.55114 244.000
88.57108 250.000
88.59103 227.000
88.61098 217.000
88.63092 244.000
88.65087 268.000
88.67082 242.000
88.69076 232.000
88.71071 248.000
88.73066 235.000
88.75061 238.000
88.77055 221.000
88.79050 235.000
88.81045 247.000
88.83039 250.000
88.85034 256.000
88.87029 244.000
88.89023 208.000
88.91018 216.000
88.93013 244.000
88.95007 264.000
88.97002 244.000
88.98997 225.000
89.00992 240.000
89.02986 251.000
89.04981 242.000
89.06976 230.000
89.08970 235.000
89.10965 231.000
89.12960 256.000
89.14954 226.000
89.16949 235.000
89.18944 244.000
89.20939 267.000
89.22933 252.000
89.24928 275.000
89.26923 258.000
89.28917 261.000
89.30912 267.000
89.32907 251.000
89.34901 284.000
89.36896 228.000
89.38891 247.000
89.40885 237.000
89.42880 253.000
89.44875 268.000
89.46870 262.000
89.48864 261.000
89.50859 300.000
89.52854 258.000
89.54848 299.000
89.56843 288.000
89.58838 286.000
89.60832 283.000
89.62827 244.000
89.64822 306.000
89.66817 269.000
89.68811 313.000
89.70806 283.000
89.72801 299.000
89.74795 297.000
89.76790 292.000
89.78785 282.000
89.80779 284.000
89.82774 282.000
89.84769 323.000
89.86764 295.000
89.88758 305.000
89.90753 304.000
89.92748 296.000
89.94742 296.000
89.96737 309.000
89.98732 277.000
90.00726 346.000
