10.00000 70.000
10.01995 97.000
10.03989 63.000
10.05984 74.000
10.07979 85.000
10.09973 97.000
10.11968 84.000
10.13963 86.000
10.15958 91.000
10.17952 104.000
10.19947 78.000
10.21942 75.000
10.23936 81.000
10.25931 81.000
10.27926 74.000
10.29920 86.000
10.31915 95.000
10.33910 81.000
10.35905 90.000
10.37899 96.000
10.39894 88.000
10.41889 92.000
10.43883 84.000
10.45878 88.000
10.47873 89.000
10.49867 85.000
10.51862 90.000
10.53857 93.000
10.55851 92.000
10.57846 92.000
10.59841 78.000
10.61836 86.000
10.63830 100.000
10.65825 90.000
10.67820 73.000
10.69814 75.000
10.71809 76.000
10.73804 90.000
10.75798 86.000
10.77793 83.000
10.79788 88.000
10.81783 93.000
10.83777 90.000
10.85772 79.000
10.87767 94.000
10.89761 71.000
10.91756 83.000
10.93751 99.000
10.95745 80.000
10.97740 88.000
10.99735 100.000
11.01730 75.000
11.03724 87.000
11.05719 93.000
11.07714 92.000
11.09708 82.000
11.11703 84.000
11.13698 109.000
11.15692 87.000
11.17687 90.000
11.19682 84.000
11.21676 81.000
11.23671 84.000
11.25666 113.000
11.27661 108.000
11.29655 87.000
11.31650 84.000
11.33645 83.000
11.35639 91.000
11.37634 112.000
11.39629 103.000
11.41623 81.000
11.43618 83.000
11.45613 110.000
11.47608 85.000
11.49602 101.000
11.51597 95.000
11.53592 94.000
11.55586 113.000
11.57581 87.000
11.59576 88.000
11.61570 80.000
11.63565 103.000
11.65560 86.000
11.67554 87.000
11.69549 95.000
11.71544 88.000
11.73539 98.000
11.75533 101.000
11.77528 98.000
11.79523 90.000
11.81517 120.000
11.83512 99.000
11.85507 101.000
11.87501 99.000
11.89496 100.000
11.91491 111.000
11.93486 116.000
11.95480 101.000
11.97475 90.000
11.99470 83.000
12.01464 107.000
12.03459 102.000
12.05454 119.000
12.07448 128.000
12.09443 118.000
12.11438 115.000
12.13432 114.000
12.15427 126.000
12.17422 115.000
12.19417 116.000
12.21411 147.000
12.23406 137.000
12.25401 154.000
12.27395 139.000
12.29390 145.000
12.31385 147.000
12.33379 162.000
12.35374 166.000
12.37369 163.000
12.39364 167.000
12.41358 180.000
12.43353 180.000
12.45348 197.000
12.47342 226.000
12.49337 217.000
12.51332 202.000
12.53326 165.000
12.55321 202.000
12.57316 198.000
12.59311 222.000
12.61305 224.000
12.63300 227.000
12.65295 223.000
12.67289 205.000
12.69284 188.000
12.71279 207.000
12.73273 194.000
12.75268 167.000
12.77263 175.000
12.79257 177.000
12.81252 169.000
12.83247 148.000
12.85242 155.000
12.87236 171.000
12.89231 170.000
12.91226 146.000
12.93220 149.000
12.95215 132.000
12.97210 144.000
12.99204 133.000
13.01199 137.000
13.03194 138.000
13.05189 137.000
13.07183 132.000
13.09178 150.000
13.11173 138.000
13.13167 128.000
13.15162 131.000
13.17157 114.000
13.19151 162.000
13.21146 137.000
13.23141 136.000
13.25135 144.000
13.27130 128.000
13.29125 112.000
13.31120 113.000
13.33114 139.000
13.35109 135.000
13.37104 133.000
13.39098 147.000
13.41093 130.000
13.43088 146.000
13.45082 132.000
13.47077 114.000
13.49072 133.000
13.51067 126.000
13.53061 114.000
13.55056 110.000
13.57051 126.000
13.59045 115.000
13.61040 125.000
13.63035 107.000
13.65029 143.000
13.67024 136.000
13.69019 105.000
13.71013 140.000
13.73008 139.000
13.75003 115.000
13.76998 124.000
13.78992 132.000
13.80987 125.000
13.82982 135.000
13.84976 145.000
13.86971 128.000
13.88966 142.000
13.90960 144.000
13.92955 136.000
13.94950 129.000
13.96945 147.000
13.98939 125.000
14.00934 107.000
14.02929 135.000
14.04923 119.000
14.06918 120.000
14.08913 129.000
14.10907 112.000
14.12902 148.000
14.14897 139.000
14.16892 136.000
14.18886 135.000
14.20881 140.000
14.22876 137.000
14.24870 147.000
14.26865 127.000
14.28860 136.000
14.30854 131.000
14.32849 107.000
14.34844 118.000
14.36838 96.000
14.38833 115.000
14.40828 132.000
14.42823 130.000
14.44817 143.000
14.46812 121.000
14.48807 129.000
14.50801 131.000
14.52796 119.000
14.54791 138.000
14.56785 111.000
14.58780 128.000
14.60775 133.000
14.62770 121.000
14.64764 134.000
14.66759 153.000
14.68754 118.000
14.70748 157.000
14.72743 140.000
14.74738 155.000
14.76732 127.000
14.78727 166.000
14.80722 147.000
14.82716 150.000
14.84711 151.000
14.86706 165.000
14.88701 166.000
14.90695 178.000
14.92690 172.000
14.94685 166.000
14.96679 169.000
14.98674 173.000
15.00669 173.000
15.02663 146.000
15.04658 175.000
15.06653 198.000
15.08648 170.000
15.10642 209.000
15.12637 189.000
15.14632 220.000
15.16626 218.000
15.18621 215.000
15.20616 248.000
15.22610 267.000
15.24605 258.000
15.26600 300.000
15.28594 343.000
15.30589 380.000
15.32584 473.000
15.34579 608.000
15.36573 704.000
15.38568 972.000
15.40563 1223.000
15.42557 1583.000
15.44552 1936.000
15.46547 2468.000
15.48541 2932.000
15.50536 3339.000
15.52531 3387.000
15.54526 3298.000
15.56520 3090.000
15.58515 3092.000
15.60510 2919.000
15.62504 2676.000
15.64499 2304.000
15.66494 1851.000
15.68488 1292.000
15.70483 876.000
15.72478 551.000
15.74472 395.000
15.76467 339.000
15.78462 253.000
15.80457 214.000
15.82451 213.000
15.84446 207.000
15.86441 211.000
15.88435 148.000
15.90430 142.000
15.92425 152.000
15.94419 137.000
15.96414 147.000
15.98409 145.000
16.00404 105.000
16.02398 123.000
16.04393 124.000
16.06388 128.000
16.08382 133.000
16.10377 97.000
16.12372 126.000
16.14366 108.000
16.16361 106.000
16.18356 91.000
16.20351 119.000
16.22345 116.000
16.24340 106.000
16.26335 99.000
16.28329 82.000
16.30324 94.000
16.32319 117.000
16.34313 108.000
16.36308 113.000
16.38303 111.000
16.40297 123.000
16.42292 90.000
16.44287 99.000
16.46282 122.000
16.48276 90.000
16.50271 99.000
16.52266 98.000
16.54260 114.000
16.56255 100.000
16.58250 97.000
16.60244 96.000
16.62239 89.000
16.64234 89.000
16.66229 105.000
16.68223 91.000
16.70218 85.000
16.72213 92.000
16.74207 72.000
16.76202 89.000
16.78197 90.000
16.80191 103.000
16.82186 90.000
16.84181 91.000
16.86175 71.000
16.88170 93.000
16.90165 84.000
16.92160 72.000
16.94154 92.000
16.96149 100.000
16.98144 88.000
17.00138 90.000
17.02133 91.000
17.04128 78.000
17.06122 93.000
17.08117 86.000
17.10112 72.000
17.12107 95.000
17.14101 91.000
17.16096 87.000
17.18091 82.000
17.20085 88.000
17.22080 97.000
17.24075 77.000
17.26069 75.000
17.28064 88.000
17.30059 94.000
17.32053 101.000
17.34048 85.000
17.36043 77.000
17.38038 64.000
17.40032 82.000
17.42027 99.000
17.44022 85.000
17.46016 86.000
17.48011 98.000
17.50006 99.000
17.52000 90.000
17.53995 101.000
17.55990 92.000
17.57985 73.000
17.59979 98.000
17.61974 90.000
17.63969 89.000
17.65963 90.000
17.67958 100.000
17.69953 77.000
17.71947 100.000
17.73942 86.000
17.75937 68.000
17.77932 129.000
17.79926 85.000
17.81921 111.000
17.83916 130.000
17.85910 120.000
17.87905 143.000
17.89900 180.000
17.91894 205.000
17.93889 259.000
17.95884 284.000
17.97878 353.000
17.99873 364.000
18.01868 407.000
18.03863 463.000
18.05857 478.000
18.07852 434.000
18.09847 426.000
18.11841 429.000
18.13836 398.000
18.15831 386.000
18.17825 300.000
18.19820 242.000
18.21815 187.000
18.23810 148.000
18.25804 116.000
18.27799 104.000
18.29794 112.000
18.31788 99.000
18.33783 78.000
18.35778 91.000
18.37772 84.000
18.39767 76.000
18.41762 96.000
18.43756 90.000
18.45751 85.000
18.47746 78.000
18.49741 74.000
18.51735 85.000
18.53730 84.000
18.55725 82.000
18.57719 84.000
18.59714 84.000
18.61709 105.000
18.63703 84.000
18.65698 80.000
18.67693 60.000
18.69688 81.000
18.71682 69.000
18.73677 70.000
18.75672 91.000
18.77666 90.000
18.79661 83.000
18.81656 81.000
18.83650 68.000
18.85645 91.000
18.87640 79.000
18.89634 89.000
18.91629 77.000
18.93624 97.000
18.95619 86.000
18.97613 95.000
18.99608 76.000
19.01603 78.000
19.03597 92.000
19.05592 94.000
19.07587 63.000
19.09581 91.000
19.11576 85.000
19.13571 79.000
19.15566 85.000
19.17560 81.000
19.19555 76.000
19.21550 87.000
19.23544 87.000
19.25539 96.000
19.27534 70.000
19.29528 78.000
19.31523 71.000
19.33518 90.000
19.35513 81.000
19.37507 82.000
19.39502 69.000
19.41497 87.000
19.43491 91.000
19.45486 90.000
19.47481 95.000
19.49475 77.000
19.51470 69.000
19.53465 76.000
19.55459 83.000
19.57454 90.000
19.59449 78.000
19.61444 81.000
19.63438 72.000
19.65433 69.000
19.67428 67.000
19.69422 78.000
19.71417 93.000
19.73412 91.000
19.75406 79.000
19.77401 84.000
19.79396 75.000
19.81391 82.000
19.83385 95.000
19.85380 99.000
19.87375 85.000
19.89369 94.000
19.91364 82.000
19.93359 87.000
19.95353 81.000
19.97348 90.000
19.99343 70.000
20.01337 71.000
20.03332 89.000
20.05327 76.000
20.07322 73.000
20.09316 87.000
20.11311 83.000
20.13306 100.000
20.15300 95.000
20.17295 89.000
20.19290 90.000
20.21284 86.000
20.23279 75.000
20.25274 98.000
20.27269 55.000
20.29263 92.000
20.31258 101.000
20.33253 102.000
20.35247 99.000
20.37242 75.000
20.39237 83.000
20.41231 86.000
20.43226 95.000
20.45221 92.000
20.47215 97.000
20.49210 77.000
20.51205 74.000
20.53200 90.000
20.55194 92.000
20.57189 89.000
20.59184 66.000
20.61178 76.000
20.63173 97.000
20.65168 93.000
20.67162 79.000
20.69157 82.000
20.71152 82.000
20.73147 74.000
20.75141 74.000
20.77136 63.000
20.79131 65.000
20.81125 89.000
20.83120 68.000
20.85115 85.000
20.87109 87.000
20.89104 97.000
20.91099 65.000
20.93094 76.000
20.95088 102.000
20.97083 81.000
20.99078 72.000
21.01072 85.000
21.03067 84.000
21.05062 74.000
21.07056 83.000
21.09051 85.000
21.11046 87.000
21.13040 95.000
21.15035 81.000
21.17030 87.000
21.19025 88.000
21.21019 84.000
21.23014 78.000
21.25009 77.000
21.27003 86.000
21.28998 79.000
21.30993 85.000
21.32987 86.000
21.34982 69.000
21.36977 80.000
21.38972 92.000
21.40966 88.000
21.42961 91.000
21.44956 89.000
21.46950 75.000
21.48945 82.000
21.50940 91.000
21.52934 104.000
21.54929 86.000
21.56924 90.000
21.58918 88.000
21.60913 82.000
21.62908 81.000
21.64903 66.000
21.66897 78.000
21.68892 75.000
21.70887 84.000
21.72881 71.000
21.74876 71.000
21.76871 84.000
21.78865 92.000
21.80860 104.000
21.82855 87.000
21.84850 81.000
21.86844 88.000
21.88839 76.000
21.90834 78.000
21.92828 76.000
21.94823 86.000
21.96818 79.000
21.98812 110.000
22.00807 92.000
22.02802 86.000
22.04796 92.000
22.06791 81.000
22.08786 79.000
22.10781 94.000
22.12775 73.000
22.14770 81.000
22.16765 77.000
22.18759 81.000
22.20754 85.000
22.22749 90.000
22.24743 88.000
22.26738 79.000
22.28733 60.000
22.30728 83.000
22.32722 85.000
22.34717 93.000
22.36712 72.000
22.38706 91.000
22.40701 91.000
22.42696 77.000
22.44690 70.000
22.46685 74.000
22.48680 93.000
22.50675 83.000
22.52669 109.000
22.54664 87.000
22.56659 80.000
22.58653 93.000
22.60648 89.000
22.62643 87.000
22.64637 98.000
22.66632 85.000
22.68627 89.000
22.70621 81.000
22.72616 88.000
22.74611 100.000
22.76606 77.000
22.78600 95.000
22.80595 75.000
22.82590 86.000
22.84584 82.000
22.86579 79.000
22.88574 96.000
22.90568 85.000
22.92563 94.000
22.94558 91.000
22.96553 69.000
22.98547 88.000
23.00542 100.000
23.02537 90.000
23.04531 92.000
23.06526 83.000
23.08521 97.000
23.10515 102.000
23.12510 88.000
23.14505 88.000
23.16499 92.000
23.18494 87.000
23.20489 80.000
23.22484 87.000
23.24478 78.000
23.26473 82.000
23.28468 88.000
23.30462 100.000
23.32457 82.000
23.34452 78.000
23.36446 90.000
23.38441 73.000
23.40436 87.000
23.42431 88.000
23.44425 90.000
23.46420 92.000
23.48415 68.000
23.50409 82.000
23.52404 77.000
23.54399 98.000
23.56393 78.000
23.58388 89.000
23.60383 101.000
23.62377 91.000
23.64372 82.000
23.66367 93.000
23.68362 85.000
23.70356 91.000
23.72351 81.000
23.74346 84.000
23.76340 83.000
23.78335 82.000
23.80330 84.000
23.82324 73.000
23.84319 88.000
23.86314 104.000
23.88309 108.000
23.90303 90.000
23.92298 91.000
23.94293 96.000
23.96287 84.000
23.98282 86.000
24.00277 71.000
24.02271 94.000
24.04266 79.000
24.06261 80.000
24.08256 96.000
24.10250 72.000
24.12245 83.000
24.14240 112.000
24.16234 94.000
24.18229 93.000
24.20224 108.000
24.22218 98.000
24.24213 84.000
24.26208 81.000
24.28202 88.000
24.30197 81.000
24.32192 92.000
24.34187 81.000
24.36181 98.000
24.38176 89.000
24.40171 87.000
24.42165 104.000
24.44160 95.000
24.46155 64.000
24.48149 98.000
24.50144 90.000
24.52139 95.000
24.54134 99.000
24.56128 107.000
24.58123 94.000
24.60118 112.000
24.62112 100.000
24.64107 93.000
24.66102 80.000
24.68096 90.000
24.70091 89.000
24.72086 105.000
24.74080 82.000
24.76075 99.000
24.78070 76.000
24.80065 97.000
24.82059 89.000
24.84054 99.000
24.86049 82.000
24.88043 101.000
24.90038 105.000
24.92033 102.000
24.94027 101.000
24.96022 91.000
24.98017 102.000
25.00012 119.000
25.02006 87.000
25.04001 106.000
25.05996 91.000
25.07990 105.000
25.09985 103.000
25.11980 93.000
25.13974 134.000
25.15969 114.000
25.17964 106.000
25.19958 108.000
25.21953 137.000
25.23948 109.000
25.25943 108.000
25.27937 127.000
25.29932 138.000
25.31927 116.000
25.33921 121.000
25.35916 112.000
25.37911 133.000
25.39905 124.000
25.41900 140.000
25.43895 119.000
25.45890 113.000
25.47884 102.000
25.49879 124.000
25.51874 109.000
25.53868 116.000
25.55863 129.000
25.57858 109.000
25.59852 115.000
25.61847 137.000
25.63842 105.000
25.65837 103.000
25.67831 115.000
25.69826 106.000
25.71821 101.000
25.73815 119.000
25.75810 106.000
25.77805 88.000
25.79799 110.000
25.81794 106.000
25.83789 79.000
25.85783 111.000
25.87778 91.000
25.89773 116.000
25.91768 118.000
25.93762 102.000
25.95757 116.000
25.97752 101.000
25.99746 101.000
26.01741 108.000
26.03736 97.000
26.05730 95.000
26.07725 105.000
26.09720 92.000
26.11715 111.000
26.13709 87.000
26.15704 117.000
26.17699 102.000
26.19693 107.000
26.21688 88.000
26.23683 103.000
26.25677 97.000
26.27672 105.000
26.29667 94.000
26.31661 101.000
26.33656 104.000
26.35651 105.000
26.37646 104.000
26.39640 94.000
26.41635 111.000
26.43630 99.000
26.45624 126.000
26.47619 108.000
26.49614 114.000
26.51608 105.000
26.53603 112.000
26.55598 101.000
26.57593 105.000
26.59587 95.000
26.61582 92.000
26.63577 94.000
26.65571 87.000
26.67566 97.000
26.69561 105.000
26.71555 86.000
26.73550 89.000
26.75545 108.000
26.77539 93.000
26.79534 85.000
26.81529 83.000
26.83524 100.000
26.85518 100.000
26.87513 120.000
26.89508 79.000
26.91502 109.000
26.93497 97.000
26.95492 100.000
26.97486 104.000
26.99481 101.000
27.01476 100.000
27.03471 100.000
27.05465 105.000
27.07460 92.000
27.09455 112.000
27.11449 111.000
27.13444 99.000
27.15439 83.000
27.17433 109.000
27.19428 93.000
27.21423 106.000
27.23417 117.000
27.25412 73.000
27.27407 86.000
27.29402 109.000
27.31396 82.000
27.33391 92.000
27.35386 97.000
27.37380 100.000
27.39375 104.000
27.41370 95.000
27.43364 90.000
27.45359 120.000
27.47354 102.000
27.49349 104.000
27.51343 105.000
27.53338 96.000
27.55333 105.000
27.57327 95.000
27.59322 93.000
27.61317 116.000
27.63311 109.000
27.65306 113.000
27.67301 94.000
27.69296 90.000
27.71290 83.000
27.73285 111.000
27.75280 105.000
27.77274 116.000
27.79269 94.000
27.81264 91.000
27.83258 93.000
27.85253 94.000
27.87248 102.000
27.89242 96.000
27.91237 103.000
27.93232 104.000
27.95227 106.000
27.97221 95.000
27.99216 91.000
28.01211 105.000
28.03205 116.000
28.05200 114.000
28.07195 104.000
28.09189 104.000
28.11184 106.000
28.13179 99.000
28.15174 85.000
28.17168 99.000
28.19163 118.000
28.21158 100.000
28.23152 85.000
28.25147 112.000
28.27142 101.000
28.29136 95.000
28.31131 109.000
28.33126 109.000
28.35120 105.000
28.37115 99.000
28.39110 110.000
28.41105 114.000
28.43099 101.000
28.45094 113.000
28.47089 90.000
28.49083 105.000
28.51078 114.000
28.53073 106.000
28.55067 93.000
28.57062 100.000
28.59057 112.000
28.61052 113.000
28.63046 111.000
28.65041 101.000
28.67036 95.000
28.69030 91.000
28.71025 95.000
28.73020 110.000
28.75014 116.000
28.77009 92.000
28.79004 98.000
28.80998 86.000
28.82993 105.000
28.84988 109.000
28.86983 109.000
28.88977 121.000
28.90972 101.000
28.92967 91.000
28.94961 97.000
28.96956 109.000
28.98951 99.000
29.00945 99.000
29.02940 105.000
29.04935 103.000
29.06930 124.000
29.08924 98.000
29.10919 91.000
29.12914 99.000
29.14908 116.000
29.16903 93.000
29.18898 101.000
29.20892 96.000
29.22887 101.000
29.24882 122.000
29.26877 84.000
29.28871 106.000
29.30866 111.000
29.32861 118.000
29.34855 104.000
29.36850 113.000
29.38845 97.000
29.40839 133.000
29.42834 95.000
29.44829 129.000
29.46823 124.000
29.48818 115.000
29.50813 118.000
29.52808 142.000
29.54802 136.000
29.56797 157.000
29.58792 174.000
29.60786 197.000
29.62781 235.000
29.64776 264.000
29.66770 305.000
29.68765 330.000
29.70760 385.000
29.72755 430.000
29.74749 437.000
29.76744 448.000
29.78739 445.000
29.80733 455.000
29.82728 439.000
29.84723 453.000
29.86717 387.000
29.88712 353.000
29.90707 287.000
29.92701 261.000
29.94696 213.000
29.96691 171.000
29.98686 187.000
30.00680 161.000
30.02675 121.000
30.04670 115.000
30.06664 123.000
30.08659 136.000
30.10654 124.000
30.12648 128.000
30.14643 102.000
30.16638 115.000
30.18633 112.000
30.20627 109.000
30.22622 105.000
30.24617 130.000
30.26611 123.000
30.28606 117.000
30.30601 116.000
30.32595 122.000
30.34590 87.000
30.36585 107.000
30.38579 107.000
30.40574 117.000
30.42569 115.000
30.44564 111.000
30.46558 103.000
30.48553 115.000
30.50548 116.000
30.52542 121.000
30.54537 103.000
30.56532 111.000
30.58526 100.000
30.60521 101.000
30.62516 97.000
30.64511 111.000
30.66505 118.000
30.68500 120.000
30.70495 92.000
30.72489 97.000
30.74484 103.000
30.76479 101.000
30.78473 109.000
30.80468 83.000
30.82463 102.000
30.84458 104.000
30.86452 108.000
30.88447 115.000
30.90442 104.000
30.92436 96.000
30.94431 119.000
30.96426 111.000
30.98420 102.000
31.00415 107.000
31.02410 117.000
31.04404 109.000
31.06399 98.000
31.08394 110.000
31.10389 110.000
31.12383 123.000
31.14378 95.000
31.16373 116.000
31.18367 119.000
31.20362 122.000
31.22357 115.000
31.24351 126.000
31.26346 118.000
31.28341 140.000
31.30336 137.000
31.32330 164.000
31.34325 194.000
31.36320 225.000
31.38314 215.000
31.40309 295.000
31.42304 364.000
31.44298 376.000
31.46293 416.000
31.48288 412.000
31.50282 426.000
31.52277 378.000
31.54272 443.000
31.56267 416.000
31.58261 371.000
31.60256 337.000
31.62251 280.000
31.64245 267.000
31.66240 207.000
31.68235 168.000
31.70229 164.000
31.72224 154.000
31.74219 143.000
31.76214 106.000
31.78208 106.000
31.80203 126.000
31.82198 118.000
31.84192 111.000
31.86187 127.000
31.88182 125.000
31.90176 117.000
31.92171 133.000
31.94166 112.000
31.96160 104.000
31.98155 118.000
32.00150 106.000
32.02145 102.000
32.04139 100.000
32.06134 99.000
32.08129 107.000
32.10123 102.000
32.12118 112.000
32.14113 93.000
32.16107 116.000
32.18102 103.000
32.20097 92.000
32.22092 98.000
32.24086 103.000
32.26081 110.000
32.28076 114.000
32.30070 110.000
32.32065 112.000
32.34060 109.000
32.36054 112.000
32.38049 113.000
32.40044 94.000
32.42039 106.000
32.44033 97.000
32.46028 89.000
32.48023 95.000
32.50017 121.000
32.52012 110.000
32.54007 87.000
32.56001 105.000
32.57996 91.000
32.59991 116.000
32.61985 105.000
32.63980 121.000
32.65975 101.000
32.67970 104.000
32.69964 116.000
32.71959 116.000
32.73954 97.000
32.75948 86.000
32.77943 114.000
32.79938 96.000
32.81932 95.000
32.83927 126.000
32.85922 103.000
32.87917 96.000
32.89911 105.000
32.91906 110.000
32.93901 100.000
32.95895 120.000
32.97890 108.000
32.99885 108.000
33.01879 95.000
33.03874 101.000
33.05869 102.000
33.07863 92.000
33.09858 92.000
33.11853 87.000
33.13848 116.000
33.15842 113.000
33.17837 77.000
33.19832 93.000
33.21826 103.000
33.23821 92.000
33.25816 90.000
33.27810 122.000
33.29805 95.000
33.31800 100.000
33.33795 125.000
33.35789 98.000
33.37784 95.000
33.39779 105.000
33.41773 108.000
33.43768 103.000
33.45763 90.000
33.47757 122.000
33.49752 95.000
33.51747 86.000
33.53741 102.000
33.55736 125.000
33.57731 107.000
33.59726 89.000
33.61720 109.000
33.63715 112.000
33.65710 116.000
33.67704 110.000
33.69699 102.000
33.71694 109.000
33.73688 111.000
33.75683 117.000
33.77678 112.000
33.79673 118.000
33.81667 102.000
33.83662 115.000
33.85657 99.000
33.87651 90.000
33.89646 101.000
33.91641 111.000
33.93635 103.000
33.95630 99.000
33.97625 110.000
33.99620 122.000
34.01614 131.000
34.03609 102.000
34.05604 99.000
34.07598 110.000
34.09593 115.000
34.11588 108.000
34.13582 120.000
34.15577 115.000
34.17572 120.000
34.19566 108.000
34.21561 107.000
34.23556 112.000
34.25551 97.000
34.27545 120.000
34.29540 104.000
34.31535 129.000
34.33529 129.000
34.35524 117.000
34.37519 118.000
34.39513 110.000
34.41508 121.000
34.43503 124.000
34.45498 120.000
34.47492 87.000
34.49487 130.000
34.51482 102.000
34.53476 129.000
34.55471 130.000
34.57466 125.000
34.59460 130.000
34.61455 131.000
34.63450 154.000
34.65444 147.000
34.67439 149.000
34.69434 147.000
34.71429 174.000
34.73423 162.000
34.75418 194.000
34.77413 184.000
34.79407 215.000
34.81402 228.000
34.83397 285.000
34.85391 349.000
34.87386 372.000
34.89381 470.000
34.91376 542.000
34.93370 619.000
34.95365 771.000
34.97360 924.000
34.99354 1012.000
35.01349 1188.000
35.03344 1305.000
35.05338 1331.000
35.07333 1346.000
35.09328 1344.000
35.11322 1312.000
35.13317 1296.000
35.15312 1183.000
35.17307 1125.000
35.19301 995.000
35.21296 812.000
35.23291 714.000
35.25285 583.000
35.27280 444.000
35.29275 396.000
35.31269 355.000
35.33264 329.000
35.35259 238.000
35.37254 226.000
35.39248 205.000
35.41243 175.000
35.43238 212.000
35.45232 191.000
35.47227 219.000
35.49222 218.000
35.51216 231.000
35.53211 223.000
35.55206 264.000
35.57201 280.000
35.59195 313.000
35.61190 354.000
35.63185 344.000
35.65179 344.000
35.67174 367.000
35.69169 371.000
35.71163 406.000
35.73158 389.000
35.75153 362.000
35.77147 352.000
35.79142 314.000
35.81137 317.000
35.83132 268.000
35.85126 260.000
35.87121 214.000
35.89116 173.000
35.91110 180.000
35.93105 178.000
35.95100 158.000
35.97094 157.000
35.99089 141.000
36.01084 127.000
36.03079 124.000
36.05073 134.000
36.07068 139.000
36.09063 141.000
36.11057 127.000
36.13052 106.000
36.15047 151.000
36.17041 142.000
36.19036 128.000
36.21031 133.000
36.23025 118.000
36.25020 142.000
36.27015 133.000
36.29010 127.000
36.31004 127.000
36.32999 128.000
36.34994 140.000
36.36988 117.000
36.38983 128.000
36.40978 140.000
36.42972 148.000
36.44967 142.000
36.46962 160.000
36.48957 155.000
36.50951 169.000
36.52946 183.000
36.54941 180.000
36.56935 205.000
36.58930 206.000
36.60925 220.000
36.62919 277.000
36.64914 269.000
36.66909 266.000
36.68903 258.000
36.70898 266.000
36.72893 244.000
36.74888 256.000
36.76882 226.000
36.78877 229.000
36.80872 214.000
36.82866 189.000
36.84861 170.000
36.86856 168.000
36.88850 141.000
36.90845 127.000
36.92840 120.000
36.94835 109.000
36.96829 111.000
36.98824 111.000
37.00819 112.000
37.02813 120.000
37.04808 117.000
37.06803 123.000
37.08797 124.000
37.10792 125.000
37.12787 89.000
37.14781 102.000
37.16776 115.000
37.18771 110.000
37.20766 114.000
37.22760 108.000
37.24755 116.000
37.26750 124.000
37.28744 121.000
37.30739 121.000
37.32734 101.000
37.34728 104.000
37.36723 99.000
37.38718 117.000
37.40713 143.000
37.42707 119.000
37.44702 135.000
37.46697 106.000
37.48691 116.000
37.50686 127.000
37.52681 105.000
37.54675 131.000
37.56670 110.000
37.58665 129.000
37.60660 118.000
37.62654 129.000
37.64649 129.000
37.66644 118.000
37.68638 119.000
37.70633 137.000
37.72628 119.000
37.74622 138.000
37.76617 135.000
37.78612 124.000
37.80606 134.000
37.82601 129.000
37.84596 128.000
37.86591 154.000
37.88585 147.000
37.90580 152.000
37.92575 130.000
37.94569 119.000
37.96564 111.000
37.98559 145.000
38.00553 122.000
38.02548 124.000
38.04543 133.000
38.06538 113.000
38.08532 144.000
38.10527 132.000
38.12522 137.000
38.14516 118.000
38.16511 119.000
38.18506 121.000
38.20500 144.000
38.22495 135.000
38.24490 141.000
38.26484 133.000
38.28479 119.000
38.30474 121.000
38.32469 126.000
38.34463 137.000
38.36458 146.000
38.38453 129.000
38.40447 129.000
38.42442 142.000
38.44437 121.000
38.46431 130.000
38.48426 143.000
38.50421 145.000
38.52416 119.000
38.54410 144.000
38.56405 126.000
38.58400 137.000
38.60394 115.000
38.62389 137.000
38.64384 135.000
38.66378 144.000
38.68373 136.000
38.70368 163.000
38.72362 148.000
38.74357 163.000
38.76352 149.000
38.78347 159.000
38.80341 169.000
38.82336 159.000
38.84331 194.000
38.86325 167.000
38.88320 170.000
38.90315 174.000
38.92309 183.000
38.94304 248.000
38.96299 221.000
38.98294 259.000
39.00288 279.000
39.02283 336.000
39.04278 353.000
39.06272 387.000
39.08267 474.000
39.10262 498.000
39.12256 543.000
39.14251 557.000
39.16246 620.000
39.18241 560.000
39.20235 614.000
39.22230 560.000
39.24225 515.000
39.26219 494.000
39.28214 463.000
39.30209 435.000
39.32203 401.000
39.34198 336.000
39.36193 311.000
39.38187 254.000
39.40182 204.000
39.42177 199.000
39.44172 213.000
39.46166 147.000
39.48161 168.000
39.50156 163.000
39.52150 128.000
39.54145 113.000
39.56140 135.000
39.58134 125.000
39.60129 95.000
39.62124 120.000
39.64119 118.000
39.66113 113.000
39.68108 109.000
39.70103 104.000
39.72097 109.000
39.74092 104.000
39.76087 116.000
39.78081 84.000
39.80076 97.000
39.82071 115.000
39.84065 110.000
39.86060 109.000
39.88055 104.000
39.90050 111.000
39.92044 88.000
39.94039 117.000
39.96034 106.000
39.98028 99.000
40.00023 100.000
40.02018 108.000
40.04012 90.000
40.06007 98.000
40.08002 104.000
40.09997 92.000
40.11991 112.000
40.13986 87.000
40.15981 96.000
40.17975 75.000
40.19970 100.000
40.21965 104.000
40.23959 102.000
40.25954 106.000
40.27949 117.000
40.29943 82.000
40.31938 89.000
40.33933 114.000
40.35928 108.000
40.37922 100.000
40.39917 103.000
40.41912 116.000
40.43906 103.000
40.45901 98.000
40.47896 92.000
40.49890 82.000
40.51885 100.000
40.53880 108.000
40.55875 102.000
40.57869 102.000
40.59864 110.000
40.61859 118.000
40.63853 106.000
40.65848 106.000
40.67843 94.000
40.69837 123.000
40.71832 99.000
40.73827 97.000
40.75822 97.000
40.77816 78.000
40.79811 89.000
40.81806 99.000
40.83800 98.000
40.85795 118.000
40.87790 96.000
40.89784 99.000
40.91779 107.000
40.93774 104.000
40.95768 99.000
40.97763 103.000
40.99758 108.000
41.01753 80.000
41.03747 108.000
41.05742 103.000
41.07737 91.000
41.09731 120.000
41.11726 109.000
41.13721 101.000
41.15715 108.000
41.17710 86.000
41.19705 99.000
41.21700 105.000
41.23694 95.000
41.25689 101.000
41.27684 103.000
41.29678 112.000
41.31673 101.000
41.33668 116.000
41.35662 120.000
41.37657 104.000
41.39652 101.000
41.41646 106.000
41.43641 106.000
41.45636 88.000
41.47631 94.000
41.49625 111.000
41.51620 94.000
41.53615 87.000
41.55609 101.000
41.57604 85.000
41.59599 101.000
41.61593 102.000
41.63588 99.000
41.65583 102.000
41.67578 102.000
41.69572 106.000
41.71567 94.000
41.73562 99.000
41.75556 100.000
41.77551 100.000
41.79546 98.000
41.81540 87.000
41.83535 94.000
41.85530 120.000
41.87524 108.000
41.89519 102.000
41.91514 107.000
41.93509 101.000
41.95503 103.000
41.97498 96.000
41.99493 98.000
42.01487 99.000
42.03482 104.000
42.05477 102.000
42.07471 102.000
42.09466 97.000
42.11461 122.000
42.13456 75.000
42.15450 123.000
42.17445 98.000
42.19440 109.000
42.21434 96.000
42.23429 134.000
42.25424 96.000
42.27418 117.000
42.29413 126.000
42.31408 124.000
42.33403 140.000
42.35397 140.000
42.37392 128.000
42.39387 151.000
42.41381 167.000
42.43376 179.000
42.45371 200.000
42.47365 226.000
42.49360 276.000
42.51355 273.000
42.53349 307.000
42.55344 307.000
42.57339 352.000
42.59334 360.000
42.61328 411.000
42.63323 368.000
42.65318 401.000
42.67312 383.000
42.69307 388.000
42.71302 396.000
42.73296 369.000
42.75291 340.000
42.77286 316.000
42.79281 291.000
42.81275 302.000
42.83270 238.000
42.85265 220.000
42.87259 221.000
42.89254 205.000
42.91249 206.000
42.93243 187.000
42.95238 176.000
42.97233 174.000
42.99227 171.000
43.01222 173.000
43.03217 193.000
43.05212 185.000
43.07206 220.000
43.09201 211.000
43.11196 233.000
43.13190 261.000
43.15185 269.000
43.17180 304.000
43.19174 283.000
43.21169 287.000
43.23164 294.000
43.25159 260.000
43.27153 251.000
43.29148 252.000
43.31143 236.000
43.33137 232.000
43.35132 163.000
43.37127 171.000
43.39121 175.000
43.41116 168.000
43.43111 148.000
43.45105 156.000
43.47100 146.000
43.49095 107.000
43.51090 120.000
43.53084 142.000
43.55079 111.000
43.57074 127.000
43.59068 116.000
43.61063 114.000
43.63058 108.000
43.65052 99.000
43.67047 108.000
43.69042 124.000
43.71037 93.000
43.73031 111.000
43.75026 104.000
43.77021 110.000
43.79015 99.000
43.81010 81.000
43.83005 144.000
43.84999 120.000
43.86994 107.000
43.88989 111.000
43.90984 100.000
43.92978 142.000
43.94973 98.000
43.96968 106.000
43.98962 87.000
44.00957 97.000
44.02952 110.000
44.04946 106.000
44.06941 101.000
44.08936 122.000
44.10930 115.000
44.12925 98.000
44.14920 115.000
44.16915 95.000
44.18909 83.000
44.20904 119.000
44.22899 104.000
44.24893 92.000
44.26888 107.000
44.28883 100.000
44.30877 112.000
44.32872 134.000
44.34867 121.000
44.36862 97.000
44.38856 132.000
44.40851 117.000
44.42846 131.000
44.44840 126.000
44.46835 117.000
44.48830 140.000
44.50824 100.000
44.52819 129.000
44.54814 112.000
44.56808 119.000
44.58803 109.000
44.60798 88.000
44.62793 101.000
44.64787 115.000
44.66782 94.000
44.68777 105.000
44.70771 98.000
44.72766 115.000
44.74761 108.000
44.76755 107.000
44.78750 92.000
44.80745 98.000
44.82740 97.000
44.84734 109.000
44.86729 113.000
44.88724 107.000
44.90718 102.000
44.92713 109.000
44.94708 100.000
44.96702 111.000
44.98697 114.000
45.00692 107.000
45.02686 94.000
45.04681 97.000
45.06676 97.000
45.08671 116.000
45.10665 106.000
45.12660 106.000
45.14655 101.000
45.16649 114.000
45.18644 89.000
45.20639 96.000
45.22633 105.000
45.24628 85.000
45.26623 87.000
45.28618 88.000
45.30612 96.000
45.32607 104.000
45.34602 99.000
45.36596 97.000
45.38591 102.000
45.40586 91.000
45.42580 97.000
45.44575 99.000
45.46570 78.000
45.48565 91.000
45.50559 113.000
45.52554 100.000
45.54549 91.000
45.56543 87.000
45.58538 71.000
45.60533 83.000
45.62527 115.000
45.64522 108.000
45.66517 104.000
45.68511 82.000
45.70506 94.000
45.72501 80.000
45.74496 98.000
45.76490 101.000
45.78485 113.000
45.80480 102.000
45.82474 96.000
45.84469 83.000
45.86464 113.000
45.88458 96.000
45.90453 69.000
45.92448 119.000
45.94443 116.000
45.96437 93.000
45.98432 93.000
46.00427 73.000
46.02421 96.000
46.04416 85.000
46.06411 89.000
46.08405 99.000
46.10400 104.000
46.12395 107.000
46.14389 102.000
46.16384 110.000
46.18379 84.000
46.20374 94.000
46.22368 101.000
46.24363 107.000
46.26358 96.000
46.28352 93.000
46.30347 84.000
46.32342 95.000
46.34336 92.000
46.36331 94.000
46.38326 99.000
46.40321 101.000
46.42315 104.000
46.44310 117.000
46.46305 97.000
46.48299 103.000
46.50294 110.000
46.52289 80.000
46.54283 122.000
46.56278 95.000
46.58273 100.000
46.60267 98.000
46.62262 82.000
46.64257 101.000
46.66252 94.000
46.68246 72.000
46.70241 104.000
46.72236 87.000
46.74230 114.000
46.76225 88.000
46.78220 91.000
46.80214 92.000
46.82209 105.000
46.84204 100.000
46.86199 100.000
46.88193 101.000
46.90188 116.000
46.92183 99.000
46.94177 103.000
46.96172 80.000
46.98167 87.000
47.00161 105.000
47.02156 114.000
47.04151 98.000
47.06146 97.000
47.08140 103.000
47.10135 95.000
47.12130 95.000
47.14124 106.000
47.16119 87.000
47.18114 109.000
47.20108 82.000
47.22103 99.000
47.24098 108.000
47.26092 95.000
47.28087 93.000
47.30082 104.000
47.32077 118.000
47.34071 100.000
47.36066 93.000
47.38061 117.000
47.40055 102.000
47.42050 106.000
47.44045 113.000
47.46039 101.000
47.48034 98.000
47.50029 103.000
47.52024 102.000
47.54018 88.000
47.56013 103.000
47.58008 88.000
47.60002 111.000
47.61997 108.000
47.63992 92.000
47.65986 103.000
47.67981 112.000
47.69976 102.000
47.71970 100.000
47.73965 88.000
47.75960 116.000
47.77955 93.000
47.79949 116.000
47.81944 94.000
47.83939 123.000
47.85933 131.000
47.87928 112.000
47.89923 136.000
47.91917 108.000
47.93912 123.000
47.95907 154.000
47.97902 148.000
47.99896 148.000
48.01891 154.000
48.03886 144.000
48.05880 163.000
48.07875 160.000
48.09870 208.000
48.11864 192.000
48.13859 213.000
48.15854 241.000
48.17848 272.000
48.19843 273.000
48.21838 301.000
48.23833 349.000
48.25827 391.000
48.27822 395.000
48.29817 454.000
48.31811 510.000
48.33806 472.000
48.35801 531.000
48.37795 600.000
48.39790 585.000
48.41785 537.000
48.43780 521.000
48.45774 499.000
48.47769 466.000
48.49764 455.000
48.51758 400.000
48.53753 358.000
48.55748 302.000
48.57742 285.000
48.59737 295.000
48.61732 254.000
48.63726 215.000
48.65721 199.000
48.67716 192.000
48.69711 195.000
48.71705 126.000
48.73700 139.000
48.75695 163.000
48.77689 142.000
48.79684 164.000
48.81679 131.000
48.83673 144.000
48.85668 120.000
48.87663 144.000
48.89658 120.000
48.91652 121.000
48.93647 98.000
48.95642 103.000
48.97636 118.000
48.99631 91.000
49.01626 112.000
49.03620 100.000
49.05615 113.000
49.07610 101.000
49.09605 114.000
49.11599 122.000
49.13594 93.000
49.15589 103.000
49.17583 103.000
49.19578 108.000
49.21573 93.000
49.23567 108.000
49.25562 100.000
49.27557 87.000
49.29551 103.000
49.31546 109.000
49.33541 125.000
49.35536 117.000
49.37530 92.000
49.39525 94.000
49.41520 86.000
49.43514 112.000
49.45509 103.000
49.47504 98.000
49.49498 95.000
49.51493 91.000
49.53488 101.000
49.55483 105.000
49.57477 94.000
49.59472 109.000
49.61467 97.000
49.63461 93.000
49.65456 92.000
49.67451 98.000
49.69445 88.000
49.71440 83.000
49.73435 90.000
49.75429 102.000
49.77424 94.000
49.79419 83.000
49.81414 73.000
49.83408 90.000
49.85403 86.000
49.87398 91.000
49.89392 80.000
49.91387 90.000
49.93382 98.000
49.95376 104.000
49.97371 91.000
49.99366 97.000
50.01361 97.000
50.03355 90.000
50.05350 96.000
50.07345 82.000
50.09339 79.000
50.11334 105.000
50.13329 107.000
50.15323 95.000
50.17318 96.000
50.19313 103.000
50.21307 84.000
50.23302 98.000
50.25297 79.000
50.27292 93.000
50.29286 75.000
50.31281 98.000
50.33276 90.000
50.35270 101.000
50.37265 72.000
50.39260 91.000
50.41254 84.000
50.43249 102.000
50.45244 83.000
50.47239 88.000
50.49233 83.000
50.51228 82.000
50.53223 101.000
50.55217 110.000
50.57212 85.000
50.59207 95.000
50.61201 78.000
50.63196 96.000
50.65191 110.000
50.67186 80.000
50.69180 88.000
50.71175 94.000
50.73170 67.000
50.75164 96.000
50.77159 89.000
50.79154 89.000
50.81148 103.000
50.83143 97.000
50.85138 89.000
50.87132 101.000
50.89127 81.000
50.91122 109.000
50.93117 98.000
50.95111 100.000
50.97106 89.000
50.99101 87.000
51.01095 104.000
51.03090 95.000
51.05085 73.000
51.07079 63.000
51.09074 93.000
51.11069 81.000
51.13064 90.000
51.15058 78.000
51.17053 83.000
51.19048 112.000
51.21042 98.000
51.23037 82.000
51.25032 98.000
51.27026 84.000
51.29021 91.000
51.31016 100.000
51.33010 88.000
51.35005 89.000
51.37000 108.000
51.38995 89.000
51.40989 102.000
51.42984 79.000
51.44979 97.000
51.46973 79.000
51.48968 101.000
51.50963 100.000
51.52957 85.000
51.54952 92.000
51.56947 90.000
51.58942 79.000
51.60936 113.000
51.62931 71.000
51.64926 93.000
51.66920 94.000
51.68915 104.000
51.70910 81.000
51.72904 100.000
51.74899 85.000
51.76894 79.000
51.78888 75.000
51.80883 96.000
51.82878 97.000
51.84873 84.000
51.86867 110.000
51.88862 79.000
51.90857 115.000
51.92851 95.000
51.94846 90.000
51.96841 95.000
51.98835 86.000
52.00830 98.000
52.02825 89.000
52.04820 90.000
52.06814 107.000
52.08809 94.000
52.10804 100.000
52.12798 82.000
52.14793 110.000
52.16788 97.000
52.18782 118.000
52.20777 93.000
52.22772 91.000
52.24767 105.000
52.26761 91.000
52.28756 97.000
52.30751 98.000
52.32745 90.000
52.34740 102.000
52.36735 105.000
52.38729 88.000
52.40724 83.000
52.42719 88.000
52.44713 100.000
52.46708 106.000
52.48703 127.000
52.50698 83.000
52.52692 99.000
52.54687 100.000
52.56682 103.000
52.58676 122.000
52.60671 91.000
52.62666 109.000
52.64660 122.000
52.66655 94.000
52.68650 111.000
52.70645 114.000
52.72639 105.000
52.74634 124.000
52.76629 136.000
52.78623 140.000
52.80618 135.000
52.82613 152.000
52.84607 147.000
52.86602 159.000
52.88597 178.000
52.90591 155.000
52.92586 178.000
52.94581 178.000
52.96576 184.000
52.98570 167.000
53.00565 147.000
53.02560 152.000
53.04554 146.000
53.06549 138.000
53.08544 129.000
53.10538 143.000
53.12533 130.000
53.14528 118.000
53.16523 128.000
53.18517 103.000
53.20512 119.000
53.22507 85.000
53.24501 98.000
53.26496 97.000
53.28491 89.000
53.30485 103.000
53.32480 100.000
53.34475 99.000
53.36469 106.000
53.38464 99.000
53.40459 114.000
53.42454 101.000
53.44448 97.000
53.46443 109.000
53.48438 76.000
53.50432 99.000
53.52427 117.000
53.54422 94.000
53.56416 100.000
53.58411 87.000
53.60406 104.000
53.62401 108.000
53.64395 100.000
53.66390 92.000
53.68385 86.000
53.70379 97.000
53.72374 105.000
53.74369 119.000
53.76363 98.000
53.78358 81.000
53.80353 117.000
53.82348 108.000
53.84342 91.000
53.86337 88.000
53.88332 94.000
53.90326 107.000
53.92321 102.000
53.94316 86.000
53.96310 99.000
53.98305 94.000
54.00300 93.000
54.02294 92.000
54.04289 89.000
54.06284 88.000
54.08279 100.000
54.10273 103.000
54.12268 96.000
54.14263 98.000
54.16257 82.000
54.18252 97.000
54.20247 89.000
54.22241 76.000
54.24236 113.000
54.26231 104.000
54.28226 81.000
54.30220 98.000
54.32215 103.000
54.34210 96.000
54.36204 81.000
54.38199 99.000
54.40194 98.000
54.42188 103.000
54.44183 93.000
54.46178 94.000
54.48172 92.000
54.50167 108.000
54.52162 92.000
54.54157 93.000
54.56151 93.000
54.58146 86.000
54.60141 105.000
54.62135 86.000
54.64130 95.000
54.66125 95.000
54.68119 77.000
54.70114 88.000
54.72109 99.000
54.74104 85.000
54.76098 94.000
54.78093 106.000
54.80088 107.000
54.82082 96.000
54.84077 91.000
54.86072 83.000
54.88066 92.000
54.90061 94.000
54.92056 85.000
54.94050 115.000
54.96045 107.000
54.98040 79.000
55.00035 93.000
55.02029 106.000
55.04024 88.000
55.06019 89.000
55.08013 103.000
55.10008 86.000
55.12003 112.000
55.13997 98.000
55.15992 103.000
55.17987 94.000
55.19982 90.000
55.21976 96.000
55.23971 98.000
55.25966 96.000
55.27960 88.000
55.29955 78.000
55.31950 88.000
55.33944 89.000
55.35939 95.000
55.37934 108.000
55.39929 93.000
55.41923 95.000
55.43918 85.000
55.45913 105.000
55.47907 107.000
55.49902 75.000
55.51897 103.000
55.53891 89.000
55.55886 84.000
55.57881 99.000
55.59875 106.000
55.61870 99.000
55.63865 77.000
55.65860 86.000
55.67854 96.000
55.69849 86.000
55.71844 100.000
55.73838 105.000
55.75833 78.000
55.77828 109.000
55.79822 107.000
55.81817 95.000
55.83812 92.000
55.85807 110.000
55.87801 97.000
55.89796 107.000
55.91791 98.000
55.93785 91.000
55.95780 126.000
55.97775 115.000
55.99769 110.000
56.01764 113.000
56.03759 143.000
56.05753 115.000
56.07748 149.000
56.09743 150.000
56.11738 149.000
56.13732 175.000
56.15727 184.000
56.17722 211.000
56.19716 210.000
56.21711 251.000
56.23706 277.000
56.25700 305.000
56.27695 288.000
56.29690 353.000
56.31685 362.000
56.33679 351.000
56.35674 401.000
56.37669 407.000
56.39663 392.000
56.41658 407.000
56.43653 401.000
56.45647 394.000
56.47642 403.000
56.49637 354.000
56.51631 377.000
56.53626 332.000
56.55621 320.000
56.57616 308.000
56.59610 308.000
56.61605 255.000
56.63600 255.000
56.65594 236.000
56.67589 194.000
56.69584 191.000
56.71578 160.000
56.73573 167.000
56.75568 147.000
56.77563 138.000
56.79557 123.000
56.81552 119.000
56.83547 110.000
56.85541 111.000
56.87536 93.000
56.89531 118.000
56.91525 130.000
56.93520 93.000
56.95515 111.000
56.97510 86.000
56.99504 100.000
57.01499 98.000
57.03494 107.000
57.05488 79.000
57.07483 99.000
57.09478 88.000
57.11472 99.000
57.13467 90.000
57.15462 103.000
57.17456 117.000
57.19451 76.000
57.21446 100.000
57.23441 105.000
57.25435 90.000
57.27430 99.000
57.29425 71.000
57.31419 93.000
57.33414 93.000
57.35409 97.000
57.37403 93.000
57.39398 81.000
57.41393 111.000
57.43388 100.000
57.45382 98.000
57.47377 87.000
57.49372 97.000
57.51366 81.000
57.53361 100.000
57.55356 76.000
57.57350 97.000
57.59345 94.000
57.61340 85.000
57.63334 94.000
57.65329 93.000
57.67324 83.000
57.69319 97.000
57.71313 91.000
57.73308 96.000
57.75303 82.000
57.77297 92.000
57.79292 91.000
57.81287 107.000
57.83281 109.000
57.85276 79.000
57.87271 93.000
57.89266 113.000
57.91260 86.000
57.93255 90.000
57.95250 90.000
57.97244 96.000
57.99239 82.000
58.01234 97.000
58.03228 81.000
58.05223 79.000
58.07218 104.000
58.09212 95.000
58.11207 98.000
58.13202 95.000
58.15197 91.000
58.17191 99.000
58.19186 79.000
58.21181 104.000
58.23175 75.000
58.25170 92.000
58.27165 90.000
58.29159 102.000
58.31154 88.000
58.33149 96.000
58.35144 108.000
58.37138 83.000
58.39133 77.000
58.41128 91.000
58.43122 82.000
58.45117 82.000
58.47112 102.000
58.49106 89.000
58.51101 89.000
58.53096 98.000
58.55090 100.000
58.57085 74.000
58.59080 90.000
58.61075 110.000
58.63069 88.000
58.65064 88.000
58.67059 85.000
58.69053 105.000
58.71048 103.000
58.73043 96.000
58.75037 83.000
58.77032 89.000
58.79027 71.000
58.81022 80.000
58.83016 102.000
58.85011 88.000
58.87006 101.000
58.89000 95.000
58.90995 91.000
58.92990 103.000
58.94984 97.000
58.96979 104.000
58.98974 86.000
59.00969 98.000
59.02963 97.000
59.04958 80.000
59.06953 82.000
59.08947 92.000
59.10942 84.000
59.12937 92.000
59.14931 94.000
59.16926 106.000
59.18921 78.000
59.20915 114.000
59.22910 89.000
59.24905 96.000
59.26900 90.000
59.28894 103.000
59.30889 85.000
59.32884 92.000
59.34878 86.000
59.36873 96.000
59.38868 89.000
59.40862 82.000
59.42857 103.000
59.44852 70.000
59.46847 87.000
59.48841 89.000
59.50836 88.000
59.52831 86.000
59.54825 109.000
59.56820 86.000
59.58815 85.000
59.60809 85.000
59.62804 94.000
59.64799 81.000
59.66793 104.000
59.68788 96.000
59.70783 97.000
59.72778 96.000
59.74772 91.000
59.76767 91.000
59.78762 99.000
59.80756 98.000
59.82751 80.000
59.84746 82.000
59.86740 95.000
59.88735 88.000
59.90730 95.000
59.92725 91.000
59.94719 90.000
59.96714 93.000
59.98709 80.000
60.00703 106.000
60.02698 107.000
60.04693 89.000
60.06687 89.000
60.08682 89.000
60.10677 91.000
60.12671 110.000
60.14666 85.000
60.16661 103.000
60.18656 99.000
60.20650 98.000
60.22645 107.000
60.24640 90.000
60.26634 102.000
60.28629 86.000
60.30624 111.000
60.32618 75.000
60.34613 98.000
60.36608 86.000
60.38603 84.000
60.40597 86.000
60.42592 85.000
60.44587 88.000
60.46581 88.000
60.48576 93.000
60.50571 101.000
60.52565 90.000
60.54560 104.000
60.56555 111.000
60.58550 112.000
60.60544 96.000
60.62539 67.000
60.64534 106.000
60.66528 102.000
60.68523 103.000
60.70518 79.000
60.72512 95.000
60.74507 87.000
60.76502 94.000
60.78496 111.000
60.80491 115.000
60.82486 90.000
60.84481 106.000
60.86475 130.000
60.88470 111.000
60.90465 94.000
60.92459 130.000
60.94454 128.000
60.96449 114.000
60.98443 112.000
61.00438 128.000
61.02433 131.000
61.04428 143.000
61.06422 105.000
61.08417 137.000
61.10412 154.000
61.12406 159.000
61.14401 144.000
61.16396 166.000
61.18390 178.000
61.20385 202.000
61.22380 199.000
61.24374 253.000
61.26369 214.000
61.28364 259.000
61.30359 275.000
61.32353 290.000
61.34348 275.000
61.36343 300.000
61.38337 344.000
61.40332 264.000
61.42327 275.000
61.44321 304.000
61.46316 266.000
61.48311 259.000
61.50306 303.000
61.52300 284.000
61.54295 295.000
61.56290 259.000
61.58284 248.000
61.60279 245.000
61.62274 227.000
61.64268 237.000
61.66263 263.000
61.68258 230.000
61.70252 279.000
61.72247 302.000
61.74242 293.000
61.76237 304.000
61.78231 348.000
61.80226 357.000
61.82221 352.000
61.84215 401.000
61.86210 425.000
61.88205 400.000
61.90199 448.000
61.92194 448.000
61.94189 457.000
61.96184 418.000
61.98178 442.000
62.00173 423.000
62.02168 418.000
62.04162 392.000
62.06157 403.000
62.08152 372.000
62.10146 339.000
62.12141 321.000
62.14136 304.000
62.16131 293.000
62.18125 278.000
62.20120 247.000
62.22115 217.000
62.24109 222.000
62.26104 176.000
62.28099 183.000
62.30093 188.000
62.32088 146.000
62.34083 162.000
62.36077 120.000
62.38072 138.000
62.40067 120.000
62.42062 129.000
62.44056 124.000
62.46051 111.000
62.48046 114.000
62.50040 101.000
62.52035 106.000
62.54030 100.000
62.56024 108.000
62.58019 120.000
62.60014 97.000
62.62009 104.000
62.64003 116.000
62.65998 104.000
62.67993 118.000
62.69987 126.000
62.71982 96.000
62.73977 95.000
62.75971 105.000
62.77966 104.000
62.79961 104.000
62.81955 103.000
62.83950 102.000
62.85945 102.000
62.87940 95.000
62.89934 114.000
62.91929 104.000
62.93924 88.000
62.95918 102.000
62.97913 93.000
62.99908 101.000
63.01902 114.000
63.03897 93.000
63.05892 103.000
63.07887 102.000
63.09881 95.000
63.11876 87.000
63.13871 99.000
63.15865 93.000
63.17860 85.000
63.19855 101.000
63.21849 102.000
63.23844 99.000
63.25839 120.000
63.27833 96.000
63.29828 100.000
63.31823 92.000
63.33818 102.000
63.35812 86.000
63.37807 105.000
63.39802 108.000
63.41796 116.000
63.43791 99.000
63.45786 88.000
63.47780 101.000
63.49775 95.000
63.51770 119.000
63.53765 98.000
63.55759 120.000
63.57754 114.000
63.59749 102.000
63.61743 87.000
63.63738 104.000
63.65733 96.000
63.67727 106.000
63.69722 120.000
63.71717 106.000
63.73712 119.000
63.75706 99.000
63.77701 114.000
63.79696 110.000
63.81690 104.000
63.83685 115.000
63.85680 123.000
63.87674 123.000
63.89669 128.000
63.91664 102.000
63.93658 135.000
63.95653 141.000
63.97648 166.000
63.99643 185.000
64.01637 167.000
64.03632 191.000
64.05627 181.000
64.07621 199.000
64.09616 216.000
64.11611 211.000
64.13605 221.000
64.15600 247.000
64.17595 211.000
64.19590 219.000
64.21584 224.000
64.23579 213.000
64.25574 206.000
64.27568 216.000
64.29563 220.000
64.31558 219.000
64.33552 227.000
64.35547 191.000
64.37542 187.000
64.39536 179.000
64.41531 164.000
64.43526 160.000
64.45521 148.000
64.47515 174.000
64.49510 141.000
64.51505 148.000
64.53499 153.000
64.55494 120.000
64.57489 125.000
64.59483 120.000
64.61478 99.000
64.63473 136.000
64.65468 130.000
64.67462 113.000
64.69457 120.000
64.71452 114.000
64.73446 125.000
64.75441 110.000
64.77436 114.000
64.79430 106.000
64.81425 123.000
64.83420 105.000
64.85414 86.000
64.87409 88.000
64.89404 114.000
64.91399 103.000
64.93393 129.000
64.95388 120.000
64.97383 108.000
64.99377 105.000
65.01372 117.000
65.03367 119.000
65.05361 108.000
65.07356 128.000
65.09351 116.000
65.11346 133.000
65.13340 117.000
65.15335 97.000
65.17330 134.000
65.19324 141.000
65.21319 114.000
65.23314 131.000
65.25308 116.000
65.27303 105.000
65.29298 125.000
65.31293 114.000
65.33287 130.000
65.35282 123.000
65.37277 111.000
65.39271 114.000
65.41266 109.000
65.43261 114.000
65.45255 102.000
65.47250 93.000
65.49245 109.000
65.51239 115.000
65.53234 107.000
65.55229 103.000
65.57224 96.000
65.59218 114.000
65.61213 126.000
65.63208 115.000
65.65202 119.000
65.67197 116.000
65.69192 112.000
65.71186 128.000
65.73181 131.000
65.75176 118.000
65.77171 115.000
65.79165 136.000
65.81160 136.000
65.83155 154.000
65.85149 133.000
65.87144 124.000
65.89139 135.000
65.91133 130.000
65.93128 127.000
65.95123 138.000
65.97117 136.000
65.99112 141.000
66.01107 142.000
66.03102 138.000
66.05096 141.000
66.07091 112.000
66.09086 129.000
66.11080 138.000
66.13075 112.000
66.15070 112.000
66.17064 124.000
66.19059 125.000
66.21054 108.000
66.23049 141.000
66.25043 135.000
66.27038 122.000
66.29033 146.000
66.31027 135.000
66.33022 154.000
66.35017 133.000
66.37011 156.000
66.39006 192.000
66.41001 160.000
66.42995 179.000
66.44990 190.000
66.46985 198.000
66.48980 182.000
66.50974 168.000
66.52969 209.000
66.54964 177.000
66.56958 158.000
66.58953 191.000
66.60948 190.000
66.62942 152.000
66.64937 186.000
66.66932 166.000
66.68927 167.000
66.70921 158.000
66.72916 161.000
66.74911 150.000
66.76905 123.000
66.78900 130.000
66.80895 130.000
66.82889 130.000
66.84884 116.000
66.86879 125.000
66.88874 102.000
66.90868 115.000
66.92863 100.000
66.94858 110.000
66.96852 108.000
66.98847 117.000
67.00842 99.000
67.02836 83.000
67.04831 83.000
67.06826 98.000
67.08820 89.000
67.10815 79.000
67.12810 98.000
67.14805 82.000
67.16799 90.000
67.18794 88.000
67.20789 91.000
67.22783 96.000
67.24778 84.000
67.26773 97.000
67.28767 104.000
67.30762 88.000
67.32757 66.000
67.34752 101.000
67.36746 82.000
67.38741 67.000
67.40736 83.000
67.42730 86.000
67.44725 84.000
67.46720 107.000
67.48714 90.000
67.50709 89.000
67.52704 86.000
67.54698 81.000
67.56693 92.000
67.58688 84.000
67.60683 75.000
67.62677 102.000
67.64672 79.000
67.66667 78.000
67.68661 88.000
67.70656 89.000
67.72651 94.000
67.74645 92.000
67.76640 75.000
67.78635 79.000
67.80630 94.000
67.82624 75.000
67.84619 94.000
67.86614 76.000
67.88608 105.000
67.90603 96.000
67.92598 76.000
67.94592 81.000
67.96587 81.000
67.98582 83.000
68.00576 82.000
68.02571 105.000
68.04566 98.000
68.06561 79.000
68.08555 79.000
68.10550 77.000
68.12545 87.000
68.14539 76.000
68.16534 77.000
68.18529 100.000
68.20523 89.000
68.22518 85.000
68.24513 82.000
68.26508 85.000
68.28502 91.000
68.30497 85.000
68.32492 80.000
68.34486 90.000
68.36481 92.000
68.38476 81.000
68.40470 77.000
68.42465 75.000
68.44460 89.000
68.46455 97.000
68.48449 89.000
68.50444 86.000
68.52439 94.000
68.54433 86.000
68.56428 98.000
68.58423 93.000
68.60417 78.000
68.62412 95.000
68.64407 69.000
68.66401 76.000
68.68396 79.000
68.70391 84.000
68.72386 103.000
68.74380 83.000
68.76375 91.000
68.78370 81.000
68.80364 83.000
68.82359 83.000
68.84354 109.000
68.86348 83.000
68.88343 67.000
68.90338 87.000
68.92333 105.000
68.94327 94.000
68.96322 75.000
68.98317 88.000
69.00311 92.000
69.02306 78.000
69.04301 86.000
69.06295 86.000
69.08290 68.000
69.10285 72.000
69.12279 70.000
69.14274 94.000
69.16269 80.000
69.18264 90.000
69.20258 78.000
69.22253 89.000
69.24248 87.000
69.26242 82.000
69.28237 99.000
69.30232 89.000
69.32226 85.000
69.34221 74.000
69.36216 90.000
69.38211 79.000
69.40205 111.000
69.42200 82.000
69.44195 80.000
69.46189 71.000
69.48184 83.000
69.50179 84.000
69.52173 96.000
69.54168 73.000
69.56163 87.000
69.58157 93.000
69.60152 75.000
69.62147 88.000
69.64142 83.000
69.66136 90.000
69.68131 87.000
69.70126 81.000
69.72120 80.000
69.74115 89.000
69.76110 67.000
69.78104 95.000
69.80099 80.000
69.82094 79.000
69.84089 82.000
69.86083 84.000
69.88078 65.000
69.90073 97.000
69.92067 97.000
69.94062 84.000
69.96057 88.000
69.98051 99.000
70.00046 106.000
70.02041 83.000
70.04035 99.000
70.06030 82.000
70.08025 83.000
70.10020 99.000
70.12014 94.000
70.14009 76.000
70.16004 101.000
70.17998 88.000
70.19993 86.000
70.21988 118.000
70.23982 110.000
70.25977 99.000
70.27972 89.000
70.29967 94.000
70.31961 118.000
70.33956 117.000
70.35951 111.000
70.37945 88.000
70.39940 103.000
70.41935 108.000
70.43929 82.000
70.45924 73.000
70.47919 83.000
70.49914 82.000
70.51908 100.000
70.53903 101.000
70.55898 106.000
70.57892 97.000
70.59887 78.000
70.61882 67.000
70.63876 89.000
70.65871 88.000
70.67866 90.000
70.69860 82.000
70.71855 91.000
70.73850 83.000
70.75845 68.000
70.77839 83.000
70.79834 69.000
70.81829 74.000
70.83823 98.000
70.85818 94.000
70.87813 88.000
70.89807 88.000
70.91802 93.000
70.93797 86.000
70.95792 95.000
70.97786 88.000
70.99781 71.000
71.01776 80.000
71.03770 83.000
71.05765 85.000
71.07760 68.000
71.09754 93.000
71.11749 83.000
71.13744 66.000
71.15738 76.000
71.17733 99.000
71.19728 96.000
71.21723 79.000
71.23717 76.000
71.25712 71.000
71.27707 69.000
71.29701 80.000
71.31696 90.000
71.33691 64.000
71.35685 84.000
71.37680 78.000
71.39675 104.000
71.41670 70.000
71.43664 87.000
71.45659 58.000
71.47654 80.000
71.49648 75.000
71.51643 82.000
71.53638 84.000
71.55632 80.000
71.57627 76.000
71.59622 79.000
71.61616 73.000
71.63611 73.000
71.65606 91.000
71.67601 86.000
71.69595 82.000
71.71590 82.000
71.73585 85.000
71.75579 70.000
71.77574 69.000
71.79569 94.000
71.81563 93.000
71.83558 83.000
71.85553 82.000
71.87548 90.000
71.89542 76.000
71.91537 95.000
71.93532 67.000
71.95526 95.000
71.97521 78.000
71.99516 77.000
72.01510 82.000
72.03505 80.000
72.05500 81.000
72.07495 64.000
72.09489 101.000
72.11484 86.000
72.13479 90.000
72.15473 81.000
72.17468 74.000
72.19463 86.000
72.21457 69.000
72.23452 78.000
72.25447 83.000
72.27441 84.000
72.29436 94.000
72.31431 77.000
72.33426 73.000
72.35420 104.000
72.37415 100.000
72.39410 84.000
72.41404 88.000
72.43399 88.000
72.45394 92.000
72.47388 90.000
72.49383 90.000
72.51378 96.000
72.53373 94.000
72.55367 81.000
72.57362 99.000
72.59357 79.000
72.61351 94.000
72.63346 88.000
72.65341 81.000
72.67335 84.000
72.69330 100.000
72.71325 95.000
72.73319 89.000
72.75314 90.000
72.77309 90.000
72.79304 92.000
72.81298 93.000
72.83293 110.000
72.85288 98.000
72.87282 95.000
72.89277 80.000
72.91272 110.000
72.93266 122.000
72.95261 111.000
72.97256 107.000
72.99251 103.000
73.01245 123.000
73.03240 133.000
73.05235 117.000
73.07229 141.000
73.09224 151.000
73.11219 160.000
73.13213 137.000
73.15208 174.000
73.17203 163.000
73.19197 165.000
73.21192 149.000
73.23187 186.000
73.25182 188.000
73.27176 187.000
73.29171 180.000
73.31166 169.000
73.33160 179.000
73.35155 184.000
73.37150 169.000
73.39144 193.000
73.41139 169.000
73.43134 160.000
73.45129 163.000
73.47123 145.000
73.49118 153.000
73.51113 140.000
73.53107 113.000
73.55102 137.000
73.57097 144.000
73.59091 130.000
73.61086 111.000
73.63081 116.000
73.65076 124.000
73.67070 122.000
73.69065 90.000
73.71060 91.000
73.73054 112.000
73.75049 95.000
73.77044 92.000
73.79038 96.000
73.81033 99.000
73.83028 108.000
73.85022 88.000
73.87017 86.000
73.89012 79.000
73.91007 85.000
73.93001 94.000
73.94996 95.000
73.96991 93.000
73.98985 100.000
74.00980 114.000
74.02975 90.000
74.04969 115.000
74.06964 112.000
74.08959 127.000
74.10954 137.000
74.12948 125.000
74.14943 112.000
74.16938 113.000
74.18932 119.000
74.20927 140.000
74.22922 118.000
74.24916 139.000
74.26911 130.000
74.28906 128.000
74.30900 119.000
74.32895 127.000
74.34890 122.000
74.36885 100.000
74.38879 104.000
74.40874 116.000
74.42869 116.000
74.44863 111.000
74.46858 106.000
74.48853 115.000
74.50847 109.000
74.52842 108.000
74.54837 100.000
74.56832 76.000
74.58826 111.000
74.60821 98.000
74.62816 105.000
74.64810 95.000
74.66805 96.000
74.68800 100.000
74.70794 106.000
74.72789 84.000
74.74784 82.000
74.76778 56.000
74.78773 82.000
74.80768 93.000
74.82763 96.000
74.84757 81.000
74.86752 86.000
74.88747 83.000
74.90741 81.000
74.92736 100.000
74.94731 89.000
74.96725 100.000
74.98720 91.000
75.00715 92.000
75.02710 74.000
75.04704 75.000
75.06699 96.000
75.08694 100.000
75.10688 71.000
75.12683 78.000
75.14678 83.000
75.16672 96.000
75.18667 106.000
75.20662 87.000
75.22657 102.000
75.24651 100.000
75.26646 76.000
75.28641 89.000
75.30635 101.000
75.32630 80.000
75.34625 87.000
75.36619 70.000
75.38614 90.000
75.40609 85.000
75.42603 111.000
75.44598 95.000
75.46593 92.000
75.48588 101.000
75.50582 89.000
75.52577 90.000
75.54572 76.000
75.56566 101.000
75.58561 84.000
75.60556 112.000
75.62550 105.000
75.64545 94.000
75.66540 107.000
75.68535 93.000
75.70529 112.000
75.72524 101.000
75.74519 84.000
75.76513 102.000
75.78508 89.000
75.80503 100.000
75.82497 105.000
75.84492 101.000
75.86487 97.000
75.88481 102.000
75.90476 112.000
75.92471 96.000
75.94466 96.000
75.96460 117.000
75.98455 93.000
76.00450 106.000
76.02444 98.000
76.04439 96.000
76.06434 80.000
76.08428 98.000
76.10423 105.000
76.12418 69.000
76.14413 87.000
76.16407 89.000
76.18402 94.000
76.20397 88.000
76.22391 84.000
76.24386 97.000
76.26381 98.000
76.28375 85.000
76.30370 79.000
76.32365 75.000
76.34359 86.000
76.36354 91.000
76.38349 86.000
76.40344 79.000
76.42338 80.000
76.44333 86.000
76.46328 109.000
76.48322 93.000
76.50317 93.000
76.52312 96.000
76.54306 103.000
76.56301 72.000
76.58296 96.000
76.60291 100.000
76.62285 97.000
76.64280 97.000
76.66275 86.000
76.68269 104.000
76.70264 88.000
76.72259 96.000
76.74253 97.000
76.76248 88.000
76.78243 88.000
76.80238 80.000
76.82232 84.000
76.84227 90.000
76.86222 92.000
76.88216 92.000
76.90211 96.000
76.92206 110.000
76.94200 104.000
76.96195 101.000
76.98190 97.000
77.00184 113.000
77.02179 112.000
77.04174 107.000
77.06169 122.000
77.08163 124.000
77.10158 107.000
77.12153 105.000
77.14147 115.000
77.16142 128.000
77.18137 117.000
77.20131 125.000
77.22126 143.000
77.24121 127.000
77.26116 126.000
77.28110 149.000
77.30105 155.000
77.32100 158.000
77.34094 154.000
77.36089 153.000
77.38084 136.000
77.40078 131.000
77.42073 126.000
77.44068 118.000
77.46062 121.000
77.48057 135.000
77.50052 154.000
77.52047 119.000
77.54041 132.000
77.56036 151.000
77.58031 120.000
77.60025 134.000
77.62020 122.000
77.64015 109.000
77.66009 102.000
77.68004 134.000
77.69999 123.000
77.71994 120.000
77.73988 116.000
77.75983 124.000
77.77978 120.000
77.79972 122.000
77.81967 119.000
77.83962 131.000
77.85956 123.000
77.87951 146.000
77.89946 144.000
77.91940 121.000
77.93935 149.000
77.95930 121.000
77.97925 118.000
77.99919 158.000
78.01914 126.000
78.03909 138.000
78.05903 146.000
78.07898 127.000
78.09893 110.000
78.11887 123.000
78.13882 125.000
78.15877 134.000
78.17872 142.000
78.19866 110.000
78.21861 130.000
78.23856 120.000
78.25850 114.000
78.27845 121.000
78.29840 113.000
78.31834 111.000
78.33829 117.000
78.35824 105.000
78.37819 120.000
78.39813 117.000
78.41808 98.000
78.43803 97.000
78.45797 110.000
78.47792 94.000
78.49787 98.000
78.51781 83.000
78.53776 89.000
78.55771 90.000
78.57765 87.000
78.59760 96.000
78.61755 86.000
78.63750 87.000
78.65744 96.000
78.67739 98.000
78.69734 99.000
78.71728 87.000
78.73723 94.000
78.75718 87.000
78.77712 104.000
78.79707 78.000
78.81702 90.000
78.83697 66.000
78.85691 90.000
78.87686 109.000
78.89681 86.000
78.91675 79.000
78.93670 81.000
78.95665 90.000
78.97659 73.000
78.99654 82.000
79.01649 81.000
79.03643 95.000
79.05638 77.000
79.07633 80.000
79.09628 74.000
79.11622 76.000
79.13617 89.000
79.15612 96.000
79.17606 82.000
79.19601 87.000
79.21596 75.000
79.23590 74.000
79.25585 76.000
79.27580 79.000
79.29575 76.000
79.31569 67.000
79.33564 62.000
79.35559 79.000
79.37553 70.000
79.39548 73.000
79.41543 102.000
79.43537 86.000
79.45532 90.000
79.47527 86.000
79.49521 76.000
79.51516 88.000
79.53511 69.000
79.55506 94.000
79.57500 72.000
79.59495 66.000
79.61490 82.000
79.63484 82.000
79.65479 85.000
79.67474 81.000
79.69468 64.000
79.71463 87.000
79.73458 97.000
79.75453 65.000
79.77447 95.000
79.79442 76.000
79.81437 81.000
79.83431 94.000
79.85426 75.000
79.87421 73.000
79.89415 72.000
79.91410 82.000
79.93405 97.000
79.95399 73.000
79.97394 65.000
79.99389 74.000
80.01384 79.000
80.03378 73.000
80.05373 80.000
80.07368 84.000
80.09362 73.000
80.11357 80.000
80.13352 85.000
80.15346 70.000
80.17341 82.000
80.19336 73.000
80.21331 86.000
80.23325 82.000
80.25320 105.000
80.27315 79.000
80.29309 90.000
80.31304 86.000
80.33299 91.000
80.35293 100.000
80.37288 93.000
80.39283 79.000
80.41278 81.000
80.43272 80.000
80.45267 102.000
80.47262 81.000
80.49256 96.000
80.51251 83.000
80.53246 92.000
80.55240 81.000
80.57235 97.000
80.59230 78.000
80.61224 86.000
80.63219 77.000
80.65214 90.000
80.67209 95.000
80.69203 85.000
80.71198 90.000
80.73193 91.000
80.75187 90.000
80.77182 91.000
80.79177 84.000
80.81171 72.000
80.83166 97.000
80.85161 101.000
80.87156 106.000
80.89150 95.000
80.91145 98.000
80.93140 86.000
80.95134 90.000
80.97129 92.000
80.99124 98.000
81.01118 98.000
81.03113 80.000
81.05108 103.000
81.07102 94.000
81.09097 90.000
81.11092 96.000
81.13087 80.000
81.15081 82.000
81.17076 85.000
81.19071 107.000
81.21065 109.000
81.23060 84.000
81.25055 87.000
81.27049 80.000
81.29044 89.000
81.31039 83.000
81.33034 96.000
81.35028 79.000
81.37023 77.000
81.39018 99.000
81.41012 80.000
81.43007 79.000
81.45002 79.000
81.46996 80.000
81.48991 74.000
81.50986 77.000
81.52980 90.000
81.54975 95.000
81.56970 64.000
81.58965 68.000
81.60959 74.000
81.62954 79.000
81.64949 90.000
81.66943 68.000
81.68938 96.000
81.70933 88.000
81.72927 72.000
81.74922 86.000
81.76917 88.000
81.78912 71.000
81.80906 91.000
81.82901 89.000
81.84896 95.000
81.86890 80.000
81.88885 84.000
81.90880 87.000
81.92874 92.000
81.94869 84.000
81.96864 76.000
81.98859 71.000
82.00853 76.000
82.02848 79.000
82.04843 93.000
82.06837 61.000
82.08832 78.000
82.10827 75.000
82.12821 68.000
82.14816 93.000
82.16811 61.000
82.18805 73.000
82.20800 97.000
82.22795 74.000
82.24790 64.000
82.26784 74.000
82.28779 69.000
82.30774 72.000
82.32768 71.000
82.34763 100.000
82.36758 78.000
82.38752 83.000
82.40747 78.000
82.42742 98.000
82.44737 89.000
82.46731 98.000
82.48726 97.000
82.50721 85.000
82.52715 80.000
82.54710 83.000
82.56705 87.000
82.58699 77.000
82.60694 76.000
82.62689 69.000
82.64683 86.000
82.66678 76.000
82.68673 76.000
82.70668 71.000
82.72662 84.000
82.74657 76.000
82.76652 81.000
82.78646 75.000
82.80641 82.000
82.82636 82.000
82.84630 84.000
82.86625 72.000
82.88620 62.000
82.90615 83.000
82.92609 70.000
82.94604 82.000
82.96599 80.000
82.98593 68.000
83.00588 78.000
83.02583 84.000
83.04577 67.000
83.06572 80.000
83.08567 89.000
83.10561 83.000
83.12556 81.000
83.14551 89.000
83.16546 81.000
83.18540 68.000
83.20535 75.000
83.22530 81.000
83.24524 88.000
83.26519 83.000
83.28514 77.000
83.30508 85.000
83.32503 107.000
83.34498 65.000
83.36493 81.000
83.38487 75.000
83.40482 81.000
83.42477 75.000
83.44471 93.000
83.46466 96.000
83.48461 82.000
83.50455 80.000
83.52450 77.000
83.54445 80.000
83.56440 86.000
83.58434 98.000
83.60429 88.000
83.62424 84.000
83.64418 89.000
83.66413 87.000
83.68408 82.000
83.70402 95.000
83.72397 80.000
83.74392 84.000
83.76386 82.000
83.78381 88.000
83.80376 84.000
83.82371 88.000
83.84365 82.000
83.86360 90.000
83.88355 99.000
83.90349 115.000
83.92344 84.000
83.94339 91.000
83.96333 96.000
83.98328 77.000
84.00323 96.000
84.02318 83.000
84.04312 102.000
84.06307 83.000
84.08302 100.000
84.10296 95.000
84.12291 106.000
84.14286 101.000
84.16280 126.000
84.18275 120.000
84.20270 110.000
84.22264 113.000
84.24259 120.000
84.26254 116.000
84.28249 109.000
84.30243 115.000
84.32238 127.000
84.34233 121.000
84.36227 106.000
84.38222 119.000
84.40217 137.000
84.42211 117.000
84.44206 109.000
84.46201 113.000
84.48196 99.000
84.50190 140.000
84.52185 128.000
84.54180 96.000
84.56174 95.000
84.58169 100.000
84.60164 109.000
84.62158 96.000
84.64153 99.000
84.66148 81.000
84.68142 88.000
84.70137 110.000
84.72132 84.000
84.74127 88.000
84.76121 100.000
84.78116 96.000
84.80111 78.000
84.82105 103.000
84.84100 105.000
84.86095 85.000
84.88089 86.000
84.90084 75.000
84.92079 80.000
84.94074 72.000
84.96068 85.000
84.98063 80.000
85.00058 86.000
85.02052 74.000
85.04047 80.000
85.06042 76.000
85.08036 74.000
85.10031 77.000
85.12026 95.000
85.14021 87.000
85.16015 88.000
85.18010 90.000
85.20005 79.000
85.21999 80.000
85.23994 72.000
85.25989 92.000
85.27983 89.000
85.29978 89.000
85.31973 102.000
85.33967 82.000
85.35962 91.000
85.37957 76.000
85.39952 90.000
85.41946 87.000
85.43941 93.000
85.45936 102.000
85.47930 81.000
85.49925 98.000
85.51920 101.000
85.53914 89.000
85.55909 99.000
85.57904 93.000
85.59899 105.000
85.61893 102.000
85.63888 115.000
85.65883 127.000
85.67877 120.000
85.69872 127.000
85.71867 121.000
85.73861 113.000
85.75856 81.000
85.77851 99.000
85.79845 105.000
85.81840 101.000
85.83835 93.000
85.85830 108.000
85.87824 104.000
85.89819 113.000
85.91814 99.000
85.93808 107.000
85.95803 93.000
85.97798 116.000
85.99792 110.000
86.01787 108.000
86.03782 96.000
86.05777 85.000
86.07771 109.000
86.09766 104.000
86.11761 88.000
86.13755 95.000
86.15750 96.000
86.17745 87.000
86.19739 79.000
86.21734 100.000
86.23729 104.000
86.25723 95.000
86.27718 103.000
86.29713 106.000
86.31708 96.000
86.33702 74.000
86.35697 104.000
86.37692 109.000
86.39686 99.000
86.41681 94.000
86.43676 88.000
86.45670 84.000
86.47665 104.000
86.49660 93.000
86.51655 86.000
86.53649 98.000
86.55644 86.000
86.57639 97.000
86.59633 91.000
86.61628 90.000
86.63623 82.000
86.65617 100.000
86.67612 86.000
86.69607 84.000
86.71602 76.000
86.73596 91.000
86.75591 79.000
86.77586 77.000
86.79580 104.000
86.81575 79.000
86.83570 107.000
86.85564 85.000
86.87559 88.000
86.89554 79.000
86.91548 74.000
86.93543 79.000
86.95538 73.000
86.97533 103.000
86.99527 78.000
87.01522 78.000
87.03517 95.000
87.05511 91.000
87.07506 96.000
87.09501 85.000
87.11495 63.000
87.13490 63.000
87.15485 81.000
87.17480 75.000
87.19474 83.000
87.21469 77.000
87.23464 72.000
87.25458 103.000
87.27453 83.000
87.29448 99.000
87.31442 82.000
87.33437 75.000
87.35432 72.000
87.37426 86.000
87.39421 84.000
87.41416 79.000
87.43411 74.000
87.45405 83.000
87.47400 72.000
87.49395 74.000
87.51389 78.000
87.53384 79.000
87.55379 73.000
87.57373 76.000
87.59368 75.000
87.61363 68.000
87.63358 92.000
87.65352 79.000
87.67347 91.000
87.69342 99.000
87.71336 91.000
87.73331 83.000
87.75326 86.000
87.77320 83.000
87.79315 85.000
87.81310 85.000
87.83304 92.000
87.85299 85.000
87.87294 79.000
87.89289 78.000
87.91283 81.000
87.93278 71.000
87.95273 94.000
87.97267 80.000
87.99262 76.000
88.01257 99.000
88.03251 95.000
88.05246 104.000
88.07241 89.000
88.09236 95.000
88.11230 69.000
88.13225 101.000
88.15220 86.000
88.17214 68.000
88.19209 96.000
88.21204 92.000
88.23198 94.000
88.25193 91.000
88.27188 98.000
88.29183 125.000
88.31177 96.000
88.33172 105.000
88.35167 110.000
88.37161 130.000
88.39156 134.000
88.41151 122.000
88.43145 146.000
88.45140 136.000
88.47135 121.000
88.49129 126.000
88.51124 123.000
88.53119 139.000
88.55114 130.000
88.57108 137.000
88.59103 133.000
88.61098 141.000
88.63092 146.000
88.65087 138.000
88.67082 126.000
88.69076 158.000
88.71071 131.000
88.73066 130.000
88.75061 154.000
88.77055 145.000
88.79050 145.000
88.81045 146.000
88.83039 151.000
88.85034 156.000
88.87029 139.000
88.89023 132.000
88.91018 124.000
88.93013 128.000
88.95007 144.000
88.97002 116.000
88.98997 110.000
89.00992 116.000
89.02986 104.000
89.04981 135.000
89.06976 116.000
89.08970 119.000
89.10965 111.000
89.12960 97.000
89.14954 94.000
89.16949 97.000
89.18944 92.000
89.20939 95.000
89.22933 97.000
89.24928 85.000
89.26923 90.000
89.28917 76.000
89.30912 94.000
89.32907 80.000
89.34901 81.000
89.36896 92.000
89.38891 91.000
89.40885 89.000
89.42880 92.000
89.44875 88.000
89.46870 91.000
89.48864 90.000
89.50859 86.000
89.52854 89.000
89.54848 84.000
89.56843 70.000
89.58838 81.000
89.60832 71.000
89.62827 71.000
89.64822 92.000
89.66817 100.000
89.68811 102.000
89.70806 90.000
89.72801 86.000
89.74795 93.000
89.76790 77.000
89.78785 69.000
89.80779 73.000
89.82774 89.000
89.84769 63.000
89.86764 83.000
89.88758 67.000
89.90753 84.000
89.92748 69.000
89.94742 87.000
89.96737 93.000
89.98732 81.000
90.00726 89.000
