10.00000 288.000
10.01995 285.000
10.03989 289.000
10.05984 254.000
10.07979 270.000
10.09973 264.000
10.11968 288.000
10.13963 288.000
10.15958 322.000
10.17952 292.000
10.19947 262.000
10.21942 292.000
10.23936 272.000
10.25931 273.000
10.27926 269.000
10.29920 277.000
10.31915 286.000
10.33910 292.000
10.35905 277.000
10.37899 266.000
10.39894 296.000
10.41889 257.000
10.43883 273.000
10.45878 292.000
10.47873 274.000
10.49867 263.000
10.51862 290.000
10.53857 283.000
10.55851 259.000
10.57846 256.000
10.59841 308.000
10.61836 272.000
10.63830 293.000
10.65825 279.000
10.67820 299.000
10.69814 281.000
10.71809 294.000
10.73804 286.000
10.75798 257.000
10.77793 312.000
10.79788 277.000
10.81783 277.000
10.83777 265.000
10.85772 313.000
10.87767 274.000
10.89761 298.000
10.91756 282.000
10.93751 287.000
10.95745 297.000
10.97740 297.000
10.99735 309.000
11.01730 269.000
11.03724 282.000
11.05719 268.000
11.07714 300.000
11.09708 290.000
11.11703 303.000
11.13698 311.000
11.15692 259.000
11.17687 281.000
11.19682 293.000
11.21676 342.000
11.23671 295.000
11.25666 320.000
11.27661 290.000
11.29655 331.000
11.31650 326.000
11.33645 304.000
11.35639 309.000
11.37634 291.000
11.39629 307.000
11.41623 306.000
11.43618 316.000
11.45613 315.000
11.47608 272.000
11.49602 298.000
11.51597 327.000
11.53592 306.000
11.55586 305.000
11.57581 296.000
11.59576 297.000
11.61570 301.000
11.63565 296.000
11.65560 308.000
11.67554 323.000
11.69549 331.000
11.71544 299.000
11.73539 287.000
11.75533 321.000
11.77528 308.000
11.79523 305.000
11.81517 305.000
11.83512 320.000
11.85507 356.000
11.87501 328.000
11.89496 315.000
11.91491 320.000
11.93486 336.000
11.95480 286.000
11.97475 294.000
11.99470 328.000
12.01464 296.000
12.03459 316.000
12.05454 320.000
12.07448 310.000
12.09443 336.000
12.11438 304.000
12.13432 332.000
12.15427 321.000
12.17422 292.000
12.19417 284.000
12.21411 331.000
12.23406 311.000
12.25401 314.000
12.27395 322.000
12.29390 303.000
12.31385 326.000
12.33379 319.000
12.35374 319.000
12.37369 300.000
12.39364 311.000
12.41358 305.000
12.43353 299.000
12.45348 329.000
12.47342 324.000
12.49337 322.000
12.51332 352.000
12.53326 316.000
12.55321 350.000
12.57316 334.000
12.59311 294.000
12.61305 325.000
12.63300 346.000
12.65295 306.000
12.67289 335.000
12.69284 298.000
12.71279 338.000
12.73273 322.000
12.75268 339.000
12.77263 309.000
12.79257 344.000
12.81252 306.000
12.83247 289.000
12.85242 309.000
12.87236 344.000
12.89231 338.000
12.91226 332.000
12.93220 331.000
12.95215 329.000
12.97210 355.000
12.99204 340.000
13.01199 314.000
13.03194 362.000
13.05189 344.000
13.07183 323.000
13.09178 336.000
13.11173 340.000
13.13167 307.000
13.15162 326.000
13.17157 354.000
13.19151 329.000
13.21146 319.000
13.23141 347.000
13.25135 332.000
13.27130 334.000
13.29125 320.000
13.31120 317.000
13.33114 288.000
13.35109 340.000
13.37104 353.000
13.39098 308.000
13.41093 363.000
13.43088 330.000
13.45082 344.000
13.47077 320.000
13.49072 354.000
13.51067 374.000
13.53061 365.000
13.55056 340.000
13.57051 343.000
13.59045 328.000
13.61040 309.000
13.63035 329.000
13.65029 330.000
13.67024 341.000
13.69019 366.000
13.71013 343.000
13.73008 379.000
13.75003 350.000
13.76998 364.000
13.78992 345.000
13.80987 349.000
13.82982 330.000
13.84976 339.000
13.86971 330.000
13.88966 349.000
13.90960 348.000
13.92955 329.000
13.94950 378.000
13.96945 353.000
13.98939 377.000
14.00934 362.000
14.02929 334.000
14.04923 362.000
14.06918 333.000
14.08913 338.000
14.10907 339.000
14.12902 350.000
14.14897 365.000
14.16892 343.000
14.18886 345.000
14.20881 354.000
14.22876 373.000
14.24870 334.000
14.26865 365.000
14.28860 356.000
14.30854 409.000
14.32849 346.000
14.34844 349.000
14.36838 338.000
14.38833 359.000
14.40828 345.000
14.42823 362.000
14.44817 365.000
14.46812 335.000
14.48807 330.000
14.50801 347.000
14.52796 390.000
14.54791 381.000
14.56785 356.000
14.58780 337.000
14.60775 348.000
14.62770 345.000
14.64764 347.000
14.66759 363.000
14.68754 359.000
14.70748 385.000
14.72743 365.000
14.74738 379.000
14.76732 398.000
14.78727 384.000
14.80722 367.000
14.82716 344.000
14.84711 377.000
14.86706 384.000
14.88701 373.000
14.90695 349.000
14.92690 376.000
14.94685 393.000
14.96679 363.000
14.98674 402.000
15.00669 397.000
15.02663 367.000
15.04658 400.000
15.06653 430.000
15.08648 397.000
15.10642 390.000
15.12637 381.000
15.14632 392.000
15.16626 416.000
15.18621 368.000
15.20616 367.000
15.22610 377.000
15.24605 414.000
15.26600 375.000
15.28594 380.000
15.30589 413.000
15.32584 409.000
15.34579 408.000
15.36573 393.000
15.38568 404.000
15.40563 429.000
15.42557 427.000
15.44552 458.000
15.46547 442.000
15.48541 500.000
15.50536 550.000
15.52531 545.000
15.54526 571.000
15.56520 669.000
15.58515 688.000
15.60510 781.000
15.62504 946.000
15.64499 1178.000
15.66494 1386.000
15.68488 1649.000
15.70483 1853.000
15.72478 2199.000
15.74472 2246.000
15.76467 2468.000
15.78462 2159.000
15.80457 1748.000
15.82451 1299.000
15.84446 915.000
15.86441 725.000
15.88435 559.000
15.90430 501.000
15.92425 505.000
15.94419 477.000
15.96414 488.000
15.98409 507.000
16.00404 506.000
16.02398 492.000
16.04393 513.000
16.06388 485.000
16.08382 467.000
16.10377 474.000
16.12372 460.000
16.14366 429.000
16.16361 426.000
16.18356 404.000
16.20351 432.000
16.22345 475.000
16.24340 408.000
16.26335 430.000
16.28329 398.000
16.30324 385.000
16.32319 396.000
16.34313 413.000
16.36308 408.000
16.38303 357.000
16.40297 431.000
16.42292 386.000
16.44287 413.000
16.46282 409.000
16.48276 417.000
16.50271 397.000
16.52266 406.000
16.54260 372.000
16.56255 424.000
16.58250 393.000
16.60244 410.000
16.62239 422.000
16.64234 392.000
16.66229 405.000
16.68223 403.000
16.70218 455.000
16.72213 465.000
16.74207 394.000
16.76202 443.000
16.78197 477.000
16.80191 451.000
16.82186 409.000
16.84181 408.000
16.86175 428.000
16.88170 400.000
16.90165 385.000
16.92160 407.000
16.94154 385.000
16.96149 400.000
16.98144 409.000
17.00138 377.000
17.02133 368.000
17.04128 393.000
17.06122 410.000
17.08117 384.000
17.10112 418.000
17.12107 442.000
17.14101 410.000
17.16096 409.000
17.18091 423.000
17.20085 362.000
17.22080 397.000
17.24075 401.000
17.26069 395.000
17.28064 403.000
17.30059 406.000
17.32053 397.000
17.34048 401.000
17.36043 369.000
17.38038 405.000
17.40032 406.000
17.42027 395.000
17.44022 401.000
17.46016 438.000
17.48011 383.000
17.50006 405.000
17.52000 392.000
17.53995 372.000
17.55990 415.000
17.57985 432.000
17.59979 402.000
17.61974 368.000
17.63969 425.000
17.65963 404.000
17.67958 403.000
17.69953 403.000
17.71947 376.000
17.73942 402.000
17.75937 394.000
17.77932 414.000
17.79926 423.000
17.81921 371.000
17.83916 409.000
17.85910 393.000
17.87905 387.000
17.89900 395.000
17.91894 409.000
17.93889 390.000
17.95884 435.000
17.97878 370.000
17.99873 368.000
18.01868 402.000
18.03863 428.000
18.05857 373.000
18.07852 412.000
18.09847 392.000
18.11841 415.000
18.13836 423.000
18.15831 425.000
18.17825 427.000
18.19820 436.000
18.21815 423.000
18.23810 457.000
18.25804 488.000
18.27799 493.000
18.29794 472.000
18.31788 458.000
18.33783 454.000
18.35778 439.000
18.37772 437.000
18.39767 448.000
18.41762 396.000
18.43756 374.000
18.45751 421.000
18.47746 402.000
18.49741 460.000
18.51735 425.000
18.53730 379.000
18.55725 382.000
18.57719 396.000
18.59714 436.000
18.61709 373.000
18.63703 420.000
18.65698 441.000
18.67693 388.000
18.69688 430.000
18.71682 356.000
18.73677 435.000
18.75672 430.000
18.77666 427.000
18.79661 408.000
18.81656 413.000
18.83650 415.000
18.85645 423.000
18.87640 442.000
18.89634 416.000
18.91629 394.000
18.93624 421.000
18.95619 404.000
18.97613 440.000
18.99608 427.000
19.01603 421.000
19.03597 389.000
19.05592 442.000
19.07587 419.000
19.09581 462.000
19.11576 426.000
19.13571 381.000
19.15566 428.000
19.17560 406.000
19.19555 418.000
19.21550 428.000
19.23544 409.000
19.25539 440.000
19.27534 443.000
19.29528 481.000
19.31523 399.000
19.33518 407.000
19.35513 418.000
19.37507 412.000
19.39502 410.000
19.41497 417.000
19.43491 473.000
19.45486 437.000
19.47481 460.000
19.49475 457.000
19.51470 415.000
19.53465 456.000
19.55459 438.000
19.57454 452.000
19.59449 399.000
19.61444 432.000
19.63438 423.000
19.65433 428.000
19.67428 405.000
19.69422 413.000
19.71417 440.000
19.73412 441.000
19.75406 442.000
19.77401 447.000
19.79396 389.000
19.81391 437.000
19.83385 413.000
19.85380 443.000
19.87375 455.000
19.89369 451.000
19.91364 449.000
19.93359 438.000
19.95353 388.000
19.97348 450.000
19.99343 440.000
20.01337 430.000
20.03332 452.000
20.05327 448.000
20.07322 438.000
20.09316 441.000
20.11311 393.000
20.13306 409.000
20.15300 423.000
20.17295 458.000
20.19290 416.000
20.21284 401.000
20.23279 447.000
20.25274 459.000
20.27269 408.000
20.29263 483.000
20.31258 470.000
20.33253 437.000
20.35247 438.000
20.37242 487.000
20.39237 444.000
20.41231 427.000
20.43226 453.000
20.45221 466.000
20.47215 449.000
20.49210 487.000
20.51205 473.000
20.53200 462.000
20.55194 459.000
20.57189 466.000
20.59184 533.000
20.61178 530.000
20.63173 509.000
20.65168 554.000
20.67162 565.000
20.69157 642.000
20.71152 644.000
20.73147 683.000
20.75141 638.000
20.77136 675.000
20.79131 661.000
20.81125 655.000
20.83120 590.000
20.85115 645.000
20.87109 655.000
20.89104 644.000
20.91099 762.000
20.93094 815.000
20.95088 860.000
20.97083 881.000
20.99078 937.000
21.01072 856.000
21.03067 825.000
21.05062 710.000
21.07056 650.000
21.09051 514.000
21.11046 487.000
21.13040 470.000
21.15035 480.000
21.17030 464.000
21.19025 445.000
21.21019 425.000
21.23014 435.000
21.25009 469.000
21.27003 453.000
21.28998 440.000
21.30993 486.000
21.32987 445.000
21.34982 479.000
21.36977 423.000
21.38972 434.000
21.40966 449.000
21.42961 414.000
21.44956 498.000
21.46950 448.000
21.48945 409.000
21.50940 415.000
21.52934 440.000
21.54929 447.000
21.56924 445.000
21.58918 435.000
21.60913 439.000
21.62908 450.000
21.64903 463.000
21.66897 455.000
21.68892 417.000
21.70887 479.000
21.72881 438.000
21.74876 419.000
21.76871 475.000
21.78865 430.000
21.80860 448.000
21.82855 444.000
21.84850 409.000
21.86844 419.000
21.88839 447.000
21.90834 458.000
21.92828 458.000
21.94823 465.000
21.96818 511.000
21.98812 457.000
22.00807 422.000
22.02802 448.000
22.04796 455.000
22.06791 473.000
22.08786 471.000
22.10781 421.000
22.12775 427.000
22.14770 456.000
22.16765 450.000
22.18759 440.000
22.20754 452.000
22.22749 439.000
22.24743 464.000
22.26738 418.000
22.28733 478.000
22.30728 452.000
22.32722 472.000
22.34717 450.000
22.36712 484.000
22.38706 466.000
22.40701 447.000
22.42696 435.000
22.44690 476.000
22.46685 448.000
22.48680 434.000
22.50675 460.000
22.52669 422.000
22.54664 425.000
22.56659 456.000
22.58653 454.000
22.60648 463.000
22.62643 444.000
22.64637 453.000
22.66632 471.000
22.68627 434.000
22.70621 464.000
22.72616 495.000
22.74611 468.000
22.76606 490.000
22.78600 515.000
22.80595 463.000
22.82590 430.000
22.84584 429.000
22.86579 450.000
22.88574 444.000
22.90568 428.000
22.92563 454.000
22.94558 441.000
22.96553 465.000
22.98547 445.000
23.00542 478.000
23.02537 512.000
23.04531 441.000
23.06526 437.000
23.08521 478.000
23.10515 433.000
23.12510 484.000
23.14505 448.000
23.16499 450.000
23.18494 425.000
23.20489 446.000
23.22484 422.000
23.24478 459.000
23.26473 482.000
23.28468 477.000
23.30462 468.000
23.32457 462.000
23.34452 524.000
23.36446 430.000
23.38441 499.000
23.40436 438.000
23.42431 450.000
23.44425 498.000
23.46420 437.000
23.48415 441.000
23.50409 464.000
23.52404 450.000
23.54399 481.000
23.56393 477.000
23.58388 497.000
23.60383 445.000
23.62377 468.000
23.64372 482.000
23.66367 485.000
23.68362 538.000
23.70356 487.000
23.72351 483.000
23.74346 448.000
23.76340 495.000
23.78335 453.000
23.80330 457.000
23.82324 526.000
23.84319 460.000
23.86314 512.000
23.88309 426.000
23.90303 415.000
23.92298 466.000
23.94293 487.000
23.96287 467.000
23.98282 452.000
24.00277 483.000
24.02271 463.000
24.04266 465.000
24.06261 454.000
24.08256 481.000
24.10250 470.000
24.12245 493.000
24.14240 476.000
24.16234 499.000
24.18229 443.000
24.20224 456.000
24.22218 486.000
24.24213 460.000
24.26208 434.000
24.28202 483.000
24.30197 487.000
24.32192 471.000
24.34187 462.000
24.36181 509.000
24.38176 455.000
24.40171 472.000
24.42165 513.000
24.44160 477.000
24.46155 469.000
24.48149 477.000
24.50144 487.000
24.52139 457.000
24.54134 466.000
24.56128 489.000
24.58123 478.000
24.60118 463.000
24.62112 511.000
24.64107 442.000
24.66102 454.000
24.68096 479.000
24.70091 482.000
24.72086 482.000
24.74080 496.000
24.76075 464.000
24.78070 471.000
24.80065 457.000
24.82059 480.000
24.84054 494.000
24.86049 491.000
24.88043 528.000
24.90038 461.000
24.92033 488.000
24.94027 497.000
24.96022 494.000
24.98017 493.000
25.00012 474.000
25.02006 475.000
25.04001 445.000
25.05996 468.000
25.07990 465.000
25.09985 490.000
25.11980 465.000
25.13974 483.000
25.15969 452.000
25.17964 456.000
25.19958 488.000
25.21953 458.000
25.23948 494.000
25.25943 503.000
25.27937 452.000
25.29932 486.000
25.31927 466.000
25.33921 496.000
25.35916 471.000
25.37911 482.000
25.39905 502.000
25.41900 495.000
25.43895 477.000
25.45890 477.000
25.47884 483.000
25.49879 466.000
25.51874 492.000
25.53868 504.000
25.55863 522.000
25.57858 493.000
25.59852 466.000
25.61847 480.000
25.63842 502.000
25.65837 471.000
25.67831 468.000
25.69826 466.000
25.71821 467.000
25.73815 471.000
25.75810 473.000
25.77805 476.000
25.79799 512.000
25.81794 481.000
25.83789 474.000
25.85783 525.000
25.87778 482.000
25.89773 506.000
25.91768 481.000
25.93762 498.000
25.95757 504.000
25.97752 547.000
25.99746 487.000
26.01741 491.000
26.03736 489.000
26.05730 497.000
26.07725 486.000
26.09720 465.000
26.11715 514.000
26.13709 495.000
26.15704 483.000
26.17699 469.000
26.19693 487.000
26.21688 515.000
26.23683 448.000
26.25677 508.000
26.27672 508.000
26.29667 474.000
26.31661 539.000
26.33656 502.000
26.35651 495.000
26.37646 485.000
26.39640 462.000
26.41635 507.000
26.43630 514.000
26.45624 492.000
26.47619 510.000
26.49614 551.000
26.51608 538.000
26.53603 518.000
26.55598 531.000
26.57593 479.000
26.59587 483.000
26.61582 519.000
26.63577 505.000
26.65571 444.000
26.67566 542.000
26.69561 504.000
26.71555 501.000
26.73550 511.000
26.75545 491.000
26.77539 486.000
26.79534 493.000
26.81529 469.000
26.83524 484.000
26.85518 485.000
26.87513 548.000
26.89508 483.000
26.91502 549.000
26.93497 504.000
26.95492 483.000
26.97486 522.000
26.99481 506.000
27.01476 429.000
27.03471 509.000
27.05465 517.000
27.07460 492.000
27.09455 501.000
27.11449 506.000
27.13444 517.000
27.15439 524.000
27.17433 494.000
27.19428 510.000
27.21423 513.000
27.23417 516.000
27.25412 505.000
27.27407 552.000
27.29402 530.000
27.31396 547.000
27.33391 520.000
27.35386 525.000
27.37380 513.000
27.39375 504.000
27.41370 539.000
27.43364 531.000
27.45359 482.000
27.47354 489.000
27.49349 524.000
27.51343 497.000
27.53338 533.000
27.55333 530.000
27.57327 532.000
27.59322 514.000
27.61317 553.000
27.63311 481.000
27.65306 476.000
27.67301 503.000
27.69296 542.000
27.71290 528.000
27.73285 513.000
27.75280 515.000
27.77274 535.000
27.79269 516.000
27.81264 498.000
27.83258 537.000
27.85253 552.000
27.87248 584.000
27.89242 546.000
27.91237 524.000
27.93232 451.000
27.95227 523.000
27.97221 492.000
27.99216 533.000
28.01211 545.000
28.03205 525.000
28.05200 477.000
28.07195 518.000
28.09189 522.000
28.11184 479.000
28.13179 517.000
28.15174 515.000
28.17168 497.000
28.19163 502.000
28.21158 536.000
28.23152 523.000
28.25147 557.000
28.27142 512.000
28.29136 582.000
28.31131 487.000
28.33126 504.000
28.35120 540.000
28.37115 503.000
28.39110 615.000
28.41105 593.000
28.43099 540.000
28.45094 478.000
28.47089 514.000
28.49083 511.000
28.51078 509.000
28.53073 504.000
28.55067 509.000
28.57062 508.000
28.59057 501.000
28.61052 508.000
28.63046 550.000
28.65041 526.000
28.67036 486.000
28.69030 508.000
28.71025 552.000
28.73020 501.000
28.75014 505.000
28.77009 518.000
28.79004 539.000
28.80998 543.000
28.82993 534.000
28.84988 553.000
28.86983 498.000
28.88977 515.000
28.90972 544.000
28.92967 537.000
28.94961 500.000
28.96956 539.000
28.98951 572.000
29.00945 506.000
29.02940 535.000
29.04935 547.000
29.06930 568.000
29.08924 541.000
29.10919 548.000
29.12914 523.000
29.14908 611.000
29.16903 613.000
29.18898 625.000
29.20892 569.000
29.22887 612.000
29.24882 606.000
29.26877 676.000
29.28871 642.000
29.30866 612.000
29.32861 624.000
29.34855 615.000
29.36850 613.000
29.38845 580.000
29.40839 588.000
29.42834 600.000
29.44829 561.000
29.46823 595.000
29.48818 561.000
29.50813 603.000
29.52808 573.000
29.54802 570.000
29.56797 531.000
29.58792 582.000
29.60786 573.000
29.62781 524.000
29.64776 543.000
29.66770 518.000
29.68765 474.000
29.70760 534.000
29.72755 532.000
29.74749 540.000
29.76744 538.000
29.78739 532.000
29.80733 579.000
29.82728 557.000
29.84723 532.000
29.86717 523.000
29.88712 536.000
29.90707 499.000
29.92701 570.000
29.94696 582.000
29.96691 572.000
29.98686 520.000
30.00680 553.000
30.02675 626.000
30.04670 622.000
30.06664 641.000
30.08659 685.000
30.10654 686.000
30.12648 721.000
30.14643 679.000
30.16638 754.000
30.18633 766.000
30.20627 708.000
30.22622 710.000
30.24617 663.000
30.26611 657.000
30.28606 661.000
30.30601 595.000
30.32595 567.000
30.34590 567.000
30.36585 558.000
30.38579 566.000
30.40574 582.000
30.42569 573.000
30.44564 561.000
30.46558 545.000
30.48553 517.000
30.50548 517.000
30.52542 573.000
30.54537 566.000
30.56532 584.000
30.58526 521.000
30.60521 573.000
30.62516 575.000
30.64511 599.000
30.66505 572.000
30.68500 549.000
30.70495 520.000
30.72489 526.000
30.74484 550.000
30.76479 567.000
30.78473 519.000
30.80468 572.000
30.82463 544.000
30.84458 558.000
30.86452 543.000
30.88447 567.000
30.90442 537.000
30.92436 508.000
30.94431 527.000
30.96426 537.000
30.98420 545.000
31.00415 517.000
31.02410 582.000
31.04404 543.000
31.06399 553.000
31.08394 581.000
31.10389 552.000
31.12383 531.000
31.14378 533.000
31.16373 563.000
31.18367 544.000
31.20362 513.000
31.22357 546.000
31.24351 539.000
31.26346 552.000
31.28341 550.000
31.30336 572.000
31.32330 541.000
31.34325 537.000
31.36320 550.000
31.38314 551.000
31.40309 547.000
31.42304 536.000
31.44298 559.000
31.46293 559.000
31.48288 562.000
31.50282 524.000
31.52277 575.000
31.54272 559.000
31.56267 546.000
31.58261 569.000
31.60256 568.000
31.62251 555.000
31.64245 556.000
31.66240 566.000
31.68235 587.000
31.70229 563.000
31.72224 573.000
31.74219 561.000
31.76214 606.000
31.78208 627.000
31.80203 691.000
31.82198 678.000
31.84192 696.000
31.86187 738.000
31.88182 721.000
31.90176 764.000
31.92171 734.000
31.94166 715.000
31.96160 671.000
31.98155 719.000
32.00150 693.000
32.02145 620.000
32.04139 603.000
32.06134 602.000
32.08129 597.000
32.10123 617.000
32.12118 568.000
32.14113 547.000
32.16107 621.000
32.18102 579.000
32.20097 621.000
32.22092 603.000
32.24086 633.000
32.26081 665.000
32.28076 690.000
32.30070 686.000
32.32065 738.000
32.34060 781.000
32.36054 802.000
32.38049 859.000
32.40044 840.000
32.42039 859.000
32.44033 805.000
32.46028 800.000
32.48023 732.000
32.50017 687.000
32.52012 619.000
32.54007 609.000
32.56001 588.000
32.57996 596.000
32.59991 598.000
32.61985 592.000
32.63980 567.000
32.65975 564.000
32.67970 532.000
32.69964 504.000
32.71959 516.000
32.73954 544.000
32.75948 542.000
32.77943 557.000
32.79938 543.000
32.81932 572.000
32.83927 574.000
32.85922 561.000
32.87917 553.000
32.89911 547.000
32.91906 571.000
32.93901 546.000
32.95895 582.000
32.97890 522.000
32.99885 519.000
33.01879 553.000
33.03874 544.000
33.05869 575.000
33.07863 515.000
33.09858 529.000
33.11853 535.000
33.13848 525.000
33.15842 530.000
33.17837 558.000
33.19832 541.000
33.21826 547.000
33.23821 538.000
33.25816 518.000
33.27810 515.000
33.29805 562.000
33.31800 544.000
33.33795 540.000
33.35789 552.000
33.37784 530.000
33.39779 538.000
33.41773 554.000
33.43768 556.000
33.45763 547.000
33.47757 528.000
33.49752 482.000
33.51747 550.000
33.53741 557.000
33.55736 570.000
33.57731 557.000
33.59726 503.000
33.61720 589.000
33.63715 612.000
33.65710 562.000
33.67704 617.000
33.69699 555.000
33.71694 537.000
33.73688 541.000
33.75683 525.000
33.77678 552.000
33.79673 591.000
33.81667 608.000
33.83662 578.000
33.85657 601.000
33.87651 573.000
33.89646 573.000
33.91641 569.000
33.93635 591.000
33.95630 587.000
33.97625 590.000
33.99620 635.000
34.01614 600.000
34.03609 629.000
34.05604 622.000
34.07598 639.000
34.09593 741.000
34.11588 736.000
34.13582 705.000
34.15577 780.000
34.17572 767.000
34.19566 792.000
34.21561 810.000
34.23556 857.000
34.25551 802.000
34.27545 756.000
34.29540 798.000
34.31535 772.000
34.33529 710.000
34.35524 722.000
34.37519 762.000
34.39513 751.000
34.41508 731.000
34.43503 783.000
34.45498 801.000
34.47492 856.000
34.49487 837.000
34.51482 830.000
34.53476 861.000
34.55471 829.000
34.57466 886.000
34.59460 894.000
34.61455 937.000
34.63450 968.000
34.65444 961.000
34.67439 940.000
34.69434 979.000
34.71429 937.000
34.73423 900.000
34.75418 875.000
34.77413 805.000
34.79407 825.000
34.81402 763.000
34.83397 781.000
34.85391 777.000
34.87386 788.000
34.89381 732.000
34.91376 734.000
34.93370 740.000
34.95365 784.000
34.97360 699.000
34.99354 792.000
35.01349 767.000
35.03344 844.000
35.05338 853.000
35.07333 848.000
35.09328 916.000
35.11322 980.000
35.13317 939.000
35.15312 1051.000
35.17307 1124.000
35.19301 1237.000
35.21296 1294.000
35.23291 1403.000
35.25285 1586.000
35.27280 1739.000
35.29275 2031.000
35.31269 2247.000
35.33264 2616.000
35.35259 2736.000
35.37254 2900.000
35.39248 3212.000
35.41243 3488.000
35.43238 3560.000
35.45232 3747.000
35.47227 3580.000
35.49222 3252.000
35.51216 3031.000
35.53211 2838.000
35.55206 2728.000
35.57201 2230.000
35.59195 2024.000
35.61190 1719.000
35.63185 1443.000
35.65179 1328.000
35.67174 1136.000
35.69169 1086.000
35.71163 960.000
35.73158 922.000
35.75153 882.000
35.77147 841.000
35.79142 775.000
35.81137 819.000
35.83132 801.000
35.85126 739.000
35.87121 710.000
35.89116 639.000
35.91110 660.000
35.93105 633.000
35.95100 653.000
35.97094 618.000
35.99089 635.000
36.01084 594.000
36.03079 624.000
36.05073 575.000
36.07068 557.000
36.09063 600.000
36.11057 573.000
36.13052 623.000
36.15047 617.000
36.17041 577.000
36.19036 520.000
36.21031 597.000
36.23025 608.000
36.25020 604.000
36.27015 597.000
36.29010 626.000
36.31004 618.000
36.32999 579.000
36.34994 621.000
36.36988 609.000
36.38983 603.000
36.40978 587.000
36.42972 624.000
36.44967 591.000
36.46962 570.000
36.48957 564.000
36.50951 610.000
36.52946 565.000
36.54941 595.000
36.56935 604.000
36.58930 591.000
36.60925 572.000
36.62919 587.000
36.64914 577.000
36.66909 541.000
36.68903 586.000
36.70898 619.000
36.72893 566.000
36.74888 601.000
36.76882 586.000
36.78877 556.000
36.80872 589.000
36.82866 635.000
36.84861 615.000
36.86856 573.000
36.88850 670.000
36.90845 692.000
36.92840 707.000
36.94835 678.000
36.96829 756.000
36.98824 791.000
37.00819 819.000
37.02813 878.000
37.04808 930.000
37.06803 875.000
37.08797 836.000
37.10792 895.000
37.12787 840.000
37.14781 837.000
37.16776 827.000
37.18771 721.000
37.20766 746.000
37.22760 707.000
37.24755 618.000
37.26750 668.000
37.28744 632.000
37.30739 563.000
37.32734 610.000
37.34728 599.000
37.36723 609.000
37.38718 619.000
37.40713 535.000
37.42707 578.000
37.44702 540.000
37.46697 547.000
37.48691 537.000
37.50686 593.000
37.52681 523.000
37.54675 599.000
37.56670 562.000
37.58665 573.000
37.60660 610.000
37.62654 574.000
37.64649 553.000
37.66644 535.000
37.68638 571.000
37.70633 591.000
37.72628 606.000
37.74622 586.000
37.76617 621.000
37.78612 589.000
37.80606 597.000
37.82601 624.000
37.84596 623.000
37.86591 639.000
37.88585 651.000
37.90580 610.000
37.92575 627.000
37.94569 648.000
37.96564 590.000
37.98559 719.000
38.00553 720.000
38.02548 654.000
38.04543 709.000
38.06538 723.000
38.08532 783.000
38.10527 750.000
38.12522 769.000
38.14516 792.000
38.16511 781.000
38.18506 799.000
38.20500 855.000
38.22495 856.000
38.24490 887.000
38.26484 911.000
38.28479 947.000
38.30474 1057.000
38.32469 1076.000
38.34463 1108.000
38.36458 1191.000
38.38453 1304.000
38.40447 1379.000
38.42442 1533.000
38.44437 1719.000
38.46431 1846.000
38.48426 2154.000
38.50421 2487.000
38.52416 2799.000
38.54410 3007.000
38.56405 3038.000
38.58400 3094.000
38.60394 3003.000
38.62389 2899.000
38.64384 2678.000
38.66378 2504.000
38.68373 2223.000
38.70368 1970.000
38.72362 1798.000
38.74357 1608.000
38.76352 1432.000
38.78347 1404.000
38.80341 1294.000
38.82336 1315.000
38.84331 1241.000
38.86325 1243.000
38.88320 1302.000
38.90315 1252.000
38.92309 1348.000
38.94304 1227.000
38.96299 1198.000
38.98294 1082.000
39.00288 1058.000
39.02283 1003.000
39.04278 978.000
39.06272 983.000
39.08267 902.000
39.10262 939.000
39.12256 879.000
39.14251 838.000
39.16246 866.000
39.18241 856.000
39.20235 871.000
39.22230 878.000
39.24225 842.000
39.26219 863.000
39.28214 782.000
39.30209 754.000
39.32203 796.000
39.34198 776.000
39.36193 693.000
39.38187 774.000
39.40182 712.000
39.42177 670.000
39.44172 647.000
39.46166 596.000
39.48161 599.000
39.50156 586.000
39.52150 602.000
39.54145 563.000
39.56140 543.000
39.58134 558.000
39.60129 561.000
39.62124 529.000
39.64119 539.000
39.66113 571.000
39.68108 567.000
39.70103 544.000
39.72097 571.000
39.74092 536.000
39.76087 549.000
39.78081 525.000
39.80076 500.000
39.82071 572.000
39.84065 561.000
39.86060 543.000
39.88055 500.000
39.90050 501.000
39.92044 509.000
39.94039 538.000
39.96034 506.000
39.98028 534.000
40.00023 515.000
40.02018 486.000
40.04012 485.000
40.06007 506.000
40.08002 471.000
40.09997 525.000
40.11991 527.000
40.13986 537.000
40.15981 509.000
40.17975 542.000
40.19970 507.000
40.21965 476.000
40.23959 525.000
40.25954 514.000
40.27949 500.000
40.29943 499.000
40.31938 482.000
40.33933 483.000
40.35928 543.000
40.37922 502.000
40.39917 493.000
40.41912 526.000
40.43906 551.000
40.45901 540.000
40.47896 537.000
40.49890 554.000
40.51885 464.000
40.53880 504.000
40.55875 503.000
40.57869 533.000
40.59864 457.000
40.61859 490.000
40.63853 519.000
40.65848 512.000
40.67843 516.000
40.69837 497.000
40.71832 515.000
40.73827 527.000
40.75822 542.000
40.77816 539.000
40.79811 491.000
40.81806 535.000
40.83800 519.000
40.85795 507.000
40.87790 527.000
40.89784 514.000
40.91779 523.000
40.93774 547.000
40.95768 508.000
40.97763 511.000
40.99758 515.000
41.01753 507.000
41.03747 507.000
41.05742 515.000
41.07737 512.000
41.09731 530.000
41.11726 514.000
41.13721 485.000
41.15715 514.000
41.17710 530.000
41.19705 502.000
41.21700 536.000
41.23694 499.000
41.25689 535.000
41.27684 488.000
41.29678 510.000
41.31673 521.000
41.33668 481.000
41.35662 528.000
41.37657 530.000
41.39652 526.000
41.41646 537.000
41.43641 561.000
41.45636 525.000
41.47631 571.000
41.49625 590.000
41.51620 561.000
41.53615 537.000
41.55609 547.000
41.57604 551.000
41.59599 570.000
41.61593 599.000
41.63588 584.000
41.65583 542.000
41.67578 547.000
41.69572 609.000
41.71567 576.000
41.73562 527.000
41.75556 532.000
41.77551 489.000
41.79546 505.000
41.81540 468.000
41.83535 479.000
41.85530 511.000
41.87524 506.000
41.89519 504.000
41.91514 526.000
41.93509 483.000
41.95503 466.000
41.97498 499.000
41.99493 497.000
42.01487 479.000
42.03482 483.000
42.05477 538.000
42.07471 481.000
42.09466 497.000
42.11461 516.000
42.13456 500.000
42.15450 539.000
42.17445 523.000
42.19440 470.000
42.21434 524.000
42.23429 545.000
42.25424 497.000
42.27418 488.000
42.29413 505.000
42.31408 472.000
42.33403 554.000
42.35397 516.000
42.37392 475.000
42.39387 534.000
42.41381 513.000
42.43376 508.000
42.45371 500.000
42.47365 544.000
42.49360 502.000
42.51355 529.000
42.53349 547.000
42.55344 513.000
42.57339 527.000
42.59334 502.000
42.61328 552.000
42.63323 563.000
42.65318 522.000
42.67312 530.000
42.69307 553.000
42.71302 537.000
42.73296 626.000
42.75291 540.000
42.77286 591.000
42.79281 625.000
42.81275 606.000
42.83270 617.000
42.85265 640.000
42.87259 629.000
42.89254 642.000
42.91249 714.000
42.93243 709.000
42.95238 755.000
42.97233 776.000
42.99227 763.000
43.01222 873.000
43.03217 847.000
43.05212 886.000
43.07206 896.000
43.09201 943.000
43.11196 987.000
43.13190 914.000
43.15185 948.000
43.17180 930.000
43.19174 947.000
43.21169 953.000
43.23164 923.000
43.25159 902.000
43.27153 844.000
43.29148 859.000
43.31143 849.000
43.33137 817.000
43.35132 727.000
43.37127 673.000
43.39121 707.000
43.41116 673.000
43.43111 672.000
43.45105 625.000
43.47100 612.000
43.49095 574.000
43.51090 556.000
43.53084 561.000
43.55079 559.000
43.57074 516.000
43.59068 548.000
43.61063 452.000
43.63058 524.000
43.65052 518.000
43.67047 504.000
43.69042 498.000
43.71037 521.000
43.73031 521.000
43.75026 491.000
43.77021 489.000
43.79015 490.000
43.81010 505.000
43.83005 504.000
43.84999 542.000
43.86994 525.000
43.88989 480.000
43.90984 453.000
43.92978 499.000
43.94973 450.000
43.96968 499.000
43.98962 517.000
44.00957 508.000
44.02952 516.000
44.04946 458.000
44.06941 452.000
44.08936 499.000
44.10930 492.000
44.12925 472.000
44.14920 461.000
44.16915 488.000
44.18909 501.000
44.20904 529.000
44.22899 452.000
44.24893 491.000
44.26888 498.000
44.28883 481.000
44.30877 485.000
44.32872 515.000
44.34867 487.000
44.36862 475.000
44.38856 498.000
44.40851 508.000
44.42846 491.000
44.44840 467.000
44.46835 472.000
44.48830 516.000
44.50824 482.000
44.52819 478.000
44.54814 492.000
44.56808 495.000
44.58803 530.000
44.60798 505.000
44.62793 536.000
44.64787 489.000
44.66782 463.000
44.68777 476.000
44.70771 498.000
44.72766 478.000
44.74761 514.000
44.76755 503.000
44.78750 528.000
44.80745 489.000
44.82740 514.000
44.84734 449.000
44.86729 479.000
44.88724 473.000
44.90718 510.000
44.92713 483.000
44.94708 541.000
44.96702 519.000
44.98697 478.000
45.00692 509.000
45.02686 509.000
45.04681 506.000
45.06676 554.000
45.08671 506.000
45.10665 494.000
45.12660 523.000
45.14655 567.000
45.16649 491.000
45.18644 470.000
45.20639 478.000
45.22633 478.000
45.24628 513.000
45.26623 506.000
45.28618 505.000
45.30612 479.000
45.32607 504.000
45.34602 485.000
45.36596 503.000
45.38591 489.000
45.40586 490.000
45.42580 500.000
45.44575 475.000
45.46570 518.000
45.48565 473.000
45.50559 481.000
45.52554 499.000
45.54549 521.000
45.56543 466.000
45.58538 495.000
45.60533 498.000
45.62527 486.000
45.64522 480.000
45.66517 499.000
45.68511 471.000
45.70506 467.000
45.72501 444.000
45.74496 476.000
45.76490 463.000
45.78485 488.000
45.80480 488.000
45.82474 502.000
45.84469 490.000
45.86464 466.000
45.88458 490.000
45.90453 482.000
45.92448 441.000
45.94443 478.000
45.96437 483.000
45.98432 483.000
46.00427 505.000
46.02421 499.000
46.04416 503.000
46.06411 524.000
46.08405 509.000
46.10400 515.000
46.12395 563.000
46.14389 576.000
46.16384 554.000
46.18379 542.000
46.20374 579.000
46.22368 584.000
46.24363 556.000
46.26358 539.000
46.28352 502.000
46.30347 480.000
46.32342 537.000
46.34336 472.000
46.36331 493.000
46.38326 484.000
46.40321 458.000
46.42315 501.000
46.44310 469.000
46.46305 501.000
46.48299 477.000
46.50294 487.000
46.52289 499.000
46.54283 478.000
46.56278 490.000
46.58273 476.000
46.60267 500.000
46.62262 485.000
46.64257 443.000
46.66252 508.000
46.68246 513.000
46.70241 498.000
46.72236 491.000
46.74230 498.000
46.76225 459.000
46.78220 490.000
46.80214 450.000
46.82209 470.000
46.84204 465.000
46.86199 457.000
46.88193 491.000
46.90188 499.000
46.92183 494.000
46.94177 473.000
46.96172 460.000
46.98167 481.000
47.00161 487.000
47.02156 512.000
47.04151 490.000
47.06146 446.000
47.08140 449.000
47.10135 482.000
47.12130 469.000
47.14124 451.000
47.16119 487.000
47.18114 482.000
47.20108 502.000
47.22103 497.000
47.24098 480.000
47.26092 458.000
47.28087 456.000
47.30082 485.000
47.32077 460.000
47.34071 496.000
47.36066 441.000
47.38061 452.000
47.40055 491.000
47.42050 510.000
47.44045 493.000
47.46039 494.000
47.48034 485.000
47.50029 481.000
47.52024 464.000
47.54018 494.000
47.56013 486.000
47.58008 448.000
47.60002 478.000
47.61997 463.000
47.63992 478.000
47.65986 494.000
47.67981 469.000
47.69976 471.000
47.71970 443.000
47.73965 492.000
47.75960 493.000
47.77955 498.000
47.79949 522.000
47.81944 488.000
47.83939 502.000
47.85933 490.000
47.87928 512.000
47.89923 471.000
47.91917 509.000
47.93912 499.000
47.95907 514.000
47.97902 503.000
47.99896 509.000
48.01891 502.000
48.03886 548.000
48.05880 534.000
48.07875 546.000
48.09870 558.000
48.11864 542.000
48.13859 556.000
48.15854 565.000
48.17848 544.000
48.19843 571.000
48.21838 532.000
48.23833 546.000
48.25827 539.000
48.27822 597.000
48.29817 590.000
48.31811 547.000
48.33806 593.000
48.35801 545.000
48.37795 607.000
48.39790 627.000
48.41785 594.000
48.43780 708.000
48.45774 671.000
48.47769 695.000
48.49764 700.000
48.51758 784.000
48.53753 800.000
48.55748 793.000
48.57742 837.000
48.59737 831.000
48.61732 942.000
48.63726 970.000
48.65721 1038.000
48.67716 1136.000
48.69711 1185.000
48.71705 1188.000
48.73700 1270.000
48.75695 1342.000
48.77689 1253.000
48.79684 1269.000
48.81679 1156.000
48.83673 1193.000
48.85668 1087.000
48.87663 1044.000
48.89658 1046.000
48.91652 989.000
48.93647 874.000
48.95642 855.000
48.97636 844.000
48.99631 734.000
49.01626 674.000
49.03620 678.000
49.05615 602.000
49.07610 598.000
49.09605 586.000
49.11599 637.000
49.13594 566.000
49.15589 605.000
49.17583 515.000
49.19578 612.000
49.21573 555.000
49.23567 541.000
49.25562 539.000
49.27557 577.000
49.29551 573.000
49.31546 518.000
49.33541 531.000
49.35536 519.000
49.37530 566.000
49.39525 533.000
49.41520 549.000
49.43514 520.000
49.45509 518.000
49.47504 528.000
49.49498 517.000
49.51493 517.000
49.53488 518.000
49.55483 509.000
49.57477 519.000
49.59472 582.000
49.61467 499.000
49.63461 528.000
49.65456 478.000
49.67451 508.000
49.69445 479.000
49.71440 528.000
49.73435 472.000
49.75429 522.000
49.77424 477.000
49.79419 473.000
49.81414 500.000
49.83408 514.000
49.85403 503.000
49.87398 513.000
49.89392 464.000
49.91387 490.000
49.93382 483.000
49.95376 541.000
49.97371 464.000
49.99366 517.000
50.01361 460.000
50.03355 458.000
50.05350 483.000
50.07345 505.000
50.09339 500.000
50.11334 478.000
50.13329 486.000
50.15323 527.000
50.17318 474.000
50.19313 480.000
50.21307 484.000
50.23302 510.000
50.25297 516.000
50.27292 495.000
50.29286 501.000
50.31281 508.000
50.33276 461.000
50.35270 450.000
50.37265 478.000
50.39260 468.000
50.41254 473.000
50.43249 447.000
50.45244 480.000
50.47239 455.000
50.49233 472.000
50.51228 486.000
50.53223 434.000
50.55217 494.000
50.57212 466.000
50.59207 511.000
50.61201 437.000
50.63196 503.000
50.65191 508.000
50.67186 436.000
50.69180 492.000
50.71175 469.000
50.73170 448.000
50.75164 472.000
50.77159 446.000
50.79154 462.000
50.81148 499.000
50.83143 461.000
50.85138 497.000
50.87132 480.000
50.89127 468.000
50.91122 513.000
50.93117 513.000
50.95111 466.000
50.97106 473.000
50.99101 478.000
51.01095 473.000
51.03090 443.000
51.05085 511.000
51.07079 536.000
51.09074 496.000
51.11069 487.000
51.13064 548.000
51.15058 498.000
51.17053 497.000
51.19048 492.000
51.21042 494.000
51.23037 509.000
51.25032 485.000
51.27026 491.000
51.29021 472.000
51.31016 484.000
51.33010 485.000
51.35005 483.000
51.37000 488.000
51.38995 499.000
51.40989 479.000
51.42984 465.000
51.44979 500.000
51.46973 478.000
51.48968 492.000
51.50963 478.000
51.52957 468.000
51.54952 479.000
51.56947 449.000
51.58942 497.000
51.60936 451.000
51.62931 467.000
51.64926 461.000
51.66920 482.000
51.68915 457.000
51.70910 454.000
51.72904 464.000
51.74899 484.000
51.76894 477.000
51.78888 479.000
51.80883 479.000
51.82878 487.000
51.84873 458.000
51.86867 477.000
51.88862 516.000
51.90857 461.000
51.92851 459.000
51.94846 461.000
51.96841 487.000
51.98835 474.000
52.00830 479.000
52.02825 507.000
52.04820 473.000
52.06814 507.000
52.08809 462.000
52.10804 507.000
52.12798 531.000
52.14793 493.000
52.16788 469.000
52.18782 482.000
52.20777 497.000
52.22772 443.000
52.24767 483.000
52.26761 531.000
52.28756 483.000
52.30751 546.000
52.32745 463.000
52.34740 459.000
52.36735 486.000
52.38729 467.000
52.40724 456.000
52.42719 497.000
52.44713 528.000
52.46708 474.000
52.48703 447.000
52.50698 460.000
52.52692 467.000
52.54687 446.000
52.56682 442.000
52.58676 503.000
52.60671 496.000
52.62666 502.000
52.64660 500.000
52.66655 485.000
52.68650 509.000
52.70645 492.000
52.72639 483.000
52.74634 497.000
52.76629 447.000
52.78623 502.000
52.80618 525.000
52.82613 524.000
52.84607 513.000
52.86602 511.000
52.88597 519.000
52.90591 525.000
52.92586 555.000
52.94581 531.000
52.96576 552.000
52.98570 543.000
53.00565 569.000
53.02560 497.000
53.04554 587.000
53.06549 553.000
53.08544 613.000
53.10538 589.000
53.12533 613.000
53.14528 596.000
53.16523 651.000
53.18517 666.000
53.20512 644.000
53.22507 668.000
53.24501 675.000
53.26496 696.000
53.28491 649.000
53.30485 640.000
53.32480 653.000
53.34475 580.000
53.36469 621.000
53.38464 650.000
53.40459 622.000
53.42454 571.000
53.44448 605.000
53.46443 580.000
53.48438 566.000
53.50432 589.000
53.52427 506.000
53.54422 527.000
53.56416 564.000
53.58411 550.000
53.60406 536.000
53.62401 566.000
53.64395 536.000
53.66390 607.000
53.68385 521.000
53.70379 511.000
53.72374 525.000
53.74369 495.000
53.76363 517.000
53.78358 523.000
53.80353 525.000
53.82348 530.000
53.84342 488.000
53.86337 475.000
53.88332 486.000
53.90326 491.000
53.92321 476.000
53.94316 463.000
53.96310 496.000
53.98305 480.000
54.00300 476.000
54.02294 502.000
54.04289 471.000
54.06284 476.000
54.08279 520.000
54.10273 484.000
54.12268 503.000
54.14263 491.000
54.16257 437.000
54.18252 459.000
54.20247 488.000
54.22241 495.000
54.24236 471.000
54.26231 502.000
54.28226 449.000
54.30220 494.000
54.32215 475.000
54.34210 510.000
54.36204 482.000
54.38199 472.000
54.40194 483.000
54.42188 492.000
54.44183 487.000
54.46178 496.000
54.48172 470.000
54.50167 478.000
54.52162 457.000
54.54157 467.000
54.56151 505.000
54.58146 439.000
54.60141 434.000
54.62135 484.000
54.64130 474.000
54.66125 497.000
54.68119 480.000
54.70114 496.000
54.72109 513.000
54.74104 502.000
54.76098 499.000
54.78093 458.000
54.80088 515.000
54.82082 462.000
54.84077 480.000
54.86072 489.000
54.88066 462.000
54.90061 483.000
54.92056 481.000
54.94050 486.000
54.96045 501.000
54.98040 463.000
55.00035 466.000
55.02029 467.000
55.04024 514.000
55.06019 505.000
55.08013 460.000
55.10008 507.000
55.12003 462.000
55.13997 487.000
55.15992 461.000
55.17987 467.000
55.19982 442.000
55.21976 485.000
55.23971 489.000
55.25966 434.000
55.27960 492.000
55.29955 531.000
55.31950 500.000
55.33944 494.000
55.35939 497.000
55.37934 443.000
55.39929 504.000
55.41923 473.000
55.43918 452.000
55.45913 472.000
55.47907 444.000
55.49902 450.000
55.51897 459.000
55.53891 473.000
55.55886 441.000
55.57881 451.000
55.59875 483.000
55.61870 500.000
55.63865 458.000
55.65860 444.000
55.67854 448.000
55.69849 457.000
55.71844 474.000
55.73838 486.000
55.75833 408.000
55.77828 417.000
55.79822 495.000
55.81817 487.000
55.83812 449.000
55.85807 443.000
55.87801 491.000
55.89796 487.000
55.91791 433.000
55.93785 481.000
55.95780 479.000
55.97775 444.000
55.99769 421.000
56.01764 497.000
56.03759 460.000
56.05753 472.000
56.07748 481.000
56.09743 451.000
56.11738 459.000
56.13732 473.000
56.15727 447.000
56.17722 458.000
56.19716 494.000
56.21711 460.000
56.23706 440.000
56.25700 488.000
56.27695 435.000
56.29690 509.000
56.31685 496.000
56.33679 483.000
56.35674 478.000
56.37669 487.000
56.39663 478.000
56.41658 469.000
56.43653 502.000
56.45647 515.000
56.47642 488.000
56.49637 503.000
56.51631 483.000
56.53626 532.000
56.55621 502.000
56.57616 503.000
56.59610 482.000
56.61605 532.000
56.63600 481.000
56.65594 487.000
56.67589 483.000
56.69584 444.000
56.71578 469.000
56.73573 447.000
56.75568 500.000
56.77563 524.000
56.79557 517.000
56.81552 460.000
56.83547 447.000
56.85541 467.000
56.87536 477.000
56.89531 462.000
56.91525 470.000
56.93520 508.000
56.95515 539.000
56.97510 474.000
56.99504 481.000
57.01499 493.000
57.03494 493.000
57.05488 513.000
57.07483 539.000
57.09478 516.000
57.11472 612.000
57.13467 576.000
57.15462 561.000
57.17456 612.000
57.19451 633.000
57.21446 595.000
57.23441 608.000
57.25435 565.000
57.27430 561.000
57.29425 542.000
57.31419 508.000
57.33414 579.000
57.35409 580.000
57.37403 549.000
57.39398 572.000
57.41393 572.000
57.43388 490.000
57.45382 507.000
57.47377 543.000
57.49372 509.000
57.51366 503.000
57.53361 536.000
57.55356 489.000
57.57350 550.000
57.59345 504.000
57.61340 510.000
57.63334 496.000
57.65329 473.000
57.67324 486.000
57.69319 522.000
57.71313 544.000
57.73308 510.000
57.75303 504.000
57.77297 513.000
57.79292 505.000
57.81287 538.000
57.83281 504.000
57.85276 588.000
57.87271 523.000
57.89266 492.000
57.91260 507.000
57.93255 580.000
57.95250 522.000
57.97244 558.000
57.99239 604.000
58.01234 613.000
58.03228 590.000
58.05223 652.000
58.07218 683.000
58.09212 672.000
58.11207 729.000
58.13202 776.000
58.15197 738.000
58.17191 837.000
58.19186 748.000
58.21181 797.000
58.23175 712.000
58.25170 751.000
58.27165 701.000
58.29159 681.000
58.31154 702.000
58.33149 673.000
58.35144 640.000
58.37138 602.000
58.39133 595.000
58.41128 604.000
58.43122 527.000
58.45117 509.000
58.47112 559.000
58.49106 546.000
58.51101 537.000
58.53096 515.000
58.55090 525.000
58.57085 502.000
58.59080 508.000
58.61075 508.000
58.63069 500.000
58.65064 495.000
58.67059 460.000
58.69053 435.000
58.71048 504.000
58.73043 476.000
58.75037 496.000
58.77032 450.000
58.79027 472.000
58.81022 479.000
58.83016 513.000
58.85011 472.000
58.87006 477.000
58.89000 499.000
58.90995 503.000
58.92990 504.000
58.94984 524.000
58.96979 485.000
58.98974 479.000
59.00969 478.000
59.02963 457.000
59.04958 520.000
59.06953 484.000
59.08947 501.000
59.10942 490.000
59.12937 499.000
59.14931 454.000
59.16926 482.000
59.18921 477.000
59.20915 451.000
59.22910 450.000
59.24905 474.000
59.26900 471.000
59.28894 479.000
59.30889 483.000
59.32884 485.000
59.34878 513.000
59.36873 448.000
59.38868 464.000
59.40862 458.000
59.42857 503.000
59.44852 476.000
59.46847 462.000
59.48841 502.000
59.50836 472.000
59.52831 487.000
59.54825 481.000
59.56820 503.000
59.58815 464.000
59.60809 458.000
59.62804 487.000
59.64799 442.000
59.66793 455.000
59.68788 465.000
59.70783 476.000
59.72778 469.000
59.74772 452.000
59.76767 491.000
59.78762 464.000
59.80756 473.000
59.82751 451.000
59.84746 448.000
59.86740 476.000
59.88735 478.000
59.90730 506.000
59.92725 482.000
59.94719 470.000
59.96714 474.000
59.98709 464.000
60.00703 535.000
60.02698 476.000
60.04693 475.000
60.06687 501.000
60.08682 433.000
60.10677 544.000
60.12671 508.000
60.14666 476.000
60.16661 489.000
60.18656 460.000
60.20650 490.000
60.22645 423.000
60.24640 481.000
60.26634 507.000
60.28629 462.000
60.30624 459.000
60.32618 460.000
60.34613 469.000
60.36608 511.000
60.38603 440.000
60.40597 458.000
60.42592 493.000
60.44587 485.000
60.46581 446.000
60.48576 501.000
60.50571 502.000
60.52565 501.000
60.54560 442.000
60.56555 480.000
60.58550 510.000
60.60544 462.000
60.62539 458.000
60.64534 517.000
60.66528 492.000
60.68523 516.000
60.70518 499.000
60.72512 485.000
60.74507 472.000
60.76502 475.000
60.78496 501.000
60.80491 496.000
60.82486 528.000
60.84481 491.000
60.86475 503.000
60.88470 520.000
60.90465 507.000
60.92459 510.000
60.94454 552.000
60.96449 542.000
60.98443 515.000
61.00438 503.000
61.02433 529.000
61.04428 560.000
61.06422 508.000
61.08417 535.000
61.10412 565.000
61.12406 556.000
61.14401 572.000
61.16396 567.000
61.18390 607.000
61.20385 607.000
61.22380 615.000
61.24374 692.000
61.26369 615.000
61.28364 679.000
61.30359 681.000
61.32353 774.000
61.34348 805.000
61.36343 829.000
61.38337 902.000
61.40332 961.000
61.42327 1048.000
61.44321 1130.000
61.46316 1218.000
61.48311 1080.000
61.50306 958.000
61.52300 914.000
61.54295 951.000
61.56290 880.000
61.58284 840.000
61.60279 932.000
61.62274 932.000
61.64268 846.000
61.66263 829.000
61.68258 749.000
61.70252 726.000
61.72247 704.000
61.74242 666.000
61.76237 661.000
61.78231 666.000
61.80226 674.000
61.82221 619.000
61.84215 650.000
61.86210 698.000
61.88205 671.000
61.90199 668.000
61.92194 629.000
61.94189 651.000
61.96184 654.000
61.98178 635.000
62.00173 609.000
62.02168 609.000
62.04162 639.000
62.06157 606.000
62.08152 612.000
62.10146 577.000
62.12141 586.000
62.14136 570.000
62.16131 585.000
62.18125 585.000
62.20120 558.000
62.22115 571.000
62.24109 580.000
62.26104 616.000
62.28099 561.000
62.30093 527.000
62.32088 575.000
62.34083 568.000
62.36077 548.000
62.38072 592.000
62.40067 610.000
62.42062 567.000
62.44056 597.000
62.46051 640.000
62.48046 626.000
62.50040 658.000
62.52035 596.000
62.54030 609.000
62.56024 632.000
62.58019 638.000
62.60014 685.000
62.62009 661.000
62.64003 666.000
62.65998 690.000
62.67993 723.000
62.69987 688.000
62.71982 695.000
62.73977 751.000
62.75971 699.000
62.77966 762.000
62.79961 694.000
62.81955 691.000
62.83950 703.000
62.85945 722.000
62.87940 661.000
62.89934 683.000
62.91929 621.000
62.93924 669.000
62.95918 593.000
62.97913 659.000
62.99908 603.000
63.01902 642.000
63.03897 604.000
63.05892 588.000
63.07887 538.000
63.09881 546.000
63.11876 560.000
63.13871 482.000
63.15865 538.000
63.17860 528.000
63.19855 540.000
63.21849 554.000
63.23844 528.000
63.25839 517.000
63.27833 528.000
63.29828 455.000
63.31823 504.000
63.33818 511.000
63.35812 539.000
63.37807 498.000
63.39802 495.000
63.41796 477.000
63.43791 510.000
63.45786 500.000
63.47780 462.000
63.49775 470.000
63.51770 497.000
63.53765 505.000
63.55759 481.000
63.57754 504.000
63.59749 472.000
63.61743 477.000
63.63738 488.000
63.65733 434.000
63.67727 444.000
63.69722 493.000
63.71717 496.000
63.73712 503.000
63.75706 485.000
63.77701 466.000
63.79696 468.000
63.81690 493.000
63.83685 504.000
63.85680 405.000
63.87674 472.000
63.89669 505.000
63.91664 472.000
63.93658 478.000
63.95653 496.000
63.97648 510.000
63.99643 548.000
64.01637 513.000
64.03632 471.000
64.05627 531.000
64.07621 508.000
64.09616 521.000
64.11611 515.000
64.13605 493.000
64.15600 487.000
64.17595 499.000
64.19590 537.000
64.21584 565.000
64.23579 505.000
64.25574 512.000
64.27568 555.000
64.29563 593.000
64.31558 491.000
64.33552 523.000
64.35547 519.000
64.37542 525.000
64.39536 532.000
64.41531 525.000
64.43526 529.000
64.45521 510.000
64.47515 520.000
64.49510 510.000
64.51505 526.000
64.53499 531.000
64.55494 502.000
64.57489 500.000
64.59483 473.000
64.61478 505.000
64.63473 509.000
64.65468 516.000
64.67462 493.000
64.69457 510.000
64.71452 455.000
64.73446 503.000
64.75441 467.000
64.77436 460.000
64.79430 506.000
64.81425 465.000
64.83420 467.000
64.85414 515.000
64.87409 511.000
64.89404 464.000
64.91399 529.000
64.93393 471.000
64.95388 478.000
64.97383 461.000
64.99377 487.000
65.01372 495.000
65.03367 525.000
65.05361 495.000
65.07356 505.000
65.09351 500.000
65.11346 543.000
65.13340 541.000
65.15335 583.000
65.17330 509.000
65.19324 563.000
65.21319 545.000
65.23314 552.000
65.25308 558.000
65.27303 582.000
65.29298 626.000
65.31293 568.000
65.33287 597.000
65.35282 589.000
65.37277 627.000
65.39271 615.000
65.41266 650.000
65.43261 627.000
65.45255 662.000
65.47250 700.000
65.49245 700.000
65.51239 743.000
65.53234 724.000
65.55229 762.000
65.57224 758.000
65.59218 811.000
65.61213 781.000
65.63208 772.000
65.65202 819.000
65.67197 732.000
65.69192 759.000
65.71186 736.000
65.73181 698.000
65.75176 710.000
65.77171 672.000
65.79165 713.000
65.81160 647.000
65.83155 651.000
65.85149 616.000
65.87144 657.000
65.89139 594.000
65.91133 653.000
65.93128 583.000
65.95123 639.000
65.97117 594.000
65.99112 588.000
66.01107 604.000
66.03102 580.000
66.05096 629.000
66.07091 609.000
66.09086 636.000
66.11080 614.000
66.13075 659.000
66.15070 632.000
66.17064 663.000
66.19059 714.000
66.21054 794.000
66.23049 767.000
66.25043 784.000
66.27038 778.000
66.29033 806.000
66.31027 853.000
66.33022 786.000
66.35017 769.000
66.37011 723.000
66.39006 709.000
66.41001 727.000
66.42995 756.000
66.44990 697.000
66.46985 701.000
66.48980 704.000
66.50974 697.000
66.52969 727.000
66.54964 665.000
66.56958 668.000
66.58953 633.000
66.60948 551.000
66.62942 545.000
66.64937 646.000
66.66932 596.000
66.68927 574.000
66.70921 564.000
66.72916 563.000
66.74911 594.000
66.76905 574.000
66.78900 555.000
66.80895 523.000
66.82889 551.000
66.84884 530.000
66.86879 574.000
66.88874 526.000
66.90868 515.000
66.92863 535.000
66.94858 528.000
66.96852 542.000
66.98847 544.000
67.00842 530.000
67.02836 520.000
67.04831 488.000
67.06826 537.000
67.08820 515.000
67.10815 510.000
67.12810 486.000
67.14805 536.000
67.16799 523.000
67.18794 519.000
67.20789 504.000
67.22783 538.000
67.24778 527.000
67.26773 510.000
67.28767 488.000
67.30762 565.000
67.32757 536.000
67.34752 520.000
67.36746 530.000
67.38741 557.000
67.40736 554.000
67.42730 534.000
67.44725 522.000
67.46720 568.000
67.48714 572.000
67.50709 573.000
67.52704 599.000
67.54698 618.000
67.56693 603.000
67.58688 615.000
67.60683 630.000
67.62677 599.000
67.64672 673.000
67.66667 661.000
67.68661 657.000
67.70656 695.000
67.72651 729.000
67.74645 704.000
67.76640 752.000
67.78635 742.000
67.80630 825.000
67.82624 811.000
67.84619 817.000
67.86614 804.000
67.88608 854.000
67.90603 869.000
67.92598 947.000
67.94592 883.000
67.96587 886.000
67.98582 850.000
68.00576 820.000
68.02571 753.000
68.04566 749.000
68.06561 718.000
68.08555 736.000
68.10550 752.000
68.12545 679.000
68.14539 746.000
68.16534 705.000
68.18529 611.000
68.20523 605.000
68.22518 582.000
68.24513 569.000
68.26508 551.000
68.28502 528.000
68.30497 547.000
68.32492 523.000
68.34486 525.000
68.36481 513.000
68.38476 528.000
68.40470 540.000
68.42465 519.000
68.44460 500.000
68.46455 455.000
68.48449 498.000
68.50444 487.000
68.52439 495.000
68.54433 522.000
68.56428 509.000
68.58423 463.000
68.60417 475.000
68.62412 492.000
68.64407 515.000
68.66401 514.000
68.68396 465.000
68.70391 432.000
68.72386 458.000
68.74380 498.000
68.76375 481.000
68.78370 459.000
68.80364 498.000
68.82359 504.000
68.84354 465.000
68.86348 440.000
68.88343 439.000
68.90338 499.000
68.92333 509.000
68.94327 490.000
68.96322 493.000
68.98317 440.000
69.00311 463.000
69.02306 475.000
69.04301 478.000
69.06295 431.000
69.08290 486.000
69.10285 438.000
69.12279 463.000
69.14274 441.000
69.16269 463.000
69.18264 457.000
69.20258 473.000
69.22253 508.000
69.24248 434.000
69.26242 501.000
69.28237 484.000
69.30232 478.000
69.32226 443.000
69.34221 515.000
69.36216 490.000
69.38211 452.000
69.40205 436.000
69.42200 468.000
69.44195 439.000
69.46189 500.000
69.48184 457.000
69.50179 448.000
69.52173 444.000
69.54168 478.000
69.56163 436.000
69.58157 439.000
69.60152 455.000
69.62147 456.000
69.64142 448.000
69.66136 510.000
69.68131 475.000
69.70126 445.000
69.72120 439.000
69.74115 422.000
69.76110 469.000
69.78104 483.000
69.80099 458.000
69.82094 474.000
69.84089 439.000
69.86083 418.000
69.88078 457.000
69.90073 488.000
69.92067 445.000
69.94062 471.000
69.96057 452.000
69.98051 457.000
70.00046 463.000
70.02041 473.000
70.04035 491.000
70.06030 461.000
70.08025 421.000
70.10020 421.000
70.12014 456.000
70.14009 481.000
70.16004 429.000
70.17998 463.000
70.19993 453.000
70.21988 448.000
70.23982 482.000
70.25977 449.000
70.27972 467.000
70.29967 478.000
70.31961 430.000
70.33956 460.000
70.35951 440.000
70.37945 412.000
70.39940 425.000
70.41935 480.000
70.43929 467.000
70.45924 408.000
70.47919 431.000
70.49914 441.000
70.51908 480.000
70.53903 460.000
70.55898 440.000
70.57892 495.000
70.59887 451.000
70.61882 446.000
70.63876 448.000
70.65871 440.000
70.67866 450.000
70.69860 463.000
70.71855 449.000
70.73850 455.000
70.75845 457.000
70.77839 467.000
70.79834 475.000
70.81829 463.000
70.83823 460.000
70.85818 455.000
70.87813 476.000
70.89807 465.000
70.91802 455.000
70.93797 466.000
70.95792 468.000
70.97786 445.000
70.99781 453.000
71.01776 473.000
71.03770 518.000
71.05765 467.000
71.07760 456.000
71.09754 450.000
71.11749 457.000
71.13744 478.000
71.15738 451.000
71.17733 438.000
71.19728 465.000
71.21723 491.000
71.23717 481.000
71.25712 470.000
71.27707 512.000
71.29701 453.000
71.31696 508.000
71.33691 437.000
71.35685 462.000
71.37680 479.000
71.39675 455.000
71.41670 456.000
71.43664 504.000
71.45659 465.000
71.47654 476.000
71.49648 480.000
71.51643 442.000
71.53638 506.000
71.55632 464.000
71.57627 479.000
71.59622 450.000
71.61616 461.000
71.63611 483.000
71.65606 483.000
71.67601 473.000
71.69595 451.000
71.71590 490.000
71.73585 420.000
71.75579 443.000
71.77574 465.000
71.79569 453.000
71.81563 469.000
71.83558 483.000
71.85553 455.000
71.87548 464.000
71.89542 453.000
71.91537 453.000
71.93532 457.000
71.95526 480.000
71.97521 453.000
71.99516 474.000
72.01510 486.000
72.03505 468.000
72.05500 456.000
72.07495 521.000
72.09489 507.000
72.11484 483.000
72.13479 524.000
72.15473 497.000
72.17468 498.000
72.19463 547.000
72.21457 607.000
72.23452 556.000
72.25447 619.000
72.27441 567.000
72.29436 589.000
72.31431 596.000
72.33426 591.000
72.35420 590.000
72.37415 566.000
72.39410 572.000
72.41404 583.000
72.43399 574.000
72.45394 503.000
72.47388 545.000
72.49383 519.000
72.51378 536.000
72.53373 573.000
72.55367 602.000
72.57362 502.000
72.59357 528.000
72.61351 504.000
72.63346 487.000
72.65341 494.000
72.67335 515.000
72.69330 495.000
72.71325 491.000
72.73319 475.000
72.75314 454.000
72.77309 492.000
72.79304 474.000
72.81298 488.000
72.83293 481.000
72.85288 417.000
72.87282 455.000
72.89277 488.000
72.91272 477.000
72.93266 509.000
72.95261 514.000
72.97256 461.000
72.99251 485.000
73.01245 470.000
73.03240 480.000
73.05235 460.000
73.07229 462.000
73.09224 442.000
73.11219 494.000
73.13213 491.000
73.15208 409.000
73.17203 500.000
73.19197 446.000
73.21192 431.000
73.23187 469.000
73.25182 435.000
73.27176 488.000
73.29171 450.000
73.31166 500.000
73.33160 448.000
73.35155 442.000
73.37150 469.000
73.39144 479.000
73.41139 486.000
73.43134 498.000
73.45129 493.000
73.47123 470.000
73.49118 482.000
73.51113 443.000
73.53107 465.000
73.55102 475.000
73.57097 482.000
73.59091 435.000
73.61086 505.000
73.63081 510.000
73.65076 470.000
73.67070 479.000
73.69065 497.000
73.71060 468.000
73.73054 461.000
73.75049 444.000
73.77044 486.000
73.79038 511.000
73.81033 486.000
73.83028 490.000
73.85022 493.000
73.87017 453.000
73.89012 501.000
73.91007 508.000
73.93001 468.000
73.94996 499.000
73.96991 484.000
73.98985 499.000
74.00980 447.000
74.02975 469.000
74.04969 457.000
74.06964 449.000
74.08959 488.000
74.10954 465.000
74.12948 462.000
74.14943 431.000
74.16938 463.000
74.18932 475.000
74.20927 459.000
74.22922 472.000
74.24916 502.000
74.26911 505.000
74.28906 491.000
74.30900 489.000
74.32895 544.000
74.34890 520.000
74.36885 477.000
74.38879 556.000
74.40874 482.000
74.42869 533.000
74.44863 470.000
74.46858 533.000
74.48853 464.000
74.50847 495.000
74.52842 444.000
74.54837 482.000
74.56832 507.000
74.58826 521.000
74.60821 496.000
74.62816 495.000
74.64810 493.000
74.66805 490.000
74.68800 554.000
74.70794 532.000
74.72789 514.000
74.74784 511.000
74.76778 589.000
74.78773 582.000
74.80768 552.000
74.82763 623.000
74.84757 617.000
74.86752 601.000
74.88747 633.000
74.90741 609.000
74.92736 603.000
74.94731 674.000
74.96725 603.000
74.98720 611.000
75.00715 680.000
75.02710 606.000
75.04704 611.000
75.06699 721.000
75.08694 693.000
75.10688 690.000
75.12683 686.000
75.14678 703.000
75.16672 656.000
75.18667 632.000
75.20662 581.000
75.22657 670.000
75.24651 616.000
75.26646 627.000
75.28641 634.000
75.30635 605.000
75.32630 610.000
75.34625 583.000
75.36619 626.000
75.38614 582.000
75.40609 594.000
75.42603 561.000
75.44598 508.000
75.46593 479.000
75.48588 516.000
75.50582 512.000
75.52577 529.000
75.54572 507.000
75.56566 517.000
75.58561 500.000
75.60556 501.000
75.62550 488.000
75.64545 482.000
75.66540 484.000
75.68535 510.000
75.70529 462.000
75.72524 510.000
75.74519 490.000
75.76513 483.000
75.78508 449.000
75.80503 478.000
75.82497 479.000
75.84492 454.000
75.86487 463.000
75.88481 454.000
75.90476 445.000
75.92471 436.000
75.94466 475.000
75.96460 453.000
75.98455 435.000
76.00450 423.000
76.02444 487.000
76.04439 448.000
76.06434 494.000
76.08428 452.000
76.10423 462.000
76.12418 449.000
76.14413 493.000
76.16407 468.000
76.18402 419.000
76.20397 456.000
76.22391 440.000
76.24386 492.000
76.26381 472.000
76.28375 449.000
76.30370 443.000
76.32365 508.000
76.34359 436.000
76.36354 442.000
76.38349 457.000
76.40344 416.000
76.42338 497.000
76.44333 427.000
76.46328 477.000
76.48322 479.000
76.50317 482.000
76.52312 458.000
76.54306 465.000
76.56301 474.000
76.58296 410.000
76.60291 423.000
76.62285 419.000
76.64280 442.000
76.66275 433.000
76.68269 434.000
76.70264 495.000
76.72259 452.000
76.74253 454.000
76.76248 464.000
76.78243 448.000
76.80238 474.000
76.82232 454.000
76.84227 461.000
76.86222 440.000
76.88216 478.000
76.90211 475.000
76.92206 449.000
76.94200 448.000
76.96195 435.000
76.98190 473.000
77.00184 440.000
77.02179 456.000
77.04174 454.000
77.06169 442.000
77.08163 488.000
77.10158 437.000
77.12153 464.000
77.14147 479.000
77.16142 456.000
77.18137 484.000
77.20131 443.000
77.22126 480.000
77.24121 470.000
77.26116 458.000
77.28110 458.000
77.30105 447.000
77.32100 461.000
77.34094 462.000
77.36089 424.000
77.38084 445.000
77.40078 422.000
77.42073 491.000
77.44068 441.000
77.46062 464.000
77.48057 475.000
77.50052 477.000
77.52047 469.000
77.54041 464.000
77.56036 493.000
77.58031 448.000
77.60025 435.000
77.62020 464.000
77.64015 443.000
77.66009 442.000
77.68004 466.000
77.69999 455.000
77.71994 511.000
77.73988 415.000
77.75983 441.000
77.77978 448.000
77.79972 530.000
77.81967 485.000
77.83962 480.000
77.85956 480.000
77.87951 456.000
77.89946 488.000
77.91940 458.000
77.93935 472.000
77.95930 447.000
77.97925 477.000
77.99919 487.000
78.01914 504.000
78.03909 490.000
78.05903 491.000
78.07898 459.000
78.09893 474.000
78.11887 491.000
78.13882 449.000
78.15877 478.000
78.17872 498.000
78.19866 502.000
78.21861 438.000
78.23856 461.000
78.25850 514.000
78.27845 478.000
78.29840 501.000
78.31834 501.000
78.33829 495.000
78.35824 488.000
78.37819 477.000
78.39813 462.000
78.41808 450.000
78.43803 474.000
78.45797 477.000
78.47792 465.000
78.49787 483.000
78.51781 428.000
78.53776 480.000
78.55771 453.000
78.57765 428.000
78.59760 474.000
78.61755 466.000
78.63750 462.000
78.65744 477.000
78.67739 478.000
78.69734 487.000
78.71728 451.000
78.73723 443.000
78.75718 449.000
78.77712 458.000
78.79707 434.000
78.81702 424.000
78.83697 451.000
78.85691 488.000
78.87686 471.000
78.89681 447.000
78.91675 458.000
78.93670 473.000
78.95665 479.000
78.97659 462.000
78.99654 478.000
79.01649 464.000
79.03643 512.000
79.05638 534.000
79.07633 505.000
79.09628 508.000
79.11622 496.000
79.13617 455.000
79.15612 465.000
79.17606 498.000
79.19601 449.000
79.21596 470.000
79.23590 485.000
79.25585 489.000
79.27580 495.000
79.29575 486.000
79.31569 469.000
79.33564 453.000
79.35559 481.000
79.37553 484.000
79.39548 503.000
79.41543 478.000
79.43537 493.000
79.45532 457.000
79.47527 481.000
79.49521 448.000
79.51516 450.000
79.53511 501.000
79.55506 463.000
79.57500 444.000
79.59495 479.000
79.61490 442.000
79.63484 432.000
79.65479 495.000
79.67474 455.000
79.69468 480.000
79.71463 448.000
79.73458 442.000
79.75453 462.000
79.77447 455.000
79.79442 442.000
79.81437 471.000
79.83431 478.000
79.85426 449.000
79.87421 405.000
79.89415 446.000
79.91410 423.000
79.93405 454.000
79.95399 480.000
79.97394 461.000
79.99389 463.000
80.01384 486.000
80.03378 501.000
80.05373 477.000
80.07368 483.000
80.09362 459.000
80.11357 457.000
80.13352 479.000
80.15346 513.000
80.17341 495.000
80.19336 520.000
80.21331 495.000
80.23325 490.000
80.25320 511.000
80.27315 519.000
80.29309 499.000
80.31304 511.000
80.33299 491.000
80.35293 475.000
80.37288 477.000
80.39283 467.000
80.41278 483.000
80.43272 510.000
80.45267 460.000
80.47262 464.000
80.49256 535.000
80.51251 501.000
80.53246 448.000
80.55240 462.000
80.57235 480.000
80.59230 480.000
80.61224 438.000
80.63219 463.000
80.65214 475.000
80.67209 471.000
80.69203 462.000
80.71198 466.000
80.73193 465.000
80.75187 437.000
80.77182 464.000
80.79177 487.000
80.81171 448.000
80.83166 466.000
80.85161 453.000
80.87156 469.000
80.89150 466.000
80.91145 444.000
80.93140 433.000
80.95134 432.000
80.97129 466.000
80.99124 468.000
81.01118 426.000
81.03113 475.000
81.05108 446.000
81.07102 474.000
81.09097 458.000
81.11092 429.000
81.13087 419.000
81.15081 444.000
81.17076 439.000
81.19071 440.000
81.21065 418.000
81.23060 433.000
81.25055 416.000
81.27049 469.000
81.29044 496.000
81.31039 429.000
81.33034 464.000
81.35028 447.000
81.37023 421.000
81.39018 425.000
81.41012 443.000
81.43007 455.000
81.45002 419.000
81.46996 460.000
81.48991 433.000
81.50986 468.000
81.52980 444.000
81.54975 460.000
81.56970 447.000
81.58965 460.000
81.60959 426.000
81.62954 461.000
81.64949 419.000
81.66943 461.000
81.68938 449.000
81.70933 469.000
81.72927 442.000
81.74922 432.000
81.76917 452.000
81.78912 435.000
81.80906 443.000
81.82901 463.000
81.84896 446.000
81.86890 455.000
81.88885 481.000
81.90880 451.000
81.92874 509.000
81.94869 451.000
81.96864 430.000
81.98859 452.000
82.00853 425.000
82.02848 470.000
82.04843 489.000
82.06837 449.000
82.08832 442.000
82.10827 455.000
82.12821 441.000
82.14816 474.000
82.16811 482.000
82.18805 491.000
82.20800 524.000
82.22795 563.000
82.24790 527.000
82.26784 503.000
82.28779 476.000
82.30774 500.000
82.32768 475.000
82.34763 545.000
82.36758 524.000
82.38752 574.000
82.40747 574.000
82.42742 553.000
82.44737 546.000
82.46731 599.000
82.48726 594.000
82.50721 546.000
82.52715 569.000
82.54710 558.000
82.56705 529.000
82.58699 552.000
82.60694 513.000
82.62689 534.000
82.64683 563.000
82.66678 546.000
82.68673 553.000
82.70668 570.000
82.72662 544.000
82.74657 560.000
82.76652 531.000
82.78646 578.000
82.80641 527.000
82.82636 553.000
82.84630 555.000
82.86625 516.000
82.88620 495.000
82.90615 535.000
82.92609 574.000
82.94604 491.000
82.96599 533.000
82.98593 502.000
83.00588 513.000
83.02583 483.000
83.04577 514.000
83.06572 473.000
83.08567 487.000
83.10561 509.000
83.12556 475.000
83.14551 524.000
83.16546 494.000
83.18540 448.000
83.20535 494.000
83.22530 479.000
83.24524 499.000
83.26519 490.000
83.28514 455.000
83.30508 456.000
83.32503 506.000
83.34498 495.000
83.36493 450.000
83.38487 503.000
83.40482 554.000
83.42477 499.000
83.44471 510.000
83.46466 487.000
83.48461 503.000
83.50455 512.000
83.52450 501.000
83.54445 507.000
83.56440 498.000
83.58434 493.000
83.60429 460.000
83.62424 521.000
83.64418 502.000
83.66413 547.000
83.68408 503.000
83.70402 533.000
83.72397 475.000
83.74392 505.000
83.76386 481.000
83.78381 530.000
83.80376 495.000
83.82371 445.000
83.84365 465.000
83.86360 519.000
83.88355 474.000
83.90349 486.000
83.92344 477.000
83.94339 464.000
83.96333 469.000
83.98328 481.000
84.00323 490.000
84.02318 484.000
84.04312 460.000
84.06307 492.000
84.08302 496.000
84.10296 482.000
84.12291 485.000
84.14286 490.000
84.16280 483.000
84.18275 455.000
84.20270 491.000
84.22264 494.000
84.24259 465.000
84.26254 439.000
84.28249 482.000
84.30243 454.000
84.32238 465.000
84.34233 444.000
84.36227 465.000
84.38222 511.000
84.40217 466.000
84.42211 512.000
84.44206 469.000
84.46201 459.000
84.48196 456.000
84.50190 470.000
84.52185 470.000
84.54180 461.000
84.56174 489.000
84.58169 451.000
84.60164 467.000
84.62158 506.000
84.64153 475.000
84.66148 479.000
84.68142 474.000
84.70137 457.000
84.72132 460.000
84.74127 490.000
84.76121 479.000
84.78116 502.000
84.80111 462.000
84.82105 441.000
84.84100 485.000
84.86095 449.000
84.88089 466.000
84.90084 463.000
84.92079 493.000
84.94074 471.000
84.96068 453.000
84.98063 447.000
85.00058 467.000
85.02052 437.000
85.04047 481.000
85.06042 406.000
85.08036 436.000
85.10031 482.000
85.12026 433.000
85.14021 451.000
85.16015 438.000
85.18010 465.000
85.20005 438.000
85.21999 452.000
85.23994 451.000
85.25989 443.000
85.27983 402.000
85.29978 438.000
85.31973 439.000
85.33967 445.000
85.35962 466.000
85.37957 448.000
85.39952 468.000
85.41946 419.000
85.43941 444.000
85.45936 449.000
85.47930 470.000
85.49925 461.000
85.51920 435.000
85.53914 423.000
85.55909 470.000
85.57904 492.000
85.59899 405.000
85.61893 467.000
85.63888 469.000
85.65883 456.000
85.67877 454.000
85.69872 451.000
85.71867 446.000
85.73861 455.000
85.75856 447.000
85.77851 441.000
85.79845 479.000
85.81840 441.000
85.83835 484.000
85.85830 457.000
85.87824 480.000
85.89819 467.000
85.91814 457.000
85.93808 432.000
85.95803 444.000
85.97798 471.000
85.99792 412.000
86.01787 430.000
86.03782 451.000
86.05777 417.000
86.07771 455.000
86.09766 468.000
86.11761 466.000
86.13755 433.000
86.15750 425.000
86.17745 450.000
86.19739 415.000
86.21734 494.000
86.23729 457.000
86.25723 476.000
86.27718 446.000
86.29713 424.000
86.31708 449.000
86.33702 432.000
86.35697 466.000
86.37692 421.000
86.39686 456.000
86.41681 424.000
86.43676 443.000
86.45670 479.000
86.47665 450.000
86.49660 462.000
86.51655 462.000
86.53649 448.000
86.55644 477.000
86.57639 463.000
86.59633 456.000
86.61628 452.000
86.63623 449.000
86.65617 481.000
86.67612 486.000
86.69607 490.000
86.71602 440.000
86.73596 476.000
86.75591 493.000
86.77586 460.000
86.79580 467.000
86.81575 486.000
86.83570 472.000
86.85564 496.000
86.87559 456.000
86.89554 462.000
86.91548 522.000
86.93543 475.000
86.95538 461.000
86.97533 471.000
86.99527 476.000
87.01522 457.000
87.03517 510.000
87.05511 489.000
87.07506 460.000
87.09501 494.000
87.11495 466.000
87.13490 463.000
87.15485 494.000
87.17480 487.000
87.19474 470.000
87.21469 525.000
87.23464 513.000
87.25458 475.000
87.27453 442.000
87.29448 486.000
87.31442 447.000
87.33437 474.000
87.35432 464.000
87.37426 446.000
87.39421 456.000
87.41416 466.000
87.43411 479.000
87.45405 494.000
87.47400 432.000
87.49395 482.000
87.51389 481.000
87.53384 421.000
87.55379 466.000
87.57373 476.000
87.59368 498.000
87.61363 459.000
87.63358 489.000
87.65352 409.000
87.67347 449.000
87.69342 500.000
87.71336 404.000
87.73331 484.000
87.75326 478.000
87.77320 452.000
87.79315 488.000
87.81310 442.000
87.83304 464.000
87.85299 467.000
87.87294 456.000
87.89289 452.000
87.91283 425.000
87.93278 440.000
87.95273 402.000
87.97267 447.000
87.99262 436.000
88.01257 484.000
88.03251 477.000
88.05246 441.000
88.07241 421.000
88.09236 429.000
88.11230 463.000
88.13225 424.000
88.15220 447.000
88.17214 485.000
88.19209 405.000
88.21204 459.000
88.23198 448.000
88.25193 493.000
88.27188 458.000
88.29183 433.000
88.31177 465.000
88.33172 436.000
88.35167 458.000
88.37161 476.000
88.39156 424.000
88.41151 462.000
88.43145 437.000
88.45140 463.000
88.47135 474.000
88.49129 467.000
88.51124 441.000
88.53119 426.000
88.55114 439.000
88.57108 440.000
88.59103 484.000
88.61098 432.000
88.63092 408.000
88.65087 478.000
88.67082 438.000
88.69076 434.000
88.71071 437.000
88.73066 492.000
88.75061 427.000
88.77055 426.000
88.79050 442.000
88.81045 453.000
88.83039 439.000
88.85034 457.000
88.87029 475.000
88.89023 432.000
88.91018 452.000
88.93013 441.000
88.95007 434.000
88.97002 445.000
88.98997 467.000
89.00992 470.000
89.02986 460.000
89.04981 474.000
89.06976 464.000
89.08970 473.000
89.10965 454.000
89.12960 451.000
89.14954 491.000
89.16949 497.000
89.18944 535.000
89.20939 478.000
89.22933 507.000
89.24928 467.000
89.26923 482.000
89.28917 540.000
89.30912 498.000
89.32907 507.000
89.34901 494.000
89.36896 501.000
89.38891 541.000
89.40885 539.000
89.42880 529.000
89.44875 514.000
89.46870 524.000
89.48864 516.000
89.50859 536.000
89.52854 530.000
89.54848 504.000
89.56843 519.000
89.58838 467.000
89.60832 498.000
89.62827 523.000
89.64822 544.000
89.66817 522.000
89.68811 524.000
89.70806 516.000
89.72801 500.000
89.74795 508.000
89.76790 494.000
89.78785 541.000
89.80779 517.000
89.82774 491.000
89.84769 506.000
89.86764 491.000
89.88758 525.000
89.90753 475.000
89.92748 477.000
89.94742 432.000
89.96737 468.000
89.98732 475.000
90.00726 479.000
