10.00000 197.000
10.01995 225.000
10.03989 203.000
10.05984 191.000
10.07979 221.000
10.09973 188.000
10.11968 222.000
10.13963 222.000
10.15958 189.000
10.17952 198.000
10.19947 215.000
10.21942 212.000
10.23936 213.000
10.25931 226.000
10.27926 230.000
10.29920 248.000
10.31915 232.000
10.33910 198.000
10.35905 217.000
10.37899 180.000
10.39894 214.000
10.41889 194.000
10.43883 216.000
10.45878 219.000
10.47873 210.000
10.49867 195.000
10.51862 255.000
10.53857 210.000
10.55851 245.000
10.57846 215.000
10.59841 212.000
10.61836 195.000
10.63830 216.000
10.65825 207.000
10.67820 189.000
10.69814 228.000
10.71809 213.000
10.73804 219.000
10.75798 222.000
10.77793 231.000
10.79788 204.000
10.81783 204.000
10.83777 215.000
10.85772 194.000
10.87767 185.000
10.89761 210.000
10.91756 208.000
10.93751 233.000
10.95745 212.000
10.97740 238.000
10.99735 218.000
11.01730 227.000
11.03724 228.000
11.05719 207.000
11.07714 181.000
11.09708 218.000
11.11703 213.000
11.13698 230.000
11.15692 204.000
11.17687 212.000
11.19682 217.000
11.21676 226.000
11.23671 203.000
11.25666 194.000
11.27661 215.000
11.29655 206.000
11.31650 204.000
11.33645 233.000
11.35639 211.000
11.37634 212.000
11.39629 183.000
11.41623 238.000
11.43618 227.000
11.45613 229.000
11.47608 250.000
11.49602 216.000
11.51597 198.000
11.53592 234.000
11.55586 216.000
11.57581 209.000
11.59576 200.000
11.61570 184.000
11.63565 226.000
11.65560 203.000
11.67554 230.000
11.69549 217.000
11.71544 231.000
11.73539 211.000
11.75533 224.000
11.77528 198.000
11.79523 223.000
11.81517 228.000
11.83512 206.000
11.85507 191.000
11.87501 197.000
11.89496 203.000
11.91491 200.000
11.93486 194.000
11.95480 220.000
11.97475 248.000
11.99470 220.000
12.01464 229.000
12.03459 213.000
12.05454 203.000
12.07448 187.000
12.09443 230.000
12.11438 210.000
12.13432 201.000
12.15427 223.000
12.17422 234.000
12.19417 210.000
12.21411 198.000
12.23406 187.000
12.25401 244.000
12.27395 227.000
12.29390 219.000
12.31385 220.000
12.33379 208.000
12.35374 210.000
12.37369 210.000
12.39364 205.000
12.41358 202.000
12.43353 211.000
12.45348 195.000
12.47342 188.000
12.49337 250.000
12.51332 215.000
12.53326 217.000
12.55321 223.000
12.57316 217.000
12.59311 223.000
12.61305 237.000
12.63300 213.000
12.65295 228.000
12.67289 214.000
12.69284 232.000
12.71279 212.000
12.73273 222.000
12.75268 227.000
12.77263 238.000
12.79257 252.000
12.81252 216.000
12.83247 216.000
12.85242 217.000
12.87236 196.000
12.89231 201.000
12.91226 239.000
12.93220 213.000
12.95215 222.000
12.97210 225.000
12.99204 223.000
13.01199 215.000
13.03194 205.000
13.05189 219.000
13.07183 210.000
13.09178 220.000
13.11173 208.000
13.13167 233.000
13.15162 194.000
13.17157 206.000
13.19151 222.000
13.21146 211.000
13.23141 205.000
13.25135 196.000
13.27130 241.000
13.29125 227.000
13.31120 232.000
13.33114 196.000
13.35109 181.000
13.37104 227.000
13.39098 211.000
13.41093 217.000
13.43088 231.000
13.45082 218.000
13.47077 209.000
13.49072 213.000
13.51067 208.000
13.53061 220.000
13.55056 184.000
13.57051 217.000
13.59045 227.000
13.61040 225.000
13.63035 215.000
13.65029 198.000
13.67024 212.000
13.69019 231.000
13.71013 200.000
13.73008 217.000
13.75003 214.000
13.76998 221.000
13.78992 195.000
13.80987 185.000
13.82982 203.000
13.84976 211.000
13.86971 218.000
13.88966 195.000
13.90960 220.000
13.92955 226.000
13.94950 202.000
13.96945 217.000
13.98939 204.000
14.00934 220.000
14.02929 223.000
14.04923 237.000
14.06918 233.000
14.08913 227.000
14.10907 245.000
14.12902 221.000
14.14897 220.000
14.16892 239.000
14.18886 208.000
14.20881 217.000
14.22876 236.000
14.24870 219.000
14.26865 220.000
14.28860 210.000
14.30854 198.000
14.32849 187.000
14.34844 242.000
14.36838 215.000
14.38833 215.000
14.40828 235.000
14.42823 190.000
14.44817 205.000
14.46812 222.000
14.48807 212.000
14.50801 222.000
14.52796 207.000
14.54791 197.000
14.56785 210.000
14.58780 243.000
14.60775 229.000
14.62770 217.000
14.64764 210.000
14.66759 236.000
14.68754 221.000
14.70748 204.000
14.72743 201.000
14.74738 201.000
14.76732 210.000
14.78727 231.000
14.80722 217.000
14.82716 207.000
14.84711 222.000
14.86706 239.000
14.88701 187.000
14.90695 201.000
14.92690 210.000
14.94685 241.000
14.96679 239.000
14.98674 240.000
15.00669 223.000
15.02663 208.000
15.04658 205.000
15.06653 243.000
15.08648 233.000
15.10642 246.000
15.12637 228.000
15.14632 236.000
15.16626 249.000
15.18621 245.000
15.20616 214.000
15.22610 226.000
15.24605 209.000
15.26600 216.000
15.28594 239.000
15.30589 249.000
15.32584 243.000
15.34579 234.000
15.36573 231.000
15.38568 249.000
15.40563 248.000
15.42557 231.000
15.44552 235.000
15.46547 234.000
15.48541 256.000
15.50536 268.000
15.52531 243.000
15.54526 263.000
15.56520 288.000
15.58515 292.000
15.60510 304.000
15.62504 324.000
15.64499 348.000
15.66494 343.000
15.68488 407.000
15.70483 491.000
15.72478 548.000
15.74472 691.000
15.76467 1005.000
15.78462 1374.000
15.80457 1799.000
15.82451 2393.000
15.84446 2695.000
15.86441 2348.000
15.88435 1552.000
15.90430 1050.000
15.92425 612.000
15.94419 422.000
15.96414 355.000
15.98409 282.000
16.00404 291.000
16.02398 262.000
16.04393 275.000
16.06388 267.000
16.08382 273.000
16.10377 256.000
16.12372 258.000
16.14366 235.000
16.16361 258.000
16.18356 254.000
16.20351 277.000
16.22345 264.000
16.24340 239.000
16.26335 276.000
16.28329 253.000
16.30324 237.000
16.32319 238.000
16.34313 254.000
16.36308 242.000
16.38303 272.000
16.40297 234.000
16.42292 250.000
16.44287 238.000
16.46282 249.000
16.48276 259.000
16.50271 249.000
16.52266 237.000
16.54260 249.000
16.56255 242.000
16.58250 252.000
16.60244 255.000
16.62239 211.000
16.64234 221.000
16.66229 234.000
16.68223 227.000
16.70218 241.000
16.72213 275.000
16.74207 231.000
16.76202 260.000
16.78197 246.000
16.80191 285.000
16.82186 282.000
16.84181 270.000
16.86175 308.000
16.88170 271.000
16.90165 268.000
16.92160 232.000
16.94154 235.000
16.96149 239.000
16.98144 257.000
17.00138 222.000
17.02133 220.000
17.04128 221.000
17.06122 259.000
17.08117 237.000
17.10112 260.000
17.12107 218.000
17.14101 237.000
17.16096 249.000
17.18091 243.000
17.20085 232.000
17.22080 240.000
17.24075 230.000
17.26069 223.000
17.28064 256.000
17.30059 199.000
17.32053 242.000
17.34048 225.000
17.36043 236.000
17.38038 237.000
17.40032 229.000
17.42027 222.000
17.44022 215.000
17.46016 233.000
17.48011 230.000
17.50006 237.000
17.52000 224.000
17.53995 231.000
17.55990 258.000
17.57985 245.000
17.59979 207.000
17.61974 231.000
17.63969 221.000
17.65963 229.000
17.67958 255.000
17.69953 217.000
17.71947 225.000
17.73942 228.000
17.75937 241.000
17.77932 230.000
17.79926 241.000
17.81921 216.000
17.83916 263.000
17.85910 252.000
17.87905 214.000
17.89900 208.000
17.91894 252.000
17.93889 225.000
17.95884 240.000
17.97878 246.000
17.99873 255.000
18.01868 241.000
18.03863 255.000
18.05857 217.000
18.07852 230.000
18.09847 230.000
18.11841 208.000
18.13836 216.000
18.15831 252.000
18.17825 238.000
18.19820 243.000
18.21815 234.000
18.23810 228.000
18.25804 231.000
18.27799 229.000
18.29794 266.000
18.31788 278.000
18.33783 249.000
18.35778 321.000
18.37772 342.000
18.39767 362.000
18.41762 386.000
18.43756 315.000
18.45751 295.000
18.47746 253.000
18.49741 269.000
18.51735 240.000
18.53730 241.000
18.55725 238.000
18.57719 218.000
18.59714 239.000
18.61709 241.000
18.63703 232.000
18.65698 251.000
18.67693 240.000
18.69688 247.000
18.71682 264.000
18.73677 260.000
18.75672 244.000
18.77666 242.000
18.79661 230.000
18.81656 232.000
18.83650 250.000
18.85645 234.000
18.87640 223.000
18.89634 219.000
18.91629 231.000
18.93624 273.000
18.95619 225.000
18.97613 212.000
18.99608 263.000
19.01603 187.000
19.03597 214.000
19.05592 251.000
19.07587 212.000
19.09581 248.000
19.11576 240.000
19.13571 257.000
19.15566 206.000
19.17560 218.000
19.19555 224.000
19.21550 202.000
19.23544 229.000
19.25539 234.000
19.27534 228.000
19.29528 234.000
19.31523 239.000
19.33518 233.000
19.35513 210.000
19.37507 232.000
19.39502 229.000
19.41497 268.000
19.43491 235.000
19.45486 250.000
19.47481 231.000
19.49475 223.000
19.51470 245.000
19.53465 228.000
19.55459 252.000
19.57454 226.000
19.59449 237.000
19.61444 254.000
19.63438 232.000
19.65433 239.000
19.67428 231.000
19.69422 226.000
19.71417 241.000
19.73412 224.000
19.75406 240.000
19.77401 235.000
19.79396 254.000
19.81391 252.000
19.83385 230.000
19.85380 201.000
19.87375 247.000
19.89369 227.000
19.91364 237.000
19.93359 263.000
19.95353 249.000
19.97348 246.000
19.99343 237.000
20.01337 249.000
20.03332 234.000
20.05327 232.000
20.07322 251.000
20.09316 257.000
20.11311 241.000
20.13306 240.000
20.15300 275.000
20.17295 217.000
20.19290 228.000
20.21284 242.000
20.23279 239.000
20.25274 247.000
20.27269 233.000
20.29263 244.000
20.31258 230.000
20.33253 253.000
20.35247 229.000
20.37242 244.000
20.39237 250.000
20.41231 241.000
20.43226 233.000
20.45221 265.000
20.47215 257.000
20.49210 234.000
20.51205 240.000
20.53200 236.000
20.55194 233.000
20.57189 243.000
20.59184 272.000
20.61178 231.000
20.63173 275.000
20.65168 277.000
20.67162 280.000
20.69157 241.000
20.71152 269.000
20.73147 280.000
20.75141 263.000
20.77136 294.000
20.79131 310.000
20.81125 256.000
20.83120 327.000
20.85115 312.000
20.87109 362.000
20.89104 395.000
20.91099 405.000
20.93094 465.000
20.95088 538.000
20.97083 680.000
20.99078 758.000
21.01072 842.000
21.03067 887.000
21.05062 901.000
21.07056 877.000
21.09051 783.000
21.11046 695.000
21.13040 517.000
21.15035 463.000
21.17030 363.000
21.19025 339.000
21.21019 305.000
21.23014 286.000
21.25009 289.000
21.27003 262.000
21.28998 282.000
21.30993 262.000
21.32987 280.000
21.34982 255.000
21.36977 271.000
21.38972 262.000
21.40966 236.000
21.42961 244.000
21.44956 259.000
21.46950 250.000
21.48945 238.000
21.50940 265.000
21.52934 223.000
21.54929 275.000
21.56924 230.000
21.58918 240.000
21.60913 219.000
21.62908 275.000
21.64903 242.000
21.66897 247.000
21.68892 231.000
21.70887 236.000
21.72881 244.000
21.74876 248.000
21.76871 232.000
21.78865 251.000
21.80860 259.000
21.82855 251.000
21.84850 257.000
21.86844 226.000
21.88839 254.000
21.90834 279.000
21.92828 247.000
21.94823 250.000
21.96818 254.000
21.98812 255.000
22.00807 244.000
22.02802 275.000
22.04796 250.000
22.06791 245.000
22.08786 252.000
22.10781 268.000
22.12775 233.000
22.14770 218.000
22.16765 249.000
22.18759 256.000
22.20754 262.000
22.22749 269.000
22.24743 254.000
22.26738 257.000
22.28733 240.000
22.30728 244.000
22.32722 254.000
22.34717 262.000
22.36712 255.000
22.38706 247.000
22.40701 238.000
22.42696 232.000
22.44690 244.000
22.46685 242.000
22.48680 263.000
22.50675 289.000
22.52669 268.000
22.54664 261.000
22.56659 263.000
22.58653 249.000
22.60648 231.000
22.62643 227.000
22.64637 221.000
22.66632 247.000
22.68627 260.000
22.70621 260.000
22.72616 283.000
22.74611 256.000
22.76606 245.000
22.78600 262.000
22.80595 245.000
22.82590 250.000
22.84584 233.000
22.86579 282.000
22.88574 247.000
22.90568 244.000
22.92563 234.000
22.94558 257.000
22.96553 283.000
22.98547 267.000
23.00542 262.000
23.02537 254.000
23.04531 239.000
23.06526 269.000
23.08521 226.000
23.10515 240.000
23.12510 248.000
23.14505 264.000
23.16499 240.000
23.18494 277.000
23.20489 260.000
23.22484 264.000
23.24478 259.000
23.26473 245.000
23.28468 230.000
23.30462 239.000
23.32457 255.000
23.34452 251.000
23.36446 225.000
23.38441 247.000
23.40436 249.000
23.42431 216.000
23.44425 240.000
23.46420 234.000
23.48415 245.000
23.50409 264.000
23.52404 226.000
23.54399 267.000
23.56393 261.000
23.58388 267.000
23.60383 260.000
23.62377 241.000
23.64372 253.000
23.66367 223.000
23.68362 247.000
23.70356 274.000
23.72351 264.000
23.74346 258.000
23.76340 255.000
23.78335 251.000
23.80330 259.000
23.82324 277.000
23.84319 250.000
23.86314 242.000
23.88309 243.000
23.90303 252.000
23.92298 256.000
23.94293 257.000
23.96287 249.000
23.98282 221.000
24.00277 272.000
24.02271 276.000
24.04266 253.000
24.06261 270.000
24.08256 277.000
24.10250 229.000
24.12245 260.000
24.14240 256.000
24.16234 247.000
24.18229 259.000
24.20224 244.000
24.22218 284.000
24.24213 256.000
24.26208 262.000
24.28202 285.000
24.30197 306.000
24.32192 264.000
24.34187 244.000
24.36181 287.000
24.38176 277.000
24.40171 262.000
24.42165 277.000
24.44160 263.000
24.46155 256.000
24.48149 272.000
24.50144 296.000
24.52139 249.000
24.54134 263.000
24.56128 251.000
24.58123 261.000
24.60118 247.000
24.62112 272.000
24.64107 267.000
24.66102 237.000
24.68096 256.000
24.70091 270.000
24.72086 288.000
24.74080 228.000
24.76075 244.000
24.78070 280.000
24.80065 278.000
24.82059 276.000
24.84054 241.000
24.86049 275.000
24.88043 285.000
24.90038 262.000
24.92033 279.000
24.94027 256.000
24.96022 289.000
24.98017 302.000
25.00012 268.000
25.02006 285.000
25.04001 287.000
25.05996 243.000
25.07990 284.000
25.09985 302.000
25.11980 282.000
25.13974 254.000
25.15969 270.000
25.17964 274.000
25.19958 250.000
25.21953 249.000
25.23948 276.000
25.25943 259.000
25.27937 259.000
25.29932 272.000
25.31927 262.000
25.33921 266.000
25.35916 271.000
25.37911 252.000
25.39905 279.000
25.41900 276.000
25.43895 264.000
25.45890 260.000
25.47884 251.000
25.49879 293.000
25.51874 286.000
25.53868 273.000
25.55863 272.000
25.57858 298.000
25.59852 283.000
25.61847 239.000
25.63842 274.000
25.65837 275.000
25.67831 232.000
25.69826 285.000
25.71821 255.000
25.73815 278.000
25.75810 262.000
25.77805 278.000
25.79799 271.000
25.81794 277.000
25.83789 261.000
25.85783 263.000
25.87778 267.000
25.89773 254.000
25.91768 298.000
25.93762 273.000
25.95757 242.000
25.97752 280.000
25.99746 271.000
26.01741 260.000
26.03736 272.000
26.05730 264.000
26.07725 269.000
26.09720 270.000
26.11715 276.000
26.13709 277.000
26.15704 280.000
26.17699 285.000
26.19693 253.000
26.21688 290.000
26.23683 286.000
26.25677 264.000
26.27672 278.000
26.29667 282.000
26.31661 292.000
26.33656 275.000
26.35651 276.000
26.37646 261.000
26.39640 266.000
26.41635 283.000
26.43630 289.000
26.45624 279.000
26.47619 292.000
26.49614 286.000
26.51608 269.000
26.53603 295.000
26.55598 295.000
26.57593 290.000
26.59587 292.000
26.61582 328.000
26.63577 287.000
26.65571 318.000
26.67566 301.000
26.69561 283.000
26.71555 272.000
26.73550 285.000
26.75545 292.000
26.77539 299.000
26.79534 269.000
26.81529 259.000
26.83524 277.000
26.85518 287.000
26.87513 300.000
26.89508 269.000
26.91502 266.000
26.93497 287.000
26.95492 243.000
26.97486 290.000
26.99481 283.000
27.01476 282.000
27.03471 277.000
27.05465 257.000
27.07460 267.000
27.09455 297.000
27.11449 316.000
27.13444 299.000
27.15439 302.000
27.17433 316.000
27.19428 290.000
27.21423 304.000
27.23417 286.000
27.25412 289.000
27.27407 308.000
27.29402 293.000
27.31396 264.000
27.33391 278.000
27.35386 312.000
27.37380 279.000
27.39375 272.000
27.41370 325.000
27.43364 282.000
27.45359 301.000
27.47354 267.000
27.49349 296.000
27.51343 287.000
27.53338 307.000
27.55333 275.000
27.57327 278.000
27.59322 276.000
27.61317 314.000
27.63311 304.000
27.65306 262.000
27.67301 330.000
27.69296 273.000
27.71290 282.000
27.73285 293.000
27.75280 309.000
27.77274 306.000
27.79269 283.000
27.81264 279.000
27.83258 297.000
27.85253 307.000
27.87248 286.000
27.89242 285.000
27.91237 323.000
27.93232 268.000
27.95227 292.000
27.97221 288.000
27.99216 290.000
28.01211 276.000
28.03205 332.000
28.05200 333.000
28.07195 334.000
28.09189 296.000
28.11184 288.000
28.13179 286.000
28.15174 319.000
28.17168 278.000
28.19163 307.000
28.21158 300.000
28.23152 304.000
28.25147 290.000
28.27142 295.000
28.29136 278.000
28.31131 307.000
28.33126 252.000
28.35120 321.000
28.37115 308.000
28.39110 294.000
28.41105 292.000
28.43099 319.000
28.45094 300.000
28.47089 330.000
28.49083 306.000
28.51078 310.000
28.53073 307.000
28.55067 357.000
28.57062 267.000
28.59057 336.000
28.61052 321.000
28.63046 307.000
28.65041 316.000
28.67036 300.000
28.69030 317.000
28.71025 310.000
28.73020 307.000
28.75014 341.000
28.77009 315.000
28.79004 313.000
28.80998 291.000
28.82993 281.000
28.84988 338.000
28.86983 322.000
28.88977 304.000
28.90972 290.000
28.92967 314.000
28.94961 295.000
28.96956 310.000
28.98951 291.000
29.00945 321.000
29.02940 305.000
29.04935 323.000
29.06930 319.000
29.08924 305.000
29.10919 317.000
29.12914 329.000
29.14908 352.000
29.16903 325.000
29.18898 375.000
29.20892 339.000
29.22887 356.000
29.24882 367.000
29.26877 351.000
29.28871 394.000
29.30866 392.000
29.32861 429.000
29.34855 398.000
29.36850 429.000
29.38845 449.000
29.40839 377.000
29.42834 395.000
29.44829 417.000
29.46823 409.000
29.48818 378.000
29.50813 357.000
29.52808 386.000
29.54802 363.000
29.56797 325.000
29.58792 342.000
29.60786 342.000
29.62781 351.000
29.64776 365.000
29.66770 351.000
29.68765 354.000
29.70760 345.000
29.72755 316.000
29.74749 348.000
29.76744 340.000
29.78739 349.000
29.80733 350.000
29.82728 310.000
29.84723 328.000
29.86717 329.000
29.88712 314.000
29.90707 331.000
29.92701 319.000
29.94696 319.000
29.96691 337.000
29.98686 326.000
30.00680 344.000
30.02675 310.000
30.04670 367.000
30.06664 362.000
30.08659 380.000
30.10654 358.000
30.12648 345.000
30.14643 364.000
30.16638 367.000
30.18633 383.000
30.20627 444.000
30.22622 482.000
30.24617 529.000
30.26611 618.000
30.28606 659.000
30.30601 580.000
30.32595 513.000
30.34590 497.000
30.36585 486.000
30.38579 414.000
30.40574 369.000
30.42569 358.000
30.44564 321.000
30.46558 344.000
30.48553 338.000
30.50548 334.000
30.52542 324.000
30.54537 322.000
30.56532 339.000
30.58526 364.000
30.60521 347.000
30.62516 323.000
30.64511 320.000
30.66505 332.000
30.68500 309.000
30.70495 323.000
30.72489 315.000
30.74484 337.000
30.76479 328.000
30.78473 314.000
30.80468 337.000
30.82463 309.000
30.84458 356.000
30.86452 294.000
30.88447 320.000
30.90442 296.000
30.92436 368.000
30.94431 315.000
30.96426 321.000
30.98420 332.000
31.00415 343.000
31.02410 293.000
31.04404 329.000
31.06399 361.000
31.08394 312.000
31.10389 319.000
31.12383 346.000
31.14378 337.000
31.16373 324.000
31.18367 370.000
31.20362 317.000
31.22357 335.000
31.24351 318.000
31.26346 320.000
31.28341 337.000
31.30336 315.000
31.32330 321.000
31.34325 339.000
31.36320 324.000
31.38314 343.000
31.40309 284.000
31.42304 337.000
31.44298 343.000
31.46293 313.000
31.48288 338.000
31.50282 311.000
31.52277 332.000
31.54272 333.000
31.56267 307.000
31.58261 326.000
31.60256 341.000
31.62251 306.000
31.64245 324.000
31.66240 313.000
31.68235 310.000
31.70229 338.000
31.72224 324.000
31.74219 366.000
31.76214 322.000
31.78208 350.000
31.80203 349.000
31.82198 356.000
31.84192 347.000
31.86187 384.000
31.88182 396.000
31.90176 379.000
31.92171 423.000
31.94166 424.000
31.96160 447.000
31.98155 521.000
32.00150 502.000
32.02145 526.000
32.04139 524.000
32.06134 439.000
32.08129 420.000
32.10123 432.000
32.12118 379.000
32.14113 343.000
32.16107 344.000
32.18102 333.000
32.20097 352.000
32.22092 314.000
32.24086 318.000
32.26081 351.000
32.28076 313.000
32.30070 284.000
32.32065 319.000
32.34060 326.000
32.36054 317.000
32.38049 322.000
32.40044 341.000
32.42039 329.000
32.44033 325.000
32.46028 336.000
32.48023 306.000
32.50017 308.000
32.52012 321.000
32.54007 314.000
32.56001 314.000
32.57996 294.000
32.59991 312.000
32.61985 298.000
32.63980 289.000
32.65975 297.000
32.67970 326.000
32.69964 313.000
32.71959 329.000
32.73954 343.000
32.75948 329.000
32.77943 333.000
32.79938 353.000
32.81932 309.000
32.83927 330.000
32.85922 336.000
32.87917 315.000
32.89911 314.000
32.91906 308.000
32.93901 310.000
32.95895 278.000
32.97890 314.000
32.99885 333.000
33.01879 328.000
33.03874 331.000
33.05869 315.000
33.07863 312.000
33.09858 286.000
33.11853 324.000
33.13848 291.000
33.15842 326.000
33.17837 347.000
33.19832 310.000
33.21826 280.000
33.23821 314.000
33.25816 323.000
33.27810 299.000
33.29805 320.000
33.31800 321.000
33.33795 336.000
33.35789 293.000
33.37784 335.000
33.39779 293.000
33.41773 285.000
33.43768 296.000
33.45763 298.000
33.47757 305.000
33.49752 345.000
33.51747 336.000
33.53741 328.000
33.55736 315.000
33.57731 325.000
33.59726 320.000
33.61720 317.000
33.63715 339.000
33.65710 327.000
33.67704 296.000
33.69699 315.000
33.71694 359.000
33.73688 313.000
33.75683 308.000
33.77678 336.000
33.79673 328.000
33.81667 284.000
33.83662 338.000
33.85657 323.000
33.87651 320.000
33.89646 340.000
33.91641 324.000
33.93635 333.000
33.95630 320.000
33.97625 300.000
33.99620 347.000
34.01614 353.000
34.03609 324.000
34.05604 316.000
34.07598 386.000
34.09593 337.000
34.11588 344.000
34.13582 365.000
34.15577 317.000
34.17572 318.000
34.19566 361.000
34.21561 309.000
34.23556 361.000
34.25551 353.000
34.27545 331.000
34.29540 370.000
34.31535 381.000
34.33529 346.000
34.35524 361.000
34.37519 401.000
34.39513 415.000
34.41508 395.000
34.43503 457.000
34.45498 431.000
34.47492 470.000
34.49487 520.000
34.51482 564.000
34.53476 585.000
34.55471 596.000
34.57466 648.000
34.59460 676.000
34.61455 683.000
34.63450 733.000
34.65444 732.000
34.67439 770.000
34.69434 790.000
34.71429 791.000
34.73423 730.000
34.75418 758.000
34.77413 700.000
34.79407 662.000
34.81402 656.000
34.83397 561.000
34.85391 567.000
34.87386 487.000
34.89381 466.000
34.91376 428.000
34.93370 425.000
34.95365 425.000
34.97360 391.000
34.99354 397.000
35.01349 338.000
35.03344 354.000
35.05338 327.000
35.07333 348.000
35.09328 323.000
35.11322 334.000
35.13317 369.000
35.15312 357.000
35.17307 388.000
35.19301 369.000
35.21296 355.000
35.23291 367.000
35.25285 328.000
35.27280 367.000
35.29275 355.000
35.31269 348.000
35.33264 367.000
35.35259 399.000
35.37254 367.000
35.39248 349.000
35.41243 392.000
35.43238 384.000
35.45232 373.000
35.47227 424.000
35.49222 471.000
35.51216 451.000
35.53211 445.000
35.55206 537.000
35.57201 579.000
35.59195 732.000
35.61190 897.000
35.63185 947.000
35.65179 1144.000
35.67174 1187.000
35.69169 1134.000
35.71163 1020.000
35.73158 939.000
35.75153 898.000
35.77147 934.000
35.79142 783.000
35.81137 684.000
35.83132 589.000
35.85126 557.000
35.87121 540.000
35.89116 498.000
35.91110 448.000
35.93105 485.000
35.95100 413.000
35.97094 382.000
35.99089 350.000
36.01084 357.000
36.03079 366.000
36.05073 345.000
36.07068 337.000
36.09063 345.000
36.11057 340.000
36.13052 328.000
36.15047 373.000
36.17041 345.000
36.19036 332.000
36.21031 377.000
36.23025 371.000
36.25020 355.000
36.27015 366.000
36.29010 424.000
36.31004 409.000
36.32999 398.000
36.34994 412.000
36.36988 403.000
36.38983 390.000
36.40978 469.000
36.42972 377.000
36.44967 398.000
36.46962 368.000
36.48957 401.000
36.50951 387.000
36.52946 347.000
36.54941 403.000
36.56935 392.000
36.58930 363.000
36.60925 382.000
36.62919 390.000
36.64914 400.000
36.66909 384.000
36.68903 371.000
36.70898 447.000
36.72893 363.000
36.74888 389.000
36.76882 390.000
36.78877 406.000
36.80872 382.000
36.82866 421.000
36.84861 431.000
36.86856 473.000
36.88850 473.000
36.90845 500.000
36.92840 495.000
36.94835 530.000
36.96829 659.000
36.98824 724.000
37.00819 832.000
37.02813 884.000
37.04808 1121.000
37.06803 1382.000
37.08797 1792.000
37.10792 2513.000
37.12787 3292.000
37.14781 4036.000
37.16776 4697.000
37.18771 4428.000
37.20766 3862.000
37.22760 3306.000
37.24755 3054.000
37.26750 2749.000
37.28744 2270.000
37.30739 1749.000
37.32734 1171.000
37.34728 842.000
37.36723 660.000
37.38718 588.000
37.40713 516.000
37.42707 452.000
37.44702 454.000
37.46697 479.000
37.48691 420.000
37.50686 373.000
37.52681 415.000
37.54675 401.000
37.56670 427.000
37.58665 360.000
37.60660 385.000
37.62654 352.000
37.64649 352.000
37.66644 347.000
37.68638 346.000
37.70633 324.000
37.72628 333.000
37.74622 317.000
37.76617 303.000
37.78612 313.000
37.80606 323.000
37.82601 306.000
37.84596 325.000
37.86591 289.000
37.88585 301.000
37.90580 281.000
37.92575 288.000
37.94569 289.000
37.96564 321.000
37.98559 320.000
38.00553 330.000
38.02548 332.000
38.04543 297.000
38.06538 293.000
38.08532 303.000
38.10527 294.000
38.12522 246.000
38.14516 280.000
38.16511 320.000
38.18506 296.000
38.20500 290.000
38.22495 291.000
38.24490 290.000
38.26484 315.000
38.28479 294.000
38.30474 313.000
38.32469 320.000
38.34463 265.000
38.36458 290.000
38.38453 304.000
38.40447 306.000
38.42442 270.000
38.44437 316.000
38.46431 309.000
38.48426 309.000
38.50421 313.000
38.52416 322.000
38.54410 286.000
38.56405 327.000
38.58400 314.000
38.60394 322.000
38.62389 282.000
38.64384 299.000
38.66378 272.000
38.68373 313.000
38.70368 288.000
38.72362 300.000
38.74357 299.000
38.76352 323.000
38.78347 304.000
38.80341 312.000
38.82336 293.000
38.84331 315.000
38.86325 294.000
38.88320 347.000
38.90315 317.000
38.92309 327.000
38.94304 311.000
38.96299 326.000
38.98294 348.000
39.00288 314.000
39.02283 296.000
39.04278 274.000
39.06272 299.000
39.08267 311.000
39.10262 347.000
39.12256 319.000
39.14251 332.000
39.16246 322.000
39.18241 313.000
39.20235 375.000
39.22230 400.000
39.24225 401.000
39.26219 433.000
39.28214 467.000
39.30209 504.000
39.32203 531.000
39.34198 597.000
39.36193 607.000
39.38187 638.000
39.40182 645.000
39.42177 593.000
39.44172 586.000
39.46166 562.000
39.48161 537.000
39.50156 474.000
39.52150 412.000
39.54145 472.000
39.56140 396.000
39.58134 390.000
39.60129 379.000
39.62124 315.000
39.64119 301.000
39.66113 291.000
39.68108 288.000
39.70103 317.000
39.72097 292.000
39.74092 297.000
39.76087 273.000
39.78081 304.000
39.80076 249.000
39.82071 312.000
39.84065 290.000
39.86060 297.000
39.88055 261.000
39.90050 294.000
39.92044 248.000
39.94039 277.000
39.96034 295.000
39.98028 282.000
40.00023 314.000
40.02018 295.000
40.04012 284.000
40.06007 286.000
40.08002 276.000
40.09997 269.000
40.11991 279.000
40.13986 262.000
40.15981 232.000
40.17975 298.000
40.19970 285.000
40.21965 292.000
40.23959 331.000
40.25954 280.000
40.27949 299.000
40.29943 298.000
40.31938 280.000
40.33933 295.000
40.35928 256.000
40.37922 287.000
40.39917 246.000
40.41912 298.000
40.43906 271.000
40.45901 274.000
40.47896 243.000
40.49890 288.000
40.51885 285.000
40.53880 299.000
40.55875 303.000
40.57869 274.000
40.59864 306.000
40.61859 286.000
40.63853 301.000
40.65848 271.000
40.67843 278.000
40.69837 270.000
40.71832 262.000
40.73827 286.000
40.75822 264.000
40.77816 303.000
40.79811 242.000
40.81806 296.000
40.83800 314.000
40.85795 283.000
40.87790 302.000
40.89784 267.000
40.91779 300.000
40.93774 262.000
40.95768 284.000
40.97763 280.000
40.99758 266.000
41.01753 283.000
41.03747 278.000
41.05742 272.000
41.07737 280.000
41.09731 288.000
41.11726 318.000
41.13721 299.000
41.15715 300.000
41.17710 309.000
41.19705 259.000
41.21700 307.000
41.23694 290.000
41.25689 311.000
41.27684 251.000
41.29678 301.000
41.31673 301.000
41.33668 337.000
41.35662 299.000
41.37657 284.000
41.39652 305.000
41.41646 290.000
41.43641 309.000
41.45636 263.000
41.47631 313.000
41.49625 314.000
41.51620 351.000
41.53615 303.000
41.55609 308.000
41.57604 286.000
41.59599 299.000
41.61593 299.000
41.63588 289.000
41.65583 287.000
41.67578 265.000
41.69572 274.000
41.71567 275.000
41.73562 289.000
41.75556 285.000
41.77551 275.000
41.79546 325.000
41.81540 280.000
41.83535 296.000
41.85530 278.000
41.87524 308.000
41.89519 283.000
41.91514 293.000
41.93509 318.000
41.95503 313.000
41.97498 307.000
41.99493 308.000
42.01487 299.000
42.03482 300.000
42.05477 288.000
42.07471 266.000
42.09466 336.000
42.11461 336.000
42.13456 273.000
42.15450 320.000
42.17445 297.000
42.19440 283.000
42.21434 285.000
42.23429 295.000
42.25424 302.000
42.27418 295.000
42.29413 333.000
42.31408 346.000
42.33403 306.000
42.35397 328.000
42.37392 317.000
42.39387 352.000
42.41381 347.000
42.43376 370.000
42.45371 381.000
42.47365 363.000
42.49360 351.000
42.51355 376.000
42.53349 405.000
42.55344 381.000
42.57339 374.000
42.59334 398.000
42.61328 437.000
42.63323 453.000
42.65318 436.000
42.67312 438.000
42.69307 462.000
42.71302 430.000
42.73296 460.000
42.75291 451.000
42.77286 461.000
42.79281 439.000
42.81275 485.000
42.83270 518.000
42.85265 513.000
42.87259 599.000
42.89254 553.000
42.91249 618.000
42.93243 702.000
42.95238 767.000
42.97233 851.000
42.99227 1015.000
43.01222 1143.000
43.03217 1349.000
43.05212 1557.000
43.07206 1886.000
43.09201 2369.000
43.11196 3064.000
43.13190 3898.000
43.15185 4762.000
43.17180 5766.000
43.19174 6271.000
43.21169 6249.000
43.23164 5528.000
43.25159 4553.000
43.27153 4079.000
43.29148 3988.000
43.31143 3709.000
43.33137 3230.000
43.35132 2503.000
43.37127 1880.000
43.39121 1380.000
43.41116 1129.000
43.43111 888.000
43.45105 823.000
43.47100 780.000
43.49095 721.000
43.51090 600.000
43.53084 586.000
43.55079 579.000
43.57074 513.000
43.59068 503.000
43.61063 452.000
43.63058 415.000
43.65052 415.000
43.67047 378.000
43.69042 362.000
43.71037 373.000
43.73031 370.000
43.75026 355.000
43.77021 323.000
43.79015 327.000
43.81010 350.000
43.83005 337.000
43.84999 322.000
43.86994 283.000
43.88989 317.000
43.90984 326.000
43.92978 326.000
43.94973 295.000
43.96968 313.000
43.98962 300.000
44.00957 299.000
44.02952 302.000
44.04946 314.000
44.06941 286.000
44.08936 275.000
44.10930 309.000
44.12925 290.000
44.14920 291.000
44.16915 312.000
44.18909 300.000
44.20904 270.000
44.22899 276.000
44.24893 300.000
44.26888 294.000
44.28883 293.000
44.30877 316.000
44.32872 298.000
44.34867 300.000
44.36862 279.000
44.38856 288.000
44.40851 275.000
44.42846 306.000
44.44840 288.000
44.46835 268.000
44.48830 298.000
44.50824 304.000
44.52819 283.000
44.54814 299.000
44.56808 279.000
44.58803 286.000
44.60798 292.000
44.62793 298.000
44.64787 308.000
44.66782 298.000
44.68777 307.000
44.70771 269.000
44.72766 280.000
44.74761 304.000
44.76755 272.000
44.78750 265.000
44.80745 295.000
44.82740 299.000
44.84734 276.000
44.86729 339.000
44.88724 278.000
44.90718 286.000
44.92713 288.000
44.94708 315.000
44.96702 269.000
44.98697 303.000
45.00692 294.000
45.02686 281.000
45.04681 310.000
45.06676 303.000
45.08671 344.000
45.10665 371.000
45.12660 357.000
45.14655 313.000
45.16649 353.000
45.18644 333.000
45.20639 331.000
45.22633 335.000
45.24628 313.000
45.26623 329.000
45.28618 348.000
45.30612 299.000
45.32607 321.000
45.34602 297.000
45.36596 293.000
45.38591 291.000
45.40586 308.000
45.42580 311.000
45.44575 300.000
45.46570 273.000
45.48565 284.000
45.50559 259.000
45.52554 272.000
45.54549 281.000
45.56543 270.000
45.58538 278.000
45.60533 264.000
45.62527 271.000
45.64522 276.000
45.66517 262.000
45.68511 301.000
45.70506 274.000
45.72501 265.000
45.74496 287.000
45.76490 275.000
45.78485 255.000
45.80480 271.000
45.82474 273.000
45.84469 236.000
45.86464 257.000
45.88458 277.000
45.90453 252.000
45.92448 285.000
45.94443 263.000
45.96437 253.000
45.98432 240.000
46.00427 259.000
46.02421 255.000
46.04416 244.000
46.06411 262.000
46.08405 290.000
46.10400 246.000
46.12395 262.000
46.14389 259.000
46.16384 259.000
46.18379 253.000
46.20374 245.000
46.22368 260.000
46.24363 224.000
46.26358 255.000
46.28352 227.000
46.30347 267.000
46.32342 255.000
46.34336 259.000
46.36331 247.000
46.38326 273.000
46.40321 252.000
46.42315 265.000
46.44310 268.000
46.46305 269.000
46.48299 266.000
46.50294 243.000
46.52289 272.000
46.54283 273.000
46.56278 235.000
46.58273 257.000
46.60267 240.000
46.62262 262.000
46.64257 239.000
46.66252 255.000
46.68246 265.000
46.70241 247.000
46.72236 225.000
46.74230 264.000
46.76225 245.000
46.78220 261.000
46.80214 263.000
46.82209 286.000
46.84204 272.000
46.86199 273.000
46.88193 278.000
46.90188 243.000
46.92183 273.000
46.94177 242.000
46.96172 278.000
46.98167 276.000
47.00161 263.000
47.02156 285.000
47.04151 237.000
47.06146 265.000
47.08140 270.000
47.10135 289.000
47.12130 241.000
47.14124 265.000
47.16119 231.000
47.18114 256.000
47.20108 254.000
47.22103 249.000
47.24098 268.000
47.26092 256.000
47.28087 271.000
47.30082 263.000
47.32077 314.000
47.34071 234.000
47.36066 269.000
47.38061 248.000
47.40055 262.000
47.42050 275.000
47.44045 251.000
47.46039 262.000
47.48034 261.000
47.50029 274.000
47.52024 247.000
47.54018 266.000
47.56013 284.000
47.58008 268.000
47.60002 242.000
47.61997 282.000
47.63992 270.000
47.65986 295.000
47.67981 269.000
47.69976 239.000
47.71970 267.000
47.73965 230.000
47.75960 252.000
47.77955 238.000
47.79949 278.000
47.81944 276.000
47.83939 288.000
47.85933 288.000
47.87928 282.000
47.89923 303.000
47.91917 286.000
47.93912 272.000
47.95907 260.000
47.97902 299.000
47.99896 302.000
48.01891 301.000
48.03886 307.000
48.05880 304.000
48.07875 291.000
48.09870 266.000
48.11864 301.000
48.13859 289.000
48.15854 283.000
48.17848 275.000
48.19843 280.000
48.21838 292.000
48.23833 285.000
48.25827 285.000
48.27822 263.000
48.29817 289.000
48.31811 291.000
48.33806 270.000
48.35801 280.000
48.37795 257.000
48.39790 290.000
48.41785 268.000
48.43780 295.000
48.45774 273.000
48.47769 272.000
48.49764 314.000
48.51758 330.000
48.53753 269.000
48.55748 324.000
48.57742 322.000
48.59737 307.000
48.61732 300.000
48.63726 369.000
48.65721 391.000
48.67716 397.000
48.69711 426.000
48.71705 399.000
48.73700 488.000
48.75695 547.000
48.77689 599.000
48.79684 615.000
48.81679 534.000
48.83673 530.000
48.85668 504.000
48.87663 462.000
48.89658 439.000
48.91652 455.000
48.93647 448.000
48.95642 413.000
48.97636 348.000
48.99631 340.000
49.01626 333.000
49.03620 282.000
49.05615 309.000
49.07610 286.000
49.09605 303.000
49.11599 275.000
49.13594 281.000
49.15589 266.000
49.17583 262.000
49.19578 275.000
49.21573 276.000
49.23567 261.000
49.25562 257.000
49.27557 281.000
49.29551 273.000
49.31546 279.000
49.33541 252.000
49.35536 304.000
49.37530 267.000
49.39525 259.000
49.41520 269.000
49.43514 262.000
49.45509 281.000
49.47504 292.000
49.49498 272.000
49.51493 273.000
49.53488 277.000
49.55483 279.000
49.57477 274.000
49.59472 271.000
49.61467 291.000
49.63461 277.000
49.65456 254.000
49.67451 291.000
49.69445 296.000
49.71440 261.000
49.73435 282.000
49.75429 275.000
49.77424 280.000
49.79419 273.000
49.81414 308.000
49.83408 310.000
49.85403 267.000
49.87398 293.000
49.89392 276.000
49.91387 308.000
49.93382 296.000
49.95376 276.000
49.97371 259.000
49.99366 285.000
50.01361 281.000
50.03355 271.000
50.05350 277.000
50.07345 258.000
50.09339 282.000
50.11334 271.000
50.13329 267.000
50.15323 262.000
50.17318 273.000
50.19313 242.000
50.21307 271.000
50.23302 256.000
50.25297 231.000
50.27292 287.000
50.29286 300.000
50.31281 253.000
50.33276 280.000
50.35270 267.000
50.37265 295.000
50.39260 272.000
50.41254 266.000
50.43249 264.000
50.45244 254.000
50.47239 243.000
50.49233 249.000
50.51228 267.000
50.53223 264.000
50.55217 276.000
50.57212 253.000
50.59207 250.000
50.61201 236.000
50.63196 262.000
50.65191 236.000
50.67186 255.000
50.69180 258.000
50.71175 246.000
50.73170 243.000
50.75164 234.000
50.77159 242.000
50.79154 260.000
50.81148 251.000
50.83143 235.000
50.85138 242.000
50.87132 245.000
50.89127 257.000
50.91122 265.000
50.93117 264.000
50.95111 237.000
50.97106 230.000
50.99101 264.000
51.01095 236.000
51.03090 237.000
51.05085 282.000
51.07079 238.000
51.09074 255.000
51.11069 266.000
51.13064 256.000
51.15058 280.000
51.17053 285.000
51.19048 262.000
51.21042 278.000
51.23037 241.000
51.25032 272.000
51.27026 265.000
51.29021 255.000
51.31016 258.000
51.33010 232.000
51.35005 293.000
51.37000 256.000
51.38995 259.000
51.40989 232.000
51.42984 251.000
51.44979 239.000
51.46973 251.000
51.48968 248.000
51.50963 259.000
51.52957 270.000
51.54952 238.000
51.56947 265.000
51.58942 238.000
51.60936 226.000
51.62931 261.000
51.64926 232.000
51.66920 251.000
51.68915 242.000
51.70910 238.000
51.72904 271.000
51.74899 271.000
51.76894 221.000
51.78888 261.000
51.80883 254.000
51.82878 301.000
51.84873 250.000
51.86867 257.000
51.88862 267.000
51.90857 275.000
51.92851 250.000
51.94846 250.000
51.96841 228.000
51.98835 275.000
52.00830 275.000
52.02825 249.000
52.04820 262.000
52.06814 282.000
52.08809 272.000
52.10804 306.000
52.12798 300.000
52.14793 273.000
52.16788 270.000
52.18782 279.000
52.20777 252.000
52.22772 257.000
52.24767 261.000
52.26761 251.000
52.28756 273.000
52.30751 254.000
52.32745 271.000
52.34740 263.000
52.36735 285.000
52.38729 263.000
52.40724 262.000
52.42719 282.000
52.44713 251.000
52.46708 241.000
52.48703 255.000
52.50698 252.000
52.52692 268.000
52.54687 269.000
52.56682 299.000
52.58676 266.000
52.60671 276.000
52.62666 271.000
52.64660 230.000
52.66655 261.000
52.68650 251.000
52.70645 266.000
52.72639 279.000
52.74634 261.000
52.76629 264.000
52.78623 269.000
52.80618 264.000
52.82613 269.000
52.84607 273.000
52.86602 247.000
52.88597 280.000
52.90591 271.000
52.92586 273.000
52.94581 254.000
52.96576 236.000
52.98570 268.000
53.00565 262.000
53.02560 269.000
53.04554 283.000
53.06549 242.000
53.08544 261.000
53.10538 227.000
53.12533 279.000
53.14528 252.000
53.16523 261.000
53.18517 258.000
53.20512 263.000
53.22507 233.000
53.24501 253.000
53.26496 260.000
53.28491 262.000
53.30485 281.000
53.32480 246.000
53.34475 242.000
53.36469 253.000
53.38464 262.000
53.40459 232.000
53.42454 273.000
53.44448 266.000
53.46443 274.000
53.48438 258.000
53.50432 274.000
53.52427 267.000
53.54422 272.000
53.56416 248.000
53.58411 260.000
53.60406 290.000
53.62401 288.000
53.64395 248.000
53.66390 297.000
53.68385 265.000
53.70379 289.000
53.72374 314.000
53.74369 301.000
53.76363 340.000
53.78358 344.000
53.80353 293.000
53.82348 292.000
53.84342 289.000
53.86337 270.000
53.88332 294.000
53.90326 326.000
53.92321 285.000
53.94316 304.000
53.96310 304.000
53.98305 251.000
54.00300 264.000
54.02294 290.000
54.04289 275.000
54.06284 268.000
54.08279 232.000
54.10273 240.000
54.12268 250.000
54.14263 272.000
54.16257 245.000
54.18252 255.000
54.20247 253.000
54.22241 280.000
54.24236 297.000
54.26231 241.000
54.28226 236.000
54.30220 286.000
54.32215 238.000
54.34210 255.000
54.36204 267.000
54.38199 251.000
54.40194 256.000
54.42188 244.000
54.44183 238.000
54.46178 273.000
54.48172 247.000
54.50167 256.000
54.52162 252.000
54.54157 256.000
54.56151 276.000
54.58146 260.000
54.60141 273.000
54.62135 269.000
54.64130 277.000
54.66125 278.000
54.68119 274.000
54.70114 259.000
54.72109 253.000
54.74104 281.000
54.76098 285.000
54.78093 245.000
54.80088 281.000
54.82082 264.000
54.84077 219.000
54.86072 287.000
54.88066 212.000
54.90061 274.000
54.92056 232.000
54.94050 281.000
54.96045 272.000
54.98040 258.000
55.00035 251.000
55.02029 224.000
55.04024 267.000
55.06019 241.000
55.08013 263.000
55.10008 276.000
55.12003 257.000
55.13997 245.000
55.15992 244.000
55.17987 230.000
55.19982 281.000
55.21976 257.000
55.23971 270.000
55.25966 260.000
55.27960 266.000
55.29955 227.000
55.31950 240.000
55.33944 250.000
55.35939 262.000
55.37934 251.000
55.39929 266.000
55.41923 250.000
55.43918 240.000
55.45913 227.000
55.47907 270.000
55.49902 250.000
55.51897 253.000
55.53891 247.000
55.55886 262.000
55.57881 246.000
55.59875 219.000
55.61870 233.000
55.63865 240.000
55.65860 272.000
55.67854 274.000
55.69849 248.000
55.71844 255.000
55.73838 259.000
55.75833 243.000
55.77828 259.000
55.79822 267.000
55.81817 245.000
55.83812 219.000
55.85807 245.000
55.87801 273.000
55.89796 252.000
55.91791 242.000
55.93785 247.000
55.95780 279.000
55.97775 259.000
55.99769 238.000
56.01764 263.000
56.03759 261.000
56.05753 255.000
56.07748 265.000
56.09743 261.000
56.11738 269.000
56.13732 252.000
56.15727 222.000
56.17722 276.000
56.19716 247.000
56.21711 271.000
56.23706 264.000
56.25700 243.000
56.27695 267.000
56.29690 241.000
56.31685 263.000
56.33679 274.000
56.35674 268.000
56.37669 323.000
56.39663 252.000
56.41658 264.000
56.43653 260.000
56.45647 271.000
56.47642 281.000
56.49637 272.000
56.51631 239.000
56.53626 260.000
56.55621 268.000
56.57616 242.000
56.59610 258.000
56.61605 247.000
56.63600 273.000
56.65594 268.000
56.67589 276.000
56.69584 267.000
56.71578 275.000
56.73573 215.000
56.75568 233.000
56.77563 262.000
56.79557 263.000
56.81552 276.000
56.83547 281.000
56.85541 267.000
56.87536 231.000
56.89531 260.000
56.91525 268.000
56.93520 300.000
56.95515 277.000
56.97510 274.000
56.99504 280.000
57.01499 263.000
57.03494 288.000
57.05488 293.000
57.07483 292.000
57.09478 254.000
57.11472 292.000
57.13467 297.000
57.15462 288.000
57.17456 306.000
57.19451 307.000
57.21446 347.000
57.23441 349.000
57.25435 341.000
57.27430 406.000
57.29425 409.000
57.31419 402.000
57.33414 445.000
57.35409 452.000
57.37403 442.000
57.39398 390.000
57.41393 416.000
57.43388 355.000
57.45382 447.000
57.47377 370.000
57.49372 376.000
57.51366 364.000
57.53361 358.000
57.55356 368.000
57.57350 323.000
57.59345 290.000
57.61340 270.000
57.63334 286.000
57.65329 291.000
57.67324 275.000
57.69319 278.000
57.71313 271.000
57.73308 278.000
57.75303 277.000
57.77297 263.000
57.79292 297.000
57.81287 268.000
57.83281 225.000
57.85276 242.000
57.87271 264.000
57.89266 260.000
57.91260 266.000
57.93255 253.000
57.95250 257.000
57.97244 284.000
57.99239 244.000
58.01234 259.000
58.03228 266.000
58.05223 238.000
58.07218 244.000
58.09212 250.000
58.11207 236.000
58.13202 253.000
58.15197 253.000
58.17191 249.000
58.19186 271.000
58.21181 253.000
58.23175 263.000
58.25170 240.000
58.27165 264.000
58.29159 259.000
58.31154 241.000
58.33149 251.000
58.35144 258.000
58.37138 286.000
58.39133 217.000
58.41128 247.000
58.43122 230.000
58.45117 272.000
58.47112 243.000
58.49106 264.000
58.51101 246.000
58.53096 247.000
58.55090 267.000
58.57085 244.000
58.59080 263.000
58.61075 265.000
58.63069 274.000
58.65064 217.000
58.67059 217.000
58.69053 239.000
58.71048 245.000
58.73043 259.000
58.75037 265.000
58.77032 241.000
58.79027 275.000
58.81022 233.000
58.83016 283.000
58.85011 248.000
58.87006 263.000
58.89000 262.000
58.90995 280.000
58.92990 240.000
58.94984 242.000
58.96979 249.000
58.98974 255.000
59.00969 229.000
59.02963 250.000
59.04958 236.000
59.06953 259.000
59.08947 255.000
59.10942 250.000
59.12937 251.000
59.14931 272.000
59.16926 240.000
59.18921 224.000
59.20915 248.000
59.22910 210.000
59.24905 252.000
59.26900 242.000
59.28894 245.000
59.30889 248.000
59.32884 259.000
59.34878 248.000
59.36873 233.000
59.38868 230.000
59.40862 286.000
59.42857 257.000
59.44852 237.000
59.46847 265.000
59.48841 251.000
59.50836 260.000
59.52831 240.000
59.54825 261.000
59.56820 283.000
59.58815 250.000
59.60809 258.000
59.62804 277.000
59.64799 247.000
59.66793 288.000
59.68788 249.000
59.70783 264.000
59.72778 274.000
59.74772 282.000
59.76767 242.000
59.78762 258.000
59.80756 259.000
59.82751 252.000
59.84746 257.000
59.86740 300.000
59.88735 272.000
59.90730 260.000
59.92725 260.000
59.94719 252.000
59.96714 271.000
59.98709 259.000
60.00703 270.000
60.02698 265.000
60.04693 245.000
60.06687 273.000
60.08682 277.000
60.10677 264.000
60.12671 248.000
60.14666 237.000
60.16661 293.000
60.18656 250.000
60.20650 255.000
60.22645 272.000
60.24640 258.000
60.26634 252.000
60.28629 244.000
60.30624 272.000
60.32618 258.000
60.34613 264.000
60.36608 283.000
60.38603 273.000
60.40597 259.000
60.42592 250.000
60.44587 257.000
60.46581 263.000
60.48576 267.000
60.50571 276.000
60.52565 288.000
60.54560 268.000
60.56555 286.000
60.58550 263.000
60.60544 251.000
60.62539 268.000
60.64534 251.000
60.66528 261.000
60.68523 274.000
60.70518 271.000
60.72512 285.000
60.74507 256.000
60.76502 279.000
60.78496 264.000
60.80491 264.000
60.82486 307.000
60.84481 257.000
60.86475 267.000
60.88470 256.000
60.90465 262.000
60.92459 267.000
60.94454 254.000
60.96449 272.000
60.98443 284.000
61.00438 271.000
61.02433 255.000
61.04428 272.000
61.06422 300.000
61.08417 259.000
61.10412 288.000
61.12406 244.000
61.14401 259.000
61.16396 241.000
61.18390 272.000
61.20385 273.000
61.22380 266.000
61.24374 260.000
61.26369 260.000
61.28364 264.000
61.30359 235.000
61.32353 262.000
61.34348 285.000
61.36343 255.000
61.38337 280.000
61.40332 278.000
61.42327 263.000
61.44321 268.000
61.46316 246.000
61.48311 293.000
61.50306 264.000
61.52300 295.000
61.54295 274.000
61.56290 317.000
61.58284 280.000
61.60279 282.000
61.62274 263.000
61.64268 256.000
61.66263 269.000
61.68258 273.000
61.70252 282.000
61.72247 335.000
61.74242 279.000
61.76237 301.000
61.78231 301.000
61.80226 320.000
61.82221 308.000
61.84215 351.000
61.86210 312.000
61.88205 369.000
61.90199 348.000
61.92194 366.000
61.94189 353.000
61.96184 391.000
61.98178 443.000
62.00173 447.000
62.02168 460.000
62.04162 519.000
62.06157 517.000
62.08152 517.000
62.10146 481.000
62.12141 475.000
62.14136 482.000
62.16131 481.000
62.18125 470.000
62.20120 469.000
62.22115 495.000
62.24109 515.000
62.26104 486.000
62.28099 500.000
62.30093 506.000
62.32088 496.000
62.34083 444.000
62.36077 484.000
62.38072 479.000
62.40067 474.000
62.42062 517.000
62.44056 541.000
62.46051 552.000
62.48046 557.000
62.50040 618.000
62.52035 659.000
62.54030 778.000
62.56024 854.000
62.58019 931.000
62.60014 1111.000
62.62009 1322.000
62.64003 1542.000
62.65998 1827.000
62.67993 2032.000
62.69987 2323.000
62.71982 2489.000
62.73977 2633.000
62.75971 2578.000
62.77966 2410.000
62.79961 2148.000
62.81955 1952.000
62.83950 1840.000
62.85945 1739.000
62.87940 1781.000
62.89934 1748.000
62.91929 1666.000
62.93924 1520.000
62.95918 1382.000
62.97913 1277.000
62.99908 1068.000
63.01902 939.000
63.03897 751.000
63.05892 738.000
63.07887 591.000
63.09881 524.000
63.11876 514.000
63.13871 498.000
63.15865 479.000
63.17860 477.000
63.19855 406.000
63.21849 379.000
63.23844 385.000
63.25839 336.000
63.27833 362.000
63.29828 337.000
63.31823 308.000
63.33818 317.000
63.35812 291.000
63.37807 298.000
63.39802 312.000
63.41796 297.000
63.43791 292.000
63.45786 262.000
63.47780 268.000
63.49775 319.000
63.51770 303.000
63.53765 306.000
63.55759 282.000
63.57754 272.000
63.59749 270.000
63.61743 289.000
63.63738 251.000
63.65733 290.000
63.67727 259.000
63.69722 287.000
63.71717 284.000
63.73712 258.000
63.75706 242.000
63.77701 264.000
63.79696 254.000
63.81690 251.000
63.83685 273.000
63.85680 270.000
63.87674 296.000
63.89669 273.000
63.91664 289.000
63.93658 262.000
63.95653 274.000
63.97648 271.000
63.99643 275.000
64.01637 268.000
64.03632 298.000
64.05627 281.000
64.07621 265.000
64.09616 273.000
64.11611 318.000
64.13605 319.000
64.15600 321.000
64.17595 293.000
64.19590 330.000
64.21584 301.000
64.23579 307.000
64.25574 331.000
64.27568 350.000
64.29563 350.000
64.31558 354.000
64.33552 320.000
64.35547 333.000
64.37542 374.000
64.39536 361.000
64.41531 340.000
64.43526 337.000
64.45521 370.000
64.47515 317.000
64.49510 341.000
64.51505 317.000
64.53499 316.000
64.55494 301.000
64.57489 310.000
64.59483 307.000
64.61478 315.000
64.63473 307.000
64.65468 285.000
64.67462 295.000
64.69457 280.000
64.71452 269.000
64.73446 278.000
64.75441 278.000
64.77436 283.000
64.79430 269.000
64.81425 268.000
64.83420 295.000
64.85414 248.000
64.87409 258.000
64.89404 269.000
64.91399 271.000
64.93393 252.000
64.95388 276.000
64.97383 273.000
64.99377 256.000
65.01372 279.000
65.03367 289.000
65.05361 265.000
65.07356 270.000
65.09351 267.000
65.11346 262.000
65.13340 263.000
65.15335 241.000
65.17330 276.000
65.19324 255.000
65.21319 233.000
65.23314 252.000
65.25308 270.000
65.27303 257.000
65.29298 289.000
65.31293 268.000
65.33287 289.000
65.35282 261.000
65.37277 289.000
65.39271 261.000
65.41266 265.000
65.43261 272.000
65.45255 268.000
65.47250 287.000
65.49245 262.000
65.51239 270.000
65.53234 250.000
65.55229 273.000
65.57224 274.000
65.59218 299.000
65.61213 262.000
65.63208 264.000
65.65202 274.000
65.67197 290.000
65.69192 275.000
65.71186 283.000
65.73181 266.000
65.75176 270.000
65.77171 262.000
65.79165 258.000
65.81160 283.000
65.83155 241.000
65.85149 306.000
65.87144 241.000
65.89139 289.000
65.91133 287.000
65.93128 286.000
65.95123 274.000
65.97117 253.000
65.99112 277.000
66.01107 271.000
66.03102 283.000
66.05096 278.000
66.07091 256.000
66.09086 256.000
66.11080 269.000
66.13075 264.000
66.15070 262.000
66.17064 267.000
66.19059 261.000
66.21054 249.000
66.23049 278.000
66.25043 291.000
66.27038 253.000
66.29033 292.000
66.31027 280.000
66.33022 305.000
66.35017 250.000
66.37011 287.000
66.39006 255.000
66.41001 280.000
66.42995 271.000
66.44990 310.000
66.46985 278.000
66.48980 290.000
66.50974 281.000
66.52969 258.000
66.54964 293.000
66.56958 274.000
66.58953 294.000
66.60948 287.000
66.62942 286.000
66.64937 310.000
66.66932 269.000
66.68927 303.000
66.70921 324.000
66.72916 326.000
66.74911 312.000
66.76905 329.000
66.78900 314.000
66.80895 340.000
66.82889 340.000
66.84884 308.000
66.86879 307.000
66.88874 313.000
66.90868 319.000
66.92863 285.000
66.94858 307.000
66.96852 311.000
66.98847 313.000
67.00842 302.000
67.02836 321.000
67.04831 311.000
67.06826 282.000
67.08820 297.000
67.10815 256.000
67.12810 324.000
67.14805 272.000
67.16799 294.000
67.18794 271.000
67.20789 273.000
67.22783 232.000
67.24778 243.000
67.26773 246.000
67.28767 280.000
67.30762 250.000
67.32757 277.000
67.34752 256.000
67.36746 289.000
67.38741 243.000
67.40736 282.000
67.42730 233.000
67.44725 272.000
67.46720 268.000
67.48714 262.000
67.50709 220.000
67.52704 260.000
67.54698 246.000
67.56693 280.000
67.58688 235.000
67.60683 246.000
67.62677 245.000
67.64672 256.000
67.66667 235.000
67.68661 261.000
67.70656 273.000
67.72651 248.000
67.74645 271.000
67.76640 241.000
67.78635 230.000
67.80630 240.000
67.82624 244.000
67.84619 255.000
67.86614 233.000
67.88608 242.000
67.90603 241.000
67.92598 228.000
67.94592 253.000
67.96587 251.000
67.98582 251.000
68.00576 234.000
68.02571 250.000
68.04566 261.000
68.06561 234.000
68.08555 243.000
68.10550 264.000
68.12545 253.000
68.14539 212.000
68.16534 244.000
68.18529 225.000
68.20523 219.000
68.22518 260.000
68.24513 250.000
68.26508 217.000
68.28502 248.000
68.30497 226.000
68.32492 256.000
68.34486 237.000
68.36481 261.000
68.38476 248.000
68.40470 233.000
68.42465 281.000
68.44460 254.000
68.46455 241.000
68.48449 239.000
68.50444 277.000
68.52439 226.000
68.54433 250.000
68.56428 254.000
68.58423 241.000
68.60417 242.000
68.62412 239.000
68.64407 225.000
68.66401 236.000
68.68396 230.000
68.70391 238.000
68.72386 243.000
68.74380 229.000
68.76375 244.000
68.78370 262.000
68.80364 270.000
68.82359 261.000
68.84354 247.000
68.86348 256.000
68.88343 271.000
68.90338 254.000
68.92333 221.000
68.94327 273.000
68.96322 242.000
68.98317 223.000
69.00311 243.000
69.02306 252.000
69.04301 238.000
69.06295 249.000
69.08290 244.000
69.10285 218.000
69.12279 257.000
69.14274 225.000
69.16269 232.000
69.18264 242.000
69.20258 251.000
69.22253 241.000
69.24248 252.000
69.26242 235.000
69.28237 240.000
69.30232 241.000
69.32226 219.000
69.34221 245.000
69.36216 219.000
69.38211 226.000
69.40205 218.000
69.42200 243.000
69.44195 224.000
69.46189 255.000
69.48184 235.000
69.50179 223.000
69.52173 245.000
69.54168 221.000
69.56163 264.000
69.58157 239.000
69.60152 260.000
69.62147 277.000
69.64142 241.000
69.66136 270.000
69.68131 231.000
69.70126 259.000
69.72120 243.000
69.74115 235.000
69.76110 247.000
69.78104 254.000
69.80099 270.000
69.82094 238.000
69.84089 218.000
69.86083 213.000
69.88078 245.000
69.90073 223.000
69.92067 248.000
69.94062 227.000
69.96057 241.000
69.98051 205.000
70.00046 222.000
70.02041 245.000
70.04035 262.000
70.06030 239.000
70.08025 236.000
70.10020 228.000
70.12014 217.000
70.14009 243.000
70.16004 245.000
70.17998 238.000
70.19993 255.000
70.21988 260.000
70.23982 217.000
70.25977 224.000
70.27972 236.000
70.29967 237.000
70.31961 251.000
70.33956 218.000
70.35951 253.000
70.37945 243.000
70.39940 240.000
70.41935 227.000
70.43929 215.000
70.45924 241.000
70.47919 234.000
70.49914 224.000
70.51908 248.000
70.53903 234.000
70.55898 236.000
70.57892 237.000
70.59887 249.000
70.61882 245.000
70.63876 268.000
70.65871 238.000
70.67866 256.000
70.69860 251.000
70.71855 241.000
70.73850 269.000
70.75845 255.000
70.77839 243.000
70.79834 234.000
70.81829 218.000
70.83823 227.000
70.85818 233.000
70.87813 233.000
70.89807 222.000
70.91802 223.000
70.93797 265.000
70.95792 237.000
70.97786 259.000
70.99781 231.000
71.01776 224.000
71.03770 230.000
71.05765 254.000
71.07760 244.000
71.09754 233.000
71.11749 251.000
71.13744 238.000
71.15738 228.000
71.17733 231.000
71.19728 209.000
71.21723 260.000
71.23717 258.000
71.25712 240.000
71.27707 265.000
71.29701 228.000
71.31696 247.000
71.33691 255.000
71.35685 239.000
71.37680 260.000
71.39675 251.000
71.41670 245.000
71.43664 248.000
71.45659 253.000
71.47654 265.000
71.49648 239.000
71.51643 246.000
71.53638 259.000
71.55632 234.000
71.57627 270.000
71.59622 237.000
71.61616 256.000
71.63611 234.000
71.65606 252.000
71.67601 247.000
71.69595 237.000
71.71590 229.000
71.73585 277.000
71.75579 219.000
71.77574 232.000
71.79569 256.000
71.81563 250.000
71.83558 224.000
71.85553 257.000
71.87548 236.000
71.89542 257.000
71.91537 257.000
71.93532 242.000
71.95526 254.000
71.97521 243.000
71.99516 259.000
72.01510 222.000
72.03505 245.000
72.05500 227.000
72.07495 236.000
72.09489 262.000
72.11484 261.000
72.13479 207.000
72.15473 256.000
72.17468 239.000
72.19463 269.000
72.21457 234.000
72.23452 226.000
72.25447 234.000
72.27441 236.000
72.29436 242.000
72.31431 236.000
72.33426 224.000
72.35420 263.000
72.37415 245.000
72.39410 285.000
72.41404 262.000
72.43399 246.000
72.45394 222.000
72.47388 241.000
72.49383 254.000
72.51378 251.000
72.53373 220.000
72.55367 246.000
72.57362 240.000
72.59357 233.000
72.61351 243.000
72.63346 230.000
72.65341 219.000
72.67335 227.000
72.69330 224.000
72.71325 245.000
72.73319 231.000
72.75314 240.000
72.77309 257.000
72.79304 271.000
72.81298 256.000
72.83293 260.000
72.85288 228.000
72.87282 256.000
72.89277 229.000
72.91272 229.000
72.93266 239.000
72.95261 246.000
72.97256 264.000
72.99251 263.000
73.01245 261.000
73.03240 265.000
73.05235 250.000
73.07229 255.000
73.09224 286.000
73.11219 253.000
73.13213 238.000
73.15208 204.000
73.17203 258.000
73.19197 248.000
73.21192 258.000
73.23187 251.000
73.25182 257.000
73.27176 255.000
73.29171 260.000
73.31166 257.000
73.33160 253.000
73.35155 260.000
73.37150 269.000
73.39144 280.000
73.41139 258.000
73.43134 271.000
73.45129 264.000
73.47123 252.000
73.49118 264.000
73.51113 285.000
73.53107 247.000
73.55102 267.000
73.57097 254.000
73.59091 285.000
73.61086 245.000
73.63081 306.000
73.65076 301.000
73.67070 261.000
73.69065 265.000
73.71060 301.000
73.73054 264.000
73.75049 293.000
73.77044 266.000
73.79038 280.000
73.81033 258.000
73.83028 227.000
73.85022 274.000
73.87017 301.000
73.89012 256.000
73.91007 283.000
73.93001 265.000
73.94996 246.000
73.96991 277.000
73.98985 237.000
74.00980 262.000
74.02975 248.000
74.04969 251.000
74.06964 256.000
74.08959 274.000
74.10954 247.000
74.12948 251.000
74.14943 219.000
74.16938 277.000
74.18932 267.000
74.20927 235.000
74.22922 294.000
74.24916 231.000
74.26911 269.000
74.28906 261.000
74.30900 262.000
74.32895 290.000
74.34890 276.000
74.36885 286.000
74.38879 280.000
74.40874 271.000
74.42869 241.000
74.44863 297.000
74.46858 285.000
74.48853 300.000
74.50847 287.000
74.52842 304.000
74.54837 305.000
74.56832 316.000
74.58826 288.000
74.60821 321.000
74.62816 286.000
74.64810 315.000
74.66805 335.000
74.68800 290.000
74.70794 302.000
74.72789 314.000
74.74784 312.000
74.76778 320.000
74.78773 310.000
74.80768 342.000
74.82763 310.000
74.84757 325.000
74.86752 323.000
74.88747 342.000
74.90741 349.000
74.92736 315.000
74.94731 347.000
74.96725 365.000
74.98720 396.000
75.00715 402.000
75.02710 432.000
75.04704 459.000
75.06699 486.000
75.08694 561.000
75.10688 539.000
75.12683 640.000
75.14678 701.000
75.16672 838.000
75.18667 816.000
75.20662 899.000
75.22657 886.000
75.24651 994.000
75.26646 911.000
75.28641 917.000
75.30635 751.000
75.32630 859.000
75.34625 743.000
75.36619 703.000
75.38614 644.000
75.40609 649.000
75.42603 672.000
75.44598 681.000
75.46593 657.000
75.48588 591.000
75.50582 572.000
75.52577 561.000
75.54572 474.000
75.56566 437.000
75.58561 402.000
75.60556 377.000
75.62550 348.000
75.64545 330.000
75.66540 322.000
75.68535 299.000
75.70529 279.000
75.72524 296.000
75.74519 328.000
75.76513 268.000
75.78508 241.000
75.80503 283.000
75.82497 268.000
75.84492 282.000
75.86487 286.000
75.88481 268.000
75.90476 266.000
75.92471 239.000
75.94466 266.000
75.96460 253.000
75.98455 237.000
76.00450 271.000
76.02444 241.000
76.04439 268.000
76.06434 274.000
76.08428 272.000
76.10423 259.000
76.12418 273.000
76.14413 253.000
76.16407 257.000
76.18402 268.000
76.20397 280.000
76.22391 250.000
76.24386 268.000
76.26381 255.000
76.28375 233.000
76.30370 245.000
76.32365 250.000
76.34359 255.000
76.36354 246.000
76.38349 241.000
76.40344 248.000
76.42338 283.000
76.44333 228.000
76.46328 244.000
76.48322 240.000
76.50317 241.000
76.52312 255.000
76.54306 257.000
76.56301 260.000
76.58296 246.000
76.60291 245.000
76.62285 235.000
76.64280 252.000
76.66275 231.000
76.68269 240.000
76.70264 241.000
76.72259 239.000
76.74253 266.000
76.76248 278.000
76.78243 250.000
76.80238 252.000
76.82232 262.000
76.84227 268.000
76.86222 259.000
76.88216 251.000
76.90211 251.000
76.92206 216.000
76.94200 238.000
76.96195 245.000
76.98190 264.000
77.00184 239.000
77.02179 250.000
77.04174 263.000
77.06169 237.000
77.08163 261.000
77.10158 224.000
77.12153 216.000
77.14147 270.000
77.16142 259.000
77.18137 234.000
77.20131 234.000
77.22126 234.000
77.24121 226.000
77.26116 242.000
77.28110 252.000
77.30105 253.000
77.32100 234.000
77.34094 247.000
77.36089 270.000
77.38084 239.000
77.40078 263.000
77.42073 236.000
77.44068 236.000
77.46062 247.000
77.48057 253.000
77.50052 254.000
77.52047 255.000
77.54041 253.000
77.56036 257.000
77.58031 245.000
77.60025 243.000
77.62020 231.000
77.64015 222.000
77.66009 291.000
77.68004 245.000
77.69999 263.000
77.71994 239.000
77.73988 250.000
77.75983 262.000
77.77978 269.000
77.79972 218.000
77.81967 243.000
77.83962 252.000
77.85956 271.000
77.87951 233.000
77.89946 242.000
77.91940 261.000
77.93935 243.000
77.95930 266.000
77.97925 259.000
77.99919 249.000
78.01914 258.000
78.03909 249.000
78.05903 252.000
78.07898 278.000
78.09893 243.000
78.11887 287.000
78.13882 271.000
78.15877 284.000
78.17872 264.000
78.19866 256.000
78.21861 268.000
78.23856 298.000
78.25850 282.000
78.27845 280.000
78.29840 289.000
78.31834 314.000
78.33829 288.000
78.35824 288.000
78.37819 279.000
78.39813 280.000
78.41808 276.000
78.43803 297.000
78.45797 264.000
78.47792 280.000
78.49787 300.000
78.51781 284.000
78.53776 276.000
78.55771 269.000
78.57765 265.000
78.59760 282.000
78.61755 307.000
78.63750 254.000
78.65744 275.000
78.67739 319.000
78.69734 255.000
78.71728 265.000
78.73723 237.000
78.75718 280.000
78.77712 289.000
78.79707 273.000
78.81702 281.000
78.83697 275.000
78.85691 280.000
78.87686 305.000
78.89681 305.000
78.91675 331.000
78.93670 315.000
78.95665 338.000
78.97659 362.000
78.99654 387.000
79.01649 382.000
79.03643 445.000
79.05638 427.000
79.07633 509.000
79.09628 533.000
79.11622 626.000
79.13617 610.000
79.15612 707.000
79.17606 705.000
79.19601 768.000
79.21596 739.000
79.23590 751.000
79.25585 718.000
79.27580 654.000
79.29575 615.000
79.31569 586.000
79.33564 548.000
79.35559 544.000
79.37553 532.000
79.39548 524.000
79.41543 525.000
79.43537 534.000
79.45532 521.000
79.47527 528.000
79.49521 462.000
79.51516 429.000
79.53511 437.000
79.55506 414.000
79.57500 359.000
79.59495 347.000
79.61490 337.000
79.63484 332.000
79.65479 301.000
79.67474 300.000
79.69468 317.000
79.71463 287.000
79.73458 268.000
79.75453 274.000
79.77447 243.000
79.79442 276.000
79.81437 252.000
79.83431 243.000
79.85426 248.000
79.87421 288.000
79.89415 273.000
79.91410 261.000
79.93405 225.000
79.95399 250.000
79.97394 236.000
79.99389 236.000
80.01384 266.000
80.03378 239.000
80.05373 233.000
80.07368 257.000
80.09362 234.000
80.11357 236.000
80.13352 239.000
80.15346 221.000
80.17341 237.000
80.19336 256.000
80.21331 228.000
80.23325 245.000
80.25320 244.000
80.27315 250.000
80.29309 219.000
80.31304 252.000
80.33299 261.000
80.35293 244.000
80.37288 233.000
80.39283 237.000
80.41278 213.000
80.43272 204.000
80.45267 238.000
80.47262 233.000
80.49256 259.000
80.51251 249.000
80.53246 236.000
80.55240 273.000
80.57235 234.000
80.59230 265.000
80.61224 243.000
80.63219 286.000
80.65214 262.000
80.67209 258.000
80.69203 253.000
80.71198 255.000
80.73193 237.000
80.75187 216.000
80.77182 219.000
80.79177 262.000
80.81171 238.000
80.83166 216.000
80.85161 240.000
80.87156 266.000
80.89150 216.000
80.91145 249.000
80.93140 252.000
80.95134 242.000
80.97129 244.000
80.99124 275.000
81.01118 232.000
81.03113 268.000
81.05108 251.000
81.07102 215.000
81.09097 217.000
81.11092 236.000
81.13087 226.000
81.15081 263.000
81.17076 261.000
81.19071 240.000
81.21065 234.000
81.23060 220.000
81.25055 226.000
81.27049 215.000
81.29044 246.000
81.31039 255.000
81.33034 262.000
81.35028 247.000
81.37023 236.000
81.39018 234.000
81.41012 238.000
81.43007 254.000
81.45002 233.000
81.46996 252.000
81.48991 243.000
81.50986 222.000
81.52980 233.000
81.54975 246.000
81.56970 228.000
81.58965 277.000
81.60959 221.000
81.62954 238.000
81.64949 232.000
81.66943 205.000
81.68938 224.000
81.70933 210.000
81.72927 225.000
81.74922 234.000
81.76917 226.000
81.78912 228.000
81.80906 245.000
81.82901 222.000
81.84896 228.000
81.86890 210.000
81.88885 250.000
81.90880 234.000
81.92874 230.000
81.94869 251.000
81.96864 224.000
81.98859 223.000
82.00853 224.000
82.02848 250.000
82.04843 242.000
82.06837 220.000
82.08832 243.000
82.10827 211.000
82.12821 204.000
82.14816 269.000
82.16811 225.000
82.18805 233.000
82.20800 263.000
82.22795 226.000
82.24790 221.000
82.26784 206.000
82.28779 252.000
82.30774 264.000
82.32768 247.000
82.34763 240.000
82.36758 268.000
82.38752 232.000
82.40747 243.000
82.42742 226.000
82.44737 248.000
82.46731 221.000
82.48726 260.000
82.50721 234.000
82.52715 237.000
82.54710 220.000
82.56705 199.000
82.58699 212.000
82.60694 219.000
82.62689 225.000
82.64683 250.000
82.66678 192.000
82.68673 266.000
82.70668 244.000
82.72662 243.000
82.74657 214.000
82.76652 230.000
82.78646 242.000
82.80641 239.000
82.82636 216.000
82.84630 249.000
82.86625 229.000
82.88620 232.000
82.90615 234.000
82.92609 226.000
82.94604 247.000
82.96599 238.000
82.98593 232.000
83.00588 263.000
83.02583 245.000
83.04577 247.000
83.06572 250.000
83.08567 239.000
83.10561 265.000
83.12556 220.000
83.14551 254.000
83.16546 267.000
83.18540 252.000
83.20535 240.000
83.22530 232.000
83.24524 231.000
83.26519 253.000
83.28514 237.000
83.30508 245.000
83.32503 246.000
83.34498 240.000
83.36493 215.000
83.38487 293.000
83.40482 246.000
83.42477 245.000
83.44471 232.000
83.46466 264.000
83.48461 231.000
83.50455 259.000
83.52450 244.000
83.54445 256.000
83.56440 245.000
83.58434 269.000
83.60429 249.000
83.62424 260.000
83.64418 258.000
83.66413 226.000
83.68408 256.000
83.70402 269.000
83.72397 244.000
83.74392 224.000
83.76386 242.000
83.78381 243.000
83.80376 236.000
83.82371 234.000
83.84365 260.000
83.86360 255.000
83.88355 255.000
83.90349 237.000
83.92344 256.000
83.94339 234.000
83.96333 264.000
83.98328 236.000
84.00323 256.000
84.02318 247.000
84.04312 227.000
84.06307 241.000
84.08302 246.000
84.10296 250.000
84.12291 224.000
84.14286 223.000
84.16280 235.000
84.18275 219.000
84.20270 256.000
84.22264 229.000
84.24259 235.000
84.26254 250.000
84.28249 251.000
84.30243 241.000
84.32238 257.000
84.34233 240.000
84.36227 232.000
84.38222 250.000
84.40217 239.000
84.42211 239.000
84.44206 257.000
84.46201 220.000
84.48196 268.000
84.50190 279.000
84.52185 247.000
84.54180 235.000
84.56174 219.000
84.58169 262.000
84.60164 243.000
84.62158 262.000
84.64153 245.000
84.66148 249.000
84.68142 256.000
84.70137 248.000
84.72132 246.000
84.74127 270.000
84.76121 274.000
84.78116 272.000
84.80111 272.000
84.82105 242.000
84.84100 281.000
84.86095 251.000
84.88089 242.000
84.90084 242.000
84.92079 215.000
84.94074 248.000
84.96068 266.000
84.98063 252.000
85.00058 246.000
85.02052 232.000
85.04047 262.000
85.06042 248.000
85.08036 265.000
85.10031 233.000
85.12026 225.000
85.14021 253.000
85.16015 254.000
85.18010 219.000
85.20005 233.000
85.21999 217.000
85.23994 252.000
85.25989 228.000
85.27983 235.000
85.29978 244.000
85.31973 234.000
85.33967 239.000
85.35962 233.000
85.37957 248.000
85.39952 212.000
85.41946 213.000
85.43941 230.000
85.45936 236.000
85.47930 236.000
85.49925 241.000
85.51920 241.000
85.53914 228.000
85.55909 238.000
85.57904 248.000
85.59899 217.000
85.61893 242.000
85.63888 244.000
85.65883 231.000
85.67877 216.000
85.69872 254.000
85.71867 270.000
85.73861 248.000
85.75856 251.000
85.77851 231.000
85.79845 240.000
85.81840 248.000
85.83835 216.000
85.85830 222.000
85.87824 223.000
85.89819 221.000
85.91814 213.000
85.93808 234.000
85.95803 224.000
85.97798 203.000
85.99792 223.000
86.01787 223.000
86.03782 223.000
86.05777 236.000
86.07771 220.000
86.09766 226.000
86.11761 272.000
86.13755 236.000
86.15750 215.000
86.17745 240.000
86.19739 220.000
86.21734 237.000
86.23729 241.000
86.25723 220.000
86.27718 246.000
86.29713 228.000
86.31708 204.000
86.33702 236.000
86.35697 227.000
86.37692 246.000
86.39686 253.000
86.41681 223.000
86.43676 206.000
86.45670 209.000
86.47665 238.000
86.49660 201.000
86.51655 232.000
86.53649 240.000
86.55644 215.000
86.57639 236.000
86.59633 229.000
86.61628 259.000
86.63623 253.000
86.65617 222.000
86.67612 215.000
86.69607 246.000
86.71602 234.000
86.73596 247.000
86.75591 233.000
86.77586 271.000
86.79580 247.000
86.81575 223.000
86.83570 235.000
86.85564 243.000
86.87559 255.000
86.89554 226.000
86.91548 226.000
86.93543 205.000
86.95538 264.000
86.97533 232.000
86.99527 251.000
87.01522 274.000
87.03517 223.000
87.05511 244.000
87.07506 272.000
87.09501 243.000
87.11495 250.000
87.13490 248.000
87.15485 259.000
87.17480 246.000
87.19474 243.000
87.21469 256.000
87.23464 215.000
87.25458 224.000
87.27453 221.000
87.29448 256.000
87.31442 265.000
87.33437 252.000
87.35432 264.000
87.37426 273.000
87.39421 277.000
87.41416 278.000
87.43411 226.000
87.45405 255.000
87.47400 250.000
87.49395 269.000
87.51389 265.000
87.53384 231.000
87.55379 226.000
87.57373 247.000
87.59368 237.000
87.61363 243.000
87.63358 220.000
87.65352 247.000
87.67347 240.000
87.69342 241.000
87.71336 269.000
87.73331 225.000
87.75326 258.000
87.77320 242.000
87.79315 248.000
87.81310 230.000
87.83304 230.000
87.85299 231.000
87.87294 236.000
87.89289 255.000
87.91283 263.000
87.93278 234.000
87.95273 211.000
87.97267 246.000
87.99262 264.000
88.01257 244.000
88.03251 243.000
88.05246 223.000
88.07241 233.000
88.09236 260.000
88.11230 249.000
88.13225 237.000
88.15220 268.000
88.17214 244.000
88.19209 251.000
88.21204 218.000
88.23198 265.000
88.25193 238.000
88.27188 252.000
88.29183 228.000
88.31177 242.000
88.33172 244.000
88.35167 231.000
88.37161 267.000
88.39156 240.000
88.41151 200.000
88.43145 213.000
88.45140 222.000
88.47135 234.000
88.49129 220.000
88.51124 240.000
88.53119 246.000
88.55114 254.000
88.57108 267.000
88.59103 224.000
88.61098 254.000
88.63092 237.000
88.65087 229.000
88.67082 229.000
88.69076 253.000
88.71071 243.000
88.73066 260.000
88.75061 264.000
88.77055 249.000
88.79050 225.000
88.81045 204.000
88.83039 236.000
88.85034 244.000
88.87029 243.000
88.89023 234.000
88.91018 224.000
88.93013 232.000
88.95007 218.000
88.97002 239.000
88.98997 234.000
89.00992 207.000
89.02986 216.000
89.04981 203.000
89.06976 233.000
89.08970 219.000
89.10965 240.000
89.12960 257.000
89.14954 226.000
89.16949 219.000
89.18944 242.000
89.20939 233.000
89.22933 224.000
89.24928 215.000
89.26923 228.000
89.28917 229.000
89.30912 235.000
89.32907 221.000
89.34901 235.000
89.36896 237.000
89.38891 236.000
89.40885 211.000
89.42880 240.000
89.44875 229.000
89.46870 219.000
89.48864 227.000
89.50859 222.000
89.52854 208.000
89.54848 239.000
89.56843 229.000
89.58838 240.000
89.60832 206.000
89.62827 236.000
89.64822 237.000
89.66817 235.000
89.68811 246.000
89.70806 233.000
89.72801 223.000
89.74795 234.000
89.76790 260.000
89.78785 240.000
89.80779 224.000
89.82774 254.000
89.84769 251.000
89.86764 242.000
89.88758 224.000
89.90753 223.000
89.92748 240.000
89.94742 232.000
89.96737 266.000
89.98732 235.000
90.00726 234.000
