10.00000 99.000
10.01995 104.000
10.03989 110.000
10.05984 119.000
10.07979 110.000
10.09973 112.000
10.11968 127.000
10.13963 124.000
10.15958 131.000
10.17952 109.000
10.19947 119.000
10.21942 109.000
10.23936 105.000
10.25931 136.000
10.27926 129.000
10.29920 108.000
10.31915 142.000
10.33910 113.000
10.35905 93.000
10.37899 109.000
10.39894 120.000
10.41889 122.000
10.43883 108.000
10.45878 125.000
10.47873 117.000
10.49867 126.000
10.51862 104.000
10.53857 107.000
10.55851 106.000
10.57846 104.000
10.59841 107.000
10.61836 114.000
10.63830 132.000
10.65825 112.000
10.67820 115.000
10.69814 99.000
10.71809 118.000
10.73804 133.000
10.75798 119.000
10.77793 112.000
10.79788 116.000
10.81783 129.000
10.83777 103.000
10.85772 118.000
10.87767 131.000
10.89761 109.000
10.91756 118.000
10.93751 108.000
10.95745 104.000
10.97740 115.000
10.99735 107.000
11.01730 115.000
11.03724 129.000
11.05719 123.000
11.07714 109.000
11.09708 125.000
11.11703 120.000
11.13698 121.000
11.15692 121.000
11.17687 114.000
11.19682 119.000
11.21676 93.000
11.23671 107.000
11.25666 107.000
11.27661 104.000
11.29655 130.000
11.31650 119.000
11.33645 135.000
11.35639 114.000
11.37634 130.000
11.39629 120.000
11.41623 121.000
11.43618 124.000
11.45613 123.000
11.47608 129.000
11.49602 108.000
11.51597 134.000
11.53592 118.000
11.55586 128.000
11.57581 123.000
11.59576 111.000
11.61570 119.000
11.63565 117.000
11.65560 123.000
11.67554 113.000
11.69549 130.000
11.71544 128.000
11.73539 105.000
11.75533 97.000
11.77528 128.000
11.79523 125.000
11.81517 111.000
11.83512 113.000
11.85507 120.000
11.87501 129.000
11.89496 143.000
11.91491 120.000
11.93486 107.000
11.95480 122.000
11.97475 114.000
11.99470 122.000
12.01464 113.000
12.03459 96.000
12.05454 126.000
12.07448 118.000
12.09443 117.000
12.11438 126.000
12.13432 124.000
12.15427 128.000
12.17422 141.000
12.19417 117.000
12.21411 115.000
12.23406 98.000
12.25401 116.000
12.27395 122.000
12.29390 106.000
12.31385 138.000
12.33379 139.000
12.35374 114.000
12.37369 125.000
12.39364 128.000
12.41358 107.000
12.43353 122.000
12.45348 125.000
12.47342 140.000
12.49337 120.000
12.51332 134.000
12.53326 118.000
12.55321 125.000
12.57316 120.000
12.59311 137.000
12.61305 152.000
12.63300 122.000
12.65295 125.000
12.67289 114.000
12.69284 125.000
12.71279 127.000
12.73273 131.000
12.75268 149.000
12.77263 124.000
12.79257 129.000
12.81252 129.000
12.83247 128.000
12.85242 117.000
12.87236 115.000
12.89231 134.000
12.91226 117.000
12.93220 124.000
12.95215 119.000
12.97210 146.000
12.99204 128.000
13.01199 137.000
13.03194 113.000
13.05189 145.000
13.07183 141.000
13.09178 112.000
13.11173 127.000
13.13167 131.000
13.15162 106.000
13.17157 148.000
13.19151 126.000
13.21146 121.000
13.23141 134.000
13.25135 126.000
13.27130 125.000
13.29125 136.000
13.31120 131.000
13.33114 147.000
13.35109 126.000
13.37104 116.000
13.39098 127.000
13.41093 139.000
13.43088 148.000
13.45082 140.000
13.47077 127.000
13.49072 119.000
13.51067 130.000
13.53061 132.000
13.55056 120.000
13.57051 137.000
13.59045 133.000
13.61040 126.000
13.63035 131.000
13.65029 146.000
13.67024 127.000
13.69019 146.000
13.71013 145.000
13.73008 139.000
13.75003 142.000
13.76998 139.000
13.78992 160.000
13.80987 131.000
13.82982 131.000
13.84976 139.000
13.86971 149.000
13.88966 131.000
13.90960 150.000
13.92955 150.000
13.94950 137.000
13.96945 171.000
13.98939 137.000
14.00934 156.000
14.02929 162.000
14.04923 135.000
14.06918 160.000
14.08913 160.000
14.10907 149.000
14.12902 129.000
14.14897 141.000
14.16892 154.000
14.18886 161.000
14.20881 140.000
14.22876 145.000
14.24870 156.000
14.26865 143.000
14.28860 154.000
14.30854 154.000
14.32849 136.000
14.34844 160.000
14.36838 151.000
14.38833 161.000
14.40828 148.000
14.42823 171.000
14.44817 148.000
14.46812 171.000
14.48807 158.000
14.50801 149.000
14.52796 142.000
14.54791 169.000
14.56785 172.000
14.58780 146.000
14.60775 163.000
14.62770 169.000
14.64764 171.000
14.66759 173.000
14.68754 173.000
14.70748 168.000
14.72743 170.000
14.74738 156.000
14.76732 189.000
14.78727 183.000
14.80722 190.000
14.82716 204.000
14.84711 238.000
14.86706 213.000
14.88701 233.000
14.90695 202.000
14.92690 210.000
14.94685 238.000
14.96679 214.000
14.98674 238.000
15.00669 232.000
15.02663 232.000
15.04658 289.000
15.06653 241.000
15.08648 259.000
15.10642 292.000
15.12637 272.000
15.14632 293.000
15.16626 296.000
15.18621 317.000
15.20616 341.000
15.22610 395.000
15.24605 445.000
15.26600 458.000
15.28594 481.000
15.30589 516.000
15.32584 635.000
15.34579 752.000
15.36573 948.000
15.38568 1215.000
15.40563 1479.000
15.42557 2077.000
15.44552 2618.000
15.46547 3509.000
15.48541 4515.000
15.50536 5213.000
15.52531 6188.000
15.54526 6856.000
15.56520 7269.000
15.58515 7726.000
15.60510 7127.000
15.62504 6169.000
15.64499 4948.000
15.66494 3608.000
15.68488 2558.000
15.70483 1629.000
15.72478 1150.000
15.74472 836.000
15.76467 589.000
15.78462 476.000
15.80457 415.000
15.82451 327.000
15.84446 326.000
15.86441 323.000
15.88435 276.000
15.90430 264.000
15.92425 280.000
15.94419 264.000
15.96414 231.000
15.98409 215.000
16.00404 255.000
16.02398 220.000
16.04393 240.000
16.06388 219.000
16.08382 203.000
16.10377 179.000
16.12372 223.000
16.14366 188.000
16.16361 200.000
16.18356 171.000
16.20351 189.000
16.22345 165.000
16.24340 183.000
16.26335 176.000
16.28329 181.000
16.30324 155.000
16.32319 205.000
16.34313 174.000
16.36308 160.000
16.38303 175.000
16.40297 168.000
16.42292 165.000
16.44287 163.000
16.46282 143.000
16.48276 176.000
16.50271 162.000
16.52266 160.000
16.54260 158.000
16.56255 163.000
16.58250 170.000
16.60244 146.000
16.62239 154.000
16.64234 154.000
16.66229 152.000
16.68223 131.000
16.70218 134.000
16.72213 164.000
16.74207 138.000
16.76202 133.000
16.78197 134.000
16.80191 131.000
16.82186 172.000
16.84181 134.000
16.86175 155.000
16.88170 144.000
16.90165 145.000
16.92160 138.000
16.94154 170.000
16.96149 143.000
16.98144 164.000
17.00138 155.000
17.02133 156.000
17.04128 128.000
17.06122 136.000
17.08117 159.000
17.10112 152.000
17.12107 147.000
17.14101 148.000
17.16096 140.000
17.18091 133.000
17.20085 153.000
17.22080 142.000
17.24075 140.000
17.26069 168.000
17.28064 132.000
17.30059 154.000
17.32053 132.000
17.34048 146.000
17.36043 142.000
17.38038 148.000
17.40032 143.000
17.42027 138.000
17.44022 146.000
17.46016 137.000
17.48011 138.000
17.50006 138.000
17.52000 164.000
17.53995 149.000
17.55990 126.000
17.57985 138.000
17.59979 156.000
17.61974 122.000
17.63969 141.000
17.65963 124.000
17.67958 137.000
17.69953 129.000
17.71947 146.000
17.73942 153.000
17.75937 137.000
17.77932 146.000
17.79926 137.000
17.81921 132.000
17.83916 132.000
17.85910 145.000
17.87905 125.000
17.89900 139.000
17.91894 147.000
17.93889 125.000
17.95884 119.000
17.97878 122.000
17.99873 156.000
18.01868 134.000
18.03863 151.000
18.05857 135.000
18.07852 135.000
18.09847 145.000
18.11841 134.000
18.13836 149.000
18.15831 123.000
18.17825 174.000
18.19820 147.000
18.21815 184.000
18.23810 160.000
18.25804 198.000
18.27799 154.000
18.29794 195.000
18.31788 186.000
18.33783 203.000
18.35778 194.000
18.37772 204.000
18.39767 198.000
18.41762 217.000
18.43756 190.000
18.45751 168.000
18.47746 169.000
18.49741 146.000
18.51735 150.000
18.53730 147.000
18.55725 131.000
18.57719 156.000
18.59714 148.000
18.61709 148.000
18.63703 129.000
18.65698 131.000
18.67693 157.000
18.69688 152.000
18.71682 132.000
18.73677 113.000
18.75672 138.000
18.77666 144.000
18.79661 149.000
18.81656 145.000
18.83650 133.000
18.85645 123.000
18.87640 130.000
18.89634 135.000
18.91629 127.000
18.93624 134.000
18.95619 133.000
18.97613 134.000
18.99608 158.000
19.01603 146.000
19.03597 118.000
19.05592 144.000
19.07587 146.000
19.09581 130.000
19.11576 134.000
19.13571 137.000
19.15566 130.000
19.17560 140.000
19.19555 130.000
19.21550 139.000
19.23544 144.000
19.25539 149.000
19.27534 144.000
19.29528 128.000
19.31523 124.000
19.33518 133.000
19.35513 143.000
19.37507 150.000
19.39502 140.000
19.41497 156.000
19.43491 138.000
19.45486 133.000
19.47481 115.000
19.49475 127.000
19.51470 132.000
19.53465 139.000
19.55459 132.000
19.57454 120.000
19.59449 144.000
19.61444 124.000
19.63438 127.000
19.65433 148.000
19.67428 138.000
19.69422 133.000
19.71417 130.000
19.73412 123.000
19.75406 143.000
19.77401 145.000
19.79396 174.000
19.81391 168.000
19.83385 150.000
19.85380 132.000
19.87375 128.000
19.89369 133.000
19.91364 131.000
19.93359 134.000
19.95353 135.000
19.97348 149.000
19.99343 132.000
20.01337 135.000
20.03332 139.000
20.05327 118.000
20.07322 147.000
20.09316 139.000
20.11311 134.000
20.13306 121.000
20.15300 116.000
20.17295 104.000
20.19290 130.000
20.21284 148.000
20.23279 124.000
20.25274 138.000
20.27269 143.000
20.29263 134.000
20.31258 124.000
20.33253 118.000
20.35247 140.000
20.37242 146.000
20.39237 150.000
20.41231 134.000
20.43226 152.000
20.45221 139.000
20.47215 132.000
20.49210 152.000
20.51205 161.000
20.53200 138.000
20.55194 146.000
20.57189 134.000
20.59184 131.000
20.61178 136.000
20.63173 152.000
20.65168 148.000
20.67162 139.000
20.69157 156.000
20.71152 134.000
20.73147 151.000
20.75141 140.000
20.77136 146.000
20.79131 141.000
20.81125 158.000
20.83120 145.000
20.85115 149.000
20.87109 146.000
20.89104 149.000
20.91099 155.000
20.93094 174.000
20.95088 141.000
20.97083 172.000
20.99078 187.000
21.01072 151.000
21.03067 157.000
21.05062 145.000
21.07056 137.000
21.09051 135.000
21.11046 147.000
21.13040 130.000
21.15035 124.000
21.17030 145.000
21.19025 115.000
21.21019 142.000
21.23014 139.000
21.25009 140.000
21.27003 114.000
21.28998 137.000
21.30993 141.000
21.32987 149.000
21.34982 134.000
21.36977 149.000
21.38972 135.000
21.40966 133.000
21.42961 129.000
21.44956 138.000
21.46950 169.000
21.48945 144.000
21.50940 150.000
21.52934 168.000
21.54929 154.000
21.56924 134.000
21.58918 163.000
21.60913 143.000
21.62908 139.000
21.64903 158.000
21.66897 139.000
21.68892 137.000
21.70887 131.000
21.72881 157.000
21.74876 154.000
21.76871 137.000
21.78865 172.000
21.80860 135.000
21.82855 128.000
21.84850 135.000
21.86844 153.000
21.88839 135.000
21.90834 156.000
21.92828 123.000
21.94823 174.000
21.96818 124.000
21.98812 165.000
22.00807 146.000
22.02802 131.000
22.04796 164.000
22.06791 144.000
22.08786 155.000
22.10781 132.000
22.12775 137.000
22.14770 133.000
22.16765 144.000
22.18759 127.000
22.20754 157.000
22.22749 151.000
22.24743 123.000
22.26738 130.000
22.28733 142.000
22.30728 146.000
22.32722 123.000
22.34717 134.000
22.36712 150.000
22.38706 148.000
22.40701 126.000
22.42696 154.000
22.44690 167.000
22.46685 144.000
22.48680 144.000
22.50675 137.000
22.52669 135.000
22.54664 152.000
22.56659 161.000
22.58653 131.000
22.60648 137.000
22.62643 122.000
22.64637 147.000
22.66632 152.000
22.68627 135.000
22.70621 151.000
22.72616 153.000
22.74611 150.000
22.76606 163.000
22.78600 147.000
22.80595 133.000
22.82590 141.000
22.84584 142.000
22.86579 162.000
22.88574 147.000
22.90568 138.000
22.92563 152.000
22.94558 151.000
22.96553 150.000
22.98547 140.000
23.00542 146.000
23.02537 147.000
23.04531 142.000
23.06526 145.000
23.08521 158.000
23.10515 156.000
23.12510 154.000
23.14505 153.000
23.16499 150.000
23.18494 134.000
23.20489 148.000
23.22484 168.000
23.24478 173.000
23.26473 128.000
23.28468 161.000
23.30462 169.000
23.32457 146.000
23.34452 145.000
23.36446 143.000
23.38441 139.000
23.40436 157.000
23.42431 142.000
23.44425 144.000
23.46420 130.000
23.48415 136.000
23.50409 132.000
23.52404 139.000
23.54399 152.000
23.56393 167.000
23.58388 151.000
23.60383 168.000
23.62377 143.000
23.64372 147.000
23.66367 157.000
23.68362 139.000
23.70356 128.000
23.72351 140.000
23.74346 145.000
23.76340 160.000
23.78335 133.000
23.80330 142.000
23.82324 143.000
23.84319 149.000
23.86314 150.000
23.88309 150.000
23.90303 145.000
23.92298 142.000
23.94293 147.000
23.96287 142.000
23.98282 137.000
24.00277 169.000
24.02271 144.000
24.04266 141.000
24.06261 144.000
24.08256 150.000
24.10250 131.000
24.12245 143.000
24.14240 146.000
24.16234 170.000
24.18229 155.000
24.20224 131.000
24.22218 154.000
24.24213 132.000
24.26208 136.000
24.28202 140.000
24.30197 157.000
24.32192 146.000
24.34187 135.000
24.36181 141.000
24.38176 162.000
24.40171 142.000
24.42165 130.000
24.44160 147.000
24.46155 146.000
24.48149 144.000
24.50144 153.000
24.52139 149.000
24.54134 153.000
24.56128 147.000
24.58123 131.000
24.60118 143.000
24.62112 154.000
24.64107 154.000
24.66102 157.000
24.68096 127.000
24.70091 174.000
24.72086 144.000
24.74080 156.000
24.76075 166.000
24.78070 161.000
24.80065 148.000
24.82059 149.000
24.84054 129.000
24.86049 144.000
24.88043 158.000
24.90038 146.000
24.92033 152.000
24.94027 134.000
24.96022 165.000
24.98017 148.000
25.00012 143.000
25.02006 131.000
25.04001 180.000
25.05996 156.000
25.07990 142.000
25.09985 150.000
25.11980 168.000
25.13974 161.000
25.15969 153.000
25.17964 153.000
25.19958 155.000
25.21953 142.000
25.23948 167.000
25.25943 157.000
25.27937 159.000
25.29932 149.000
25.31927 145.000
25.33921 153.000
25.35916 153.000
25.37911 169.000
25.39905 128.000
25.41900 152.000
25.43895 163.000
25.45890 145.000
25.47884 166.000
25.49879 160.000
25.51874 133.000
25.53868 149.000
25.55863 166.000
25.57858 155.000
25.59852 146.000
25.61847 170.000
25.63842 167.000
25.65837 156.000
25.67831 147.000
25.69826 157.000
25.71821 164.000
25.73815 163.000
25.75810 148.000
25.77805 150.000
25.79799 167.000
25.81794 138.000
25.83789 139.000
25.85783 136.000
25.87778 148.000
25.89773 157.000
25.91768 144.000
25.93762 146.000
25.95757 155.000
25.97752 155.000
25.99746 175.000
26.01741 175.000
26.03736 157.000
26.05730 151.000
26.07725 162.000
26.09720 182.000
26.11715 176.000
26.13709 160.000
26.15704 152.000
26.17699 164.000
26.19693 154.000
26.21688 141.000
26.23683 145.000
26.25677 142.000
26.27672 148.000
26.29667 149.000
26.31661 141.000
26.33656 151.000
26.35651 169.000
26.37646 155.000
26.39640 139.000
26.41635 140.000
26.43630 168.000
26.45624 144.000
26.47619 173.000
26.49614 154.000
26.51608 160.000
26.53603 145.000
26.55598 145.000
26.57593 154.000
26.59587 160.000
26.61582 157.000
26.63577 151.000
26.65571 136.000
26.67566 167.000
26.69561 175.000
26.71555 144.000
26.73550 154.000
26.75545 167.000
26.77539 160.000
26.79534 168.000
26.81529 161.000
26.83524 137.000
26.85518 176.000
26.87513 166.000
26.89508 161.000
26.91502 147.000
26.93497 167.000
26.95492 170.000
26.97486 150.000
26.99481 159.000
27.01476 175.000
27.03471 160.000
27.05465 148.000
27.07460 149.000
27.09455 164.000
27.11449 172.000
27.13444 147.000
27.15439 175.000
27.17433 140.000
27.19428 162.000
27.21423 140.000
27.23417 170.000
27.25412 158.000
27.27407 142.000
27.29402 156.000
27.31396 152.000
27.33391 169.000
27.35386 146.000
27.37380 153.000
27.39375 163.000
27.41370 153.000
27.43364 173.000
27.45359 175.000
27.47354 137.000
27.49349 159.000
27.51343 152.000
27.53338 165.000
27.55333 147.000
27.57327 145.000
27.59322 138.000
27.61317 182.000
27.63311 161.000
27.65306 171.000
27.67301 143.000
27.69296 169.000
27.71290 162.000
27.73285 151.000
27.75280 157.000
27.77274 153.000
27.79269 163.000
27.81264 181.000
27.83258 166.000
27.85253 161.000
27.87248 151.000
27.89242 158.000
27.91237 170.000
27.93232 153.000
27.95227 158.000
27.97221 148.000
27.99216 173.000
28.01211 154.000
28.03205 178.000
28.05200 150.000
28.07195 174.000
28.09189 191.000
28.11184 159.000
28.13179 180.000
28.15174 148.000
28.17168 162.000
28.19163 165.000
28.21158 162.000
28.23152 157.000
28.25147 159.000
28.27142 153.000
28.29136 135.000
28.31131 182.000
28.33126 166.000
28.35120 164.000
28.37115 162.000
28.39110 152.000
28.41105 173.000
28.43099 156.000
28.45094 161.000
28.47089 164.000
28.49083 165.000
28.51078 153.000
28.53073 150.000
28.55067 160.000
28.57062 155.000
28.59057 166.000
28.61052 159.000
28.63046 156.000
28.65041 153.000
28.67036 167.000
28.69030 159.000
28.71025 152.000
28.73020 145.000
28.75014 177.000
28.77009 172.000
28.79004 163.000
28.80998 157.000
28.82993 164.000
28.84988 158.000
28.86983 156.000
28.88977 157.000
28.90972 172.000
28.92967 146.000
28.94961 158.000
28.96956 142.000
28.98951 160.000
29.00945 165.000
29.02940 155.000
29.04935 163.000
29.06930 150.000
29.08924 182.000
29.10919 141.000
29.12914 172.000
29.14908 162.000
29.16903 161.000
29.18898 178.000
29.20892 151.000
29.22887 185.000
29.24882 173.000
29.26877 157.000
29.28871 161.000
29.30866 144.000
29.32861 155.000
29.34855 155.000
29.36850 165.000
29.38845 170.000
29.40839 167.000
29.42834 175.000
29.44829 171.000
29.46823 176.000
29.48818 182.000
29.50813 168.000
29.52808 149.000
29.54802 186.000
29.56797 181.000
29.58792 150.000
29.60786 163.000
29.62781 167.000
29.64776 177.000
29.66770 149.000
29.68765 175.000
29.70760 171.000
29.72755 167.000
29.74749 154.000
29.76744 180.000
29.78739 161.000
29.80733 157.000
29.82728 156.000
29.84723 167.000
29.86717 152.000
29.88712 163.000
29.90707 181.000
29.92701 168.000
29.94696 191.000
29.96691 190.000
29.98686 205.000
30.00680 197.000
30.02675 181.000
30.04670 194.000
30.06664 199.000
30.08659 187.000
30.10654 195.000
30.12648 181.000
30.14643 222.000
30.16638 193.000
30.18633 216.000
30.20627 218.000
30.22622 220.000
30.24617 211.000
30.26611 225.000
30.28606 265.000
30.30601 257.000
30.32595 281.000
30.34590 196.000
30.36585 251.000
30.38579 228.000
30.40574 236.000
30.42569 236.000
30.44564 224.000
30.46558 205.000
30.48553 182.000
30.50548 184.000
30.52542 203.000
30.54537 186.000
30.56532 181.000
30.58526 181.000
30.60521 153.000
30.62516 193.000
30.64511 173.000
30.66505 190.000
30.68500 169.000
30.70495 165.000
30.72489 174.000
30.74484 173.000
30.76479 186.000
30.78473 167.000
30.80468 187.000
30.82463 169.000
30.84458 180.000
30.86452 199.000
30.88447 159.000
30.90442 177.000
30.92436 166.000
30.94431 178.000
30.96426 167.000
30.98420 187.000
31.00415 177.000
31.02410 170.000
31.04404 177.000
31.06399 190.000
31.08394 178.000
31.10389 180.000
31.12383 195.000
31.14378 173.000
31.16373 169.000
31.18367 170.000
31.20362 197.000
31.22357 182.000
31.24351 201.000
31.26346 196.000
31.28341 254.000
31.30336 218.000
31.32330 219.000
31.34325 208.000
31.36320 230.000
31.38314 261.000
31.40309 240.000
31.42304 253.000
31.44298 273.000
31.46293 357.000
31.48288 398.000
31.50282 451.000
31.52277 543.000
31.54272 681.000
31.56267 726.000
31.58261 817.000
31.60256 856.000
31.62251 879.000
31.64245 844.000
31.66240 764.000
31.68235 749.000
31.70229 656.000
31.72224 545.000
31.74219 472.000
31.76214 381.000
31.78208 357.000
31.80203 307.000
31.82198 266.000
31.84192 217.000
31.86187 223.000
31.88182 223.000
31.90176 219.000
31.92171 211.000
31.94166 184.000
31.96160 175.000
31.98155 163.000
32.00150 187.000
32.02145 169.000
32.04139 173.000
32.06134 162.000
32.08129 176.000
32.10123 188.000
32.12118 178.000
32.14113 177.000
32.16107 161.000
32.18102 182.000
32.20097 189.000
32.22092 185.000
32.24086 182.000
32.26081 163.000
32.28076 204.000
32.30070 156.000
32.32065 200.000
32.34060 194.000
32.36054 170.000
32.38049 170.000
32.40044 164.000
32.42039 186.000
32.44033 189.000
32.46028 168.000
32.48023 174.000
32.50017 165.000
32.52012 174.000
32.54007 160.000
32.56001 184.000
32.57996 161.000
32.59991 158.000
32.61985 151.000
32.63980 171.000
32.65975 153.000
32.67970 152.000
32.69964 184.000
32.71959 148.000
32.73954 161.000
32.75948 171.000
32.77943 178.000
32.79938 188.000
32.81932 167.000
32.83927 155.000
32.85922 165.000
32.87917 167.000
32.89911 158.000
32.91906 170.000
32.93901 168.000
32.95895 182.000
32.97890 177.000
32.99885 179.000
33.01879 167.000
33.03874 162.000
33.05869 174.000
33.07863 138.000
33.09858 163.000
33.11853 163.000
33.13848 152.000
33.15842 154.000
33.17837 154.000
33.19832 168.000
33.21826 171.000
33.23821 173.000
33.25816 178.000
33.27810 149.000
33.29805 164.000
33.31800 150.000
33.33795 146.000
33.35789 155.000
33.37784 174.000
33.39779 177.000
33.41773 159.000
33.43768 184.000
33.45763 175.000
33.47757 172.000
33.49752 141.000
33.51747 161.000
33.53741 173.000
33.55736 162.000
33.57731 146.000
33.59726 160.000
33.61720 172.000
33.63715 175.000
33.65710 139.000
33.67704 150.000
33.69699 169.000
33.71694 162.000
33.73688 186.000
33.75683 145.000
33.77678 161.000
33.79673 180.000
33.81667 161.000
33.83662 178.000
33.85657 165.000
33.87651 150.000
33.89646 164.000
33.91641 191.000
33.93635 154.000
33.95630 163.000
33.97625 152.000
33.99620 189.000
34.01614 152.000
34.03609 196.000
34.05604 157.000
34.07598 174.000
34.09593 165.000
34.11588 188.000
34.13582 162.000
34.15577 172.000
34.17572 154.000
34.19566 176.000
34.21561 181.000
34.23556 164.000
34.25551 174.000
34.27545 183.000
34.29540 172.000
34.31535 163.000
34.33529 165.000
34.35524 158.000
34.37519 148.000
34.39513 169.000
34.41508 162.000
34.43503 170.000
34.45498 148.000
34.47492 204.000
34.49487 173.000
34.51482 167.000
34.53476 153.000
34.55471 145.000
34.57466 182.000
34.59460 168.000
34.61455 187.000
34.63450 201.000
34.65444 214.000
34.67439 173.000
34.69434 187.000
34.71429 207.000
34.73423 207.000
34.75418 191.000
34.77413 183.000
34.79407 171.000
34.81402 183.000
34.83397 188.000
34.85391 197.000
34.87386 184.000
34.89381 169.000
34.91376 183.000
34.93370 161.000
34.95365 186.000
34.97360 170.000
34.99354 190.000
35.01349 199.000
35.03344 157.000
35.05338 192.000
35.07333 216.000
35.09328 193.000
35.11322 205.000
35.13317 201.000
35.15312 241.000
35.17307 232.000
35.19301 207.000
35.21296 274.000
35.23291 286.000
35.25285 313.000
35.27280 329.000
35.29275 304.000
35.31269 360.000
35.33264 390.000
35.35259 373.000
35.37254 405.000
35.39248 399.000
35.41243 394.000
35.43238 345.000
35.45232 366.000
35.47227 399.000
35.49222 341.000
35.51216 333.000
35.53211 359.000
35.55206 366.000
35.57201 388.000
35.59195 378.000
35.61190 435.000
35.63185 453.000
35.65179 450.000
35.67174 521.000
35.69169 561.000
35.71163 605.000
35.73158 694.000
35.75153 796.000
35.77147 874.000
35.79142 1020.000
35.81137 1113.000
35.83132 1218.000
35.85126 1211.000
35.87121 1193.000
35.89116 1040.000
35.91110 919.000
35.93105 812.000
35.95100 739.000
35.97094 599.000
35.99089 500.000
36.01084 431.000
36.03079 340.000
36.05073 291.000
36.07068 272.000
36.09063 249.000
36.11057 238.000
36.13052 231.000
36.15047 231.000
36.17041 191.000
36.19036 209.000
36.21031 182.000
36.23025 208.000
36.25020 190.000
36.27015 212.000
36.29010 221.000
36.31004 199.000
36.32999 222.000
36.34994 181.000
36.36988 193.000
36.38983 205.000
36.40978 195.000
36.42972 186.000
36.44967 183.000
36.46962 194.000
36.48957 192.000
36.50951 187.000
36.52946 181.000
36.54941 192.000
36.56935 181.000
36.58930 163.000
36.60925 210.000
36.62919 208.000
36.64914 216.000
36.66909 227.000
36.68903 234.000
36.70898 224.000
36.72893 259.000
36.74888 245.000
36.76882 258.000
36.78877 260.000
36.80872 245.000
36.82866 211.000
36.84861 222.000
36.86856 227.000
36.88850 203.000
36.90845 188.000
36.92840 188.000
36.94835 176.000
36.96829 215.000
36.98824 191.000
37.00819 195.000
37.02813 204.000
37.04808 202.000
37.06803 188.000
37.08797 195.000
37.10792 155.000
37.12787 178.000
37.14781 183.000
37.16776 198.000
37.18771 195.000
37.20766 178.000
37.22760 171.000
37.24755 196.000
37.26750 187.000
37.28744 215.000
37.30739 170.000
37.32734 190.000
37.34728 222.000
37.36723 235.000
37.38718 204.000
37.40713 180.000
37.42707 224.000
37.44702 219.000
37.46697 208.000
37.48691 204.000
37.50686 211.000
37.52681 235.000
37.54675 198.000
37.56670 206.000
37.58665 204.000
37.60660 200.000
37.62654 193.000
37.64649 192.000
37.66644 201.000
37.68638 209.000
37.70633 164.000
37.72628 176.000
37.74622 187.000
37.76617 158.000
37.78612 183.000
37.80606 192.000
37.82601 168.000
37.84596 190.000
37.86591 167.000
37.88585 196.000
37.90580 184.000
37.92575 191.000
37.94569 166.000
37.96564 166.000
37.98559 174.000
38.00553 177.000
38.02548 169.000
38.04543 195.000
38.06538 197.000
38.08532 189.000
38.10527 188.000
38.12522 178.000
38.14516 180.000
38.16511 195.000
38.18506 166.000
38.20500 178.000
38.22495 201.000
38.24490 195.000
38.26484 190.000
38.28479 207.000
38.30474 210.000
38.32469 197.000
38.34463 192.000
38.36458 242.000
38.38453 233.000
38.40447 256.000
38.42442 265.000
38.44437 296.000
38.46431 281.000
38.48426 281.000
38.50421 329.000
38.52416 326.000
38.54410 337.000
38.56405 371.000
38.58400 334.000
38.60394 361.000
38.62389 321.000
38.64384 312.000
38.66378 304.000
38.68373 278.000
38.70368 286.000
38.72362 289.000
38.74357 281.000
38.76352 261.000
38.78347 262.000
38.80341 266.000
38.82336 279.000
38.84331 260.000
38.86325 252.000
38.88320 237.000
38.90315 232.000
38.92309 280.000
38.94304 225.000
38.96299 258.000
38.98294 257.000
39.00288 272.000
39.02283 244.000
39.04278 249.000
39.06272 286.000
39.08267 328.000
39.10262 344.000
39.12256 336.000
39.14251 360.000
39.16246 414.000
39.18241 439.000
39.20235 527.000
39.22230 607.000
39.24225 718.000
39.26219 879.000
39.28214 1080.000
39.30209 1391.000
39.32203 1540.000
39.34198 1633.000
39.36193 1639.000
39.38187 1499.000
39.40182 1461.000
39.42177 1356.000
39.44172 1284.000
39.46166 1106.000
39.48161 921.000
39.50156 849.000
39.52150 622.000
39.54145 520.000
39.56140 432.000
39.58134 364.000
39.60129 360.000
39.62124 301.000
39.64119 312.000
39.66113 255.000
39.68108 263.000
39.70103 247.000
39.72097 231.000
39.74092 182.000
39.76087 214.000
39.78081 203.000
39.80076 209.000
39.82071 188.000
39.84065 185.000
39.86060 192.000
39.88055 203.000
39.90050 190.000
39.92044 203.000
39.94039 210.000
39.96034 182.000
39.98028 178.000
40.00023 173.000
40.02018 162.000
40.04012 160.000
40.06007 186.000
40.08002 192.000
40.09997 186.000
40.11991 179.000
40.13986 170.000
40.15981 167.000
40.17975 176.000
40.19970 185.000
40.21965 160.000
40.23959 193.000
40.25954 157.000
40.27949 154.000
40.29943 165.000
40.31938 169.000
40.33933 163.000
40.35928 179.000
40.37922 154.000
40.39917 179.000
40.41912 145.000
40.43906 173.000
40.45901 152.000
40.47896 133.000
40.49890 192.000
40.51885 162.000
40.53880 142.000
40.55875 145.000
40.57869 167.000
40.59864 183.000
40.61859 164.000
40.63853 167.000
40.65848 158.000
40.67843 172.000
40.69837 188.000
40.71832 159.000
40.73827 131.000
40.75822 154.000
40.77816 145.000
40.79811 150.000
40.81806 147.000
40.83800 158.000
40.85795 184.000
40.87790 162.000
40.89784 147.000
40.91779 163.000
40.93774 155.000
40.95768 176.000
40.97763 157.000
40.99758 179.000
41.01753 163.000
41.03747 157.000
41.05742 161.000
41.07737 160.000
41.09731 171.000
41.11726 141.000
41.13721 135.000
41.15715 150.000
41.17710 168.000
41.19705 158.000
41.21700 162.000
41.23694 170.000
41.25689 156.000
41.27684 156.000
41.29678 158.000
41.31673 171.000
41.33668 153.000
41.35662 169.000
41.37657 174.000
41.39652 148.000
41.41646 150.000
41.43641 142.000
41.45636 176.000
41.47631 140.000
41.49625 141.000
41.51620 154.000
41.53615 165.000
41.55609 168.000
41.57604 168.000
41.59599 186.000
41.61593 166.000
41.63588 159.000
41.65583 149.000
41.67578 147.000
41.69572 140.000
41.71567 147.000
41.73562 148.000
41.75556 177.000
41.77551 161.000
41.79546 165.000
41.81540 153.000
41.83535 128.000
41.85530 160.000
41.87524 152.000
41.89519 165.000
41.91514 153.000
41.93509 171.000
41.95503 159.000
41.97498 169.000
41.99493 146.000
42.01487 161.000
42.03482 146.000
42.05477 177.000
42.07471 180.000
42.09466 140.000
42.11461 144.000
42.13456 172.000
42.15450 155.000
42.17445 162.000
42.19440 153.000
42.21434 143.000
42.23429 163.000
42.25424 155.000
42.27418 155.000
42.29413 166.000
42.31408 155.000
42.33403 135.000
42.35397 156.000
42.37392 163.000
42.39387 168.000
42.41381 169.000
42.43376 152.000
42.45371 158.000
42.47365 180.000
42.49360 142.000
42.51355 159.000
42.53349 161.000
42.55344 163.000
42.57339 172.000
42.59334 168.000
42.61328 159.000
42.63323 144.000
42.65318 171.000
42.67312 150.000
42.69307 166.000
42.71302 178.000
42.73296 143.000
42.75291 159.000
42.77286 182.000
42.79281 194.000
42.81275 159.000
42.83270 149.000
42.85265 152.000
42.87259 176.000
42.89254 171.000
42.91249 182.000
42.93243 193.000
42.95238 186.000
42.97233 206.000
42.99227 204.000
43.01222 192.000
43.03217 180.000
43.05212 201.000
43.07206 212.000
43.09201 192.000
43.11196 213.000
43.13190 239.000
43.15185 236.000
43.17180 256.000
43.19174 238.000
43.21169 273.000
43.23164 322.000
43.25159 312.000
43.27153 332.000
43.29148 396.000
43.31143 434.000
43.33137 565.000
43.35132 613.000
43.37127 676.000
43.39121 693.000
43.41116 703.000
43.43111 701.000
43.45105 691.000
43.47100 630.000
43.49095 589.000
43.51090 545.000
43.53084 523.000
43.55079 450.000
43.57074 435.000
43.59068 316.000
43.61063 334.000
43.63058 295.000
43.65052 244.000
43.67047 226.000
43.69042 231.000
43.71037 232.000
43.73031 224.000
43.75026 206.000
43.77021 206.000
43.79015 191.000
43.81010 146.000
43.83005 191.000
43.84999 177.000
43.86994 182.000
43.88989 188.000
43.90984 156.000
43.92978 166.000
43.94973 146.000
43.96968 172.000
43.98962 171.000
44.00957 155.000
44.02952 159.000
44.04946 164.000
44.06941 155.000
44.08936 149.000
44.10930 143.000
44.12925 154.000
44.14920 168.000
44.16915 160.000
44.18909 124.000
44.20904 165.000
44.22899 149.000
44.24893 157.000
44.26888 161.000
44.28883 161.000
44.30877 160.000
44.32872 153.000
44.34867 153.000
44.36862 151.000
44.38856 150.000
44.40851 168.000
44.42846 163.000
44.44840 146.000
44.46835 149.000
44.48830 163.000
44.50824 157.000
44.52819 138.000
44.54814 147.000
44.56808 139.000
44.58803 155.000
44.60798 171.000
44.62793 150.000
44.64787 144.000
44.66782 151.000
44.68777 160.000
44.70771 153.000
44.72766 169.000
44.74761 141.000
44.76755 191.000
44.78750 154.000
44.80745 174.000
44.82740 190.000
44.84734 148.000
44.86729 171.000
44.88724 193.000
44.90718 177.000
44.92713 198.000
44.94708 175.000
44.96702 183.000
44.98697 178.000
45.00692 190.000
45.02686 186.000
45.04681 173.000
45.06676 171.000
45.08671 164.000
45.10665 186.000
45.12660 180.000
45.14655 182.000
45.16649 177.000
45.18644 159.000
45.20639 180.000
45.22633 160.000
45.24628 194.000
45.26623 168.000
45.28618 167.000
45.30612 164.000
45.32607 162.000
45.34602 185.000
45.36596 145.000
45.38591 180.000
45.40586 159.000
45.42580 160.000
45.44575 164.000
45.46570 161.000
45.48565 152.000
45.50559 142.000
45.52554 160.000
45.54549 182.000
45.56543 161.000
45.58538 149.000
45.60533 141.000
45.62527 152.000
45.64522 183.000
45.66517 136.000
45.68511 169.000
45.70506 164.000
45.72501 147.000
45.74496 152.000
45.76490 137.000
45.78485 163.000
45.80480 155.000
45.82474 149.000
45.84469 141.000
45.86464 145.000
45.88458 167.000
45.90453 134.000
45.92448 159.000
45.94443 134.000
45.96437 147.000
45.98432 161.000
46.00427 163.000
46.02421 144.000
46.04416 152.000
46.06411 161.000
46.08405 154.000
46.10400 171.000
46.12395 155.000
46.14389 193.000
46.16384 150.000
46.18379 152.000
46.20374 142.000
46.22368 150.000
46.24363 155.000
46.26358 151.000
46.28352 159.000
46.30347 141.000
46.32342 171.000
46.34336 144.000
46.36331 168.000
46.38326 173.000
46.40321 134.000
46.42315 185.000
46.44310 151.000
46.46305 159.000
46.48299 153.000
46.50294 167.000
46.52289 144.000
46.54283 153.000
46.56278 153.000
46.58273 154.000
46.60267 126.000
46.62262 150.000
46.64257 149.000
46.66252 169.000
46.68246 147.000
46.70241 141.000
46.72236 148.000
46.74230 152.000
46.76225 146.000
46.78220 168.000
46.80214 145.000
46.82209 165.000
46.84204 147.000
46.86199 161.000
46.88193 157.000
46.90188 147.000
46.92183 180.000
46.94177 156.000
46.96172 144.000
46.98167 159.000
47.00161 161.000
47.02156 165.000
47.04151 153.000
47.06146 149.000
47.08140 145.000
47.10135 144.000
47.12130 144.000
47.14124 158.000
47.16119 170.000
47.18114 160.000
47.20108 145.000
47.22103 155.000
47.24098 152.000
47.26092 157.000
47.28087 141.000
47.30082 152.000
47.32077 151.000
47.34071 159.000
47.36066 152.000
47.38061 159.000
47.40055 145.000
47.42050 152.000
47.44045 127.000
47.46039 168.000
47.48034 152.000
47.50029 157.000
47.52024 143.000
47.54018 181.000
47.56013 151.000
47.58008 153.000
47.60002 167.000
47.61997 145.000
47.63992 161.000
47.65986 177.000
47.67981 165.000
47.69976 155.000
47.71970 179.000
47.73965 170.000
47.75960 172.000
47.77955 176.000
47.79949 144.000
47.81944 177.000
47.83939 166.000
47.85933 197.000
47.87928 173.000
47.89923 194.000
47.91917 188.000
47.93912 183.000
47.95907 173.000
47.97902 184.000
47.99896 184.000
48.01891 217.000
48.03886 194.000
48.05880 203.000
48.07875 209.000
48.09870 195.000
48.11864 222.000
48.13859 196.000
48.15854 209.000
48.17848 211.000
48.19843 229.000
48.21838 246.000
48.23833 234.000
48.25827 275.000
48.27822 269.000
48.29817 297.000
48.31811 330.000
48.33806 323.000
48.35801 351.000
48.37795 364.000
48.39790 395.000
48.41785 436.000
48.43780 440.000
48.45774 502.000
48.47769 599.000
48.49764 768.000
48.51758 903.000
48.53753 1066.000
48.55748 1212.000
48.57742 1345.000
48.59737 1428.000
48.61732 1444.000
48.63726 1467.000
48.65721 1458.000
48.67716 1293.000
48.69711 1266.000
48.71705 1130.000
48.73700 1118.000
48.75695 952.000
48.77689 832.000
48.79684 728.000
48.81679 611.000
48.83673 578.000
48.85668 493.000
48.87663 386.000
48.89658 389.000
48.91652 321.000
48.93647 308.000
48.95642 299.000
48.97636 236.000
48.99631 244.000
49.01626 263.000
49.03620 235.000
49.05615 235.000
49.07610 207.000
49.09605 217.000
49.11599 198.000
49.13594 197.000
49.15589 196.000
49.17583 210.000
49.19578 213.000
49.21573 161.000
49.23567 186.000
49.25562 177.000
49.27557 189.000
49.29551 184.000
49.31546 188.000
49.33541 172.000
49.35536 156.000
49.37530 171.000
49.39525 181.000
49.41520 177.000
49.43514 160.000
49.45509 142.000
49.47504 142.000
49.49498 163.000
49.51493 160.000
49.53488 154.000
49.55483 173.000
49.57477 153.000
49.59472 152.000
49.61467 159.000
49.63461 169.000
49.65456 163.000
49.67451 137.000
49.69445 151.000
49.71440 159.000
49.73435 147.000
49.75429 165.000
49.77424 169.000
49.79419 172.000
49.81414 158.000
49.83408 142.000
49.85403 160.000
49.87398 160.000
49.89392 145.000
49.91387 166.000
49.93382 158.000
49.95376 138.000
49.97371 153.000
49.99366 138.000
50.01361 175.000
50.03355 150.000
50.05350 151.000
50.07345 137.000
50.09339 155.000
50.11334 154.000
50.13329 164.000
50.15323 165.000
50.17318 159.000
50.19313 139.000
50.21307 153.000
50.23302 150.000
50.25297 148.000
50.27292 129.000
50.29286 141.000
50.31281 180.000
50.33276 143.000
50.35270 157.000
50.37265 152.000
50.39260 155.000
50.41254 167.000
50.43249 168.000
50.45244 155.000
50.47239 163.000
50.49233 153.000
50.51228 142.000
50.53223 153.000
50.55217 117.000
50.57212 153.000
50.59207 156.000
50.61201 164.000
50.63196 159.000
50.65191 150.000
50.67186 146.000
50.69180 156.000
50.71175 151.000
50.73170 154.000
50.75164 146.000
50.77159 153.000
50.79154 130.000
50.81148 149.000
50.83143 131.000
50.85138 150.000
50.87132 126.000
50.89127 162.000
50.91122 155.000
50.93117 143.000
50.95111 145.000
50.97106 146.000
50.99101 128.000
51.01095 139.000
51.03090 165.000
51.05085 166.000
51.07079 129.000
51.09074 149.000
51.11069 135.000
51.13064 137.000
51.15058 140.000
51.17053 155.000
51.19048 146.000
51.21042 118.000
51.23037 156.000
51.25032 166.000
51.27026 153.000
51.29021 165.000
51.31016 150.000
51.33010 160.000
51.35005 134.000
51.37000 160.000
51.38995 143.000
51.40989 160.000
51.42984 137.000
51.44979 134.000
51.46973 154.000
51.48968 152.000
51.50963 150.000
51.52957 136.000
51.54952 166.000
51.56947 141.000
51.58942 152.000
51.60936 158.000
51.62931 131.000
51.64926 124.000
51.66920 139.000
51.68915 136.000
51.70910 130.000
51.72904 152.000
51.74899 125.000
51.76894 121.000
51.78888 156.000
51.80883 134.000
51.82878 124.000
51.84873 121.000
51.86867 123.000
51.88862 136.000
51.90857 135.000
51.92851 133.000
51.94846 148.000
51.96841 132.000
51.98835 148.000
52.00830 150.000
52.02825 154.000
52.04820 111.000
52.06814 134.000
52.08809 149.000
52.10804 135.000
52.12798 138.000
52.14793 146.000
52.16788 138.000
52.18782 139.000
52.20777 143.000
52.22772 132.000
52.24767 145.000
52.26761 138.000
52.28756 162.000
52.30751 140.000
52.32745 130.000
52.34740 141.000
52.36735 142.000
52.38729 123.000
52.40724 155.000
52.42719 141.000
52.44713 147.000
52.46708 138.000
52.48703 137.000
52.50698 167.000
52.52692 138.000
52.54687 144.000
52.56682 141.000
52.58676 157.000
52.60671 152.000
52.62666 161.000
52.64660 134.000
52.66655 184.000
52.68650 140.000
52.70645 147.000
52.72639 161.000
52.74634 167.000
52.76629 155.000
52.78623 151.000
52.80618 162.000
52.82613 146.000
52.84607 155.000
52.86602 142.000
52.88597 148.000
52.90591 138.000
52.92586 148.000
52.94581 156.000
52.96576 140.000
52.98570 143.000
53.00565 153.000
53.02560 144.000
53.04554 168.000
53.06549 151.000
53.08544 147.000
53.10538 144.000
53.12533 150.000
53.14528 174.000
53.16523 145.000
53.18517 151.000
53.20512 167.000
53.22507 158.000
53.24501 164.000
53.26496 139.000
53.28491 156.000
53.30485 160.000
53.32480 155.000
53.34475 143.000
53.36469 154.000
53.38464 138.000
53.40459 166.000
53.42454 149.000
53.44448 165.000
53.46443 155.000
53.48438 155.000
53.50432 136.000
53.52427 131.000
53.54422 148.000
53.56416 156.000
53.58411 143.000
53.60406 143.000
53.62401 155.000
53.64395 141.000
53.66390 153.000
53.68385 153.000
53.70379 162.000
53.72374 165.000
53.74369 149.000
53.76363 160.000
53.78358 161.000
53.80353 142.000
53.82348 140.000
53.84342 160.000
53.86337 143.000
53.88332 132.000
53.90326 156.000
53.92321 149.000
53.94316 137.000
53.96310 155.000
53.98305 182.000
54.00300 142.000
54.02294 155.000
54.04289 148.000
54.06284 162.000
54.08279 172.000
54.10273 145.000
54.12268 142.000
54.14263 161.000
54.16257 152.000
54.18252 158.000
54.20247 198.000
54.22241 142.000
54.24236 138.000
54.26231 145.000
54.28226 133.000
54.30220 189.000
54.32215 127.000
54.34210 147.000
54.36204 134.000
54.38199 174.000
54.40194 130.000
54.42188 146.000
54.44183 137.000
54.46178 141.000
54.48172 135.000
54.50167 155.000
54.52162 131.000
54.54157 136.000
54.56151 152.000
54.58146 131.000
54.60141 125.000
54.62135 150.000
54.64130 121.000
54.66125 158.000
54.68119 144.000
54.70114 147.000
54.72109 140.000
54.74104 131.000
54.76098 140.000
54.78093 146.000
54.80088 122.000
54.82082 134.000
54.84077 115.000
54.86072 147.000
54.88066 146.000
54.90061 128.000
54.92056 141.000
54.94050 157.000
54.96045 133.000
54.98040 134.000
55.00035 139.000
55.02029 128.000
55.04024 147.000
55.06019 127.000
55.08013 140.000
55.10008 117.000
55.12003 161.000
55.13997 143.000
55.15992 153.000
55.17987 145.000
55.19982 129.000
55.21976 138.000
55.23971 147.000
55.25966 146.000
55.27960 116.000
55.29955 131.000
55.31950 139.000
55.33944 141.000
55.35939 152.000
55.37934 119.000
55.39929 153.000
55.41923 131.000
55.43918 136.000
55.45913 127.000
55.47907 124.000
55.49902 127.000
55.51897 132.000
55.53891 123.000
55.55886 158.000
55.57881 134.000
55.59875 136.000
55.61870 147.000
55.63865 131.000
55.65860 142.000
55.67854 150.000
55.69849 138.000
55.71844 110.000
55.73838 132.000
55.75833 151.000
55.77828 153.000
55.79822 144.000
55.81817 151.000
55.83812 138.000
55.85807 115.000
55.87801 142.000
55.89796 163.000
55.91791 123.000
55.93785 157.000
55.95780 129.000
55.97775 136.000
55.99769 124.000
56.01764 132.000
56.03759 148.000
56.05753 149.000
56.07748 141.000
56.09743 140.000
56.11738 142.000
56.13732 137.000
56.15727 147.000
56.17722 126.000
56.19716 143.000
56.21711 148.000
56.23706 146.000
56.25700 129.000
56.27695 145.000
56.29690 133.000
56.31685 142.000
56.33679 145.000
56.35674 164.000
56.37669 147.000
56.39663 147.000
56.41658 141.000
56.43653 138.000
56.45647 140.000
56.47642 152.000
56.49637 151.000
56.51631 159.000
56.53626 130.000
56.55621 127.000
56.57616 130.000
56.59610 169.000
56.61605 127.000
56.63600 140.000
56.65594 142.000
56.67589 150.000
56.69584 170.000
56.71578 148.000
56.73573 146.000
56.75568 158.000
56.77563 136.000
56.79557 141.000
56.81552 144.000
56.83547 129.000
56.85541 134.000
56.87536 149.000
56.89531 157.000
56.91525 162.000
56.93520 134.000
56.95515 141.000
56.97510 143.000
56.99504 153.000
57.01499 143.000
57.03494 143.000
57.05488 132.000
57.07483 154.000
57.09478 135.000
57.11472 142.000
57.13467 151.000
57.15462 158.000
57.17456 158.000
57.19451 159.000
57.21446 151.000
57.23441 154.000
57.25435 153.000
57.27430 155.000
57.29425 175.000
57.31419 181.000
57.33414 188.000
57.35409 141.000
57.37403 185.000
57.39398 181.000
57.41393 198.000
57.43388 208.000
57.45382 178.000
57.47377 185.000
57.49372 203.000
57.51366 211.000
57.53361 180.000
57.55356 212.000
57.57350 193.000
57.59345 215.000
57.61340 195.000
57.63334 200.000
57.65329 209.000
57.67324 201.000
57.69319 211.000
57.71313 206.000
57.73308 219.000
57.75303 208.000
57.77297 162.000
57.79292 177.000
57.81287 190.000
57.83281 174.000
57.85276 174.000
57.87271 186.000
57.89266 172.000
57.91260 182.000
57.93255 162.000
57.95250 177.000
57.97244 166.000
57.99239 179.000
58.01234 169.000
58.03228 164.000
58.05223 150.000
58.07218 147.000
58.09212 149.000
58.11207 152.000
58.13202 154.000
58.15197 176.000
58.17191 145.000
58.19186 162.000
58.21181 165.000
58.23175 159.000
58.25170 162.000
58.27165 167.000
58.29159 145.000
58.31154 146.000
58.33149 144.000
58.35144 165.000
58.37138 170.000
58.39133 154.000
58.41128 164.000
58.43122 145.000
58.45117 158.000
58.47112 126.000
58.49106 132.000
58.51101 151.000
58.53096 132.000
58.55090 144.000
58.57085 136.000
58.59080 143.000
58.61075 143.000
58.63069 149.000
58.65064 133.000
58.67059 129.000
58.69053 142.000
58.71048 142.000
58.73043 128.000
58.75037 164.000
58.77032 137.000
58.79027 141.000
58.81022 146.000
58.83016 161.000
58.85011 156.000
58.87006 138.000
58.89000 143.000
58.90995 134.000
58.92990 160.000
58.94984 150.000
58.96979 109.000
58.98974 151.000
59.00969 127.000
59.02963 131.000
59.04958 144.000
59.06953 144.000
59.08947 144.000
59.10942 162.000
59.12937 157.000
59.14931 149.000
59.16926 128.000
59.18921 143.000
59.20915 148.000
59.22910 170.000
59.24905 154.000
59.26900 124.000
59.28894 130.000
59.30889 167.000
59.32884 151.000
59.34878 145.000
59.36873 143.000
59.38868 150.000
59.40862 140.000
59.42857 140.000
59.44852 127.000
59.46847 156.000
59.48841 153.000
59.50836 139.000
59.52831 154.000
59.54825 133.000
59.56820 139.000
59.58815 145.000
59.60809 137.000
59.62804 130.000
59.64799 150.000
59.66793 177.000
59.68788 137.000
59.70783 135.000
59.72778 185.000
59.74772 146.000
59.76767 121.000
59.78762 150.000
59.80756 143.000
59.82751 126.000
59.84746 134.000
59.86740 161.000
59.88735 142.000
59.90730 159.000
59.92725 145.000
59.94719 148.000
59.96714 147.000
59.98709 136.000
60.00703 152.000
60.02698 132.000
60.04693 163.000
60.06687 141.000
60.08682 146.000
60.10677 151.000
60.12671 140.000
60.14666 143.000
60.16661 148.000
60.18656 149.000
60.20650 148.000
60.22645 137.000
60.24640 127.000
60.26634 142.000
60.28629 144.000
60.30624 134.000
60.32618 122.000
60.34613 151.000
60.36608 165.000
60.38603 149.000
60.40597 153.000
60.42592 158.000
60.44587 121.000
60.46581 152.000
60.48576 139.000
60.50571 121.000
60.52565 138.000
60.54560 152.000
60.56555 149.000
60.58550 159.000
60.60544 157.000
60.62539 143.000
60.64534 165.000
60.66528 151.000
60.68523 144.000
60.70518 120.000
60.72512 163.000
60.74507 151.000
60.76502 160.000
60.78496 158.000
60.80491 145.000
60.82486 161.000
60.84481 146.000
60.86475 164.000
60.88470 148.000
60.90465 156.000
60.92459 159.000
60.94454 160.000
60.96449 162.000
60.98443 151.000
61.00438 157.000
61.02433 151.000
61.04428 179.000
61.06422 167.000
61.08417 164.000
61.10412 166.000
61.12406 161.000
61.14401 142.000
61.16396 180.000
61.18390 188.000
61.20385 159.000
61.22380 172.000
61.24374 203.000
61.26369 183.000
61.28364 200.000
61.30359 217.000
61.32353 206.000
61.34348 215.000
61.36343 239.000
61.38337 237.000
61.40332 244.000
61.42327 260.000
61.44321 260.000
61.46316 264.000
61.48311 284.000
61.50306 333.000
61.52300 358.000
61.54295 365.000
61.56290 384.000
61.58284 407.000
61.60279 464.000
61.62274 494.000
61.64268 519.000
61.66263 583.000
61.68258 613.000
61.70252 641.000
61.72247 671.000
61.74242 596.000
61.76237 579.000
61.78231 601.000
61.80226 536.000
61.82221 501.000
61.84215 535.000
61.86210 508.000
61.88205 492.000
61.90199 432.000
61.92194 434.000
61.94189 361.000
61.96184 306.000
61.98178 307.000
62.00173 280.000
62.02168 281.000
62.04162 231.000
62.06157 250.000
62.08152 203.000
62.10146 206.000
62.12141 234.000
62.14136 223.000
62.16131 205.000
62.18125 180.000
62.20120 195.000
62.22115 166.000
62.24109 192.000
62.26104 194.000
62.28099 168.000
62.30093 183.000
62.32088 166.000
62.34083 198.000
62.36077 145.000
62.38072 190.000
62.40067 170.000
62.42062 156.000
62.44056 152.000
62.46051 161.000
62.48046 150.000
62.50040 174.000
62.52035 196.000
62.54030 193.000
62.56024 179.000
62.58019 164.000
62.60014 162.000
62.62009 168.000
62.64003 137.000
62.65998 139.000
62.67993 165.000
62.69987 174.000
62.71982 174.000
62.73977 181.000
62.75971 174.000
62.77966 151.000
62.79961 164.000
62.81955 159.000
62.83950 148.000
62.85945 172.000
62.87940 182.000
62.89934 151.000
62.91929 159.000
62.93924 150.000
62.95918 173.000
62.97913 175.000
62.99908 168.000
63.01902 188.000
63.03897 179.000
63.05892 174.000
63.07887 159.000
63.09881 210.000
63.11876 196.000
63.13871 203.000
63.15865 183.000
63.17860 204.000
63.19855 228.000
63.21849 217.000
63.23844 202.000
63.25839 213.000
63.27833 216.000
63.29828 212.000
63.31823 202.000
63.33818 198.000
63.35812 229.000
63.37807 210.000
63.39802 224.000
63.41796 215.000
63.43791 212.000
63.45786 201.000
63.47780 183.000
63.49775 193.000
63.51770 186.000
63.53765 205.000
63.55759 195.000
63.57754 176.000
63.59749 181.000
63.61743 193.000
63.63738 184.000
63.65733 184.000
63.67727 174.000
63.69722 181.000
63.71717 173.000
63.73712 157.000
63.75706 173.000
63.77701 153.000
63.79696 149.000
63.81690 143.000
63.83685 167.000
63.85680 146.000
63.87674 139.000
63.89669 148.000
63.91664 175.000
63.93658 143.000
63.95653 141.000
63.97648 147.000
63.99643 167.000
64.01637 137.000
64.03632 162.000
64.05627 182.000
64.07621 166.000
64.09616 156.000
64.11611 176.000
64.13605 143.000
64.15600 169.000
64.17595 186.000
64.19590 176.000
64.21584 168.000
64.23579 164.000
64.25574 176.000
64.27568 204.000
64.29563 194.000
64.31558 216.000
64.33552 231.000
64.35547 226.000
64.37542 254.000
64.39536 267.000
64.41531 268.000
64.43526 273.000
64.45521 320.000
64.47515 381.000
64.49510 438.000
64.51505 441.000
64.53499 509.000
64.55494 577.000
64.57489 499.000
64.59483 545.000
64.61478 525.000
64.63473 454.000
64.65468 449.000
64.67462 456.000
64.69457 400.000
64.71452 441.000
64.73446 448.000
64.75441 442.000
64.77436 357.000
64.79430 353.000
64.81425 309.000
64.83420 247.000
64.85414 270.000
64.87409 244.000
64.89404 241.000
64.91399 234.000
64.93393 184.000
64.95388 187.000
64.97383 187.000
64.99377 187.000
65.01372 179.000
65.03367 203.000
65.05361 182.000
65.07356 156.000
65.09351 145.000
65.11346 157.000
65.13340 160.000
65.15335 164.000
65.17330 162.000
65.19324 148.000
65.21319 156.000
65.23314 166.000
65.25308 161.000
65.27303 173.000
65.29298 193.000
65.31293 170.000
65.33287 176.000
65.35282 139.000
65.37277 167.000
65.39271 147.000
65.41266 154.000
65.43261 158.000
65.45255 144.000
65.47250 160.000
65.49245 154.000
65.51239 153.000
65.53234 155.000
65.55229 166.000
65.57224 167.000
65.59218 149.000
65.61213 172.000
65.63208 182.000
65.65202 175.000
65.67197 167.000
65.69192 170.000
65.71186 149.000
65.73181 142.000
65.75176 132.000
65.77171 144.000
65.79165 185.000
65.81160 164.000
65.83155 184.000
65.85149 173.000
65.87144 165.000
65.89139 174.000
65.91133 162.000
65.93128 193.000
65.95123 165.000
65.97117 189.000
65.99112 198.000
66.01107 180.000
66.03102 187.000
66.05096 170.000
66.07091 205.000
66.09086 211.000
66.11080 206.000
66.13075 217.000
66.15070 243.000
66.17064 256.000
66.19059 237.000
66.21054 227.000
66.23049 228.000
66.25043 241.000
66.27038 250.000
66.29033 258.000
66.31027 257.000
66.33022 249.000
66.35017 219.000
66.37011 234.000
66.39006 244.000
66.41001 197.000
66.42995 212.000
66.44990 235.000
66.46985 213.000
66.48980 209.000
66.50974 198.000
66.52969 191.000
66.54964 219.000
66.56958 216.000
66.58953 201.000
66.60948 185.000
66.62942 222.000
66.64937 218.000
66.66932 187.000
66.68927 232.000
66.70921 203.000
66.72916 189.000
66.74911 254.000
66.76905 241.000
66.78900 242.000
66.80895 287.000
66.82889 322.000
66.84884 348.000
66.86879 391.000
66.88874 416.000
66.90868 447.000
66.92863 428.000
66.94858 403.000
66.96852 433.000
66.98847 372.000
67.00842 379.000
67.02836 379.000
67.04831 337.000
67.06826 339.000
67.08820 315.000
67.10815 332.000
67.12810 322.000
67.14805 316.000
67.16799 281.000
67.18794 255.000
67.20789 245.000
67.22783 213.000
67.24778 205.000
67.26773 200.000
67.28767 183.000
67.30762 190.000
67.32757 150.000
67.34752 156.000
67.36746 169.000
67.38741 162.000
67.40736 182.000
67.42730 158.000
67.44725 167.000
67.46720 154.000
67.48714 181.000
67.50709 167.000
67.52704 172.000
67.54698 168.000
67.56693 171.000
67.58688 159.000
67.60683 165.000
67.62677 167.000
67.64672 198.000
67.66667 163.000
67.68661 154.000
67.70656 130.000
67.72651 188.000
67.74645 162.000
67.76640 165.000
67.78635 176.000
67.80630 179.000
67.82624 175.000
67.84619 169.000
67.86614 162.000
67.88608 175.000
67.90603 162.000
67.92598 184.000
67.94592 177.000
67.96587 192.000
67.98582 165.000
68.00576 156.000
68.02571 188.000
68.04566 157.000
68.06561 174.000
68.08555 168.000
68.10550 133.000
68.12545 155.000
68.14539 180.000
68.16534 154.000
68.18529 135.000
68.20523 128.000
68.22518 166.000
68.24513 162.000
68.26508 186.000
68.28502 143.000
68.30497 167.000
68.32492 120.000
68.34486 153.000
68.36481 140.000
68.38476 161.000
68.40470 143.000
68.42465 138.000
68.44460 149.000
68.46455 155.000
68.48449 152.000
68.50444 138.000
68.52439 141.000
68.54433 138.000
68.56428 139.000
68.58423 140.000
68.60417 134.000
68.62412 142.000
68.64407 128.000
68.66401 133.000
68.68396 140.000
68.70391 143.000
68.72386 149.000
68.74380 152.000
68.76375 121.000
68.78370 142.000
68.80364 131.000
68.82359 140.000
68.84354 129.000
68.86348 126.000
68.88343 131.000
68.90338 145.000
68.92333 159.000
68.94327 142.000
68.96322 124.000
68.98317 140.000
69.00311 163.000
69.02306 136.000
69.04301 131.000
69.06295 147.000
69.08290 150.000
69.10285 133.000
69.12279 143.000
69.14274 141.000
69.16269 129.000
69.18264 145.000
69.20258 148.000
69.22253 139.000
69.24248 137.000
69.26242 140.000
69.28237 149.000
69.30232 149.000
69.32226 124.000
69.34221 130.000
69.36216 121.000
69.38211 149.000
69.40205 138.000
69.42200 143.000
69.44195 130.000
69.46189 152.000
69.48184 153.000
69.50179 138.000
69.52173 144.000
69.54168 133.000
69.56163 128.000
69.58157 129.000
69.60152 131.000
69.62147 152.000
69.64142 154.000
69.66136 124.000
69.68131 135.000
69.70126 153.000
69.72120 138.000
69.74115 136.000
69.76110 162.000
69.78104 135.000
69.80099 142.000
69.82094 137.000
69.84089 141.000
69.86083 137.000
69.88078 149.000
69.90073 153.000
69.92067 151.000
69.94062 148.000
69.96057 140.000
69.98051 146.000
70.00046 148.000
70.02041 125.000
70.04035 134.000
70.06030 125.000
70.08025 131.000
70.10020 114.000
70.12014 140.000
70.14009 155.000
70.16004 140.000
70.17998 134.000
70.19993 129.000
70.21988 138.000
70.23982 136.000
70.25977 136.000
70.27972 123.000
70.29967 133.000
70.31961 137.000
70.33956 164.000
70.35951 129.000
70.37945 122.000
70.39940 142.000
70.41935 141.000
70.43929 140.000
70.45924 140.000
70.47919 127.000
70.49914 143.000
70.51908 143.000
70.53903 135.000
70.55898 151.000
70.57892 147.000
70.59887 142.000
70.61882 126.000
70.63876 146.000
70.65871 130.000
70.67866 128.000
70.69860 117.000
70.71855 128.000
70.73850 111.000
70.75845 143.000
70.77839 156.000
70.79834 151.000
70.81829 125.000
70.83823 127.000
70.85818 148.000
70.87813 152.000
70.89807 152.000
70.91802 156.000
70.93797 110.000
70.95792 117.000
70.97786 140.000
70.99781 141.000
71.01776 151.000
71.03770 136.000
71.05765 128.000
71.07760 135.000
71.09754 142.000
71.11749 146.000
71.13744 155.000
71.15738 117.000
71.17733 135.000
71.19728 144.000
71.21723 134.000
71.23717 136.000
71.25712 136.000
71.27707 145.000
71.29701 140.000
71.31696 116.000
71.33691 126.000
71.35685 112.000
71.37680 128.000
71.39675 150.000
71.41670 148.000
71.43664 119.000
71.45659 134.000
71.47654 128.000
71.49648 136.000
71.51643 137.000
71.53638 157.000
71.55632 162.000
71.57627 136.000
71.59622 140.000
71.61616 143.000
71.63611 146.000
71.65606 139.000
71.67601 133.000
71.69595 144.000
71.71590 143.000
71.73585 145.000
71.75579 122.000
71.77574 143.000
71.79569 144.000
71.81563 130.000
71.83558 137.000
71.85553 154.000
71.87548 153.000
71.89542 134.000
71.91537 116.000
71.93532 129.000
71.95526 144.000
71.97521 154.000
71.99516 133.000
72.01510 123.000
72.03505 158.000
72.05500 149.000
72.07495 163.000
72.09489 171.000
72.11484 154.000
72.13479 133.000
72.15473 115.000
72.17468 153.000
72.19463 153.000
72.21457 134.000
72.23452 147.000
72.25447 153.000
72.27441 144.000
72.29436 162.000
72.31431 136.000
72.33426 149.000
72.35420 160.000
72.37415 154.000
72.39410 157.000
72.41404 149.000
72.43399 150.000
72.45394 163.000
72.47388 138.000
72.49383 152.000
72.51378 143.000
72.53373 127.000
72.55367 126.000
72.57362 149.000
72.59357 146.000
72.61351 144.000
72.63346 157.000
72.65341 141.000
72.67335 126.000
72.69330 128.000
72.71325 122.000
72.73319 149.000
72.75314 123.000
72.77309 127.000
72.79304 160.000
72.81298 142.000
72.83293 136.000
72.85288 133.000
72.87282 148.000
72.89277 134.000
72.91272 110.000
72.93266 142.000
72.95261 147.000
72.97256 137.000
72.99251 129.000
73.01245 151.000
73.03240 126.000
73.05235 116.000
73.07229 125.000
73.09224 110.000
73.11219 135.000
73.13213 114.000
73.15208 135.000
73.17203 133.000
73.19197 134.000
73.21192 141.000
73.23187 127.000
73.25182 129.000
73.27176 151.000
73.29171 153.000
73.31166 148.000
73.33160 151.000
73.35155 113.000
73.37150 160.000
73.39144 162.000
73.41139 131.000
73.43134 150.000
73.45129 152.000
73.47123 161.000
73.49118 149.000
73.51113 144.000
73.53107 170.000
73.55102 168.000
73.57097 156.000
73.59091 156.000
73.61086 168.000
73.63081 204.000
73.65076 199.000
73.67070 207.000
73.69065 205.000
73.71060 241.000
73.73054 240.000
73.75049 289.000
73.77044 240.000
73.79038 264.000
73.81033 243.000
73.83028 234.000
73.85022 214.000
73.87017 207.000
73.89012 209.000
73.91007 202.000
73.93001 220.000
73.94996 223.000
73.96991 217.000
73.98985 210.000
74.00980 198.000
74.02975 211.000
74.04969 187.000
74.06964 150.000
74.08959 179.000
74.10954 179.000
74.12948 186.000
74.14943 150.000
74.16938 153.000
74.18932 132.000
74.20927 141.000
74.22922 164.000
74.24916 136.000
74.26911 148.000
74.28906 149.000
74.30900 136.000
74.32895 134.000
74.34890 163.000
74.36885 135.000
74.38879 151.000
74.40874 152.000
74.42869 147.000
74.44863 139.000
74.46858 162.000
74.48853 141.000
74.50847 126.000
74.52842 130.000
74.54837 152.000
74.56832 141.000
74.58826 135.000
74.60821 138.000
74.62816 146.000
74.64810 157.000
74.66805 151.000
74.68800 151.000
74.70794 161.000
74.72789 140.000
74.74784 130.000
74.76778 146.000
74.78773 160.000
74.80768 160.000
74.82763 162.000
74.84757 142.000
74.86752 159.000
74.88747 148.000
74.90741 156.000
74.92736 142.000
74.94731 177.000
74.96725 155.000
74.98720 144.000
75.00715 161.000
75.02710 140.000
75.04704 166.000
75.06699 179.000
75.08694 168.000
75.10688 135.000
75.12683 171.000
75.14678 172.000
75.16672 147.000
75.18667 137.000
75.20662 146.000
75.22657 152.000
75.24651 163.000
75.26646 144.000
75.28641 151.000
75.30635 174.000
75.32630 146.000
75.34625 134.000
75.36619 149.000
75.38614 140.000
75.40609 153.000
75.42603 163.000
75.44598 134.000
75.46593 120.000
75.48588 147.000
75.50582 128.000
75.52577 126.000
75.54572 157.000
75.56566 122.000
75.58561 143.000
75.60556 141.000
75.62550 148.000
75.64545 127.000
75.66540 119.000
75.68535 161.000
75.70529 126.000
75.72524 151.000
75.74519 146.000
75.76513 134.000
75.78508 156.000
75.80503 124.000
75.82497 163.000
75.84492 117.000
75.86487 167.000
75.88481 138.000
75.90476 130.000
75.92471 158.000
75.94466 145.000
75.96460 151.000
75.98455 164.000
76.00450 173.000
76.02444 144.000
76.04439 151.000
76.06434 177.000
76.08428 175.000
76.10423 159.000
76.12418 169.000
76.14413 188.000
76.16407 201.000
76.18402 173.000
76.20397 184.000
76.22391 186.000
76.24386 176.000
76.26381 166.000
76.28375 193.000
76.30370 176.000
76.32365 174.000
76.34359 154.000
76.36354 150.000
76.38349 187.000
76.40344 169.000
76.42338 153.000
76.44333 166.000
76.46328 158.000
76.48322 155.000
76.50317 177.000
76.52312 155.000
76.54306 153.000
76.56301 154.000
76.58296 140.000
76.60291 155.000
76.62285 137.000
76.64280 157.000
76.66275 137.000
76.68269 163.000
76.70264 148.000
76.72259 150.000
76.74253 141.000
76.76248 149.000
76.78243 140.000
76.80238 149.000
76.82232 126.000
76.84227 153.000
76.86222 154.000
76.88216 136.000
76.90211 129.000
76.92206 148.000
76.94200 136.000
76.96195 148.000
76.98190 131.000
77.00184 138.000
77.02179 148.000
77.04174 132.000
77.06169 169.000
77.08163 145.000
77.10158 125.000
77.12153 128.000
77.14147 157.000
77.16142 160.000
77.18137 141.000
77.20131 151.000
77.22126 142.000
77.24121 135.000
77.26116 155.000
77.28110 155.000
77.30105 148.000
77.32100 158.000
77.34094 164.000
77.36089 145.000
77.38084 154.000
77.40078 184.000
77.42073 174.000
77.44068 171.000
77.46062 162.000
77.48057 173.000
77.50052 165.000
77.52047 194.000
77.54041 185.000
77.56036 193.000
77.58031 185.000
77.60025 210.000
77.62020 225.000
77.64015 240.000
77.66009 217.000
77.68004 260.000
77.69999 259.000
77.71994 282.000
77.73988 234.000
77.75983 270.000
77.77978 266.000
77.79972 258.000
77.81967 251.000
77.83962 266.000
77.85956 267.000
77.87951 266.000
77.89946 253.000
77.91940 227.000
77.93935 227.000
77.95930 253.000
77.97925 232.000
77.99919 239.000
78.01914 211.000
78.03909 239.000
78.05903 236.000
78.07898 209.000
78.09893 194.000
78.11887 195.000
78.13882 190.000
78.15877 172.000
78.17872 180.000
78.19866 204.000
78.21861 210.000
78.23856 190.000
78.25850 185.000
78.27845 214.000
78.29840 198.000
78.31834 217.000
78.33829 226.000
78.35824 240.000
78.37819 245.000
78.39813 290.000
78.41808 215.000
78.43803 251.000
78.45797 239.000
78.47792 243.000
78.49787 239.000
78.51781 228.000
78.53776 235.000
78.55771 213.000
78.57765 237.000
78.59760 247.000
78.61755 221.000
78.63750 193.000
78.65744 223.000
78.67739 213.000
78.69734 174.000
78.71728 172.000
78.73723 176.000
78.75718 144.000
78.77712 165.000
78.79707 141.000
78.81702 181.000
78.83697 144.000
78.85691 156.000
78.87686 156.000
78.89681 139.000
78.91675 158.000
78.93670 142.000
78.95665 148.000
78.97659 145.000
78.99654 123.000
79.01649 168.000
79.03643 131.000
79.05638 153.000
79.07633 148.000
79.09628 143.000
79.11622 141.000
79.13617 147.000
79.15612 152.000
79.17606 116.000
79.19601 129.000
79.21596 137.000
79.23590 141.000
79.25585 152.000
79.27580 130.000
79.29575 125.000
79.31569 139.000
79.33564 138.000
79.35559 127.000
79.37553 141.000
79.39548 137.000
79.41543 130.000
79.43537 148.000
79.45532 109.000
79.47527 146.000
79.49521 124.000
79.51516 135.000
79.53511 158.000
79.55506 141.000
79.57500 146.000
79.59495 154.000
79.61490 135.000
79.63484 131.000
79.65479 142.000
79.67474 120.000
79.69468 130.000
79.71463 146.000
79.73458 145.000
79.75453 141.000
79.77447 117.000
79.79442 161.000
79.81437 133.000
79.83431 143.000
79.85426 136.000
79.87421 128.000
79.89415 134.000
79.91410 133.000
79.93405 144.000
79.95399 119.000
79.97394 139.000
79.99389 118.000
80.01384 134.000
80.03378 153.000
80.05373 145.000
80.07368 154.000
80.09362 168.000
80.11357 173.000
80.13352 148.000
80.15346 167.000
80.17341 144.000
80.19336 139.000
80.21331 136.000
80.23325 140.000
80.25320 110.000
80.27315 147.000
80.29309 140.000
80.31304 134.000
80.33299 136.000
80.35293 115.000
80.37288 108.000
80.39283 137.000
80.41278 144.000
80.43272 145.000
80.45267 123.000
80.47262 123.000
80.49256 128.000
80.51251 135.000
80.53246 144.000
80.55240 140.000
80.57235 134.000
80.59230 122.000
80.61224 138.000
80.63219 135.000
80.65214 130.000
80.67209 151.000
80.69203 119.000
80.71198 142.000
80.73193 128.000
80.75187 133.000
80.77182 123.000
80.79177 141.000
80.81171 156.000
80.83166 130.000
80.85161 124.000
80.87156 151.000
80.89150 135.000
80.91145 140.000
80.93140 135.000
80.95134 147.000
80.97129 128.000
80.99124 139.000
81.01118 126.000
81.03113 129.000
81.05108 166.000
81.07102 156.000
81.09097 156.000
81.11092 169.000
81.13087 132.000
81.15081 146.000
81.17076 142.000
81.19071 164.000
81.21065 148.000
81.23060 142.000
81.25055 129.000
81.27049 132.000
81.29044 131.000
81.31039 150.000
81.33034 152.000
81.35028 149.000
81.37023 166.000
81.39018 121.000
81.41012 140.000
81.43007 131.000
81.45002 130.000
81.46996 128.000
81.48991 122.000
81.50986 137.000
81.52980 127.000
81.54975 140.000
81.56970 121.000
81.58965 138.000
81.60959 137.000
81.62954 143.000
81.64949 133.000
81.66943 129.000
81.68938 132.000
81.70933 132.000
81.72927 150.000
81.74922 132.000
81.76917 137.000
81.78912 130.000
81.80906 121.000
81.82901 115.000
81.84896 120.000
81.86890 124.000
81.88885 139.000
81.90880 111.000
81.92874 118.000
81.94869 135.000
81.96864 122.000
81.98859 140.000
82.00853 139.000
82.02848 126.000
82.04843 134.000
82.06837 159.000
82.08832 119.000
82.10827 151.000
82.12821 130.000
82.14816 134.000
82.16811 119.000
82.18805 129.000
82.20800 139.000
82.22795 159.000
82.24790 133.000
82.26784 134.000
82.28779 131.000
82.30774 143.000
82.32768 123.000
82.34763 131.000
82.36758 132.000
82.38752 140.000
82.40747 147.000
82.42742 144.000
82.44737 137.000
82.46731 154.000
82.48726 142.000
82.50721 109.000
82.52715 133.000
82.54710 127.000
82.56705 111.000
82.58699 141.000
82.60694 129.000
82.62689 142.000
82.64683 130.000
82.66678 142.000
82.68673 144.000
82.70668 118.000
82.72662 126.000
82.74657 132.000
82.76652 129.000
82.78646 148.000
82.80641 136.000
82.82636 123.000
82.84630 147.000
82.86625 131.000
82.88620 144.000
82.90615 145.000
82.92609 135.000
82.94604 134.000
82.96599 142.000
82.98593 134.000
83.00588 130.000
83.02583 140.000
83.04577 148.000
83.06572 146.000
83.08567 116.000
83.10561 135.000
83.12556 147.000
83.14551 144.000
83.16546 134.000
83.18540 135.000
83.20535 153.000
83.22530 138.000
83.24524 148.000
83.26519 151.000
83.28514 132.000
83.30508 132.000
83.32503 151.000
83.34498 159.000
83.36493 121.000
83.38487 145.000
83.40482 121.000
83.42477 138.000
83.44471 149.000
83.46466 123.000
83.48461 141.000
83.50455 157.000
83.52450 140.000
83.54445 138.000
83.56440 146.000
83.58434 157.000
83.60429 165.000
83.62424 147.000
83.64418 151.000
83.66413 164.000
83.68408 151.000
83.70402 137.000
83.72397 129.000
83.74392 132.000
83.76386 134.000
83.78381 140.000
83.80376 143.000
83.82371 161.000
83.84365 122.000
83.86360 150.000
83.88355 126.000
83.90349 128.000
83.92344 146.000
83.94339 131.000
83.96333 127.000
83.98328 147.000
84.00323 138.000
84.02318 134.000
84.04312 123.000
84.06307 162.000
84.08302 151.000
84.10296 143.000
84.12291 137.000
84.14286 134.000
84.16280 144.000
84.18275 135.000
84.20270 141.000
84.22264 123.000
84.24259 148.000
84.26254 160.000
84.28249 127.000
84.30243 145.000
84.32238 147.000
84.34233 155.000
84.36227 144.000
84.38222 131.000
84.40217 157.000
84.42211 151.000
84.44206 145.000
84.46201 158.000
84.48196 147.000
84.50190 133.000
84.52185 145.000
84.54180 162.000
84.56174 146.000
84.58169 149.000
84.60164 162.000
84.62158 156.000
84.64153 178.000
84.66148 172.000
84.68142 172.000
84.70137 204.000
84.72132 163.000
84.74127 212.000
84.76121 184.000
84.78116 215.000
84.80111 215.000
84.82105 232.000
84.84100 230.000
84.86095 267.000
84.88089 261.000
84.90084 272.000
84.92079 303.000
84.94074 253.000
84.96068 250.000
84.98063 260.000
85.00058 247.000
85.02052 242.000
85.04047 235.000
85.06042 220.000
85.08036 200.000
85.10031 228.000
85.12026 221.000
85.14021 204.000
85.16015 219.000
85.18010 215.000
85.20005 221.000
85.21999 205.000
85.23994 177.000
85.25989 194.000
85.27983 158.000
85.29978 173.000
85.31973 180.000
85.33967 139.000
85.35962 136.000
85.37957 133.000
85.39952 137.000
85.41946 153.000
85.43941 153.000
85.45936 139.000
85.47930 156.000
85.49925 176.000
85.51920 141.000
85.53914 164.000
85.55909 158.000
85.57904 150.000
85.59899 145.000
85.61893 132.000
85.63888 151.000
85.65883 159.000
85.67877 143.000
85.69872 132.000
85.71867 127.000
85.73861 130.000
85.75856 121.000
85.77851 110.000
85.79845 128.000
85.81840 141.000
85.83835 148.000
85.85830 131.000
85.87824 144.000
85.89819 146.000
85.91814 129.000
85.93808 150.000
85.95803 157.000
85.97798 152.000
85.99792 161.000
86.01787 127.000
86.03782 142.000
86.05777 158.000
86.07771 158.000
86.09766 142.000
86.11761 157.000
86.13755 153.000
86.15750 140.000
86.17745 147.000
86.19739 154.000
86.21734 157.000
86.23729 164.000
86.25723 153.000
86.27718 146.000
86.29713 160.000
86.31708 143.000
86.33702 141.000
86.35697 140.000
86.37692 121.000
86.39686 175.000
86.41681 144.000
86.43676 148.000
86.45670 138.000
86.47665 145.000
86.49660 146.000
86.51655 151.000
86.53649 160.000
86.55644 159.000
86.57639 142.000
86.59633 155.000
86.61628 132.000
86.63623 124.000
86.65617 135.000
86.67612 150.000
86.69607 132.000
86.71602 144.000
86.73596 151.000
86.75591 117.000
86.77586 150.000
86.79580 160.000
86.81575 160.000
86.83570 152.000
86.85564 144.000
86.87559 143.000
86.89554 130.000
86.91548 134.000
86.93543 137.000
86.95538 139.000
86.97533 140.000
86.99527 157.000
87.01522 153.000
87.03517 156.000
87.05511 156.000
87.07506 136.000
87.09501 144.000
87.11495 140.000
87.13490 164.000
87.15485 135.000
87.17480 159.000
87.19474 132.000
87.21469 137.000
87.23464 157.000
87.25458 134.000
87.27453 161.000
87.29448 156.000
87.31442 130.000
87.33437 146.000
87.35432 172.000
87.37426 134.000
87.39421 143.000
87.41416 126.000
87.43411 131.000
87.45405 131.000
87.47400 125.000
87.49395 149.000
87.51389 133.000
87.53384 129.000
87.55379 135.000
87.57373 118.000
87.59368 155.000
87.61363 131.000
87.63358 141.000
87.65352 119.000
87.67347 144.000
87.69342 118.000
87.71336 131.000
87.73331 145.000
87.75326 142.000
87.77320 134.000
87.79315 128.000
87.81310 138.000
87.83304 139.000
87.85299 125.000
87.87294 144.000
87.89289 129.000
87.91283 133.000
87.93278 129.000
87.95273 139.000
87.97267 131.000
87.99262 146.000
88.01257 114.000
88.03251 149.000
88.05246 131.000
88.07241 132.000
88.09236 142.000
88.11230 165.000
88.13225 138.000
88.15220 111.000
88.17214 139.000
88.19209 141.000
88.21204 145.000
88.23198 139.000
88.25193 133.000
88.27188 152.000
88.29183 125.000
88.31177 140.000
88.33172 122.000
88.35167 129.000
88.37161 143.000
88.39156 135.000
88.41151 149.000
88.43145 123.000
88.45140 120.000
88.47135 133.000
88.49129 120.000
88.51124 127.000
88.53119 134.000
88.55114 136.000
88.57108 136.000
88.59103 124.000
88.61098 121.000
88.63092 128.000
88.65087 158.000
88.67082 123.000
88.69076 120.000
88.71071 144.000
88.73066 114.000
88.75061 117.000
88.77055 138.000
88.79050 124.000
88.81045 121.000
88.83039 147.000
88.85034 106.000
88.87029 144.000
88.89023 127.000
88.91018 135.000
88.93013 121.000
88.95007 126.000
88.97002 139.000
88.98997 139.000
89.00992 150.000
89.02986 98.000
89.04981 159.000
89.06976 135.000
89.08970 128.000
89.10965 136.000
89.12960 147.000
89.14954 153.000
89.16949 128.000
89.18944 130.000
89.20939 125.000
89.22933 138.000
89.24928 114.000
89.26923 142.000
89.28917 140.000
89.30912 114.000
89.32907 118.000
89.34901 122.000
89.36896 121.000
89.38891 125.000
89.40885 138.000
89.42880 136.000
89.44875 127.000
89.46870 125.000
89.48864 156.000
89.50859 136.000
89.52854 137.000
89.54848 134.000
89.56843 143.000
89.58838 141.000
89.60832 140.000
89.62827 149.000
89.64822 113.000
89.66817 130.000
89.68811 138.000
89.70806 117.000
89.72801 148.000
89.74795 134.000
89.76790 140.000
89.78785 133.000
89.80779 131.000
89.82774 134.000
89.84769 146.000
89.86764 114.000
89.88758 122.000
89.90753 139.000
89.92748 117.000
89.94742 139.000
89.96737 127.000
89.98732 148.000
90.00726 117.000
