10.00000 235.000
10.01995 244.000
10.03989 249.000
10.05984 224.000
10.07979 237.000
10.09973 223.000
10.11968 212.000
10.13963 262.000
10.15958 243.000
10.17952 254.000
10.19947 226.000
10.21942 254.000
10.23936 224.000
10.25931 245.000
10.27926 224.000
10.29920 216.000
10.31915 244.000
10.33910 244.000
10.35905 238.000
10.37899 241.000
10.39894 229.000
10.41889 249.000
10.43883 234.000
10.45878 266.000
10.47873 252.000
10.49867 218.000
10.51862 194.000
10.53857 238.000
10.55851 267.000
10.57846 237.000
10.59841 239.000
10.61836 227.000
10.63830 265.000
10.65825 241.000
10.67820 212.000
10.69814 222.000
10.71809 237.000
10.73804 233.000
10.75798 237.000
10.77793 262.000
10.79788 258.000
10.81783 262.000
10.83777 244.000
10.85772 232.000
10.87767 262.000
10.89761 220.000
10.91756 243.000
10.93751 242.000
10.95745 243.000
10.97740 226.000
10.99735 265.000
11.01730 254.000
11.03724 226.000
11.05719 226.000
11.07714 244.000
11.09708 238.000
11.11703 247.000
11.13698 252.000
11.15692 228.000
11.17687 230.000
11.19682 228.000
11.21676 260.000
11.23671 213.000
11.25666 229.000
11.27661 214.000
11.29655 245.000
11.31650 233.000
11.33645 260.000
11.35639 249.000
11.37634 248.000
11.39629 241.000
11.41623 247.000
11.43618 228.000
11.45613 233.000
11.47608 235.000
11.49602 228.000
11.51597 234.000
11.53592 239.000
11.55586 258.000
11.57581 238.000
11.59576 245.000
11.61570 251.000
11.63565 256.000
11.65560 208.000
11.67554 268.000
11.69549 279.000
11.71544 252.000
11.73539 235.000
11.75533 247.000
11.77528 254.000
11.79523 234.000
11.81517 229.000
11.83512 263.000
11.85507 261.000
11.87501 231.000
11.89496 241.000
11.91491 216.000
11.93486 256.000
11.95480 254.000
11.97475 267.000
11.99470 269.000
12.01464 274.000
12.03459 237.000
12.05454 275.000
12.07448 241.000
12.09443 272.000
12.11438 253.000
12.13432 243.000
12.15427 238.000
12.17422 242.000
12.19417 259.000
12.21411 240.000
12.23406 252.000
12.25401 258.000
12.27395 241.000
12.29390 227.000
12.31385 225.000
12.33379 266.000
12.35374 238.000
12.37369 212.000
12.39364 237.000
12.41358 249.000
12.43353 236.000
12.45348 228.000
12.47342 210.000
12.49337 263.000
12.51332 273.000
12.53326 272.000
12.55321 246.000
12.57316 238.000
12.59311 243.000
12.61305 251.000
12.63300 258.000
12.65295 249.000
12.67289 252.000
12.69284 278.000
12.71279 256.000
12.73273 236.000
12.75268 246.000
12.77263 239.000
12.79257 242.000
12.81252 255.000
12.83247 258.000
12.85242 249.000
12.87236 244.000
12.89231 251.000
12.91226 259.000
12.93220 257.000
12.95215 245.000
12.97210 276.000
12.99204 241.000
13.01199 284.000
13.03194 236.000
13.05189 263.000
13.07183 227.000
13.09178 255.000
13.11173 257.000
13.13167 257.000
13.15162 267.000
13.17157 276.000
13.19151 247.000
13.21146 239.000
13.23141 268.000
13.25135 240.000
13.27130 254.000
13.29125 239.000
13.31120 255.000
13.33114 283.000
13.35109 268.000
13.37104 241.000
13.39098 260.000
13.41093 220.000
13.43088 259.000
13.45082 264.000
13.47077 239.000
13.49072 254.000
13.51067 243.000
13.53061 269.000
13.55056 255.000
13.57051 268.000
13.59045 251.000
13.61040 265.000
13.63035 262.000
13.65029 224.000
13.67024 266.000
13.69019 281.000
13.71013 271.000
13.73008 253.000
13.75003 251.000
13.76998 237.000
13.78992 284.000
13.80987 229.000
13.82982 281.000
13.84976 255.000
13.86971 250.000
13.88966 278.000
13.90960 254.000
13.92955 234.000
13.94950 254.000
13.96945 247.000
13.98939 257.000
14.00934 263.000
14.02929 283.000
14.04923 232.000
14.06918 264.000
14.08913 230.000
14.10907 270.000
14.12902 243.000
14.14897 268.000
14.16892 263.000
14.18886 270.000
14.20881 248.000
14.22876 262.000
14.24870 269.000
14.26865 255.000
14.28860 259.000
14.30854 239.000
14.32849 228.000
14.34844 282.000
14.36838 257.000
14.38833 279.000
14.40828 284.000
14.42823 253.000
14.44817 272.000
14.46812 260.000
14.48807 242.000
14.50801 274.000
14.52796 260.000
14.54791 274.000
14.56785 240.000
14.58780 255.000
14.60775 249.000
14.62770 282.000
14.64764 244.000
14.66759 280.000
14.68754 273.000
14.70748 265.000
14.72743 256.000
14.74738 274.000
14.76732 269.000
14.78727 275.000
14.80722 278.000
14.82716 278.000
14.84711 282.000
14.86706 257.000
14.88701 255.000
14.90695 294.000
14.92690 291.000
14.94685 290.000
14.96679 281.000
14.98674 269.000
15.00669 284.000
15.02663 279.000
15.04658 286.000
15.06653 297.000
15.08648 272.000
15.10642 276.000
15.12637 289.000
15.14632 275.000
15.16626 319.000
15.18621 299.000
15.20616 272.000
15.22610 312.000
15.24605 307.000
15.26600 323.000
15.28594 335.000
15.30589 375.000
15.32584 342.000
15.34579 337.000
15.36573 356.000
15.38568 391.000
15.40563 401.000
15.42557 419.000
15.44552 428.000
15.46547 459.000
15.48541 498.000
15.50536 592.000
15.52531 658.000
15.54526 761.000
15.56520 908.000
15.58515 1122.000
15.60510 1436.000
15.62504 1682.000
15.64499 2223.000
15.66494 2759.000
15.68488 3434.000
15.70483 4365.000
15.72478 5160.000
15.74472 5683.000
15.76467 5986.000
15.78462 5749.000
15.80457 4774.000
15.82451 3572.000
15.84446 2290.000
15.86441 1386.000
15.88435 810.000
15.90430 550.000
15.92425 449.000
15.94419 407.000
15.96414 427.000
15.98409 368.000
16.00404 320.000
16.02398 323.000
16.04393 346.000
16.06388 330.000
16.08382 336.000
16.10377 326.000
16.12372 304.000
16.14366 296.000
16.16361 317.000
16.18356 271.000
16.20351 300.000
16.22345 290.000
16.24340 302.000
16.26335 277.000
16.28329 272.000
16.30324 288.000
16.32319 265.000
16.34313 283.000
16.36308 273.000
16.38303 286.000
16.40297 317.000
16.42292 272.000
16.44287 269.000
16.46282 290.000
16.48276 306.000
16.50271 298.000
16.52266 299.000
16.54260 262.000
16.56255 255.000
16.58250 300.000
16.60244 290.000
16.62239 273.000
16.64234 273.000
16.66229 260.000
16.68223 271.000
16.70218 300.000
16.72213 270.000
16.74207 264.000
16.76202 289.000
16.78197 234.000
16.80191 279.000
16.82186 286.000
16.84181 262.000
16.86175 267.000
16.88170 294.000
16.90165 290.000
16.92160 264.000
16.94154 256.000
16.96149 276.000
16.98144 272.000
17.00138 268.000
17.02133 286.000
17.04128 267.000
17.06122 300.000
17.08117 250.000
17.10112 259.000
17.12107 268.000
17.14101 242.000
17.16096 259.000
17.18091 276.000
17.20085 270.000
17.22080 247.000
17.24075 278.000
17.26069 279.000
17.28064 263.000
17.30059 236.000
17.32053 250.000
17.34048 262.000
17.36043 256.000
17.38038 262.000
17.40032 275.000
17.42027 259.000
17.44022 270.000
17.46016 246.000
17.48011 269.000
17.50006 271.000
17.52000 250.000
17.53995 274.000
17.55990 278.000
17.57985 278.000
17.59979 264.000
17.61974 274.000
17.63969 238.000
17.65963 261.000
17.67958 284.000
17.69953 270.000
17.71947 280.000
17.73942 292.000
17.75937 274.000
17.77932 272.000
17.79926 267.000
17.81921 245.000
17.83916 285.000
17.85910 251.000
17.87905 265.000
17.89900 281.000
17.91894 244.000
17.93889 254.000
17.95884 255.000
17.97878 275.000
17.99873 267.000
18.01868 284.000
18.03863 252.000
18.05857 269.000
18.07852 277.000
18.09847 274.000
18.11841 246.000
18.13836 258.000
18.15831 275.000
18.17825 281.000
18.19820 296.000
18.21815 275.000
18.23810 272.000
18.25804 258.000
18.27799 265.000
18.29794 256.000
18.31788 266.000
18.33783 281.000
18.35778 291.000
18.37772 260.000
18.39767 289.000
18.41762 273.000
18.43756 282.000
18.45751 253.000
18.47746 274.000
18.49741 278.000
18.51735 258.000
18.53730 286.000
18.55725 264.000
18.57719 279.000
18.59714 269.000
18.61709 234.000
18.63703 243.000
18.65698 256.000
18.67693 295.000
18.69688 278.000
18.71682 274.000
18.73677 277.000
18.75672 255.000
18.77666 283.000
18.79661 260.000
18.81656 254.000
18.83650 255.000
18.85645 240.000
18.87640 250.000
18.89634 279.000
18.91629 289.000
18.93624 268.000
18.95619 283.000
18.97613 265.000
18.99608 271.000
19.01603 264.000
19.03597 257.000
19.05592 260.000
19.07587 252.000
19.09581 258.000
19.11576 256.000
19.13571 247.000
19.15566 264.000
19.17560 253.000
19.19555 211.000
19.21550 248.000
19.23544 228.000
19.25539 292.000
19.27534 219.000
19.29528 250.000
19.31523 260.000
19.33518 231.000
19.35513 233.000
19.37507 285.000
19.39502 269.000
19.41497 254.000
19.43491 269.000
19.45486 269.000
19.47481 268.000
19.49475 249.000
19.51470 258.000
19.53465 255.000
19.55459 285.000
19.57454 231.000
19.59449 292.000
19.61444 283.000
19.63438 277.000
19.65433 268.000
19.67428 242.000
19.69422 271.000
19.71417 242.000
19.73412 247.000
19.75406 262.000
19.77401 293.000
19.79396 273.000
19.81391 280.000
19.83385 285.000
19.85380 256.000
19.87375 279.000
19.89369 262.000
19.91364 242.000
19.93359 276.000
19.95353 232.000
19.97348 304.000
19.99343 280.000
20.01337 256.000
20.03332 287.000
20.05327 260.000
20.07322 275.000
20.09316 292.000
20.11311 249.000
20.13306 264.000
20.15300 286.000
20.17295 289.000
20.19290 277.000
20.21284 301.000
20.23279 280.000
20.25274 262.000
20.27269 263.000
20.29263 268.000
20.31258 275.000
20.33253 272.000
20.35247 302.000
20.37242 269.000
20.39237 274.000
20.41231 284.000
20.43226 269.000
20.45221 295.000
20.47215 277.000
20.49210 268.000
20.51205 277.000
20.53200 254.000
20.55194 260.000
20.57189 270.000
20.59184 263.000
20.61178 264.000
20.63173 252.000
20.65168 239.000
20.67162 257.000
20.69157 285.000
20.71152 251.000
20.73147 283.000
20.75141 285.000
20.77136 282.000
20.79131 292.000
20.81125 254.000
20.83120 301.000
20.85115 269.000
20.87109 279.000
20.89104 257.000
20.91099 282.000
20.93094 277.000
20.95088 309.000
20.97083 320.000
20.99078 302.000
21.01072 341.000
21.03067 332.000
21.05062 324.000
21.07056 283.000
21.09051 319.000
21.11046 298.000
21.13040 278.000
21.15035 289.000
21.17030 276.000
21.19025 271.000
21.21019 303.000
21.23014 284.000
21.25009 262.000
21.27003 287.000
21.28998 250.000
21.30993 285.000
21.32987 270.000
21.34982 304.000
21.36977 266.000
21.38972 277.000
21.40966 271.000
21.42961 252.000
21.44956 254.000
21.46950 270.000
21.48945 245.000
21.50940 286.000
21.52934 261.000
21.54929 305.000
21.56924 288.000
21.58918 255.000
21.60913 292.000
21.62908 281.000
21.64903 294.000
21.66897 267.000
21.68892 254.000
21.70887 255.000
21.72881 293.000
21.74876 292.000
21.76871 278.000
21.78865 302.000
21.80860 280.000
21.82855 311.000
21.84850 255.000
21.86844 280.000
21.88839 267.000
21.90834 295.000
21.92828 295.000
21.94823 243.000
21.96818 262.000
21.98812 278.000
22.00807 266.000
22.02802 236.000
22.04796 287.000
22.06791 224.000
22.08786 273.000
22.10781 287.000
22.12775 247.000
22.14770 299.000
22.16765 273.000
22.18759 271.000
22.20754 256.000
22.22749 294.000
22.24743 249.000
22.26738 267.000
22.28733 275.000
22.30728 273.000
22.32722 259.000
22.34717 276.000
22.36712 266.000
22.38706 279.000
22.40701 293.000
22.42696 286.000
22.44690 270.000
22.46685 289.000
22.48680 281.000
22.50675 271.000
22.52669 266.000
22.54664 269.000
22.56659 253.000
22.58653 281.000
22.60648 252.000
22.62643 275.000
22.64637 260.000
22.66632 274.000
22.68627 252.000
22.70621 281.000
22.72616 256.000
22.74611 271.000
22.76606 274.000
22.78600 301.000
22.80595 242.000
22.82590 252.000
22.84584 257.000
22.86579 253.000
22.88574 275.000
22.90568 265.000
22.92563 288.000
22.94558 270.000
22.96553 279.000
22.98547 251.000
23.00542 280.000
23.02537 286.000
23.04531 272.000
23.06526 285.000
23.08521 271.000
23.10515 281.000
23.12510 282.000
23.14505 256.000
23.16499 306.000
23.18494 281.000
23.20489 278.000
23.22484 302.000
23.24478 275.000
23.26473 307.000
23.28468 266.000
23.30462 279.000
23.32457 260.000
23.34452 256.000
23.36446 276.000
23.38441 284.000
23.40436 256.000
23.42431 272.000
23.44425 281.000
23.46420 260.000
23.48415 272.000
23.50409 287.000
23.52404 274.000
23.54399 284.000
23.56393 276.000
23.58388 277.000
23.60383 277.000
23.62377 287.000
23.64372 277.000
23.66367 276.000
23.68362 262.000
23.70356 315.000
23.72351 249.000
23.74346 262.000
23.76340 249.000
23.78335 268.000
23.80330 273.000
23.82324 283.000
23.84319 264.000
23.86314 312.000
23.88309 279.000
23.90303 297.000
23.92298 253.000
23.94293 256.000
23.96287 263.000
23.98282 284.000
24.00277 266.000
24.02271 254.000
24.04266 296.000
24.06261 271.000
24.08256 266.000
24.10250 256.000
24.12245 260.000
24.14240 299.000
24.16234 264.000
24.18229 277.000
24.20224 258.000
24.22218 278.000
24.24213 243.000
24.26208 278.000
24.28202 283.000
24.30197 262.000
24.32192 277.000
24.34187 265.000
24.36181 257.000
24.38176 279.000
24.40171 266.000
24.42165 278.000
24.44160 289.000
24.46155 277.000
24.48149 260.000
24.50144 263.000
24.52139 305.000
24.54134 292.000
24.56128 275.000
24.58123 267.000
24.60118 271.000
24.62112 260.000
24.64107 228.000
24.66102 309.000
24.68096 251.000
24.70091 304.000
24.72086 254.000
24.74080 313.000
24.76075 282.000
24.78070 314.000
24.80065 271.000
24.82059 274.000
24.84054 291.000
24.86049 258.000
24.88043 297.000
24.90038 264.000
24.92033 289.000
24.94027 266.000
24.96022 285.000
24.98017 300.000
25.00012 266.000
25.02006 288.000
25.04001 264.000
25.05996 279.000
25.07990 274.000
25.09985 268.000
25.11980 272.000
25.13974 272.000
25.15969 267.000
25.17964 275.000
25.19958 284.000
25.21953 279.000
25.23948 261.000
25.25943 264.000
25.27937 266.000
25.29932 298.000
25.31927 286.000
25.33921 275.000
25.35916 307.000
25.37911 254.000
25.39905 300.000
25.41900 276.000
25.43895 296.000
25.45890 281.000
25.47884 280.000
25.49879 265.000
25.51874 311.000
25.53868 279.000
25.55863 291.000
25.57858 266.000
25.59852 292.000
25.61847 308.000
25.63842 272.000
25.65837 250.000
25.67831 259.000
25.69826 325.000
25.71821 305.000
25.73815 276.000
25.75810 283.000
25.77805 262.000
25.79799 263.000
25.81794 263.000
25.83789 278.000
25.85783 299.000
25.87778 299.000
25.89773 310.000
25.91768 286.000
25.93762 319.000
25.95757 307.000
25.97752 294.000
25.99746 314.000
26.01741 283.000
26.03736 294.000
26.05730 236.000
26.07725 255.000
26.09720 276.000
26.11715 275.000
26.13709 290.000
26.15704 315.000
26.17699 298.000
26.19693 282.000
26.21688 315.000
26.23683 305.000
26.25677 291.000
26.27672 315.000
26.29667 296.000
26.31661 274.000
26.33656 328.000
26.35651 285.000
26.37646 314.000
26.39640 276.000
26.41635 247.000
26.43630 310.000
26.45624 249.000
26.47619 281.000
26.49614 273.000
26.51608 259.000
26.53603 279.000
26.55598 297.000
26.57593 317.000
26.59587 296.000
26.61582 292.000
26.63577 285.000
26.65571 249.000
26.67566 267.000
26.69561 270.000
26.71555 305.000
26.73550 309.000
26.75545 269.000
26.77539 282.000
26.79534 264.000
26.81529 298.000
26.83524 283.000
26.85518 277.000
26.87513 256.000
26.89508 279.000
26.91502 272.000
26.93497 287.000
26.95492 268.000
26.97486 289.000
26.99481 278.000
27.01476 319.000
27.03471 284.000
27.05465 306.000
27.07460 292.000
27.09455 339.000
27.11449 329.000
27.13444 329.000
27.15439 316.000
27.17433 298.000
27.19428 319.000
27.21423 300.000
27.23417 325.000
27.25412 289.000
27.27407 260.000
27.29402 322.000
27.31396 306.000
27.33391 297.000
27.35386 269.000
27.37380 265.000
27.39375 273.000
27.41370 345.000
27.43364 283.000
27.45359 265.000
27.47354 295.000
27.49349 290.000
27.51343 270.000
27.53338 270.000
27.55333 308.000
27.57327 290.000
27.59322 265.000
27.61317 304.000
27.63311 280.000
27.65306 279.000
27.67301 330.000
27.69296 278.000
27.71290 312.000
27.73285 295.000
27.75280 281.000
27.77274 296.000
27.79269 305.000
27.81264 272.000
27.83258 268.000
27.85253 267.000
27.87248 282.000
27.89242 293.000
27.91237 304.000
27.93232 300.000
27.95227 307.000
27.97221 307.000
27.99216 279.000
28.01211 308.000
28.03205 352.000
28.05200 263.000
28.07195 303.000
28.09189 313.000
28.11184 303.000
28.13179 328.000
28.15174 328.000
28.17168 326.000
28.19163 311.000
28.21158 286.000
28.23152 327.000
28.25147 328.000
28.27142 315.000
28.29136 321.000
28.31131 331.000
28.33126 320.000
28.35120 343.000
28.37115 342.000
28.39110 307.000
28.41105 351.000
28.43099 291.000
28.45094 300.000
28.47089 318.000
28.49083 316.000
28.51078 347.000
28.53073 277.000
28.55067 304.000
28.57062 318.000
28.59057 271.000
28.61052 291.000
28.63046 296.000
28.65041 307.000
28.67036 300.000
28.69030 321.000
28.71025 316.000
28.73020 284.000
28.75014 307.000
28.77009 285.000
28.79004 306.000
28.80998 290.000
28.82993 280.000
28.84988 305.000
28.86983 264.000
28.88977 275.000
28.90972 287.000
28.92967 261.000
28.94961 291.000
28.96956 260.000
28.98951 277.000
29.00945 287.000
29.02940 310.000
29.04935 288.000
29.06930 276.000
29.08924 294.000
29.10919 320.000
29.12914 271.000
29.14908 272.000
29.16903 311.000
29.18898 311.000
29.20892 305.000
29.22887 310.000
29.24882 307.000
29.26877 318.000
29.28871 334.000
29.30866 301.000
29.32861 333.000
29.34855 289.000
29.36850 307.000
29.38845 289.000
29.40839 272.000
29.42834 303.000
29.44829 319.000
29.46823 312.000
29.48818 284.000
29.50813 291.000
29.52808 300.000
29.54802 277.000
29.56797 282.000
29.58792 292.000
29.60786 299.000
29.62781 288.000
29.64776 298.000
29.66770 301.000
29.68765 311.000
29.70760 320.000
29.72755 298.000
29.74749 292.000
29.76744 279.000
29.78739 293.000
29.80733 296.000
29.82728 295.000
29.84723 299.000
29.86717 319.000
29.88712 272.000
29.90707 300.000
29.92701 277.000
29.94696 299.000
29.96691 319.000
29.98686 285.000
30.00680 299.000
30.02675 283.000
30.04670 310.000
30.06664 288.000
30.08659 317.000
30.10654 305.000
30.12648 301.000
30.14643 300.000
30.16638 291.000
30.18633 298.000
30.20627 288.000
30.22622 302.000
30.24617 328.000
30.26611 325.000
30.28606 316.000
30.30601 306.000
30.32595 329.000
30.34590 314.000
30.36585 338.000
30.38579 298.000
30.40574 326.000
30.42569 322.000
30.44564 331.000
30.46558 301.000
30.48553 345.000
30.50548 319.000
30.52542 292.000
30.54537 293.000
30.56532 288.000
30.58526 277.000
30.60521 298.000
30.62516 307.000
30.64511 299.000
30.66505 321.000
30.68500 272.000
30.70495 329.000
30.72489 293.000
30.74484 296.000
30.76479 288.000
30.78473 289.000
30.80468 266.000
30.82463 289.000
30.84458 320.000
30.86452 295.000
30.88447 312.000
30.90442 297.000
30.92436 289.000
30.94431 293.000
30.96426 324.000
30.98420 299.000
31.00415 304.000
31.02410 275.000
31.04404 307.000
31.06399 285.000
31.08394 315.000
31.10389 302.000
31.12383 289.000
31.14378 259.000
31.16373 309.000
31.18367 320.000
31.20362 270.000
31.22357 278.000
31.24351 314.000
31.26346 311.000
31.28341 294.000
31.30336 316.000
31.32330 302.000
31.34325 305.000
31.36320 304.000
31.38314 334.000
31.40309 322.000
31.42304 324.000
31.44298 320.000
31.46293 336.000
31.48288 347.000
31.50282 306.000
31.52277 304.000
31.54272 333.000
31.56267 308.000
31.58261 339.000
31.60256 351.000
31.62251 360.000
31.64245 381.000
31.66240 327.000
31.68235 360.000
31.70229 384.000
31.72224 414.000
31.74219 393.000
31.76214 443.000
31.78208 479.000
31.80203 509.000
31.82198 589.000
31.84192 624.000
31.86187 718.000
31.88182 749.000
31.90176 831.000
31.92171 885.000
31.94166 942.000
31.96160 943.000
31.98155 808.000
32.00150 778.000
32.02145 626.000
32.04139 611.000
32.06134 486.000
32.08129 437.000
32.10123 367.000
32.12118 334.000
32.14113 347.000
32.16107 325.000
32.18102 292.000
32.20097 352.000
32.22092 306.000
32.24086 339.000
32.26081 349.000
32.28076 347.000
32.30070 383.000
32.32065 345.000
32.34060 343.000
32.36054 405.000
32.38049 388.000
32.40044 429.000
32.42039 445.000
32.44033 418.000
32.46028 411.000
32.48023 368.000
32.50017 381.000
32.52012 367.000
32.54007 340.000
32.56001 335.000
32.57996 317.000
32.59991 343.000
32.61985 336.000
32.63980 291.000
32.65975 296.000
32.67970 305.000
32.69964 304.000
32.71959 322.000
32.73954 287.000
32.75948 313.000
32.77943 280.000
32.79938 290.000
32.81932 304.000
32.83927 292.000
32.85922 299.000
32.87917 302.000
32.89911 323.000
32.91906 283.000
32.93901 298.000
32.95895 298.000
32.97890 315.000
32.99885 288.000
33.01879 302.000
33.03874 306.000
33.05869 277.000
33.07863 285.000
33.09858 300.000
33.11853 284.000
33.13848 310.000
33.15842 303.000
33.17837 280.000
33.19832 270.000
33.21826 325.000
33.23821 332.000
33.25816 285.000
33.27810 306.000
33.29805 302.000
33.31800 290.000
33.33795 303.000
33.35789 274.000
33.37784 321.000
33.39779 300.000
33.41773 305.000
33.43768 299.000
33.45763 283.000
33.47757 300.000
33.49752 259.000
33.51747 294.000
33.53741 275.000
33.55736 310.000
33.57731 295.000
33.59726 308.000
33.61720 274.000
33.63715 293.000
33.65710 306.000
33.67704 307.000
33.69699 299.000
33.71694 301.000
33.73688 273.000
33.75683 334.000
33.77678 325.000
33.79673 308.000
33.81667 271.000
33.83662 280.000
33.85657 303.000
33.87651 318.000
33.89646 306.000
33.91641 270.000
33.93635 252.000
33.95630 299.000
33.97625 280.000
33.99620 296.000
34.01614 290.000
34.03609 296.000
34.05604 296.000
34.07598 275.000
34.09593 309.000
34.11588 315.000
34.13582 316.000
34.15577 302.000
34.17572 322.000
34.19566 323.000
34.21561 301.000
34.23556 306.000
34.25551 319.000
34.27545 321.000
34.29540 293.000
34.31535 275.000
34.33529 301.000
34.35524 296.000
34.37519 290.000
34.39513 292.000
34.41508 320.000
34.43503 343.000
34.45498 305.000
34.47492 323.000
34.49487 294.000
34.51482 295.000
34.53476 315.000
34.55471 342.000
34.57466 336.000
34.59460 278.000
34.61455 325.000
34.63450 327.000
34.65444 355.000
34.67439 341.000
34.69434 326.000
34.71429 349.000
34.73423 335.000
34.75418 356.000
34.77413 376.000
34.79407 369.000
34.81402 373.000
34.83397 382.000
34.85391 371.000
34.87386 354.000
34.89381 355.000
34.91376 329.000
34.93370 368.000
34.95365 338.000
34.97360 318.000
34.99354 340.000
35.01349 351.000
35.03344 386.000
35.05338 371.000
35.07333 353.000
35.09328 346.000
35.11322 419.000
35.13317 394.000
35.15312 412.000
35.17307 408.000
35.19301 458.000
35.21296 500.000
35.23291 587.000
35.25285 628.000
35.27280 730.000
35.29275 883.000
35.31269 993.000
35.33264 1152.000
35.35259 1194.000
35.37254 1304.000
35.39248 1376.000
35.41243 1564.000
35.43238 1625.000
35.45232 1624.000
35.47227 1654.000
35.49222 1568.000
35.51216 1450.000
35.53211 1280.000
35.55206 1175.000
35.57201 1007.000
35.59195 876.000
35.61190 821.000
35.63185 718.000
35.65179 653.000
35.67174 662.000
35.69169 660.000
35.71163 700.000
35.73158 780.000
35.75153 900.000
35.77147 934.000
35.79142 1051.000
35.81137 1169.000
35.83132 1224.000
35.85126 1145.000
35.87121 1148.000
35.89116 1050.000
35.91110 889.000
35.93105 812.000
35.95100 700.000
35.97094 615.000
35.99089 533.000
36.01084 415.000
36.03079 397.000
36.05073 390.000
36.07068 358.000
36.09063 335.000
36.11057 343.000
36.13052 337.000
36.15047 321.000
36.17041 364.000
36.19036 352.000
36.21031 339.000
36.23025 334.000
36.25020 327.000
36.27015 354.000
36.29010 367.000
36.31004 375.000
36.32999 328.000
36.34994 325.000
36.36988 338.000
36.38983 368.000
36.40978 318.000
36.42972 321.000
36.44967 336.000
36.46962 386.000
36.48957 369.000
36.50951 324.000
36.52946 383.000
36.54941 382.000
36.56935 335.000
36.58930 332.000
36.60925 350.000
36.62919 396.000
36.64914 357.000
36.66909 354.000
36.68903 397.000
36.70898 397.000
36.72893 420.000
36.74888 452.000
36.76882 444.000
36.78877 440.000
36.80872 407.000
36.82866 417.000
36.84861 497.000
36.86856 435.000
36.88850 498.000
36.90845 541.000
36.92840 565.000
36.94835 704.000
36.96829 785.000
36.98824 928.000
37.00819 1128.000
37.02813 1327.000
37.04808 1501.000
37.06803 1394.000
37.08797 1324.000
37.10792 1231.000
37.12787 1048.000
37.14781 968.000
37.16776 878.000
37.18771 691.000
37.20766 568.000
37.22760 478.000
37.24755 455.000
37.26750 388.000
37.28744 367.000
37.30739 361.000
37.32734 365.000
37.34728 367.000
37.36723 331.000
37.38718 323.000
37.40713 325.000
37.42707 305.000
37.44702 302.000
37.46697 363.000
37.48691 345.000
37.50686 316.000
37.52681 324.000
37.54675 294.000
37.56670 323.000
37.58665 335.000
37.60660 328.000
37.62654 288.000
37.64649 326.000
37.66644 341.000
37.68638 320.000
37.70633 283.000
37.72628 329.000
37.74622 345.000
37.76617 316.000
37.78612 334.000
37.80606 325.000
37.82601 289.000
37.84596 348.000
37.86591 290.000
37.88585 350.000
37.90580 362.000
37.92575 339.000
37.94569 327.000
37.96564 316.000
37.98559 336.000
38.00553 355.000
38.02548 344.000
38.04543 334.000
38.06538 363.000
38.08532 360.000
38.10527 326.000
38.12522 333.000
38.14516 341.000
38.16511 358.000
38.18506 409.000
38.20500 372.000
38.22495 393.000
38.24490 398.000
38.26484 402.000
38.28479 454.000
38.30474 450.000
38.32469 489.000
38.34463 506.000
38.36458 528.000
38.38453 563.000
38.40447 595.000
38.42442 666.000
38.44437 791.000
38.46431 916.000
38.48426 980.000
38.50421 1119.000
38.52416 1371.000
38.54410 1477.000
38.56405 1571.000
38.58400 1558.000
38.60394 1566.000
38.62389 1595.000
38.64384 1569.000
38.66378 1384.000
38.68373 1205.000
38.70368 1143.000
38.72362 989.000
38.74357 896.000
38.76352 820.000
38.78347 772.000
38.80341 714.000
38.82336 722.000
38.84331 739.000
38.86325 713.000
38.88320 686.000
38.90315 668.000
38.92309 673.000
38.94304 623.000
38.96299 630.000
38.98294 614.000
39.00288 587.000
39.02283 554.000
39.04278 550.000
39.06272 503.000
39.08267 501.000
39.10262 512.000
39.12256 499.000
39.14251 536.000
39.16246 524.000
39.18241 549.000
39.20235 608.000
39.22230 645.000
39.24225 788.000
39.26219 902.000
39.28214 973.000
39.30209 1146.000
39.32203 1368.000
39.34198 1594.000
39.36193 1817.000
39.38187 1925.000
39.40182 2006.000
39.42177 1937.000
39.44172 1741.000
39.46166 1608.000
39.48161 1447.000
39.50156 1268.000
39.52150 1099.000
39.54145 898.000
39.56140 744.000
39.58134 619.000
39.60129 506.000
39.62124 509.000
39.64119 454.000
39.66113 419.000
39.68108 386.000
39.70103 359.000
39.72097 365.000
39.74092 355.000
39.76087 343.000
39.78081 323.000
39.80076 344.000
39.82071 348.000
39.84065 329.000
39.86060 302.000
39.88055 309.000
39.90050 317.000
39.92044 323.000
39.94039 335.000
39.96034 323.000
39.98028 310.000
40.00023 303.000
40.02018 334.000
40.04012 325.000
40.06007 321.000
40.08002 332.000
40.09997 326.000
40.11991 320.000
40.13986 283.000
40.15981 323.000
40.17975 307.000
40.19970 320.000
40.21965 286.000
40.23959 300.000
40.25954 291.000
40.27949 295.000
40.29943 308.000
40.31938 297.000
40.33933 289.000
40.35928 306.000
40.37922 295.000
40.39917 299.000
40.41912 263.000
40.43906 294.000
40.45901 295.000
40.47896 273.000
40.49890 296.000
40.51885 316.000
40.53880 308.000
40.55875 290.000
40.57869 293.000
40.59864 300.000
40.61859 307.000
40.63853 332.000
40.65848 295.000
40.67843 266.000
40.69837 296.000
40.71832 303.000
40.73827 293.000
40.75822 296.000
40.77816 293.000
40.79811 290.000
40.81806 320.000
40.83800 319.000
40.85795 291.000
40.87790 278.000
40.89784 278.000
40.91779 279.000
40.93774 320.000
40.95768 302.000
40.97763 322.000
40.99758 301.000
41.01753 273.000
41.03747 305.000
41.05742 255.000
41.07737 297.000
41.09731 301.000
41.11726 293.000
41.13721 324.000
41.15715 292.000
41.17710 289.000
41.19705 274.000
41.21700 322.000
41.23694 302.000
41.25689 315.000
41.27684 277.000
41.29678 271.000
41.31673 309.000
41.33668 317.000
41.35662 288.000
41.37657 313.000
41.39652 306.000
41.41646 255.000
41.43641 314.000
41.45636 295.000
41.47631 297.000
41.49625 315.000
41.51620 263.000
41.53615 265.000
41.55609 289.000
41.57604 325.000
41.59599 298.000
41.61593 276.000
41.63588 278.000
41.65583 297.000
41.67578 269.000
41.69572 316.000
41.71567 302.000
41.73562 299.000
41.75556 299.000
41.77551 269.000
41.79546 279.000
41.81540 309.000
41.83535 294.000
41.85530 331.000
41.87524 301.000
41.89519 292.000
41.91514 300.000
41.93509 301.000
41.95503 296.000
41.97498 284.000
41.99493 295.000
42.01487 297.000
42.03482 290.000
42.05477 278.000
42.07471 290.000
42.09466 278.000
42.11461 297.000
42.13456 274.000
42.15450 326.000
42.17445 289.000
42.19440 316.000
42.21434 298.000
42.23429 328.000
42.25424 288.000
42.27418 293.000
42.29413 324.000
42.31408 326.000
42.33403 328.000
42.35397 340.000
42.37392 322.000
42.39387 368.000
42.41381 313.000
42.43376 338.000
42.45371 322.000
42.47365 361.000
42.49360 323.000
42.51355 349.000
42.53349 345.000
42.55344 357.000
42.57339 308.000
42.59334 331.000
42.61328 356.000
42.63323 389.000
42.65318 353.000
42.67312 365.000
42.69307 384.000
42.71302 397.000
42.73296 362.000
42.75291 400.000
42.77286 414.000
42.79281 403.000
42.81275 463.000
42.83270 495.000
42.85265 515.000
42.87259 599.000
42.89254 595.000
42.91249 660.000
42.93243 699.000
42.95238 755.000
42.97233 1000.000
42.99227 1141.000
43.01222 1274.000
43.03217 1438.000
43.05212 1526.000
43.07206 1628.000
43.09201 1581.000
43.11196 1498.000
43.13190 1391.000
43.15185 1303.000
43.17180 1197.000
43.19174 1075.000
43.21169 1000.000
43.23164 864.000
43.25159 781.000
43.27153 732.000
43.29148 632.000
43.31143 618.000
43.33137 582.000
43.35132 593.000
43.37127 629.000
43.39121 639.000
43.41116 722.000
43.43111 853.000
43.45105 849.000
43.47100 900.000
43.49095 955.000
43.51090 966.000
43.53084 868.000
43.55079 814.000
43.57074 784.000
43.59068 718.000
43.61063 700.000
43.63058 606.000
43.65052 561.000
43.67047 482.000
43.69042 447.000
43.71037 424.000
43.73031 424.000
43.75026 385.000
43.77021 327.000
43.79015 367.000
43.81010 333.000
43.83005 311.000
43.84999 310.000
43.86994 335.000
43.88989 328.000
43.90984 334.000
43.92978 327.000
43.94973 310.000
43.96968 316.000
43.98962 257.000
44.00957 323.000
44.02952 261.000
44.04946 287.000
44.06941 341.000
44.08936 285.000
44.10930 291.000
44.12925 291.000
44.14920 272.000
44.16915 343.000
44.18909 323.000
44.20904 312.000
44.22899 282.000
44.24893 307.000
44.26888 298.000
44.28883 318.000
44.30877 275.000
44.32872 262.000
44.34867 279.000
44.36862 283.000
44.38856 285.000
44.40851 296.000
44.42846 302.000
44.44840 296.000
44.46835 308.000
44.48830 317.000
44.50824 305.000
44.52819 293.000
44.54814 321.000
44.56808 267.000
44.58803 314.000
44.60798 307.000
44.62793 308.000
44.64787 304.000
44.66782 289.000
44.68777 291.000
44.70771 334.000
44.72766 280.000
44.74761 251.000
44.76755 277.000
44.78750 305.000
44.80745 319.000
44.82740 288.000
44.84734 311.000
44.86729 297.000
44.88724 283.000
44.90718 293.000
44.92713 294.000
44.94708 276.000
44.96702 319.000
44.98697 301.000
45.00692 325.000
45.02686 322.000
45.04681 292.000
45.06676 303.000
45.08671 312.000
45.10665 285.000
45.12660 292.000
45.14655 292.000
45.16649 289.000
45.18644 272.000
45.20639 298.000
45.22633 265.000
45.24628 285.000
45.26623 311.000
45.28618 334.000
45.30612 298.000
45.32607 322.000
45.34602 301.000
45.36596 289.000
45.38591 320.000
45.40586 290.000
45.42580 256.000
45.44575 287.000
45.46570 280.000
45.48565 316.000
45.50559 311.000
45.52554 261.000
45.54549 297.000
45.56543 313.000
45.58538 258.000
45.60533 266.000
45.62527 285.000
45.64522 271.000
45.66517 276.000
45.68511 296.000
45.70506 277.000
45.72501 301.000
45.74496 309.000
45.76490 304.000
45.78485 286.000
45.80480 308.000
45.82474 308.000
45.84469 293.000
45.86464 289.000
45.88458 295.000
45.90453 266.000
45.92448 283.000
45.94443 311.000
45.96437 287.000
45.98432 286.000
46.00427 301.000
46.02421 304.000
46.04416 314.000
46.06411 291.000
46.08405 311.000
46.10400 270.000
46.12395 282.000
46.14389 324.000
46.16384 302.000
46.18379 327.000
46.20374 332.000
46.22368 309.000
46.24363 292.000
46.26358 286.000
46.28352 311.000
46.30347 294.000
46.32342 337.000
46.34336 293.000
46.36331 298.000
46.38326 285.000
46.40321 290.000
46.42315 316.000
46.44310 284.000
46.46305 258.000
46.48299 286.000
46.50294 281.000
46.52289 283.000
46.54283 287.000
46.56278 318.000
46.58273 289.000
46.60267 316.000
46.62262 291.000
46.64257 277.000
46.66252 279.000
46.68246 286.000
46.70241 288.000
46.72236 284.000
46.74230 290.000
46.76225 296.000
46.78220 308.000
46.80214 305.000
46.82209 296.000
46.84204 248.000
46.86199 273.000
46.88193 315.000
46.90188 282.000
46.92183 296.000
46.94177 300.000
46.96172 292.000
46.98167 280.000
47.00161 286.000
47.02156 313.000
47.04151 315.000
47.06146 294.000
47.08140 292.000
47.10135 268.000
47.12130 284.000
47.14124 325.000
47.16119 309.000
47.18114 244.000
47.20108 298.000
47.22103 286.000
47.24098 243.000
47.26092 296.000
47.28087 323.000
47.30082 282.000
47.32077 272.000
47.34071 250.000
47.36066 320.000
47.38061 275.000
47.40055 284.000
47.42050 300.000
47.44045 278.000
47.46039 282.000
47.48034 268.000
47.50029 321.000
47.52024 298.000
47.54018 327.000
47.56013 265.000
47.58008 288.000
47.60002 262.000
47.61997 299.000
47.63992 260.000
47.65986 309.000
47.67981 316.000
47.69976 320.000
47.71970 284.000
47.73965 291.000
47.75960 294.000
47.77955 287.000
47.79949 275.000
47.81944 327.000
47.83939 301.000
47.85933 284.000
47.87928 283.000
47.89923 320.000
47.91917 314.000
47.93912 316.000
47.95907 305.000
47.97902 305.000
47.99896 295.000
48.01891 306.000
48.03886 296.000
48.05880 280.000
48.07875 309.000
48.09870 342.000
48.11864 334.000
48.13859 298.000
48.15854 336.000
48.17848 303.000
48.19843 316.000
48.21838 351.000
48.23833 356.000
48.25827 314.000
48.27822 364.000
48.29817 338.000
48.31811 340.000
48.33806 374.000
48.35801 358.000
48.37795 385.000
48.39790 415.000
48.41785 408.000
48.43780 401.000
48.45774 441.000
48.47769 464.000
48.49764 470.000
48.51758 507.000
48.53753 502.000
48.55748 572.000
48.57742 643.000
48.59737 685.000
48.61732 769.000
48.63726 885.000
48.65721 1074.000
48.67716 1257.000
48.69711 1416.000
48.71705 1619.000
48.73700 1929.000
48.75695 1977.000
48.77689 1996.000
48.79684 1935.000
48.81679 1843.000
48.83673 1760.000
48.85668 1643.000
48.87663 1561.000
48.89658 1396.000
48.91652 1263.000
48.93647 1156.000
48.95642 1051.000
48.97636 880.000
48.99631 769.000
49.01626 634.000
49.03620 596.000
49.05615 489.000
49.07610 471.000
49.09605 489.000
49.11599 439.000
49.13594 417.000
49.15589 368.000
49.17583 356.000
49.19578 364.000
49.21573 334.000
49.23567 359.000
49.25562 325.000
49.27557 364.000
49.29551 333.000
49.31546 296.000
49.33541 333.000
49.35536 332.000
49.37530 293.000
49.39525 298.000
49.41520 306.000
49.43514 301.000
49.45509 312.000
49.47504 316.000
49.49498 326.000
49.51493 303.000
49.53488 306.000
49.55483 316.000
49.57477 284.000
49.59472 280.000
49.61467 312.000
49.63461 295.000
49.65456 317.000
49.67451 319.000
49.69445 291.000
49.71440 335.000
49.73435 295.000
49.75429 272.000
49.77424 317.000
49.79419 293.000
49.81414 288.000
49.83408 284.000
49.85403 296.000
49.87398 289.000
49.89392 280.000
49.91387 302.000
49.93382 294.000
49.95376 302.000
49.97371 268.000
49.99366 296.000
50.01361 317.000
50.03355 289.000
50.05350 263.000
50.07345 291.000
50.09339 280.000
50.11334 303.000
50.13329 291.000
50.15323 295.000
50.17318 300.000
50.19313 299.000
50.21307 299.000
50.23302 285.000
50.25297 272.000
50.27292 314.000
50.29286 295.000
50.31281 306.000
50.33276 254.000
50.35270 310.000
50.37265 302.000
50.39260 287.000
50.41254 280.000
50.43249 317.000
50.45244 335.000
50.47239 297.000
50.49233 323.000
50.51228 294.000
50.53223 294.000
50.55217 277.000
50.57212 290.000
50.59207 292.000
50.61201 289.000
50.63196 273.000
50.65191 312.000
50.67186 266.000
50.69180 285.000
50.71175 255.000
50.73170 287.000
50.75164 301.000
50.77159 280.000
50.79154 298.000
50.81148 290.000
50.83143 273.000
50.85138 252.000
50.87132 274.000
50.89127 264.000
50.91122 275.000
50.93117 282.000
50.95111 277.000
50.97106 280.000
50.99101 297.000
51.01095 296.000
51.03090 272.000
51.05085 295.000
51.07079 317.000
51.09074 290.000
51.11069 310.000
51.13064 313.000
51.15058 308.000
51.17053 275.000
51.19048 359.000
51.21042 299.000
51.23037 304.000
51.25032 301.000
51.27026 293.000
51.29021 280.000
51.31016 339.000
51.33010 292.000
51.35005 287.000
51.37000 273.000
51.38995 276.000
51.40989 290.000
51.42984 285.000
51.44979 254.000
51.46973 307.000
51.48968 301.000
51.50963 296.000
51.52957 262.000
51.54952 282.000
51.56947 261.000
51.58942 291.000
51.60936 277.000
51.62931 280.000
51.64926 283.000
51.66920 289.000
51.68915 296.000
51.70910 296.000
51.72904 289.000
51.74899 305.000
51.76894 296.000
51.78888 294.000
51.80883 269.000
51.82878 280.000
51.84873 268.000
51.86867 268.000
51.88862 292.000
51.90857 286.000
51.92851 270.000
51.94846 287.000
51.96841 275.000
51.98835 302.000
52.00830 261.000
52.02825 287.000
52.04820 278.000
52.06814 287.000
52.08809 283.000
52.10804 287.000
52.12798 308.000
52.14793 306.000
52.16788 297.000
52.18782 260.000
52.20777 291.000
52.22772 268.000
52.24767 313.000
52.26761 311.000
52.28756 265.000
52.30751 288.000
52.32745 274.000
52.34740 279.000
52.36735 264.000
52.38729 286.000
52.40724 280.000
52.42719 275.000
52.44713 271.000
52.46708 297.000
52.48703 275.000
52.50698 308.000
52.52692 264.000
52.54687 261.000
52.56682 277.000
52.58676 277.000
52.60671 300.000
52.62666 273.000
52.64660 250.000
52.66655 288.000
52.68650 343.000
52.70645 290.000
52.72639 275.000
52.74634 291.000
52.76629 292.000
52.78623 297.000
52.80618 292.000
52.82613 299.000
52.84607 270.000
52.86602 290.000
52.88597 309.000
52.90591 290.000
52.92586 289.000
52.94581 293.000
52.96576 290.000
52.98570 323.000
53.00565 312.000
53.02560 303.000
53.04554 308.000
53.06549 306.000
53.08544 308.000
53.10538 318.000
53.12533 324.000
53.14528 295.000
53.16523 335.000
53.18517 347.000
53.20512 347.000
53.22507 325.000
53.24501 353.000
53.26496 393.000
53.28491 317.000
53.30485 340.000
53.32480 321.000
53.34475 303.000
53.36469 378.000
53.38464 389.000
53.40459 348.000
53.42454 342.000
53.44448 328.000
53.46443 352.000
53.48438 308.000
53.50432 334.000
53.52427 346.000
53.54422 298.000
53.56416 304.000
53.58411 314.000
53.60406 289.000
53.62401 320.000
53.64395 317.000
53.66390 311.000
53.68385 278.000
53.70379 302.000
53.72374 322.000
53.74369 303.000
53.76363 311.000
53.78358 267.000
53.80353 275.000
53.82348 266.000
53.84342 312.000
53.86337 280.000
53.88332 310.000
53.90326 290.000
53.92321 279.000
53.94316 255.000
53.96310 308.000
53.98305 266.000
54.00300 303.000
54.02294 276.000
54.04289 312.000
54.06284 272.000
54.08279 284.000
54.10273 264.000
54.12268 281.000
54.14263 288.000
54.16257 258.000
54.18252 297.000
54.20247 300.000
54.22241 301.000
54.24236 289.000
54.26231 305.000
54.28226 272.000
54.30220 271.000
54.32215 276.000
54.34210 293.000
54.36204 291.000
54.38199 248.000
54.40194 269.000
54.42188 293.000
54.44183 262.000
54.46178 256.000
54.48172 256.000
54.50167 244.000
54.52162 284.000
54.54157 310.000
54.56151 310.000
54.58146 286.000
54.60141 276.000
54.62135 287.000
54.64130 275.000
54.66125 285.000
54.68119 292.000
54.70114 287.000
54.72109 278.000
54.74104 284.000
54.76098 292.000
54.78093 278.000
54.80088 282.000
54.82082 303.000
54.84077 268.000
54.86072 276.000
54.88066 321.000
54.90061 291.000
54.92056 290.000
54.94050 297.000
54.96045 273.000
54.98040 279.000
55.00035 271.000
55.02029 288.000
55.04024 297.000
55.06019 282.000
55.08013 343.000
55.10008 290.000
55.12003 295.000
55.13997 252.000
55.15992 269.000
55.17987 292.000
55.19982 282.000
55.21976 314.000
55.23971 276.000
55.25966 266.000
55.27960 270.000
55.29955 294.000
55.31950 263.000
55.33944 296.000
55.35939 282.000
55.37934 297.000
55.39929 261.000
55.41923 285.000
55.43918 277.000
55.45913 297.000
55.47907 269.000
55.49902 309.000
55.51897 281.000
55.53891 244.000
55.55886 306.000
55.57881 304.000
55.59875 289.000
55.61870 289.000
55.63865 305.000
55.65860 309.000
55.67854 287.000
55.69849 295.000
55.71844 277.000
55.73838 264.000
55.75833 257.000
55.77828 289.000
55.79822 280.000
55.81817 280.000
55.83812 299.000
55.85807 304.000
55.87801 279.000
55.89796 308.000
55.91791 286.000
55.93785 288.000
55.95780 300.000
55.97775 298.000
55.99769 274.000
56.01764 285.000
56.03759 258.000
56.05753 331.000
56.07748 273.000
56.09743 271.000
56.11738 268.000
56.13732 297.000
56.15727 288.000
56.17722 285.000
56.19716 317.000
56.21711 287.000
56.23706 303.000
56.25700 281.000
56.27695 280.000
56.29690 319.000
56.31685 293.000
56.33679 273.000
56.35674 272.000
56.37669 273.000
56.39663 309.000
56.41658 307.000
56.43653 298.000
56.45647 319.000
56.47642 260.000
56.49637 287.000
56.51631 297.000
56.53626 283.000
56.55621 323.000
56.57616 293.000
56.59610 325.000
56.61605 300.000
56.63600 285.000
56.65594 302.000
56.67589 288.000
56.69584 294.000
56.71578 292.000
56.73573 252.000
56.75568 285.000
56.77563 274.000
56.79557 272.000
56.81552 283.000
56.83547 304.000
56.85541 324.000
56.87536 269.000
56.89531 320.000
56.91525 282.000
56.93520 311.000
56.95515 261.000
56.97510 297.000
56.99504 273.000
57.01499 295.000
57.03494 313.000
57.05488 279.000
57.07483 289.000
57.09478 272.000
57.11472 291.000
57.13467 279.000
57.15462 275.000
57.17456 322.000
57.19451 298.000
57.21446 300.000
57.23441 302.000
57.25435 268.000
57.27430 284.000
57.29425 308.000
57.31419 294.000
57.33414 273.000
57.35409 270.000
57.37403 286.000
57.39398 275.000
57.41393 284.000
57.43388 298.000
57.45382 303.000
57.47377 296.000
57.49372 321.000
57.51366 302.000
57.53361 288.000
57.55356 277.000
57.57350 321.000
57.59345 264.000
57.61340 293.000
57.63334 275.000
57.65329 306.000
57.67324 292.000
57.69319 283.000
57.71313 305.000
57.73308 308.000
57.75303 342.000
57.77297 306.000
57.79292 329.000
57.81287 304.000
57.83281 288.000
57.85276 331.000
57.87271 321.000
57.89266 321.000
57.91260 329.000
57.93255 309.000
57.95250 341.000
57.97244 332.000
57.99239 360.000
58.01234 354.000
58.03228 392.000
58.05223 344.000
58.07218 401.000
58.09212 402.000
58.11207 405.000
58.13202 461.000
58.15197 424.000
58.17191 466.000
58.19186 410.000
58.21181 445.000
58.23175 426.000
58.25170 378.000
58.27165 390.000
58.29159 425.000
58.31154 358.000
58.33149 360.000
58.35144 363.000
58.37138 378.000
58.39133 378.000
58.41128 290.000
58.43122 309.000
58.45117 295.000
58.47112 293.000
58.49106 270.000
58.51101 295.000
58.53096 321.000
58.55090 318.000
58.57085 296.000
58.59080 300.000
58.61075 300.000
58.63069 284.000
58.65064 311.000
58.67059 298.000
58.69053 291.000
58.71048 301.000
58.73043 293.000
58.75037 292.000
58.77032 294.000
58.79027 294.000
58.81022 319.000
58.83016 286.000
58.85011 279.000
58.87006 286.000
58.89000 252.000
58.90995 306.000
58.92990 273.000
58.94984 286.000
58.96979 271.000
58.98974 293.000
59.00969 283.000
59.02963 305.000
59.04958 269.000
59.06953 308.000
59.08947 276.000
59.10942 314.000
59.12937 291.000
59.14931 269.000
59.16926 286.000
59.18921 286.000
59.20915 305.000
59.22910 316.000
59.24905 293.000
59.26900 275.000
59.28894 271.000
59.30889 299.000
59.32884 311.000
59.34878 251.000
59.36873 291.000
59.38868 315.000
59.40862 301.000
59.42857 280.000
59.44852 287.000
59.46847 286.000
59.48841 253.000
59.50836 295.000
59.52831 284.000
59.54825 285.000
59.56820 293.000
59.58815 274.000
59.60809 297.000
59.62804 288.000
59.64799 289.000
59.66793 286.000
59.68788 286.000
59.70783 269.000
59.72778 278.000
59.74772 298.000
59.76767 285.000
59.78762 292.000
59.80756 269.000
59.82751 290.000
59.84746 308.000
59.86740 285.000
59.88735 294.000
59.90730 283.000
59.92725 276.000
59.94719 298.000
59.96714 288.000
59.98709 312.000
60.00703 291.000
60.02698 299.000
60.04693 288.000
60.06687 313.000
60.08682 273.000
60.10677 277.000
60.12671 267.000
60.14666 283.000
60.16661 291.000
60.18656 288.000
60.20650 264.000
60.22645 275.000
60.24640 297.000
60.26634 317.000
60.28629 281.000
60.30624 280.000
60.32618 285.000
60.34613 305.000
60.36608 305.000
60.38603 296.000
60.40597 299.000
60.42592 312.000
60.44587 308.000
60.46581 271.000
60.48576 303.000
60.50571 315.000
60.52565 289.000
60.54560 276.000
60.56555 261.000
60.58550 269.000
60.60544 304.000
60.62539 303.000
60.64534 321.000
60.66528 256.000
60.68523 260.000
60.70518 297.000
60.72512 313.000
60.74507 283.000
60.76502 278.000
60.78496 270.000
60.80491 297.000
60.82486 294.000
60.84481 292.000
60.86475 284.000
60.88470 279.000
60.90465 295.000
60.92459 285.000
60.94454 329.000
60.96449 267.000
60.98443 317.000
61.00438 305.000
61.02433 310.000
61.04428 304.000
61.06422 262.000
61.08417 353.000
61.10412 321.000
61.12406 322.000
61.14401 314.000
61.16396 322.000
61.18390 289.000
61.20385 336.000
61.22380 332.000
61.24374 356.000
61.26369 373.000
61.28364 355.000
61.30359 375.000
61.32353 372.000
61.34348 379.000
61.36343 448.000
61.38337 417.000
61.40332 466.000
61.42327 500.000
61.44321 525.000
61.46316 534.000
61.48311 496.000
61.50306 500.000
61.52300 510.000
61.54295 478.000
61.56290 510.000
61.58284 470.000
61.60279 474.000
61.62274 485.000
61.64268 468.000
61.66263 482.000
61.68258 443.000
61.70252 447.000
61.72247 474.000
61.74242 472.000
61.76237 429.000
61.78231 498.000
61.80226 452.000
61.82221 445.000
61.84215 497.000
61.86210 466.000
61.88205 557.000
61.90199 601.000
61.92194 627.000
61.94189 666.000
61.96184 662.000
61.98178 759.000
62.00173 794.000
62.02168 786.000
62.04162 778.000
62.06157 777.000
62.08152 684.000
62.10146 706.000
62.12141 656.000
62.14136 647.000
62.16131 649.000
62.18125 610.000
62.20120 611.000
62.22115 597.000
62.24109 586.000
62.26104 583.000
62.28099 547.000
62.30093 522.000
62.32088 439.000
62.34083 476.000
62.36077 459.000
62.38072 492.000
62.40067 541.000
62.42062 497.000
62.44056 531.000
62.46051 608.000
62.48046 634.000
62.50040 676.000
62.52035 745.000
62.54030 775.000
62.56024 812.000
62.58019 866.000
62.60014 829.000
62.62009 894.000
62.64003 812.000
62.65998 784.000
62.67993 762.000
62.69987 665.000
62.71982 638.000
62.73977 682.000
62.75971 653.000
62.77966 630.000
62.79961 594.000
62.81955 556.000
62.83950 503.000
62.85945 466.000
62.87940 442.000
62.89934 425.000
62.91929 403.000
62.93924 342.000
62.95918 360.000
62.97913 332.000
62.99908 362.000
63.01902 306.000
63.03897 343.000
63.05892 319.000
63.07887 340.000
63.09881 300.000
63.11876 308.000
63.13871 314.000
63.15865 332.000
63.17860 330.000
63.19855 301.000
63.21849 331.000
63.23844 328.000
63.25839 337.000
63.27833 338.000
63.29828 344.000
63.31823 317.000
63.33818 340.000
63.35812 341.000
63.37807 306.000
63.39802 307.000
63.41796 321.000
63.43791 315.000
63.45786 336.000
63.47780 347.000
63.49775 319.000
63.51770 305.000
63.53765 296.000
63.55759 310.000
63.57754 308.000
63.59749 304.000
63.61743 299.000
63.63738 309.000
63.65733 321.000
63.67727 296.000
63.69722 340.000
63.71717 330.000
63.73712 311.000
63.75706 325.000
63.77701 324.000
63.79696 302.000
63.81690 306.000
63.83685 329.000
63.85680 311.000
63.87674 296.000
63.89669 311.000
63.91664 304.000
63.93658 320.000
63.95653 319.000
63.97648 353.000
63.99643 290.000
64.01637 302.000
64.03632 292.000
64.05627 333.000
64.07621 351.000
64.09616 310.000
64.11611 297.000
64.13605 304.000
64.15600 323.000
64.17595 363.000
64.19590 320.000
64.21584 359.000
64.23579 387.000
64.25574 414.000
64.27568 406.000
64.29563 442.000
64.31558 539.000
64.33552 543.000
64.35547 547.000
64.37542 609.000
64.39536 586.000
64.41531 620.000
64.43526 556.000
64.45521 626.000
64.47515 676.000
64.49510 648.000
64.51505 681.000
64.53499 687.000
64.55494 687.000
64.57489 630.000
64.59483 607.000
64.61478 576.000
64.63473 523.000
64.65468 464.000
64.67462 514.000
64.69457 474.000
64.71452 471.000
64.73446 416.000
64.75441 443.000
64.77436 372.000
64.79430 326.000
64.81425 370.000
64.83420 312.000
64.85414 305.000
64.87409 322.000
64.89404 313.000
64.91399 335.000
64.93393 312.000
64.95388 324.000
64.97383 302.000
64.99377 336.000
65.01372 326.000
65.03367 340.000
65.05361 307.000
65.07356 315.000
65.09351 342.000
65.11346 331.000
65.13340 357.000
65.15335 301.000
65.17330 291.000
65.19324 316.000
65.21319 345.000
65.23314 310.000
65.25308 319.000
65.27303 341.000
65.29298 327.000
65.31293 330.000
65.33287 317.000
65.35282 351.000
65.37277 352.000
65.39271 346.000
65.41266 354.000
65.43261 345.000
65.45255 380.000
65.47250 401.000
65.49245 388.000
65.51239 382.000
65.53234 395.000
65.55229 373.000
65.57224 415.000
65.59218 393.000
65.61213 416.000
65.63208 387.000
65.65202 422.000
65.67197 392.000
65.69192 411.000
65.71186 358.000
65.73181 434.000
65.75176 416.000
65.77171 420.000
65.79165 392.000
65.81160 389.000
65.83155 384.000
65.85149 378.000
65.87144 427.000
65.89139 369.000
65.91133 399.000
65.93128 408.000
65.95123 328.000
65.97117 338.000
65.99112 318.000
66.01107 328.000
66.03102 356.000
66.05096 370.000
66.07091 363.000
66.09086 368.000
66.11080 377.000
66.13075 373.000
66.15070 409.000
66.17064 416.000
66.19059 414.000
66.21054 453.000
66.23049 421.000
66.25043 482.000
66.27038 438.000
66.29033 447.000
66.31027 489.000
66.33022 458.000
66.35017 420.000
66.37011 441.000
66.39006 432.000
66.41001 439.000
66.42995 380.000
66.44990 405.000
66.46985 401.000
66.48980 388.000
66.50974 424.000
66.52969 393.000
66.54964 392.000
66.56958 384.000
66.58953 389.000
66.60948 391.000
66.62942 425.000
66.64937 424.000
66.66932 442.000
66.68927 441.000
66.70921 484.000
66.72916 492.000
66.74911 508.000
66.76905 523.000
66.78900 545.000
66.80895 610.000
66.82889 561.000
66.84884 622.000
66.86879 608.000
66.88874 644.000
66.90868 663.000
66.92863 645.000
66.94858 585.000
66.96852 584.000
66.98847 557.000
67.00842 513.000
67.02836 489.000
67.04831 482.000
67.06826 459.000
67.08820 453.000
67.10815 410.000
67.12810 441.000
67.14805 405.000
67.16799 410.000
67.18794 392.000
67.20789 371.000
67.22783 352.000
67.24778 302.000
67.26773 317.000
67.28767 302.000
67.30762 354.000
67.32757 330.000
67.34752 295.000
67.36746 304.000
67.38741 307.000
67.40736 318.000
67.42730 311.000
67.44725 327.000
67.46720 319.000
67.48714 296.000
67.50709 294.000
67.52704 326.000
67.54698 333.000
67.56693 348.000
67.58688 350.000
67.60683 411.000
67.62677 367.000
67.64672 345.000
67.66667 372.000
67.68661 404.000
67.70656 410.000
67.72651 414.000
67.74645 358.000
67.76640 380.000
67.78635 404.000
67.80630 398.000
67.82624 424.000
67.84619 401.000
67.86614 403.000
67.88608 462.000
67.90603 424.000
67.92598 464.000
67.94592 456.000
67.96587 457.000
67.98582 474.000
68.00576 444.000
68.02571 453.000
68.04566 410.000
68.06561 435.000
68.08555 419.000
68.10550 419.000
68.12545 396.000
68.14539 340.000
68.16534 380.000
68.18529 365.000
68.20523 363.000
68.22518 366.000
68.24513 373.000
68.26508 334.000
68.28502 330.000
68.30497 324.000
68.32492 321.000
68.34486 310.000
68.36481 301.000
68.38476 323.000
68.40470 312.000
68.42465 290.000
68.44460 300.000
68.46455 323.000
68.48449 313.000
68.50444 303.000
68.52439 304.000
68.54433 287.000
68.56428 303.000
68.58423 295.000
68.60417 339.000
68.62412 283.000
68.64407 326.000
68.66401 302.000
68.68396 285.000
68.70391 294.000
68.72386 274.000
68.74380 297.000
68.76375 299.000
68.78370 294.000
68.80364 309.000
68.82359 292.000
68.84354 301.000
68.86348 296.000
68.88343 298.000
68.90338 268.000
68.92333 298.000
68.94327 305.000
68.96322 300.000
68.98317 318.000
69.00311 283.000
69.02306 273.000
69.04301 296.000
69.06295 248.000
69.08290 277.000
69.10285 261.000
69.12279 277.000
69.14274 305.000
69.16269 287.000
69.18264 297.000
69.20258 285.000
69.22253 270.000
69.24248 297.000
69.26242 294.000
69.28237 271.000
69.30232 279.000
69.32226 266.000
69.34221 256.000
69.36216 275.000
69.38211 277.000
69.40205 303.000
69.42200 318.000
69.44195 257.000
69.46189 255.000
69.48184 305.000
69.50179 291.000
69.52173 307.000
69.54168 250.000
69.56163 294.000
69.58157 317.000
69.60152 261.000
69.62147 273.000
69.64142 278.000
69.66136 309.000
69.68131 272.000
69.70126 313.000
69.72120 293.000
69.74115 279.000
69.76110 298.000
69.78104 280.000
69.80099 304.000
69.82094 262.000
69.84089 296.000
69.86083 292.000
69.88078 272.000
69.90073 303.000
69.92067 257.000
69.94062 286.000
69.96057 277.000
69.98051 267.000
70.00046 297.000
70.02041 307.000
70.04035 276.000
70.06030 275.000
70.08025 288.000
70.10020 302.000
70.12014 279.000
70.14009 295.000
70.16004 270.000
70.17998 265.000
70.19993 294.000
70.21988 283.000
70.23982 298.000
70.25977 303.000
70.27972 279.000
70.29967 295.000
70.31961 287.000
70.33956 315.000
70.35951 296.000
70.37945 280.000
70.39940 286.000
70.41935 293.000
70.43929 336.000
70.45924 299.000
70.47919 254.000
70.49914 310.000
70.51908 311.000
70.53903 267.000
70.55898 275.000
70.57892 281.000
70.59887 274.000
70.61882 289.000
70.63876 264.000
70.65871 274.000
70.67866 278.000
70.69860 318.000
70.71855 276.000
70.73850 330.000
70.75845 288.000
70.77839 285.000
70.79834 264.000
70.81829 284.000
70.83823 304.000
70.85818 313.000
70.87813 297.000
70.89807 315.000
70.91802 269.000
70.93797 289.000
70.95792 275.000
70.97786 292.000
70.99781 245.000
71.01776 275.000
71.03770 290.000
71.05765 268.000
71.07760 270.000
71.09754 270.000
71.11749 294.000
71.13744 280.000
71.15738 290.000
71.17733 269.000
71.19728 309.000
71.21723 302.000
71.23717 286.000
71.25712 300.000
71.27707 265.000
71.29701 271.000
71.31696 274.000
71.33691 287.000
71.35685 265.000
71.37680 265.000
71.39675 317.000
71.41670 301.000
71.43664 272.000
71.45659 329.000
71.47654 290.000
71.49648 270.000
71.51643 294.000
71.53638 277.000
71.55632 262.000
71.57627 272.000
71.59622 280.000
71.61616 296.000
71.63611 244.000
71.65606 268.000
71.67601 292.000
71.69595 267.000
71.71590 311.000
71.73585 296.000
71.75579 296.000
71.77574 276.000
71.79569 304.000
71.81563 307.000
71.83558 286.000
71.85553 295.000
71.87548 320.000
71.89542 274.000
71.91537 314.000
71.93532 284.000
71.95526 274.000
71.97521 264.000
71.99516 328.000
72.01510 302.000
72.03505 285.000
72.05500 306.000
72.07495 294.000
72.09489 302.000
72.11484 308.000
72.13479 323.000
72.15473 320.000
72.17468 353.000
72.19463 328.000
72.21457 326.000
72.23452 298.000
72.25447 340.000
72.27441 366.000
72.29436 353.000
72.31431 376.000
72.33426 359.000
72.35420 380.000
72.37415 360.000
72.39410 332.000
72.41404 348.000
72.43399 363.000
72.45394 299.000
72.47388 331.000
72.49383 356.000
72.51378 315.000
72.53373 358.000
72.55367 365.000
72.57362 318.000
72.59357 289.000
72.61351 346.000
72.63346 322.000
72.65341 310.000
72.67335 284.000
72.69330 304.000
72.71325 265.000
72.73319 291.000
72.75314 284.000
72.77309 313.000
72.79304 303.000
72.81298 272.000
72.83293 286.000
72.85288 273.000
72.87282 290.000
72.89277 293.000
72.91272 301.000
72.93266 280.000
72.95261 258.000
72.97256 302.000
72.99251 293.000
73.01245 282.000
73.03240 274.000
73.05235 279.000
73.07229 298.000
73.09224 268.000
73.11219 273.000
73.13213 305.000
73.15208 280.000
73.17203 304.000
73.19197 290.000
73.21192 289.000
73.23187 291.000
73.25182 292.000
73.27176 307.000
73.29171 291.000
73.31166 286.000
73.33160 312.000
73.35155 298.000
73.37150 325.000
73.39144 268.000
73.41139 309.000
73.43134 274.000
73.45129 298.000
73.47123 308.000
73.49118 305.000
73.51113 302.000
73.53107 333.000
73.55102 327.000
73.57097 312.000
73.59091 306.000
73.61086 332.000
73.63081 342.000
73.65076 353.000
73.67070 359.000
73.69065 394.000
73.71060 375.000
73.73054 395.000
73.75049 367.000
73.77044 373.000
73.79038 407.000
73.81033 401.000
73.83028 422.000
73.85022 401.000
73.87017 356.000
73.89012 379.000
73.91007 375.000
73.93001 361.000
73.94996 364.000
73.96991 350.000
73.98985 351.000
74.00980 325.000
74.02975 344.000
74.04969 325.000
74.06964 301.000
74.08959 343.000
74.10954 328.000
74.12948 325.000
74.14943 299.000
74.16938 308.000
74.18932 309.000
74.20927 280.000
74.22922 275.000
74.24916 299.000
74.26911 287.000
74.28906 324.000
74.30900 274.000
74.32895 318.000
74.34890 291.000
74.36885 311.000
74.38879 300.000
74.40874 292.000
74.42869 288.000
74.44863 295.000
74.46858 288.000
74.48853 301.000
74.50847 328.000
74.52842 321.000
74.54837 337.000
74.56832 285.000
74.58826 318.000
74.60821 299.000
74.62816 320.000
74.64810 322.000
74.66805 293.000
74.68800 310.000
74.70794 290.000
74.72789 355.000
74.74784 373.000
74.76778 352.000
74.78773 322.000
74.80768 395.000
74.82763 409.000
74.84757 412.000
74.86752 409.000
74.88747 420.000
74.90741 442.000
74.92736 448.000
74.94731 493.000
74.96725 496.000
74.98720 486.000
75.00715 474.000
75.02710 496.000
75.04704 469.000
75.06699 518.000
75.08694 559.000
75.10688 548.000
75.12683 551.000
75.14678 508.000
75.16672 491.000
75.18667 479.000
75.20662 471.000
75.22657 451.000
75.24651 444.000
75.26646 499.000
75.28641 438.000
75.30635 425.000
75.32630 405.000
75.34625 389.000
75.36619 401.000
75.38614 373.000
75.40609 389.000
75.42603 361.000
75.44598 351.000
75.46593 367.000
75.48588 361.000
75.50582 297.000
75.52577 311.000
75.54572 318.000
75.56566 321.000
75.58561 302.000
75.60556 308.000
75.62550 310.000
75.64545 318.000
75.66540 288.000
75.68535 308.000
75.70529 318.000
75.72524 322.000
75.74519 330.000
75.76513 303.000
75.78508 317.000
75.80503 289.000
75.82497 301.000
75.84492 302.000
75.86487 325.000
75.88481 297.000
75.90476 307.000
75.92471 333.000
75.94466 305.000
75.96460 309.000
75.98455 317.000
76.00450 332.000
76.02444 333.000
76.04439 323.000
76.06434 342.000
76.08428 352.000
76.10423 285.000
76.12418 347.000
76.14413 378.000
76.16407 344.000
76.18402 328.000
76.20397 313.000
76.22391 331.000
76.24386 321.000
76.26381 336.000
76.28375 316.000
76.30370 298.000
76.32365 308.000
76.34359 317.000
76.36354 326.000
76.38349 337.000
76.40344 297.000
76.42338 331.000
76.44333 308.000
76.46328 265.000
76.48322 285.000
76.50317 256.000
76.52312 329.000
76.54306 315.000
76.56301 279.000
76.58296 300.000
76.60291 239.000
76.62285 287.000
76.64280 300.000
76.66275 296.000
76.68269 287.000
76.70264 279.000
76.72259 295.000
76.74253 249.000
76.76248 302.000
76.78243 261.000
76.80238 313.000
76.82232 299.000
76.84227 322.000
76.86222 278.000
76.88216 279.000
76.90211 286.000
76.92206 285.000
76.94200 263.000
76.96195 284.000
76.98190 308.000
77.00184 279.000
77.02179 286.000
77.04174 277.000
77.06169 320.000
77.08163 291.000
77.10158 287.000
77.12153 241.000
77.14147 273.000
77.16142 295.000
77.18137 283.000
77.20131 310.000
77.22126 296.000
77.24121 301.000
77.26116 273.000
77.28110 288.000
77.30105 316.000
77.32100 279.000
77.34094 289.000
77.36089 319.000
77.38084 293.000
77.40078 245.000
77.42073 280.000
77.44068 272.000
77.46062 259.000
77.48057 259.000
77.50052 302.000
77.52047 287.000
77.54041 277.000
77.56036 281.000
77.58031 277.000
77.60025 281.000
77.62020 277.000
77.64015 299.000
77.66009 312.000
77.68004 289.000
77.69999 283.000
77.71994 291.000
77.73988 300.000
77.75983 275.000
77.77978 289.000
77.79972 313.000
77.81967 314.000
77.83962 310.000
77.85956 276.000
77.87951 321.000
77.89946 314.000
77.91940 295.000
77.93935 321.000
77.95930 316.000
77.97925 334.000
77.99919 365.000
78.01914 374.000
78.03909 384.000
78.05903 369.000
78.07898 400.000
78.09893 408.000
78.11887 416.000
78.13882 415.000
78.15877 413.000
78.17872 458.000
78.19866 475.000
78.21861 461.000
78.23856 443.000
78.25850 467.000
78.27845 490.000
78.29840 523.000
78.31834 486.000
78.33829 514.000
78.35824 475.000
78.37819 464.000
78.39813 483.000
78.41808 460.000
78.43803 450.000
78.45797 441.000
78.47792 425.000
78.49787 399.000
78.51781 444.000
78.53776 404.000
78.55771 395.000
78.57765 404.000
78.59760 380.000
78.61755 373.000
78.63750 363.000
78.65744 368.000
78.67739 325.000
78.69734 337.000
78.71728 315.000
78.73723 340.000
78.75718 299.000
78.77712 328.000
78.79707 305.000
78.81702 321.000
78.83697 331.000
78.85691 306.000
78.87686 371.000
78.89681 337.000
78.91675 392.000
78.93670 368.000
78.95665 418.000
78.97659 424.000
78.99654 435.000
79.01649 441.000
79.03643 452.000
79.05638 394.000
79.07633 443.000
79.09628 401.000
79.11622 413.000
79.13617 371.000
79.15612 345.000
79.17606 374.000
79.19601 352.000
79.21596 371.000
79.23590 350.000
79.25585 359.000
79.27580 390.000
79.29575 407.000
79.31569 358.000
79.33564 379.000
79.35559 349.000
79.37553 332.000
79.39548 347.000
79.41543 312.000
79.43537 328.000
79.45532 287.000
79.47527 285.000
79.49521 307.000
79.51516 331.000
79.53511 292.000
79.55506 318.000
79.57500 292.000
79.59495 278.000
79.61490 326.000
79.63484 300.000
79.65479 278.000
79.67474 261.000
79.69468 297.000
79.71463 298.000
79.73458 289.000
79.75453 275.000
79.77447 302.000
79.79442 314.000
79.81437 271.000
79.83431 287.000
79.85426 297.000
79.87421 302.000
79.89415 303.000
79.91410 269.000
79.93405 306.000
79.95399 300.000
79.97394 286.000
79.99389 279.000
80.01384 289.000
80.03378 304.000
80.05373 297.000
80.07368 279.000
80.09362 286.000
80.11357 290.000
80.13352 280.000
80.15346 300.000
80.17341 310.000
80.19336 300.000
80.21331 304.000
80.23325 282.000
80.25320 315.000
80.27315 301.000
80.29309 290.000
80.31304 318.000
80.33299 298.000
80.35293 315.000
80.37288 317.000
80.39283 311.000
80.41278 296.000
80.43272 319.000
80.45267 292.000
80.47262 307.000
80.49256 328.000
80.51251 312.000
80.53246 297.000
80.55240 273.000
80.57235 305.000
80.59230 287.000
80.61224 299.000
80.63219 308.000
80.65214 301.000
80.67209 284.000
80.69203 295.000
80.71198 300.000
80.73193 278.000
80.75187 306.000
80.77182 286.000
80.79177 296.000
80.81171 288.000
80.83166 291.000
80.85161 287.000
80.87156 314.000
80.89150 310.000
80.91145 330.000
80.93140 306.000
80.95134 302.000
80.97129 292.000
80.99124 299.000
81.01118 330.000
81.03113 310.000
81.05108 297.000
81.07102 306.000
81.09097 289.000
81.11092 282.000
81.13087 313.000
81.15081 341.000
81.17076 276.000
81.19071 298.000
81.21065 310.000
81.23060 271.000
81.25055 299.000
81.27049 307.000
81.29044 288.000
81.31039 273.000
81.33034 299.000
81.35028 292.000
81.37023 324.000
81.39018 275.000
81.41012 293.000
81.43007 310.000
81.45002 289.000
81.46996 253.000
81.48991 269.000
81.50986 287.000
81.52980 276.000
81.54975 281.000
81.56970 294.000
81.58965 290.000
81.60959 280.000
81.62954 290.000
81.64949 319.000
81.66943 284.000
81.68938 285.000
81.70933 275.000
81.72927 326.000
81.74922 311.000
81.76917 255.000
81.78912 269.000
81.80906 261.000
81.82901 302.000
81.84896 282.000
81.86890 340.000
81.88885 280.000
81.90880 301.000
81.92874 255.000
81.94869 261.000
81.96864 308.000
81.98859 270.000
82.00853 292.000
82.02848 305.000
82.04843 279.000
82.06837 282.000
82.08832 297.000
82.10827 258.000
82.12821 286.000
82.14816 281.000
82.16811 278.000
82.18805 329.000
82.20800 292.000
82.22795 269.000
82.24790 260.000
82.26784 300.000
82.28779 311.000
82.30774 262.000
82.32768 339.000
82.34763 296.000
82.36758 310.000
82.38752 345.000
82.40747 321.000
82.42742 362.000
82.44737 324.000
82.46731 321.000
82.48726 315.000
82.50721 340.000
82.52715 361.000
82.54710 330.000
82.56705 328.000
82.58699 314.000
82.60694 338.000
82.62689 334.000
82.64683 340.000
82.66678 317.000
82.68673 338.000
82.70668 322.000
82.72662 326.000
82.74657 301.000
82.76652 326.000
82.78646 327.000
82.80641 315.000
82.82636 348.000
82.84630 353.000
82.86625 331.000
82.88620 313.000
82.90615 341.000
82.92609 314.000
82.94604 332.000
82.96599 344.000
82.98593 298.000
83.00588 347.000
83.02583 287.000
83.04577 292.000
83.06572 307.000
83.08567 293.000
83.10561 295.000
83.12556 324.000
83.14551 305.000
83.16546 317.000
83.18540 282.000
83.20535 316.000
83.22530 308.000
83.24524 295.000
83.26519 321.000
83.28514 291.000
83.30508 315.000
83.32503 304.000
83.34498 297.000
83.36493 298.000
83.38487 291.000
83.40482 305.000
83.42477 303.000
83.44471 303.000
83.46466 306.000
83.48461 326.000
83.50455 327.000
83.52450 320.000
83.54445 304.000
83.56440 344.000
83.58434 287.000
83.60429 308.000
83.62424 311.000
83.64418 334.000
83.66413 281.000
83.68408 318.000
83.70402 353.000
83.72397 312.000
83.74392 321.000
83.76386 292.000
83.78381 302.000
83.80376 320.000
83.82371 300.000
83.84365 332.000
83.86360 304.000
83.88355 315.000
83.90349 322.000
83.92344 300.000
83.94339 298.000
83.96333 291.000
83.98328 343.000
84.00323 278.000
84.02318 312.000
84.04312 317.000
84.06307 260.000
84.08302 292.000
84.10296 313.000
84.12291 317.000
84.14286 296.000
84.16280 304.000
84.18275 286.000
84.20270 302.000
84.22264 307.000
84.24259 293.000
84.26254 323.000
84.28249 296.000
84.30243 291.000
84.32238 293.000
84.34233 272.000
84.36227 293.000
84.38222 297.000
84.40217 289.000
84.42211 288.000
84.44206 291.000
84.46201 283.000
84.48196 333.000
84.50190 276.000
84.52185 288.000
84.54180 286.000
84.56174 283.000
84.58169 353.000
84.60164 334.000
84.62158 317.000
84.64153 319.000
84.66148 331.000
84.68142 335.000
84.70137 377.000
84.72132 357.000
84.74127 362.000
84.76121 357.000
84.78116 357.000
84.80111 391.000
84.82105 373.000
84.84100 357.000
84.86095 466.000
84.88089 408.000
84.90084 384.000
84.92079 470.000
84.94074 402.000
84.96068 414.000
84.98063 418.000
85.00058 390.000
85.02052 373.000
85.04047 388.000
85.06042 372.000
85.08036 380.000
85.10031 370.000
85.12026 330.000
85.14021 379.000
85.16015 369.000
85.18010 359.000
85.20005 392.000
85.21999 370.000
85.23994 319.000
85.25989 343.000
85.27983 323.000
85.29978 318.000
85.31973 324.000
85.33967 322.000
85.35962 293.000
85.37957 291.000
85.39952 310.000
85.41946 268.000
85.43941 298.000
85.45936 274.000
85.47930 276.000
85.49925 274.000
85.51920 310.000
85.53914 291.000
85.55909 265.000
85.57904 307.000
85.59899 273.000
85.61893 259.000
85.63888 317.000
85.65883 291.000
85.67877 315.000
85.69872 318.000
85.71867 279.000
85.73861 299.000
85.75856 293.000
85.77851 269.000
85.79845 269.000
85.81840 304.000
85.83835 270.000
85.85830 282.000
85.87824 279.000
85.89819 280.000
85.91814 274.000
85.93808 282.000
85.95803 300.000
85.97798 257.000
85.99792 292.000
86.01787 301.000
86.03782 281.000
86.05777 246.000
86.07771 266.000
86.09766 275.000
86.11761 270.000
86.13755 287.000
86.15750 289.000
86.17745 293.000
86.19739 259.000
86.21734 286.000
86.23729 285.000
86.25723 275.000
86.27718 283.000
86.29713 270.000
86.31708 288.000
86.33702 277.000
86.35697 269.000
86.37692 268.000
86.39686 322.000
86.41681 298.000
86.43676 301.000
86.45670 276.000
86.47665 274.000
86.49660 316.000
86.51655 303.000
86.53649 270.000
86.55644 292.000
86.57639 293.000
86.59633 298.000
86.61628 316.000
86.63623 313.000
86.65617 310.000
86.67612 325.000
86.69607 323.000
86.71602 280.000
86.73596 339.000
86.75591 325.000
86.77586 300.000
86.79580 310.000
86.81575 281.000
86.83570 316.000
86.85564 312.000
86.87559 300.000
86.89554 284.000
86.91548 290.000
86.93543 292.000
86.95538 279.000
86.97533 274.000
86.99527 300.000
87.01522 299.000
87.03517 309.000
87.05511 289.000
87.07506 300.000
87.09501 324.000
87.11495 286.000
87.13490 319.000
87.15485 307.000
87.17480 291.000
87.19474 305.000
87.21469 295.000
87.23464 285.000
87.25458 332.000
87.27453 285.000
87.29448 291.000
87.31442 312.000
87.33437 293.000
87.35432 288.000
87.37426 289.000
87.39421 309.000
87.41416 307.000
87.43411 316.000
87.45405 296.000
87.47400 310.000
87.49395 293.000
87.51389 274.000
87.53384 307.000
87.55379 285.000
87.57373 294.000
87.59368 315.000
87.61363 327.000
87.63358 292.000
87.65352 325.000
87.67347 306.000
87.69342 296.000
87.71336 291.000
87.73331 299.000
87.75326 320.000
87.77320 269.000
87.79315 299.000
87.81310 279.000
87.83304 269.000
87.85299 293.000
87.87294 267.000
87.89289 283.000
87.91283 279.000
87.93278 302.000
87.95273 293.000
87.97267 294.000
87.99262 292.000
88.01257 271.000
88.03251 273.000
88.05246 288.000
88.07241 263.000
88.09236 334.000
88.11230 299.000
88.13225 292.000
88.15220 286.000
88.17214 282.000
88.19209 276.000
88.21204 293.000
88.23198 273.000
88.25193 288.000
88.27188 277.000
88.29183 275.000
88.31177 275.000
88.33172 275.000
88.35167 298.000
88.37161 310.000
88.39156 309.000
88.41151 273.000
88.43145 318.000
88.45140 326.000
88.47135 284.000
88.49129 278.000
88.51124 279.000
88.53119 315.000
88.55114 294.000
88.57108 294.000
88.59103 285.000
88.61098 290.000
88.63092 308.000
88.65087 292.000
88.67082 259.000
88.69076 281.000
88.71071 304.000
88.73066 292.000
88.75061 274.000
88.77055 267.000
88.79050 260.000
88.81045 259.000
88.83039 294.000
88.85034 277.000
88.87029 297.000
88.89023 308.000
88.91018 252.000
88.93013 288.000
88.95007 291.000
88.97002 279.000
88.98997 305.000
89.00992 292.000
89.02986 283.000
89.04981 274.000
89.06976 281.000
89.08970 286.000
89.10965 284.000
89.12960 326.000
89.14954 290.000
89.16949 269.000
89.18944 301.000
89.20939 311.000
89.22933 294.000
89.24928 278.000
89.26923 297.000
89.28917 289.000
89.30912 320.000
89.32907 296.000
89.34901 295.000
89.36896 275.000
89.38891 289.000
89.40885 288.000
89.42880 321.000
89.44875 298.000
89.46870 296.000
89.48864 291.000
89.50859 342.000
89.52854 327.000
89.54848 303.000
89.56843 305.000
89.58838 336.000
89.60832 315.000
89.62827 316.000
89.64822 299.000
89.66817 298.000
89.68811 310.000
89.70806 305.000
89.72801 283.000
89.74795 283.000
89.76790 289.000
89.78785 325.000
89.80779 311.000
89.82774 327.000
89.84769 321.000
89.86764 289.000
89.88758 282.000
89.90753 298.000
89.92748 302.000
89.94742 270.000
89.96737 305.000
89.98732 323.000
90.00726 299.000
