10.00000 78.000
10.01995 104.000
10.03989 82.000
10.05984 101.000
10.07979 93.000
10.09973 97.000
10.11968 87.000
10.13963 81.000
10.15958 84.000
10.17952 62.000
10.19947 104.000
10.21942 84.000
10.23936 81.000
10.25931 90.000
10.27926 67.000
10.29920 78.000
10.31915 77.000
10.33910 87.000
10.35905 87.000
10.37899 78.000
10.39894 95.000
10.41889 90.000
10.43883 99.000
10.45878 93.000
10.47873 79.000
10.49867 85.000
10.51862 102.000
10.53857 67.000
10.55851 79.000
10.57846 89.000
10.59841 86.000
10.61836 86.000
10.63830 87.000
10.65825 95.000
10.67820 102.000
10.69814 91.000
10.71809 88.000
10.73804 103.000
10.75798 86.000
10.77793 81.000
10.79788 87.000
10.81783 91.000
10.83777 93.000
10.85772 99.000
10.87767 81.000
10.89761 73.000
10.91756 94.000
10.93751 81.000
10.95745 74.000
10.97740 108.000
10.99735 84.000
11.01730 91.000
11.03724 111.000
11.05719 96.000
11.07714 99.000
11.09708 89.000
11.11703 82.000
11.13698 106.000
11.15692 85.000
11.17687 94.000
11.19682 86.000
11.21676 81.000
11.23671 80.000
11.25666 96.000
11.27661 108.000
11.29655 77.000
11.31650 96.000
11.33645 95.000
11.35639 94.000
11.37634 84.000
11.39629 78.000
11.41623 88.000
11.43618 105.000
11.45613 86.000
11.47608 95.000
11.49602 106.000
11.51597 97.000
11.53592 90.000
11.55586 75.000
11.57581 107.000
11.59576 87.000
11.61570 102.000
11.63565 74.000
11.65560 83.000
11.67554 95.000
11.69549 92.000
11.71544 109.000
11.73539 102.000
11.75533 101.000
11.77528 89.000
11.79523 108.000
11.81517 96.000
11.83512 103.000
11.85507 82.000
11.87501 92.000
11.89496 101.000
11.91491 86.000
11.93486 96.000
11.95480 107.000
11.97475 97.000
11.99470 95.000
12.01464 110.000
12.03459 104.000
12.05454 97.000
12.07448 78.000
12.09443 118.000
12.11438 109.000
12.13432 94.000
12.15427 98.000
12.17422 96.000
12.19417 103.000
12.21411 106.000
12.23406 100.000
12.25401 88.000
12.27395 89.000
12.29390 87.000
12.31385 76.000
12.33379 107.000
12.35374 92.000
12.37369 99.000
12.39364 90.000
12.41358 98.000
12.43353 101.000
12.45348 88.000
12.47342 90.000
12.49337 117.000
12.51332 99.000
12.53326 111.000
12.55321 76.000
12.57316 76.000
12.59311 106.000
12.61305 81.000
12.63300 106.000
12.65295 98.000
12.67289 111.000
12.69284 103.000
12.71279 99.000
12.73273 106.000
12.75268 99.000
12.77263 82.000
12.79257 100.000
12.81252 90.000
12.83247 94.000
12.85242 96.000
12.87236 99.000
12.89231 119.000
12.91226 105.000
12.93220 98.000
12.95215 109.000
12.97210 95.000
12.99204 108.000
13.01199 116.000
13.03194 100.000
13.05189 88.000
13.07183 89.000
13.09178 108.000
13.11173 103.000
13.13167 96.000
13.15162 87.000
13.17157 102.000
13.19151 86.000
13.21146 96.000
13.23141 96.000
13.25135 106.000
13.27130 98.000
13.29125 84.000
13.31120 110.000
13.33114 113.000
13.35109 115.000
13.37104 123.000
13.39098 113.000
13.41093 109.000
13.43088 112.000
13.45082 104.000
13.47077 114.000
13.49072 112.000
13.51067 106.000
13.53061 107.000
13.55056 104.000
13.57051 104.000
13.59045 107.000
13.61040 98.000
13.63035 122.000
13.65029 124.000
13.67024 107.000
13.69019 121.000
13.71013 102.000
13.73008 97.000
13.75003 103.000
13.76998 113.000
13.78992 122.000
13.80987 102.000
13.82982 95.000
13.84976 97.000
13.86971 96.000
13.88966 97.000
13.90960 106.000
13.92955 104.000
13.94950 93.000
13.96945 99.000
13.98939 124.000
14.00934 108.000
14.02929 119.000
14.04923 109.000
14.06918 122.000
14.08913 110.000
14.10907 108.000
14.12902 101.000
14.14897 108.000
14.16892 91.000
14.18886 104.000
14.20881 94.000
14.22876 120.000
14.24870 112.000
14.26865 108.000
14.28860 103.000
14.30854 121.000
14.32849 115.000
14.34844 105.000
14.36838 123.000
14.38833 108.000
14.40828 92.000
14.42823 101.000
14.44817 119.000
14.46812 116.000
14.48807 114.000
14.50801 104.000
14.52796 108.000
14.54791 108.000
14.56785 108.000
14.58780 114.000
14.60775 124.000
14.62770 111.000
14.64764 114.000
14.66759 112.000
14.68754 140.000
14.70748 133.000
14.72743 104.000
14.74738 107.000
14.76732 115.000
14.78727 115.000
14.80722 116.000
14.82716 139.000
14.84711 125.000
14.86706 114.000
14.88701 121.000
14.90695 136.000
14.92690 97.000
14.94685 132.000
14.96679 130.000
14.98674 113.000
15.00669 126.000
15.02663 119.000
15.04658 117.000
15.06653 113.000
15.08648 114.000
15.10642 122.000
15.12637 122.000
15.14632 105.000
15.16626 144.000
15.18621 118.000
15.20616 137.000
15.22610 131.000
15.24605 132.000
15.26600 103.000
15.28594 106.000
15.30589 123.000
15.32584 135.000
15.34579 147.000
15.36573 125.000
15.38568 126.000
15.40563 113.000
15.42557 140.000
15.44552 132.000
15.46547 119.000
15.48541 135.000
15.50536 126.000
15.52531 117.000
15.54526 101.000
15.56520 128.000
15.58515 129.000
15.60510 121.000
15.62504 135.000
15.64499 127.000
15.66494 135.000
15.68488 131.000
15.70483 136.000
15.72478 119.000
15.74472 123.000
15.76467 114.000
15.78462 134.000
15.80457 137.000
15.82451 125.000
15.84446 120.000
15.86441 142.000
15.88435 120.000
15.90430 155.000
15.92425 135.000
15.94419 137.000
15.96414 151.000
15.98409 151.000
16.00404 148.000
16.02398 128.000
16.04393 161.000
16.06388 129.000
16.08382 153.000
16.10377 163.000
16.12372 141.000
16.14366 143.000
16.16361 142.000
16.18356 122.000
16.20351 162.000
16.22345 138.000
16.24340 135.000
16.26335 152.000
16.28329 149.000
16.30324 141.000
16.32319 136.000
16.34313 162.000
16.36308 153.000
16.38303 153.000
16.40297 151.000
16.42292 165.000
16.44287 155.000
16.46282 165.000
16.48276 157.000
16.50271 140.000
16.52266 164.000
16.54260 181.000
16.56255 174.000
16.58250 156.000
16.60244 156.000
16.62239 174.000
16.64234 159.000
16.66229 190.000
16.68223 161.000
16.70218 159.000
16.72213 156.000
16.74207 168.000
16.76202 158.000
16.78197 184.000
16.80191 182.000
16.82186 189.000
16.84181 184.000
16.86175 191.000
16.88170 200.000
16.90165 199.000
16.92160 172.000
16.94154 188.000
16.96149 173.000
16.98144 189.000
17.00138 188.000
17.02133 193.000
17.04128 175.000
17.06122 154.000
17.08117 204.000
17.10112 181.000
17.12107 175.000
17.14101 225.000
17.16096 192.000
17.18091 188.000
17.20085 186.000
17.22080 199.000
17.24075 191.000
17.26069 189.000
17.28064 196.000
17.30059 210.000
17.32053 208.000
17.34048 196.000
17.36043 190.000
17.38038 192.000
17.40032 196.000
17.42027 194.000
17.44022 192.000
17.46016 202.000
17.48011 222.000
17.50006 194.000
17.52000 198.000
17.53995 175.000
17.55990 204.000
17.57985 233.000
17.59979 218.000
17.61974 204.000
17.63969 205.000
17.65963 196.000
17.67958 203.000
17.69953 232.000
17.71947 231.000
17.73942 211.000
17.75937 265.000
17.77932 228.000
17.79926 245.000
17.81921 217.000
17.83916 230.000
17.85910 238.000
17.87905 224.000
17.89900 270.000
17.91894 225.000
17.93889 254.000
17.95884 264.000
17.97878 242.000
17.99873 219.000
18.01868 249.000
18.03863 250.000
18.05857 224.000
18.07852 239.000
18.09847 252.000
18.11841 235.000
18.13836 259.000
18.15831 259.000
18.17825 229.000
18.19820 248.000
18.21815 226.000
18.23810 214.000
18.25804 254.000
18.27799 253.000
18.29794 230.000
18.31788 259.000
18.33783 228.000
18.35778 219.000
18.37772 237.000
18.39767 255.000
18.41762 257.000
18.43756 241.000
18.45751 244.000
18.47746 279.000
18.49741 256.000
18.51735 251.000
18.53730 271.000
18.55725 256.000
18.57719 260.000
18.59714 269.000
18.61709 258.000
18.63703 266.000
18.65698 270.000
18.67693 269.000
18.69688 260.000
18.71682 277.000
18.73677 269.000
18.75672 255.000
18.77666 262.000
18.79661 248.000
18.81656 269.000
18.83650 263.000
18.85645 265.000
18.87640 298.000
18.89634 291.000
18.91629 278.000
18.93624 279.000
18.95619 262.000
18.97613 288.000
18.99608 274.000
19.01603 265.000
19.03597 317.000
19.05592 287.000
19.07587 280.000
19.09581 270.000
19.11576 271.000
19.13571 276.000
19.15566 253.000
19.17560 275.000
19.19555 279.000
19.21550 284.000
19.23544 303.000
19.25539 299.000
19.27534 296.000
19.29528 270.000
19.31523 315.000
19.33518 289.000
19.35513 300.000
19.37507 312.000
19.39502 308.000
19.41497 290.000
19.43491 273.000
19.45486 335.000
19.47481 301.000
19.49475 310.000
19.51470 338.000
19.53465 321.000
19.55459 335.000
19.57454 340.000
19.59449 330.000
19.61444 330.000
19.63438 334.000
19.65433 334.000
19.67428 342.000
19.69422 347.000
19.71417 340.000
19.73412 350.000
19.75406 330.000
19.77401 336.000
19.79396 319.000
19.81391 329.000
19.83385 325.000
19.85380 353.000
19.87375 311.000
19.89369 330.000
19.91364 338.000
19.93359 350.000
19.95353 347.000
19.97348 335.000
19.99343 364.000
20.01337 375.000
20.03332 397.000
20.05327 389.000
20.07322 394.000
20.09316 401.000
20.11311 456.000
20.13306 426.000
20.15300 475.000
20.17295 445.000
20.19290 441.000
20.21284 449.000
20.23279 443.000
20.25274 410.000
20.27269 434.000
20.29263 418.000
20.31258 375.000
20.33253 369.000
20.35247 350.000
20.37242 368.000
20.39237 339.000
20.41231 358.000
20.43226 355.000
20.45221 330.000
20.47215 339.000
20.49210 368.000
20.51205 340.000
20.53200 350.000
20.55194 333.000
20.57189 326.000
20.59184 347.000
20.61178 328.000
20.63173 330.000
20.65168 335.000
20.67162 345.000
20.69157 335.000
20.71152 316.000
20.73147 341.000
20.75141 354.000
20.77136 343.000
20.79131 347.000
20.81125 343.000
20.83120 338.000
20.85115 356.000
20.87109 361.000
20.89104 354.000
20.91099 342.000
20.93094 349.000
20.95088 365.000
20.97083 344.000
20.99078 350.000
21.01072 355.000
21.03067 314.000
21.05062 337.000
21.07056 332.000
21.09051 320.000
21.11046 351.000
21.13040 309.000
21.15035 366.000
21.17030 368.000
21.19025 363.000
21.21019 358.000
21.23014 351.000
21.25009 356.000
21.27003 381.000
21.28998 371.000
21.30993 368.000
21.32987 362.000
21.34982 407.000
21.36977 394.000
21.38972 373.000
21.40966 350.000
21.42961 383.000
21.44956 348.000
21.46950 376.000
21.48945 382.000
21.50940 382.000
21.52934 370.000
21.54929 375.000
21.56924 365.000
21.58918 370.000
21.60913 364.000
21.62908 406.000
21.64903 366.000
21.66897 390.000
21.68892 359.000
21.70887 385.000
21.72881 381.000
21.74876 384.000
21.76871 384.000
21.78865 376.000
21.80860 392.000
21.82855 417.000
21.84850 391.000
21.86844 415.000
21.88839 371.000
21.90834 397.000
21.92828 377.000
21.94823 388.000
21.96818 329.000
21.98812 415.000
22.00807 395.000
22.02802 396.000
22.04796 417.000
22.06791 436.000
22.08786 362.000
22.10781 415.000
22.12775 405.000
22.14770 407.000
22.16765 392.000
22.18759 418.000
22.20754 372.000
22.22749 372.000
22.24743 364.000
22.26738 401.000
22.28733 391.000
22.30728 417.000
22.32722 397.000
22.34717 371.000
22.36712 418.000
22.38706 384.000
22.40701 383.000
22.42696 400.000
22.44690 403.000
22.46685 403.000
22.48680 420.000
22.50675 407.000
22.52669 371.000
22.54664 397.000
22.56659 445.000
22.58653 439.000
22.60648 375.000
22.62643 406.000
22.64637 397.000
22.66632 394.000
22.68627 398.000
22.70621 415.000
22.72616 353.000
22.74611 378.000
22.76606 411.000
22.78600 449.000
22.80595 463.000
22.82590 400.000
22.84584 399.000
22.86579 384.000
22.88574 382.000
22.90568 392.000
22.92563 408.000
22.94558 458.000
22.96553 419.000
22.98547 406.000
23.00542 405.000
23.02537 413.000
23.04531 434.000
23.06526 403.000
23.08521 436.000
23.10515 430.000
23.12510 426.000
23.14505 400.000
23.16499 447.000
23.18494 420.000
23.20489 469.000
23.22484 427.000
23.24478 442.000
23.26473 429.000
23.28468 406.000
23.30462 398.000
23.32457 469.000
23.34452 456.000
23.36446 398.000
23.38441 440.000
23.40436 476.000
23.42431 430.000
23.44425 480.000
23.46420 429.000
23.48415 469.000
23.50409 463.000
23.52404 445.000
23.54399 403.000
23.56393 465.000
23.58388 427.000
23.60383 407.000
23.62377 446.000
23.64372 440.000
23.66367 468.000
23.68362 408.000
23.70356 425.000
23.72351 463.000
23.74346 461.000
23.76340 456.000
23.78335 460.000
23.80330 510.000
23.82324 455.000
23.84319 484.000
23.86314 466.000
23.88309 465.000
23.90303 441.000
23.92298 439.000
23.94293 502.000
23.96287 450.000
23.98282 464.000
24.00277 464.000
24.02271 450.000
24.04266 464.000
24.06261 489.000
24.08256 465.000
24.10250 437.000
24.12245 460.000
24.14240 477.000
24.16234 498.000
24.18229 503.000
24.20224 493.000
24.22218 445.000
24.24213 496.000
24.26208 486.000
24.28202 463.000
24.30197 439.000
24.32192 476.000
24.34187 481.000
24.36181 500.000
24.38176 483.000
24.40171 503.000
24.42165 517.000
24.44160 537.000
24.46155 470.000
24.48149 510.000
24.50144 482.000
24.52139 482.000
24.54134 466.000
24.56128 500.000
24.58123 465.000
24.60118 494.000
24.62112 497.000
24.64107 511.000
24.66102 514.000
24.68096 497.000
24.70091 510.000
24.72086 495.000
24.74080 489.000
24.76075 544.000
24.78070 504.000
24.80065 543.000
24.82059 497.000
24.84054 489.000
24.86049 520.000
24.88043 538.000
24.90038 558.000
24.92033 534.000
24.94027 519.000
24.96022 555.000
24.98017 500.000
25.00012 545.000
25.02006 512.000
25.04001 520.000
25.05996 505.000
25.07990 551.000
25.09985 548.000
25.11980 550.000
25.13974 553.000
25.15969 547.000
25.17964 583.000
25.19958 554.000
25.21953 501.000
25.23948 523.000
25.25943 533.000
25.27937 549.000
25.29932 552.000
25.31927 583.000
25.33921 564.000
25.35916 525.000
25.37911 551.000
25.39905 580.000
25.41900 579.000
25.43895 595.000
25.45890 548.000
25.47884 567.000
25.49879 593.000
25.51874 624.000
25.53868 604.000
25.55863 593.000
25.57858 554.000
25.59852 589.000
25.61847 560.000
25.63842 571.000
25.65837 617.000
25.67831 553.000
25.69826 612.000
25.71821 612.000
25.73815 620.000
25.75810 607.000
25.77805 601.000
25.79799 612.000
25.81794 594.000
25.83789 632.000
25.85783 595.000
25.87778 621.000
25.89773 587.000
25.91768 605.000
25.93762 614.000
25.95757 530.000
25.97752 657.000
25.99746 613.000
26.01741 624.000
26.03736 624.000
26.05730 625.000
26.07725 589.000
26.09720 614.000
26.11715 633.000
26.13709 648.000
26.15704 645.000
26.17699 649.000
26.19693 618.000
26.21688 643.000
26.23683 641.000
26.25677 661.000
26.27672 644.000
26.29667 655.000
26.31661 637.000
26.33656 652.000
26.35651 649.000
26.37646 655.000
26.39640 653.000
26.41635 620.000
26.43630 653.000
26.45624 639.000
26.47619 635.000
26.49614 646.000
26.51608 606.000
26.53603 630.000
26.55598 694.000
26.57593 700.000
26.59587 642.000
26.61582 641.000
26.63577 664.000
26.65571 703.000
26.67566 643.000
26.69561 654.000
26.71555 651.000
26.73550 664.000
26.75545 701.000
26.77539 711.000
26.79534 690.000
26.81529 742.000
26.83524 681.000
26.85518 660.000
26.87513 705.000
26.89508 678.000
26.91502 674.000
26.93497 697.000
26.95492 729.000
26.97486 674.000
26.99481 736.000
27.01476 718.000
27.03471 667.000
27.05465 708.000
27.07460 714.000
27.09455 726.000
27.11449 682.000
27.13444 668.000
27.15439 711.000
27.17433 737.000
27.19428 729.000
27.21423 717.000
27.23417 710.000
27.25412 715.000
27.27407 684.000
27.29402 737.000
27.31396 756.000
27.33391 758.000
27.35386 727.000
27.37380 770.000
27.39375 685.000
27.41370 722.000
27.43364 744.000
27.45359 729.000
27.47354 799.000
27.49349 755.000
27.51343 726.000
27.53338 721.000
27.55333 747.000
27.57327 719.000
27.59322 757.000
27.61317 715.000
27.63311 747.000
27.65306 754.000
27.67301 761.000
27.69296 756.000
27.71290 736.000
27.73285 748.000
27.75280 761.000
27.77274 724.000
27.79269 794.000
27.81264 755.000
27.83258 731.000
27.85253 759.000
27.87248 763.000
27.89242 721.000
27.91237 744.000
27.93232 803.000
27.95227 754.000
27.97221 762.000
27.99216 809.000
28.01211 742.000
28.03205 781.000
28.05200 820.000
28.07195 714.000
28.09189 791.000
28.11184 794.000
28.13179 823.000
28.15174 700.000
28.17168 847.000
28.19163 753.000
28.21158 785.000
28.23152 734.000
28.25147 804.000
28.27142 781.000
28.29136 744.000
28.31131 761.000
28.33126 789.000
28.35120 792.000
28.37115 811.000
28.39110 843.000
28.41105 793.000
28.43099 794.000
28.45094 747.000
28.47089 789.000
28.49083 769.000
28.51078 784.000
28.53073 831.000
28.55067 809.000
28.57062 792.000
28.59057 837.000
28.61052 783.000
28.63046 806.000
28.65041 822.000
28.67036 772.000
28.69030 820.000
28.71025 864.000
28.73020 857.000
28.75014 852.000
28.77009 833.000
28.79004 834.000
28.80998 813.000
28.82993 804.000
28.84988 808.000
28.86983 816.000
28.88977 796.000
28.90972 880.000
28.92967 853.000
28.94961 834.000
28.96956 916.000
28.98951 846.000
29.00945 827.000
29.02940 871.000
29.04935 832.000
29.06930 863.000
29.08924 896.000
29.10919 851.000
29.12914 893.000
29.14908 885.000
29.16903 852.000
29.18898 847.000
29.20892 855.000
29.22887 836.000
29.24882 866.000
29.26877 876.000
29.28871 889.000
29.30866 829.000
29.32861 820.000
29.34855 847.000
29.36850 853.000
29.38845 832.000
29.40839 840.000
29.42834 816.000
29.44829 745.000
29.46823 863.000
29.48818 830.000
29.50813 831.000
29.52808 875.000
29.54802 909.000
29.56797 803.000
29.58792 783.000
29.60786 851.000
29.62781 831.000
29.64776 907.000
29.66770 907.000
29.68765 894.000
29.70760 912.000
29.72755 906.000
29.74749 920.000
29.76744 913.000
29.78739 1015.000
29.80733 937.000
29.82728 981.000
29.84723 943.000
29.86717 913.000
29.88712 886.000
29.90707 902.000
29.92701 913.000
29.94696 891.000
29.96691 891.000
29.98686 859.000
30.00680 845.000
30.02675 828.000
30.04670 859.000
30.06664 776.000
30.08659 835.000
30.10654 847.000
30.12648 836.000
30.14643 802.000
30.16638 823.000
30.18633 818.000
30.20627 840.000
30.22622 791.000
30.24617 827.000
30.26611 822.000
30.28606 785.000
30.30601 848.000
30.32595 797.000
30.34590 778.000
30.36585 832.000
30.38579 831.000
30.40574 860.000
30.42569 815.000
30.44564 864.000
30.46558 897.000
30.48553 791.000
30.50548 745.000
30.52542 800.000
30.54537 820.000
30.56532 832.000
30.58526 785.000
30.60521 841.000
30.62516 743.000
30.64511 837.000
30.66505 799.000
30.68500 787.000
30.70495 818.000
30.72489 830.000
30.74484 763.000
30.76479 818.000
30.78473 819.000
30.80468 768.000
30.82463 833.000
30.84458 861.000
30.86452 812.000
30.88447 820.000
30.90442 766.000
30.92436 744.000
30.94431 737.000
30.96426 795.000
30.98420 790.000
31.00415 836.000
31.02410 719.000
31.04404 798.000
31.06399 752.000
31.08394 747.000
31.10389 769.000
31.12383 852.000
31.14378 814.000
31.16373 783.000
31.18367 806.000
31.20362 801.000
31.22357 783.000
31.24351 734.000
31.26346 830.000
31.28341 794.000
31.30336 759.000
31.32330 803.000
31.34325 778.000
31.36320 772.000
31.38314 777.000
31.40309 795.000
31.42304 801.000
31.44298 833.000
31.46293 809.000
31.48288 726.000
31.50282 789.000
31.52277 810.000
31.54272 807.000
31.56267 836.000
31.58261 812.000
31.60256 844.000
31.62251 737.000
31.64245 805.000
31.66240 802.000
31.68235 813.000
31.70229 712.000
31.72224 755.000
31.74219 716.000
31.76214 780.000
31.78208 751.000
31.80203 758.000
31.82198 749.000
31.84192 726.000
31.86187 763.000
31.88182 731.000
31.90176 784.000
31.92171 764.000
31.94166 836.000
31.96160 770.000
31.98155 765.000
32.00150 732.000
32.02145 704.000
32.04139 747.000
32.06134 718.000
32.08129 757.000
32.10123 753.000
32.12118 748.000
32.14113 789.000
32.16107 704.000
32.18102 730.000
32.20097 751.000
32.22092 708.000
32.24086 744.000
32.26081 713.000
32.28076 726.000
32.30070 700.000
32.32065 710.000
32.34060 709.000
32.36054 826.000
32.38049 648.000
32.40044 668.000
32.42039 758.000
32.44033 741.000
32.46028 720.000
32.48023 706.000
32.50017 711.000
32.52012 696.000
32.54007 680.000
32.56001 716.000
32.57996 706.000
32.59991 724.000
32.61985 681.000
32.63980 724.000
32.65975 688.000
32.67970 702.000
32.69964 722.000
32.71959 721.000
32.73954 710.000
32.75948 737.000
32.77943 695.000
32.79938 745.000
32.81932 783.000
32.83927 769.000
32.85922 731.000
32.87917 707.000
32.89911 765.000
32.91906 708.000
32.93901 769.000
32.95895 789.000
32.97890 755.000
32.99885 747.000
33.01879 766.000
33.03874 779.000
33.05869 736.000
33.07863 757.000
33.09858 755.000
33.11853 731.000
33.13848 736.000
33.15842 714.000
33.17837 710.000
33.19832 758.000
33.21826 648.000
33.23821 688.000
33.25816 700.000
33.27810 691.000
33.29805 676.000
33.31800 682.000
33.33795 702.000
33.35789 712.000
33.37784 680.000
33.39779 707.000
33.41773 742.000
33.43768 744.000
33.45763 720.000
33.47757 745.000
33.49752 772.000
33.51747 773.000
33.53741 825.000
33.55736 793.000
33.57731 825.000
33.59726 827.000
33.61720 862.000
33.63715 830.000
33.65710 853.000
33.67704 835.000
33.69699 795.000
33.71694 762.000
33.73688 822.000
33.75683 798.000
33.77678 790.000
33.79673 764.000
33.81667 765.000
33.83662 701.000
33.85657 711.000
33.87651 735.000
33.89646 668.000
33.91641 681.000
33.93635 693.000
33.95630 679.000
33.97625 669.000
33.99620 697.000
34.01614 631.000
34.03609 673.000
34.05604 678.000
34.07598 635.000
34.09593 648.000
34.11588 619.000
34.13582 659.000
34.15577 629.000
34.17572 637.000
34.19566 593.000
34.21561 602.000
34.23556 627.000
34.25551 610.000
34.27545 642.000
34.29540 603.000
34.31535 616.000
34.33529 618.000
34.35524 602.000
34.37519 580.000
34.39513 610.000
34.41508 588.000
34.43503 589.000
34.45498 542.000
34.47492 599.000
34.49487 573.000
34.51482 563.000
34.53476 601.000
34.55471 590.000
34.57466 640.000
34.59460 591.000
34.61455 602.000
34.63450 568.000
34.65444 589.000
34.67439 587.000
34.69434 605.000
34.71429 649.000
34.73423 637.000
34.75418 575.000
34.77413 639.000
34.79407 598.000
34.81402 603.000
34.83397 631.000
34.85391 620.000
34.87386 698.000
34.89381 647.000
34.91376 723.000
34.93370 657.000
34.95365 682.000
34.97360 727.000
34.99354 709.000
35.01349 723.000
35.03344 734.000
35.05338 824.000
35.07333 867.000
35.09328 973.000
35.11322 1121.000
35.13317 1117.000
35.15312 1218.000
35.17307 1219.000
35.19301 1320.000
35.21296 1212.000
35.23291 1235.000
35.25285 1201.000
35.27280 1108.000
35.29275 1006.000
35.31269 902.000
35.33264 825.000
35.35259 732.000
35.37254 719.000
35.39248 637.000
35.41243 612.000
35.43238 626.000
35.45232 572.000
35.47227 587.000
35.49222 599.000
35.51216 562.000
35.53211 545.000
35.55206 554.000
35.57201 568.000
35.59195 606.000
35.61190 565.000
35.63185 597.000
35.65179 553.000
35.67174 553.000
35.69169 545.000
35.71163 532.000
35.73158 495.000
35.75153 529.000
35.77147 562.000
35.79142 569.000
35.81137 525.000
35.83132 542.000
35.85126 527.000
35.87121 528.000
35.89116 510.000
35.91110 507.000
35.93105 545.000
35.95100 512.000
35.97094 555.000
35.99089 541.000
36.01084 537.000
36.03079 532.000
36.05073 490.000
36.07068 516.000
36.09063 541.000
36.11057 499.000
36.13052 499.000
36.15047 530.000
36.17041 505.000
36.19036 544.000
36.21031 525.000
36.23025 496.000
36.25020 522.000
36.27015 487.000
36.29010 508.000
36.31004 456.000
36.32999 497.000
36.34994 541.000
36.36988 481.000
36.38983 544.000
36.40978 542.000
36.42972 522.000
36.44967 515.000
36.46962 483.000
36.48957 545.000
36.50951 539.000
36.52946 537.000
36.54941 484.000
36.56935 507.000
36.58930 537.000
36.60925 490.000
36.62919 560.000
36.64914 556.000
36.66909 555.000
36.68903 538.000
36.70898 564.000
36.72893 491.000
36.74888 520.000
36.76882 516.000
36.78877 519.000
36.80872 543.000
36.82866 544.000
36.84861 607.000
36.86856 578.000
36.88850 524.000
36.90845 517.000
36.92840 514.000
36.94835 518.000
36.96829 516.000
36.98824 546.000
37.00819 479.000
37.02813 515.000
37.04808 483.000
37.06803 486.000
37.08797 484.000
37.10792 471.000
37.12787 514.000
37.14781 516.000
37.16776 475.000
37.18771 485.000
37.20766 494.000
37.22760 487.000
37.24755 511.000
37.26750 469.000
37.28744 466.000
37.30739 500.000
37.32734 504.000
37.34728 473.000
37.36723 470.000
37.38718 520.000
37.40713 501.000
37.42707 489.000
37.44702 488.000
37.46697 501.000
37.48691 466.000
37.50686 469.000
37.52681 498.000
37.54675 458.000
37.56670 485.000
37.58665 493.000
37.60660 479.000
37.62654 545.000
37.64649 490.000
37.66644 444.000
37.68638 458.000
37.70633 448.000
37.72628 478.000
37.74622 500.000
37.76617 457.000
37.78612 477.000
37.80606 463.000
37.82601 496.000
37.84596 515.000
37.86591 515.000
37.88585 533.000
37.90580 510.000
37.92575 480.000
37.94569 477.000
37.96564 540.000
37.98559 486.000
38.00553 535.000
38.02548 536.000
38.04543 531.000
38.06538 491.000
38.08532 536.000
38.10527 489.000
38.12522 524.000
38.14516 516.000
38.16511 529.000
38.18506 555.000
38.20500 531.000
38.22495 533.000
38.24490 560.000
38.26484 566.000
38.28479 507.000
38.30474 586.000
38.32469 505.000
38.34463 554.000
38.36458 575.000
38.38453 557.000
38.40447 496.000
38.42442 535.000
38.44437 527.000
38.46431 508.000
38.48426 508.000
38.50421 564.000
38.52416 477.000
38.54410 516.000
38.56405 519.000
38.58400 509.000
38.60394 502.000
38.62389 527.000
38.64384 505.000
38.66378 508.000
38.68373 524.000
38.70368 494.000
38.72362 481.000
38.74357 507.000
38.76352 538.000
38.78347 490.000
38.80341 527.000
38.82336 515.000
38.84331 489.000
38.86325 514.000
38.88320 507.000
38.90315 504.000
38.92309 492.000
38.94304 531.000
38.96299 507.000
38.98294 477.000
39.00288 527.000
39.02283 471.000
39.04278 495.000
39.06272 493.000
39.08267 476.000
39.10262 477.000
39.12256 474.000
39.14251 493.000
39.16246 510.000
39.18241 461.000
39.20235 470.000
39.22230 469.000
39.24225 471.000
39.26219 437.000
39.28214 514.000
39.30209 462.000
39.32203 461.000
39.34198 506.000
39.36193 469.000
39.38187 460.000
39.40182 482.000
39.42177 487.000
39.44172 500.000
39.46166 473.000
39.48161 473.000
39.50156 524.000
39.52150 450.000
39.54145 524.000
39.56140 509.000
39.58134 476.000
39.60129 457.000
39.62124 435.000
39.64119 500.000
39.66113 486.000
39.68108 513.000
39.70103 471.000
39.72097 461.000
39.74092 490.000
39.76087 487.000
39.78081 476.000
39.80076 443.000
39.82071 493.000
39.84065 463.000
39.86060 481.000
39.88055 495.000
39.90050 489.000
39.92044 523.000
39.94039 503.000
39.96034 495.000
39.98028 475.000
40.00023 468.000
40.02018 495.000
40.04012 474.000
40.06007 485.000
40.08002 488.000
40.09997 472.000
40.11991 508.000
40.13986 477.000
40.15981 482.000
40.17975 487.000
40.19970 486.000
40.21965 509.000
40.23959 474.000
40.25954 489.000
40.27949 487.000
40.29943 455.000
40.31938 451.000
40.33933 445.000
40.35928 530.000
40.37922 467.000
40.39917 490.000
40.41912 493.000
40.43906 501.000
40.45901 502.000
40.47896 504.000
40.49890 504.000
40.51885 465.000
40.53880 527.000
40.55875 490.000
40.57869 498.000
40.59864 492.000
40.61859 476.000
40.63853 533.000
40.65848 488.000
40.67843 508.000
40.69837 476.000
40.71832 479.000
40.73827 488.000
40.75822 470.000
40.77816 499.000
40.79811 489.000
40.81806 449.000
40.83800 501.000
40.85795 458.000
40.87790 487.000
40.89784 465.000
40.91779 518.000
40.93774 447.000
40.95768 472.000
40.97763 510.000
40.99758 500.000
41.01753 501.000
41.03747 471.000
41.05742 474.000
41.07737 494.000
41.09731 484.000
41.11726 447.000
41.13721 481.000
41.15715 486.000
41.17710 480.000
41.19705 486.000
41.21700 477.000
41.23694 506.000
41.25689 485.000
41.27684 479.000
41.29678 470.000
41.31673 515.000
41.33668 466.000
41.35662 429.000
41.37657 483.000
41.39652 464.000
41.41646 502.000
41.43641 495.000
41.45636 441.000
41.47631 458.000
41.49625 467.000
41.51620 471.000
41.53615 459.000
41.55609 507.000
41.57604 499.000
41.59599 529.000
41.61593 516.000
41.63588 423.000
41.65583 506.000
41.67578 512.000
41.69572 486.000
41.71567 483.000
41.73562 480.000
41.75556 509.000
41.77551 488.000
41.79546 429.000
41.81540 493.000
41.83535 483.000
41.85530 474.000
41.87524 470.000
41.89519 454.000
41.91514 465.000
41.93509 455.000
41.95503 479.000
41.97498 497.000
41.99493 476.000
42.01487 484.000
42.03482 479.000
42.05477 477.000
42.07471 458.000
42.09466 467.000
42.11461 444.000
42.13456 464.000
42.15450 432.000
42.17445 464.000
42.19440 436.000
42.21434 445.000
42.23429 468.000
42.25424 455.000
42.27418 454.000
42.29413 491.000
42.31408 485.000
42.33403 490.000
42.35397 473.000
42.37392 515.000
42.39387 481.000
42.41381 450.000
42.43376 487.000
42.45371 479.000
42.47365 462.000
42.49360 486.000
42.51355 521.000
42.53349 508.000
42.55344 485.000
42.57339 502.000
42.59334 492.000
42.61328 441.000
42.63323 452.000
42.65318 485.000
42.67312 483.000
42.69307 449.000
42.71302 525.000
42.73296 486.000
42.75291 512.000
42.77286 548.000
42.79281 550.000
42.81275 563.000
42.83270 595.000
42.85265 570.000
42.87259 581.000
42.89254 605.000
42.91249 602.000
42.93243 536.000
42.95238 536.000
42.97233 522.000
42.99227 516.000
43.01222 551.000
43.03217 483.000
43.05212 504.000
43.07206 491.000
43.09201 492.000
43.11196 447.000
43.13190 488.000
43.15185 400.000
43.17180 447.000
43.19174 448.000
43.21169 463.000
43.23164 458.000
43.25159 481.000
43.27153 430.000
43.29148 414.000
43.31143 401.000
43.33137 404.000
43.35132 407.000
43.37127 429.000
43.39121 413.000
43.41116 438.000
43.43111 418.000
43.45105 462.000
43.47100 439.000
43.49095 427.000
43.51090 467.000
43.53084 426.000
43.55079 451.000
43.57074 442.000
43.59068 427.000
43.61063 433.000
43.63058 389.000
43.65052 432.000
43.67047 433.000
43.69042 465.000
43.71037 393.000
43.73031 418.000
43.75026 406.000
43.77021 428.000
43.79015 412.000
43.81010 445.000
43.83005 399.000
43.84999 411.000
43.86994 412.000
43.88989 389.000
43.90984 416.000
43.92978 450.000
43.94973 408.000
43.96968 385.000
43.98962 422.000
44.00957 439.000
44.02952 390.000
44.04946 366.000
44.06941 393.000
44.08936 435.000
44.10930 385.000
44.12925 410.000
44.14920 391.000
44.16915 403.000
44.18909 392.000
44.20904 425.000
44.22899 408.000
44.24893 406.000
44.26888 439.000
44.28883 401.000
44.30877 379.000
44.32872 433.000
44.34867 411.000
44.36862 406.000
44.38856 412.000
44.40851 380.000
44.42846 386.000
44.44840 366.000
44.46835 386.000
44.48830 388.000
44.50824 359.000
44.52819 422.000
44.54814 404.000
44.56808 384.000
44.58803 389.000
44.60798 398.000
44.62793 409.000
44.64787 399.000
44.66782 377.000
44.68777 403.000
44.70771 392.000
44.72766 411.000
44.74761 390.000
44.76755 399.000
44.78750 396.000
44.80745 343.000
44.82740 428.000
44.84734 398.000
44.86729 377.000
44.88724 355.000
44.90718 401.000
44.92713 412.000
44.94708 387.000
44.96702 376.000
44.98697 367.000
45.00692 395.000
45.02686 366.000
45.04681 376.000
45.06676 390.000
45.08671 370.000
45.10665 378.000
45.12660 394.000
45.14655 363.000
45.16649 389.000
45.18644 383.000
45.20639 367.000
45.22633 352.000
45.24628 398.000
45.26623 399.000
45.28618 356.000
45.30612 385.000
45.32607 399.000
45.34602 341.000
45.36596 343.000
45.38591 381.000
45.40586 355.000
45.42580 335.000
45.44575 336.000
45.46570 332.000
45.48565 365.000
45.50559 362.000
45.52554 359.000
45.54549 366.000
45.56543 379.000
45.58538 379.000
45.60533 395.000
45.62527 383.000
45.64522 385.000
45.66517 344.000
45.68511 386.000
45.70506 349.000
45.72501 325.000
45.74496 359.000
45.76490 384.000
45.78485 355.000
45.80480 388.000
45.82474 339.000
45.84469 357.000
45.86464 369.000
45.88458 340.000
45.90453 363.000
45.92448 355.000
45.94443 332.000
45.96437 348.000
45.98432 341.000
46.00427 346.000
46.02421 329.000
46.04416 383.000
46.06411 369.000
46.08405 350.000
46.10400 342.000
46.12395 355.000
46.14389 340.000
46.16384 362.000
46.18379 355.000
46.20374 347.000
46.22368 370.000
46.24363 374.000
46.26358 369.000
46.28352 354.000
46.30347 344.000
46.32342 333.000
46.34336 366.000
46.36331 350.000
46.38326 331.000
46.40321 361.000
46.42315 344.000
46.44310 367.000
46.46305 354.000
46.48299 339.000
46.50294 336.000
46.52289 367.000
46.54283 364.000
46.56278 330.000
46.58273 350.000
46.60267 345.000
46.62262 338.000
46.64257 353.000
46.66252 305.000
46.68246 365.000
46.70241 319.000
46.72236 344.000
46.74230 341.000
46.76225 349.000
46.78220 349.000
46.80214 363.000
46.82209 372.000
46.84204 328.000
46.86199 312.000
46.88193 334.000
46.90188 344.000
46.92183 371.000
46.94177 296.000
46.96172 350.000
46.98167 338.000
47.00161 358.000
47.02156 355.000
47.04151 340.000
47.06146 339.000
47.08140 322.000
47.10135 330.000
47.12130 313.000
47.14124 317.000
47.16119 307.000
47.18114 364.000
47.20108 313.000
47.22103 314.000
47.24098 354.000
47.26092 320.000
47.28087 343.000
47.30082 328.000
47.32077 348.000
47.34071 319.000
47.36066 321.000
47.38061 316.000
47.40055 343.000
47.42050 320.000
47.44045 340.000
47.46039 322.000
47.48034 323.000
47.50029 359.000
47.52024 325.000
47.54018 305.000
47.56013 329.000
47.58008 331.000
47.60002 306.000
47.61997 352.000
47.63992 329.000
47.65986 300.000
47.67981 311.000
47.69976 308.000
47.71970 327.000
47.73965 348.000
47.75960 310.000
47.77955 289.000
47.79949 311.000
47.81944 297.000
47.83939 297.000
47.85933 328.000
47.87928 323.000
47.89923 315.000
47.91917 286.000
47.93912 283.000
47.95907 313.000
47.97902 350.000
47.99896 321.000
48.01891 321.000
48.03886 343.000
48.05880 341.000
48.07875 317.000
48.09870 318.000
48.11864 341.000
48.13859 296.000
48.15854 376.000
48.17848 331.000
48.19843 317.000
48.21838 353.000
48.23833 350.000
48.25827 315.000
48.27822 325.000
48.29817 326.000
48.31811 278.000
48.33806 321.000
48.35801 343.000
48.37795 340.000
48.39790 361.000
48.41785 350.000
48.43780 334.000
48.45774 362.000
48.47769 324.000
48.49764 317.000
48.51758 313.000
48.53753 300.000
48.55748 334.000
48.57742 326.000
48.59737 335.000
48.61732 336.000
48.63726 342.000
48.65721 317.000
48.67716 309.000
48.69711 291.000
48.71705 311.000
48.73700 310.000
48.75695 343.000
48.77689 326.000
48.79684 305.000
48.81679 286.000
48.83673 305.000
48.85668 318.000
48.87663 291.000
48.89658 313.000
48.91652 302.000
48.93647 320.000
48.95642 306.000
48.97636 294.000
48.99631 320.000
49.01626 305.000
49.03620 330.000
49.05615 287.000
49.07610 300.000
49.09605 287.000
49.11599 294.000
49.13594 328.000
49.15589 287.000
49.17583 295.000
49.19578 293.000
49.21573 301.000
49.23567 316.000
49.25562 298.000
49.27557 307.000
49.29551 283.000
49.31546 296.000
49.33541 321.000
49.35536 318.000
49.37530 317.000
49.39525 294.000
49.41520 298.000
49.43514 286.000
49.45509 292.000
49.47504 289.000
49.49498 319.000
49.51493 307.000
49.53488 298.000
49.55483 302.000
49.57477 329.000
49.59472 321.000
49.61467 283.000
49.63461 264.000
49.65456 315.000
49.67451 271.000
49.69445 326.000
49.71440 297.000
49.73435 286.000
49.75429 264.000
49.77424 291.000
49.79419 298.000
49.81414 294.000
49.83408 296.000
49.85403 290.000
49.87398 301.000
49.89392 285.000
49.91387 309.000
49.93382 279.000
49.95376 300.000
49.97371 314.000
49.99366 291.000
50.01361 263.000
50.03355 292.000
50.05350 302.000
50.07345 294.000
50.09339 282.000
50.11334 298.000
50.13329 272.000
50.15323 300.000
50.17318 276.000
50.19313 274.000
50.21307 274.000
50.23302 324.000
50.25297 307.000
50.27292 316.000
50.29286 277.000
50.31281 292.000
50.33276 287.000
50.35270 293.000
50.37265 317.000
50.39260 347.000
50.41254 320.000
50.43249 289.000
50.45244 273.000
50.47239 304.000
50.49233 319.000
50.51228 278.000
50.53223 284.000
50.55217 302.000
50.57212 300.000
50.59207 294.000
50.61201 290.000
50.63196 273.000
50.65191 250.000
50.67186 281.000
50.69180 278.000
50.71175 285.000
50.73170 282.000
50.75164 278.000
50.77159 290.000
50.79154 276.000
50.81148 251.000
50.83143 294.000
50.85138 300.000
50.87132 281.000
50.89127 323.000
50.91122 239.000
50.93117 323.000
50.95111 256.000
50.97106 318.000
50.99101 279.000
51.01095 302.000
51.03090 302.000
51.05085 266.000
51.07079 294.000
51.09074 312.000
51.11069 271.000
51.13064 312.000
51.15058 302.000
51.17053 267.000
51.19048 318.000
51.21042 286.000
51.23037 265.000
51.25032 275.000
51.27026 283.000
51.29021 285.000
51.31016 273.000
51.33010 272.000
51.35005 292.000
51.37000 270.000
51.38995 288.000
51.40989 254.000
51.42984 278.000
51.44979 275.000
51.46973 284.000
51.48968 278.000
51.50963 261.000
51.52957 297.000
51.54952 254.000
51.56947 292.000
51.58942 282.000
51.60936 273.000
51.62931 309.000
51.64926 252.000
51.66920 291.000
51.68915 280.000
51.70910 259.000
51.72904 280.000
51.74899 274.000
51.76894 285.000
51.78888 296.000
51.80883 291.000
51.82878 246.000
51.84873 286.000
51.86867 271.000
51.88862 270.000
51.90857 277.000
51.92851 271.000
51.94846 293.000
51.96841 277.000
51.98835 268.000
52.00830 274.000
52.02825 291.000
52.04820 267.000
52.06814 284.000
52.08809 305.000
52.10804 283.000
52.12798 288.000
52.14793 304.000
52.16788 270.000
52.18782 227.000
52.20777 276.000
52.22772 303.000
52.24767 282.000
52.26761 272.000
52.28756 273.000
52.30751 280.000
52.32745 265.000
52.34740 284.000
52.36735 271.000
52.38729 295.000
52.40724 265.000
52.42719 277.000
52.44713 277.000
52.46708 263.000
52.48703 304.000
52.50698 239.000
52.52692 305.000
52.54687 275.000
52.56682 292.000
52.58676 289.000
52.60671 253.000
52.62666 316.000
52.64660 312.000
52.66655 267.000
52.68650 276.000
52.70645 268.000
52.72639 281.000
52.74634 272.000
52.76629 254.000
52.78623 281.000
52.80618 307.000
52.82613 278.000
52.84607 279.000
52.86602 273.000
52.88597 287.000
52.90591 274.000
52.92586 295.000
52.94581 312.000
52.96576 292.000
52.98570 278.000
53.00565 285.000
53.02560 275.000
53.04554 291.000
53.06549 284.000
53.08544 270.000
53.10538 314.000
53.12533 265.000
53.14528 286.000
53.16523 311.000
53.18517 287.000
53.20512 338.000
53.22507 308.000
53.24501 347.000
53.26496 333.000
53.28491 324.000
53.30485 303.000
53.32480 332.000
53.34475 337.000
53.36469 355.000
53.38464 331.000
53.40459 316.000
53.42454 312.000
53.44448 326.000
53.46443 311.000
53.48438 318.000
53.50432 326.000
53.52427 318.000
53.54422 274.000
53.56416 312.000
53.58411 296.000
53.60406 258.000
53.62401 287.000
53.64395 297.000
53.66390 273.000
53.68385 266.000
53.70379 235.000
53.72374 264.000
53.74369 251.000
53.76363 251.000
53.78358 272.000
53.80353 271.000
53.82348 250.000
53.84342 276.000
53.86337 286.000
53.88332 271.000
53.90326 224.000
53.92321 267.000
53.94316 274.000
53.96310 280.000
53.98305 273.000
54.00300 263.000
54.02294 265.000
54.04289 296.000
54.06284 273.000
54.08279 278.000
54.10273 275.000
54.12268 270.000
54.14263 285.000
54.16257 262.000
54.18252 257.000
54.20247 282.000
54.22241 273.000
54.24236 256.000
54.26231 312.000
54.28226 262.000
54.30220 291.000
54.32215 268.000
54.34210 258.000
54.36204 258.000
54.38199 270.000
54.40194 252.000
54.42188 260.000
54.44183 248.000
54.46178 260.000
54.48172 277.000
54.50167 248.000
54.52162 248.000
54.54157 235.000
54.56151 232.000
54.58146 301.000
54.60141 273.000
54.62135 237.000
54.64130 279.000
54.66125 283.000
54.68119 289.000
54.70114 270.000
54.72109 276.000
54.74104 265.000
54.76098 266.000
54.78093 261.000
54.80088 267.000
54.82082 276.000
54.84077 265.000
54.86072 291.000
54.88066 266.000
54.90061 257.000
54.92056 269.000
54.94050 260.000
54.96045 257.000
54.98040 268.000
55.00035 280.000
55.02029 281.000
55.04024 289.000
55.06019 282.000
55.08013 272.000
55.10008 246.000
55.12003 254.000
55.13997 308.000
55.15992 271.000
55.17987 266.000
55.19982 271.000
55.21976 261.000
55.23971 260.000
55.25966 293.000
55.27960 293.000
55.29955 265.000
55.31950 257.000
55.33944 249.000
55.35939 258.000
55.37934 266.000
55.39929 256.000
55.41923 247.000
55.43918 257.000
55.45913 255.000
55.47907 285.000
55.49902 242.000
55.51897 266.000
55.53891 260.000
55.55886 257.000
55.57881 260.000
55.59875 265.000
55.61870 240.000
55.63865 273.000
55.65860 259.000
55.67854 258.000
55.69849 264.000
55.71844 266.000
55.73838 283.000
55.75833 271.000
55.77828 250.000
55.79822 256.000
55.81817 289.000
55.83812 277.000
55.85807 261.000
55.87801 252.000
55.89796 239.000
55.91791 270.000
55.93785 248.000
55.95780 226.000
55.97775 250.000
55.99769 274.000
56.01764 253.000
56.03759 237.000
56.05753 223.000
56.07748 252.000
56.09743 242.000
56.11738 262.000
56.13732 286.000
56.15727 275.000
56.17722 254.000
56.19716 253.000
56.21711 258.000
56.23706 249.000
56.25700 234.000
56.27695 266.000
56.29690 268.000
56.31685 262.000
56.33679 245.000
56.35674 246.000
56.37669 255.000
56.39663 208.000
56.41658 287.000
56.43653 280.000
56.45647 267.000
56.47642 262.000
56.49637 239.000
56.51631 261.000
56.53626 268.000
56.55621 274.000
56.57616 271.000
56.59610 291.000
56.61605 274.000
56.63600 266.000
56.65594 269.000
56.67589 259.000
56.69584 293.000
56.71578 309.000
56.73573 316.000
56.75568 335.000
56.77563 334.000
56.79557 365.000
56.81552 408.000
56.83547 379.000
56.85541 394.000
56.87536 396.000
56.89531 420.000
56.91525 396.000
56.93520 427.000
56.95515 387.000
56.97510 373.000
56.99504 358.000
57.01499 376.000
57.03494 334.000
57.05488 303.000
57.07483 342.000
57.09478 331.000
57.11472 321.000
57.13467 316.000
57.15462 297.000
57.17456 310.000
57.19451 262.000
57.21446 240.000
57.23441 281.000
57.25435 242.000
57.27430 265.000
57.29425 238.000
57.31419 236.000
57.33414 236.000
57.35409 219.000
57.37403 227.000
57.39398 242.000
57.41393 243.000
57.43388 229.000
57.45382 268.000
57.47377 240.000
57.49372 259.000
57.51366 250.000
57.53361 237.000
57.55356 261.000
57.57350 240.000
57.59345 247.000
57.61340 245.000
57.63334 278.000
57.65329 259.000
57.67324 252.000
57.69319 233.000
57.71313 242.000
57.73308 246.000
57.75303 248.000
57.77297 272.000
57.79292 244.000
57.81287 226.000
57.83281 296.000
57.85276 294.000
57.87271 253.000
57.89266 281.000
57.91260 251.000
57.93255 268.000
57.95250 247.000
57.97244 260.000
57.99239 246.000
58.01234 251.000
58.03228 279.000
58.05223 253.000
58.07218 230.000
58.09212 237.000
58.11207 282.000
58.13202 254.000
58.15197 246.000
58.17191 244.000
58.19186 255.000
58.21181 264.000
58.23175 248.000
58.25170 230.000
58.27165 250.000
58.29159 253.000
58.31154 245.000
58.33149 256.000
58.35144 227.000
58.37138 227.000
58.39133 254.000
58.41128 244.000
58.43122 247.000
58.45117 241.000
58.47112 233.000
58.49106 233.000
58.51101 242.000
58.53096 227.000
58.55090 230.000
58.57085 235.000
58.59080 237.000
58.61075 224.000
58.63069 238.000
58.65064 247.000
58.67059 241.000
58.69053 231.000
58.71048 228.000
58.73043 259.000
58.75037 263.000
58.77032 235.000
58.79027 254.000
58.81022 237.000
58.83016 239.000
58.85011 245.000
58.87006 213.000
58.89000 218.000
58.90995 223.000
58.92990 245.000
58.94984 243.000
58.96979 226.000
58.98974 261.000
59.00969 219.000
59.02963 231.000
59.04958 224.000
59.06953 250.000
59.08947 253.000
59.10942 250.000
59.12937 231.000
59.14931 265.000
59.16926 256.000
59.18921 240.000
59.20915 251.000
59.22910 235.000
59.24905 256.000
59.26900 268.000
59.28894 235.000
59.30889 240.000
59.32884 253.000
59.34878 263.000
59.36873 269.000
59.38868 241.000
59.40862 236.000
59.42857 242.000
59.44852 268.000
59.46847 243.000
59.48841 229.000
59.50836 251.000
59.52831 284.000
59.54825 254.000
59.56820 262.000
59.58815 260.000
59.60809 255.000
59.62804 243.000
59.64799 273.000
59.66793 245.000
59.68788 254.000
59.70783 241.000
59.72778 248.000
59.74772 241.000
59.76767 245.000
59.78762 248.000
59.80756 236.000
59.82751 254.000
59.84746 252.000
59.86740 261.000
59.88735 259.000
59.90730 270.000
59.92725 266.000
59.94719 260.000
59.96714 278.000
59.98709 217.000
60.00703 230.000
60.02698 231.000
60.04693 265.000
60.06687 248.000
60.08682 281.000
60.10677 257.000
60.12671 248.000
60.14666 246.000
60.16661 251.000
60.18656 250.000
60.20650 230.000
60.22645 251.000
60.24640 226.000
60.26634 212.000
60.28629 260.000
60.30624 233.000
60.32618 256.000
60.34613 259.000
60.36608 252.000
60.38603 250.000
60.40597 237.000
60.42592 212.000
60.44587 263.000
60.46581 238.000
60.48576 275.000
60.50571 265.000
60.52565 283.000
60.54560 263.000
60.56555 242.000
60.58550 221.000
60.60544 262.000
60.62539 239.000
60.64534 285.000
60.66528 264.000
60.68523 244.000
60.70518 253.000
60.72512 239.000
60.74507 276.000
60.76502 272.000
60.78496 280.000
60.80491 246.000
60.82486 261.000
60.84481 248.000
60.86475 250.000
60.88470 250.000
60.90465 261.000
60.92459 245.000
60.94454 276.000
60.96449 278.000
60.98443 244.000
61.00438 267.000
61.02433 241.000
61.04428 230.000
61.06422 286.000
61.08417 268.000
61.10412 254.000
61.12406 244.000
61.14401 248.000
61.16396 276.000
61.18390 275.000
61.20385 266.000
61.22380 231.000
61.24374 274.000
61.26369 250.000
61.28364 297.000
61.30359 250.000
61.32353 266.000
61.34348 214.000
61.36343 233.000
61.38337 249.000
61.40332 267.000
61.42327 248.000
61.44321 217.000
61.46316 254.000
61.48311 237.000
61.50306 283.000
61.52300 237.000
61.54295 231.000
61.56290 243.000
61.58284 232.000
61.60279 248.000
61.62274 230.000
61.64268 217.000
61.66263 228.000
61.68258 229.000
61.70252 225.000
61.72247 252.000
61.74242 257.000
61.76237 237.000
61.78231 238.000
61.80226 223.000
61.82221 280.000
61.84215 226.000
61.86210 248.000
61.88205 232.000
61.90199 250.000
61.92194 239.000
61.94189 257.000
61.96184 262.000
61.98178 221.000
62.00173 245.000
62.02168 240.000
62.04162 250.000
62.06157 247.000
62.08152 240.000
62.10146 256.000
62.12141 225.000
62.14136 254.000
62.16131 257.000
62.18125 264.000
62.20120 279.000
62.22115 305.000
62.24109 298.000
62.26104 259.000
62.28099 258.000
62.30093 281.000
62.32088 284.000
62.34083 293.000
62.36077 306.000
62.38072 338.000
62.40067 332.000
62.42062 370.000
62.44056 377.000
62.46051 378.000
62.48046 389.000
62.50040 404.000
62.52035 443.000
62.54030 479.000
62.56024 436.000
62.58019 471.000
62.60014 389.000
62.62009 363.000
62.64003 364.000
62.65998 363.000
62.67993 335.000
62.69987 341.000
62.71982 339.000
62.73977 358.000
62.75971 346.000
62.77966 283.000
62.79961 292.000
62.81955 265.000
62.83950 261.000
62.85945 256.000
62.87940 245.000
62.89934 232.000
62.91929 226.000
62.93924 261.000
62.95918 195.000
62.97913 230.000
62.99908 205.000
63.01902 245.000
63.03897 222.000
63.05892 228.000
63.07887 242.000
63.09881 218.000
63.11876 234.000
63.13871 193.000
63.15865 214.000
63.17860 214.000
63.19855 224.000
63.21849 241.000
63.23844 212.000
63.25839 242.000
63.27833 206.000
63.29828 216.000
63.31823 216.000
63.33818 225.000
63.35812 219.000
63.37807 214.000
63.39802 220.000
63.41796 239.000
63.43791 217.000
63.45786 241.000
63.47780 228.000
63.49775 231.000
63.51770 220.000
63.53765 222.000
63.55759 204.000
63.57754 215.000
63.59749 211.000
63.61743 229.000
63.63738 197.000
63.65733 223.000
63.67727 218.000
63.69722 217.000
63.71717 231.000
63.73712 225.000
63.75706 222.000
63.77701 209.000
63.79696 233.000
63.81690 219.000
63.83685 229.000
63.85680 224.000
63.87674 201.000
63.89669 190.000
63.91664 209.000
63.93658 230.000
63.95653 238.000
63.97648 232.000
63.99643 222.000
64.01637 212.000
64.03632 213.000
64.05627 216.000
64.07621 180.000
64.09616 180.000
64.11611 197.000
64.13605 204.000
64.15600 221.000
64.17595 218.000
64.19590 197.000
64.21584 211.000
64.23579 203.000
64.25574 201.000
64.27568 214.000
64.29563 256.000
64.31558 199.000
64.33552 210.000
64.35547 209.000
64.37542 209.000
64.39536 222.000
64.41531 198.000
64.43526 195.000
64.45521 199.000
64.47515 217.000
64.49510 198.000
64.51505 223.000
64.53499 222.000
64.55494 197.000
64.57489 219.000
64.59483 189.000
64.61478 210.000
64.63473 217.000
64.65468 212.000
64.67462 206.000
64.69457 199.000
64.71452 204.000
64.73446 231.000
64.75441 210.000
64.77436 213.000
64.79430 217.000
64.81425 220.000
64.83420 223.000
64.85414 217.000
64.87409 197.000
64.89404 216.000
64.91399 214.000
64.93393 187.000
64.95388 199.000
64.97383 218.000
64.99377 221.000
65.01372 228.000
65.03367 219.000
65.05361 213.000
65.07356 185.000
65.09351 224.000
65.11346 229.000
65.13340 214.000
65.15335 227.000
65.17330 224.000
65.19324 211.000
65.21319 187.000
65.23314 225.000
65.25308 224.000
65.27303 193.000
65.29298 206.000
65.31293 216.000
65.33287 223.000
65.35282 206.000
65.37277 234.000
65.39271 192.000
65.41266 230.000
65.43261 225.000
65.45255 227.000
65.47250 238.000
65.49245 251.000
65.51239 184.000
65.53234 220.000
65.55229 224.000
65.57224 203.000
65.59218 218.000
65.61213 212.000
65.63208 232.000
65.65202 205.000
65.67197 243.000
65.69192 242.000
65.71186 246.000
65.73181 244.000
65.75176 228.000
65.77171 221.000
65.79165 219.000
65.81160 255.000
65.83155 247.000
65.85149 253.000
65.87144 240.000
65.89139 259.000
65.91133 229.000
65.93128 251.000
65.95123 255.000
65.97117 246.000
65.99112 246.000
66.01107 214.000
66.03102 236.000
66.05096 215.000
66.07091 231.000
66.09086 211.000
66.11080 247.000
66.13075 230.000
66.15070 203.000
66.17064 212.000
66.19059 220.000
66.21054 199.000
66.23049 234.000
66.25043 214.000
66.27038 214.000
66.29033 223.000
66.31027 225.000
66.33022 214.000
66.35017 226.000
66.37011 231.000
66.39006 203.000
66.41001 223.000
66.42995 200.000
66.44990 201.000
66.46985 213.000
66.48980 219.000
66.50974 208.000
66.52969 204.000
66.54964 229.000
66.56958 200.000
66.58953 213.000
66.60948 189.000
66.62942 246.000
66.64937 237.000
66.66932 222.000
66.68927 226.000
66.70921 214.000
66.72916 208.000
66.74911 230.000
66.76905 206.000
66.78900 220.000
66.80895 203.000
66.82889 189.000
66.84884 179.000
66.86879 194.000
66.88874 198.000
66.90868 209.000
66.92863 202.000
66.94858 209.000
66.96852 208.000
66.98847 209.000
67.00842 228.000
67.02836 199.000
67.04831 225.000
67.06826 210.000
67.08820 220.000
67.10815 205.000
67.12810 186.000
67.14805 223.000
67.16799 220.000
67.18794 202.000
67.20789 222.000
67.22783 200.000
67.24778 203.000
67.26773 215.000
67.28767 185.000
67.30762 211.000
67.32757 210.000
67.34752 194.000
67.36746 213.000
67.38741 196.000
67.40736 179.000
67.42730 213.000
67.44725 207.000
67.46720 207.000
67.48714 224.000
67.50709 202.000
67.52704 203.000
67.54698 208.000
67.56693 199.000
67.58688 240.000
67.60683 188.000
67.62677 206.000
67.64672 215.000
67.66667 224.000
67.68661 212.000
67.70656 215.000
67.72651 223.000
67.74645 226.000
67.76640 206.000
67.78635 225.000
67.80630 203.000
67.82624 235.000
67.84619 210.000
67.86614 225.000
67.88608 199.000
67.90603 206.000
67.92598 210.000
67.94592 213.000
67.96587 221.000
67.98582 193.000
68.00576 197.000
68.02571 190.000
68.04566 207.000
68.06561 190.000
68.08555 187.000
68.10550 219.000
68.12545 183.000
68.14539 194.000
68.16534 204.000
68.18529 189.000
68.20523 226.000
68.22518 195.000
68.24513 203.000
68.26508 190.000
68.28502 190.000
68.30497 183.000
68.32492 198.000
68.34486 187.000
68.36481 185.000
68.38476 184.000
68.40470 220.000
68.42465 205.000
68.44460 229.000
68.46455 226.000
68.48449 197.000
68.50444 175.000
68.52439 233.000
68.54433 222.000
68.56428 210.000
68.58423 192.000
68.60417 197.000
68.62412 208.000
68.64407 191.000
68.66401 208.000
68.68396 213.000
68.70391 227.000
68.72386 208.000
68.74380 203.000
68.76375 219.000
68.78370 181.000
68.80364 184.000
68.82359 195.000
68.84354 190.000
68.86348 169.000
68.88343 155.000
68.90338 193.000
68.92333 199.000
68.94327 204.000
68.96322 200.000
68.98317 204.000
69.00311 201.000
69.02306 219.000
69.04301 218.000
69.06295 197.000
69.08290 226.000
69.10285 205.000
69.12279 203.000
69.14274 197.000
69.16269 189.000
69.18264 172.000
69.20258 199.000
69.22253 179.000
69.24248 164.000
69.26242 198.000
69.28237 210.000
69.30232 199.000
69.32226 197.000
69.34221 223.000
69.36216 157.000
69.38211 215.000
69.40205 190.000
69.42200 217.000
69.44195 206.000
69.46189 180.000
69.48184 212.000
69.50179 172.000
69.52173 217.000
69.54168 214.000
69.56163 196.000
69.58157 185.000
69.60152 203.000
69.62147 191.000
69.64142 176.000
69.66136 202.000
69.68131 201.000
69.70126 164.000
69.72120 208.000
69.74115 182.000
69.76110 189.000
69.78104 207.000
69.80099 182.000
69.82094 186.000
69.84089 180.000
69.86083 204.000
69.88078 210.000
69.90073 194.000
69.92067 187.000
69.94062 193.000
69.96057 186.000
69.98051 214.000
70.00046 207.000
70.02041 186.000
70.04035 179.000
70.06030 180.000
70.08025 195.000
70.10020 182.000
70.12014 193.000
70.14009 191.000
70.16004 188.000
70.17998 201.000
70.19993 198.000
70.21988 200.000
70.23982 192.000
70.25977 199.000
70.27972 194.000
70.29967 182.000
70.31961 198.000
70.33956 207.000
70.35951 211.000
70.37945 176.000
70.39940 211.000
70.41935 206.000
70.43929 218.000
70.45924 206.000
70.47919 186.000
70.49914 179.000
70.51908 209.000
70.53903 210.000
70.55898 203.000
70.57892 193.000
70.59887 173.000
70.61882 224.000
70.63876 205.000
70.65871 202.000
70.67866 186.000
70.69860 200.000
70.71855 180.000
70.73850 198.000
70.75845 196.000
70.77839 231.000
70.79834 228.000
70.81829 208.000
70.83823 202.000
70.85818 207.000
70.87813 215.000
70.89807 187.000
70.91802 210.000
70.93797 197.000
70.95792 207.000
70.97786 205.000
70.99781 227.000
71.01776 214.000
71.03770 208.000
71.05765 223.000
71.07760 191.000
71.09754 234.000
71.11749 222.000
71.13744 210.000
71.15738 204.000
71.17733 218.000
71.19728 189.000
71.21723 216.000
71.23717 205.000
71.25712 237.000
71.27707 210.000
71.29701 215.000
71.31696 228.000
71.33691 205.000
71.35685 177.000
71.37680 189.000
71.39675 212.000
71.41670 206.000
71.43664 189.000
71.45659 204.000
71.47654 196.000
71.49648 198.000
71.51643 208.000
71.53638 191.000
71.55632 207.000
71.57627 194.000
71.59622 204.000
71.61616 221.000
71.63611 211.000
71.65606 190.000
71.67601 196.000
71.69595 210.000
71.71590 201.000
71.73585 196.000
71.75579 195.000
71.77574 215.000
71.79569 210.000
71.81563 189.000
71.83558 210.000
71.85553 162.000
71.87548 181.000
71.89542 212.000
71.91537 188.000
71.93532 193.000
71.95526 218.000
71.97521 184.000
71.99516 206.000
72.01510 181.000
72.03505 214.000
72.05500 194.000
72.07495 208.000
72.09489 205.000
72.11484 189.000
72.13479 200.000
72.15473 224.000
72.17468 181.000
72.19463 204.000
72.21457 189.000
72.23452 216.000
72.25447 182.000
72.27441 190.000
72.29436 218.000
72.31431 197.000
72.33426 188.000
72.35420 223.000
72.37415 206.000
72.39410 204.000
72.41404 209.000
72.43399 189.000
72.45394 211.000
72.47388 199.000
72.49383 199.000
72.51378 196.000
72.53373 193.000
72.55367 189.000
72.57362 182.000
72.59357 190.000
72.61351 190.000
72.63346 195.000
72.65341 205.000
72.67335 178.000
72.69330 233.000
72.71325 197.000
72.73319 212.000
72.75314 181.000
72.77309 193.000
72.79304 185.000
72.81298 191.000
72.83293 200.000
72.85288 208.000
72.87282 201.000
72.89277 212.000
72.91272 195.000
72.93266 169.000
72.95261 199.000
72.97256 198.000
72.99251 205.000
73.01245 175.000
73.03240 219.000
73.05235 209.000
73.07229 177.000
73.09224 178.000
73.11219 163.000
73.13213 175.000
73.15208 209.000
73.17203 182.000
73.19197 185.000
73.21192 197.000
73.23187 197.000
73.25182 194.000
73.27176 187.000
73.29171 199.000
73.31166 192.000
73.33160 203.000
73.35155 208.000
73.37150 196.000
73.39144 222.000
73.41139 199.000
73.43134 183.000
73.45129 192.000
73.47123 209.000
73.49118 184.000
73.51113 172.000
73.53107 170.000
73.55102 213.000
73.57097 210.000
73.59091 221.000
73.61086 200.000
73.63081 197.000
73.65076 190.000
73.67070 214.000
73.69065 235.000
73.71060 222.000
73.73054 193.000
73.75049 225.000
73.77044 184.000
73.79038 207.000
73.81033 205.000
73.83028 239.000
73.85022 218.000
73.87017 241.000
73.89012 186.000
73.91007 218.000
73.93001 201.000
73.94996 220.000
73.96991 209.000
73.98985 241.000
74.00980 206.000
74.02975 229.000
74.04969 235.000
74.06964 238.000
74.08959 232.000
74.10954 214.000
74.12948 203.000
74.14943 228.000
74.16938 207.000
74.18932 209.000
74.20927 219.000
74.22922 213.000
74.24916 216.000
74.26911 236.000
74.28906 209.000
74.30900 236.000
74.32895 191.000
74.34890 206.000
74.36885 227.000
74.38879 214.000
74.40874 201.000
74.42869 214.000
74.44863 227.000
74.46858 197.000
74.48853 202.000
74.50847 186.000
74.52842 198.000
74.54837 218.000
74.56832 187.000
74.58826 223.000
74.60821 224.000
74.62816 218.000
74.64810 207.000
74.66805 190.000
74.68800 207.000
74.70794 204.000
74.72789 202.000
74.74784 215.000
74.76778 216.000
74.78773 209.000
74.80768 198.000
74.82763 191.000
74.84757 224.000
74.86752 234.000
74.88747 234.000
74.90741 208.000
74.92736 197.000
74.94731 218.000
74.96725 180.000
74.98720 184.000
75.00715 219.000
75.02710 196.000
75.04704 197.000
75.06699 204.000
75.08694 226.000
75.10688 208.000
75.12683 196.000
75.14678 186.000
75.16672 233.000
75.18667 199.000
75.20662 204.000
75.22657 202.000
75.24651 195.000
75.26646 193.000
75.28641 208.000
75.30635 206.000
75.32630 220.000
75.34625 190.000
75.36619 219.000
75.38614 201.000
75.40609 170.000
75.42603 207.000
75.44598 224.000
75.46593 204.000
75.48588 195.000
75.50582 194.000
75.52577 191.000
75.54572 204.000
75.56566 198.000
75.58561 202.000
75.60556 183.000
75.62550 182.000
75.64545 170.000
75.66540 221.000
75.68535 203.000
75.70529 180.000
75.72524 198.000
75.74519 180.000
75.76513 175.000
75.78508 181.000
75.80503 227.000
75.82497 189.000
75.84492 180.000
75.86487 199.000
75.88481 213.000
75.90476 184.000
75.92471 182.000
75.94466 206.000
75.96460 196.000
75.98455 202.000
76.00450 188.000
76.02444 183.000
76.04439 194.000
76.06434 202.000
76.08428 194.000
76.10423 197.000
76.12418 194.000
76.14413 194.000
76.16407 196.000
76.18402 191.000
76.20397 174.000
76.22391 185.000
76.24386 185.000
76.26381 202.000
76.28375 175.000
76.30370 195.000
76.32365 188.000
76.34359 173.000
76.36354 192.000
76.38349 204.000
76.40344 182.000
76.42338 209.000
76.44333 192.000
76.46328 177.000
76.48322 176.000
76.50317 161.000
76.52312 185.000
76.54306 202.000
76.56301 188.000
76.58296 187.000
76.60291 190.000
76.62285 182.000
76.64280 179.000
76.66275 204.000
76.68269 188.000
76.70264 192.000
76.72259 195.000
76.74253 202.000
76.76248 216.000
76.78243 204.000
76.80238 182.000
76.82232 182.000
76.84227 196.000
76.86222 178.000
76.88216 165.000
76.90211 191.000
76.92206 196.000
76.94200 179.000
76.96195 191.000
76.98190 193.000
77.00184 193.000
77.02179 199.000
77.04174 209.000
77.06169 192.000
77.08163 201.000
77.10158 186.000
77.12153 209.000
77.14147 182.000
77.16142 198.000
77.18137 187.000
77.20131 194.000
77.22126 214.000
77.24121 178.000
77.26116 184.000
77.28110 194.000
77.30105 191.000
77.32100 205.000
77.34094 191.000
77.36089 180.000
77.38084 168.000
77.40078 209.000
77.42073 215.000
77.44068 182.000
77.46062 181.000
77.48057 186.000
77.50052 182.000
77.52047 217.000
77.54041 190.000
77.56036 200.000
77.58031 198.000
77.60025 212.000
77.62020 174.000
77.64015 191.000
77.66009 181.000
77.68004 169.000
77.69999 173.000
77.71994 169.000
77.73988 206.000
77.75983 199.000
77.77978 190.000
77.79972 205.000
77.81967 219.000
77.83962 177.000
77.85956 174.000
77.87951 204.000
77.89946 194.000
77.91940 205.000
77.93935 194.000
77.95930 211.000
77.97925 179.000
77.99919 175.000
78.01914 202.000
78.03909 194.000
78.05903 183.000
78.07898 173.000
78.09893 177.000
78.11887 193.000
78.13882 189.000
78.15877 195.000
78.17872 204.000
78.19866 182.000
78.21861 198.000
78.23856 222.000
78.25850 192.000
78.27845 181.000
78.29840 179.000
78.31834 204.000
78.33829 197.000
78.35824 199.000
78.37819 204.000
78.39813 190.000
78.41808 191.000
78.43803 185.000
78.45797 207.000
78.47792 174.000
78.49787 179.000
78.51781 220.000
78.53776 172.000
78.55771 194.000
78.57765 172.000
78.59760 205.000
78.61755 162.000
78.63750 197.000
78.65744 180.000
78.67739 195.000
78.69734 220.000
78.71728 179.000
78.73723 199.000
78.75718 219.000
78.77712 178.000
78.79707 174.000
78.81702 224.000
78.83697 225.000
78.85691 192.000
78.87686 216.000
78.89681 177.000
78.91675 188.000
78.93670 191.000
78.95665 189.000
78.97659 190.000
78.99654 215.000
79.01649 235.000
79.03643 171.000
79.05638 208.000
79.07633 208.000
79.09628 198.000
79.11622 188.000
79.13617 189.000
79.15612 199.000
79.17606 198.000
79.19601 189.000
79.21596 214.000
79.23590 210.000
79.25585 197.000
79.27580 213.000
79.29575 197.000
79.31569 189.000
79.33564 216.000
79.35559 239.000
79.37553 195.000
79.39548 182.000
79.41543 190.000
79.43537 194.000
79.45532 175.000
79.47527 200.000
79.49521 167.000
79.51516 205.000
79.53511 188.000
79.55506 173.000
79.57500 184.000
79.59495 196.000
79.61490 214.000
79.63484 175.000
79.65479 197.000
79.67474 192.000
79.69468 199.000
79.71463 180.000
79.73458 199.000
79.75453 193.000
79.77447 177.000
79.79442 191.000
79.81437 201.000
79.83431 186.000
79.85426 194.000
79.87421 177.000
79.89415 193.000
79.91410 159.000
79.93405 201.000
79.95399 160.000
79.97394 170.000
79.99389 206.000
80.01384 169.000
80.03378 174.000
80.05373 204.000
80.07368 185.000
80.09362 184.000
80.11357 180.000
80.13352 174.000
80.15346 217.000
80.17341 208.000
80.19336 192.000
80.21331 201.000
80.23325 172.000
80.25320 186.000
80.27315 181.000
80.29309 209.000
80.31304 194.000
80.33299 195.000
80.35293 202.000
80.37288 199.000
80.39283 200.000
80.41278 216.000
80.43272 214.000
80.45267 192.000
80.47262 192.000
80.49256 190.000
80.51251 182.000
80.53246 172.000
80.55240 189.000
80.57235 193.000
80.59230 193.000
80.61224 218.000
80.63219 212.000
80.65214 192.000
80.67209 201.000
80.69203 197.000
80.71198 177.000
80.73193 187.000
80.75187 159.000
80.77182 212.000
80.79177 187.000
80.81171 210.000
80.83166 188.000
80.85161 217.000
80.87156 224.000
80.89150 208.000
80.91145 204.000
80.93140 205.000
80.95134 182.000
80.97129 192.000
80.99124 197.000
81.01118 191.000
81.03113 191.000
81.05108 214.000
81.07102 189.000
81.09097 194.000
81.11092 182.000
81.13087 176.000
81.15081 206.000
81.17076 194.000
81.19071 184.000
81.21065 198.000
81.23060 183.000
81.25055 201.000
81.27049 198.000
81.29044 176.000
81.31039 184.000
81.33034 201.000
81.35028 186.000
81.37023 199.000
81.39018 178.000
81.41012 197.000
81.43007 189.000
81.45002 196.000
81.46996 193.000
81.48991 192.000
81.50986 196.000
81.52980 206.000
81.54975 200.000
81.56970 195.000
81.58965 199.000
81.60959 189.000
81.62954 212.000
81.64949 167.000
81.66943 190.000
81.68938 183.000
81.70933 191.000
81.72927 185.000
81.74922 206.000
81.76917 210.000
81.78912 167.000
81.80906 187.000
81.82901 223.000
81.84896 187.000
81.86890 209.000
81.88885 200.000
81.90880 178.000
81.92874 197.000
81.94869 211.000
81.96864 167.000
81.98859 193.000
82.00853 206.000
82.02848 209.000
82.04843 200.000
82.06837 191.000
82.08832 203.000
82.10827 216.000
82.12821 200.000
82.14816 222.000
82.16811 195.000
82.18805 198.000
82.20800 210.000
82.22795 221.000
82.24790 210.000
82.26784 206.000
82.28779 219.000
82.30774 186.000
82.32768 220.000
82.34763 196.000
82.36758 208.000
82.38752 196.000
82.40747 173.000
82.42742 198.000
82.44737 185.000
82.46731 204.000
82.48726 202.000
82.50721 176.000
82.52715 176.000
82.54710 210.000
82.56705 199.000
82.58699 212.000
82.60694 192.000
82.62689 202.000
82.64683 183.000
82.66678 171.000
82.68673 186.000
82.70668 190.000
82.72662 179.000
82.74657 194.000
82.76652 224.000
82.78646 222.000
82.80641 212.000
82.82636 173.000
82.84630 181.000
82.86625 189.000
82.88620 219.000
82.90615 203.000
82.92609 191.000
82.94604 185.000
82.96599 204.000
82.98593 184.000
83.00588 206.000
83.02583 190.000
83.04577 200.000
83.06572 176.000
83.08567 185.000
83.10561 171.000
83.12556 210.000
83.14551 191.000
83.16546 179.000
83.18540 195.000
83.20535 174.000
83.22530 196.000
83.24524 194.000
83.26519 209.000
83.28514 203.000
83.30508 188.000
83.32503 173.000
83.34498 177.000
83.36493 186.000
83.38487 199.000
83.40482 184.000
83.42477 180.000
83.44471 190.000
83.46466 202.000
83.48461 174.000
83.50455 198.000
83.52450 200.000
83.54445 181.000
83.56440 178.000
83.58434 215.000
83.60429 189.000
83.62424 190.000
83.64418 203.000
83.66413 169.000
83.68408 208.000
83.70402 200.000
83.72397 192.000
83.74392 190.000
83.76386 211.000
83.78381 196.000
83.80376 202.000
83.82371 186.000
83.84365 221.000
83.86360 157.000
83.88355 198.000
83.90349 201.000
83.92344 201.000
83.94339 187.000
83.96333 190.000
83.98328 199.000
84.00323 208.000
84.02318 188.000
84.04312 194.000
84.06307 207.000
84.08302 200.000
84.10296 198.000
84.12291 185.000
84.14286 185.000
84.16280 214.000
84.18275 188.000
84.20270 192.000
84.22264 192.000
84.24259 205.000
84.26254 195.000
84.28249 197.000
84.30243 203.000
84.32238 181.000
84.34233 182.000
84.36227 200.000
84.38222 197.000
84.40217 212.000
84.42211 177.000
84.44206 193.000
84.46201 182.000
84.48196 208.000
84.50190 178.000
84.52185 195.000
84.54180 154.000
84.56174 211.000
84.58169 199.000
84.60164 209.000
84.62158 200.000
84.64153 197.000
84.66148 185.000
84.68142 199.000
84.70137 205.000
84.72132 186.000
84.74127 210.000
84.76121 191.000
84.78116 220.000
84.80111 205.000
84.82105 208.000
84.84100 183.000
84.86095 178.000
84.88089 210.000
84.90084 219.000
84.92079 195.000
84.94074 212.000
84.96068 179.000
84.98063 210.000
85.00058 209.000
85.02052 198.000
85.04047 197.000
85.06042 184.000
85.08036 173.000
85.10031 194.000
85.12026 186.000
85.14021 201.000
85.16015 190.000
85.18010 168.000
85.20005 166.000
85.21999 188.000
85.23994 189.000
85.25989 184.000
85.27983 185.000
85.29978 171.000
85.31973 190.000
85.33967 180.000
85.35962 207.000
85.37957 211.000
85.39952 188.000
85.41946 180.000
85.43941 183.000
85.45936 173.000
85.47930 211.000
85.49925 190.000
85.51920 198.000
85.53914 181.000
85.55909 176.000
85.57904 188.000
85.59899 204.000
85.61893 200.000
85.63888 187.000
85.65883 192.000
85.67877 169.000
85.69872 177.000
85.71867 186.000
85.73861 192.000
85.75856 189.000
85.77851 198.000
85.79845 190.000
85.81840 189.000
85.83835 177.000
85.85830 181.000
85.87824 182.000
85.89819 201.000
85.91814 176.000
85.93808 192.000
85.95803 205.000
85.97798 183.000
85.99792 191.000
86.01787 204.000
86.03782 188.000
86.05777 165.000
86.07771 194.000
86.09766 185.000
86.11761 152.000
86.13755 187.000
86.15750 202.000
86.17745 172.000
86.19739 185.000
86.21734 186.000
86.23729 200.000
86.25723 201.000
86.27718 183.000
86.29713 230.000
86.31708 173.000
86.33702 182.000
86.35697 180.000
86.37692 188.000
86.39686 205.000
86.41681 185.000
86.43676 188.000
86.45670 203.000
86.47665 165.000
86.49660 194.000
86.51655 183.000
86.53649 174.000
86.55644 174.000
86.57639 213.000
86.59633 190.000
86.61628 179.000
86.63623 162.000
86.65617 210.000
86.67612 208.000
86.69607 203.000
86.71602 192.000
86.73596 207.000
86.75591 199.000
86.77586 207.000
86.79580 185.000
86.81575 175.000
86.83570 193.000
86.85564 195.000
86.87559 214.000
86.89554 210.000
86.91548 191.000
86.93543 238.000
86.95538 209.000
86.97533 202.000
86.99527 198.000
87.01522 219.000
87.03517 183.000
87.05511 217.000
87.07506 195.000
87.09501 201.000
87.11495 197.000
87.13490 221.000
87.15485 185.000
87.17480 168.000
87.19474 207.000
87.21469 193.000
87.23464 188.000
87.25458 179.000
87.27453 211.000
87.29448 215.000
87.31442 193.000
87.33437 202.000
87.35432 164.000
87.37426 187.000
87.39421 228.000
87.41416 192.000
87.43411 182.000
87.45405 210.000
87.47400 188.000
87.49395 221.000
87.51389 200.000
87.53384 168.000
87.55379 177.000
87.57373 190.000
87.59368 208.000
87.61363 199.000
87.63358 177.000
87.65352 195.000
87.67347 197.000
87.69342 189.000
87.71336 227.000
87.73331 180.000
87.75326 180.000
87.77320 208.000
87.79315 193.000
87.81310 207.000
87.83304 159.000
87.85299 192.000
87.87294 198.000
87.89289 207.000
87.91283 197.000
87.93278 200.000
87.95273 202.000
87.97267 184.000
87.99262 195.000
88.01257 214.000
88.03251 194.000
88.05246 189.000
88.07241 178.000
88.09236 178.000
88.11230 191.000
88.13225 203.000
88.15220 189.000
88.17214 186.000
88.19209 165.000
88.21204 192.000
88.23198 169.000
88.25193 181.000
88.27188 176.000
88.29183 204.000
88.31177 172.000
88.33172 186.000
88.35167 204.000
88.37161 193.000
88.39156 192.000
88.41151 191.000
88.43145 194.000
88.45140 184.000
88.47135 212.000
88.49129 162.000
88.51124 183.000
88.53119 180.000
88.55114 186.000
88.57108 200.000
88.59103 197.000
88.61098 205.000
88.63092 187.000
88.65087 209.000
88.67082 204.000
88.69076 206.000
88.71071 198.000
88.73066 208.000
88.75061 216.000
88.77055 188.000
88.79050 200.000
88.81045 233.000
88.83039 192.000
88.85034 193.000
88.87029 182.000
88.89023 185.000
88.91018 161.000
88.93013 186.000
88.95007 180.000
88.97002 173.000
88.98997 198.000
89.00992 181.000
89.02986 159.000
89.04981 187.000
89.06976 210.000
89.08970 196.000
89.10965 180.000
89.12960 200.000
89.14954 190.000
89.16949 184.000
89.18944 191.000
89.20939 190.000
89.22933 176.000
89.24928 187.000
89.26923 173.000
89.28917 180.000
89.30912 227.000
89.32907 192.000
89.34901 196.000
89.36896 205.000
89.38891 210.000
89.40885 204.000
89.42880 183.000
89.44875 189.000
89.46870 199.000
89.48864 238.000
89.50859 199.000
89.52854 184.000
89.54848 200.000
89.56843 227.000
89.58838 196.000
89.60832 220.000
89.62827 198.000
89.64822 194.000
89.66817 209.000
89.68811 199.000
89.70806 211.000
89.72801 199.000
89.74795 215.000
89.76790 202.000
89.78785 219.000
89.80779 228.000
89.82774 216.000
89.84769 226.000
89.86764 238.000
89.88758 258.000
89.90753 252.000
89.92748 227.000
89.94742 241.000
89.96737 234.000
89.98732 268.000
90.00726 234.000
