10.00000 105.000
10.01995 100.000
10.03989 89.000
10.05984 110.000
10.07979 89.000
10.09973 94.000
10.11968 95.000
10.13963 84.000
10.15958 80.000
10.17952 89.000
10.19947 95.000
10.21942 121.000
10.23936 97.000
10.25931 103.000
10.27926 94.000
10.29920 78.000
10.31915 102.000
10.33910 104.000
10.35905 85.000
10.37899 90.000
10.39894 84.000
10.41889 109.000
10.43883 103.000
10.45878 99.000
10.47873 100.000
10.49867 85.000
10.51862 97.000
10.53857 94.000
10.55851 84.000
10.57846 123.000
10.59841 77.000
10.61836 101.000
10.63830 87.000
10.65825 101.000
10.67820 96.000
10.69814 88.000
10.71809 104.000
10.73804 118.000
10.75798 103.000
10.77793 96.000
10.79788 108.000
10.81783 85.000
10.83777 97.000
10.85772 96.000
10.87767 105.000
10.89761 79.000
10.91756 82.000
10.93751 97.000
10.95745 96.000
10.97740 107.000
10.99735 92.000
11.01730 106.000
11.03724 107.000
11.05719 85.000
11.07714 113.000
11.09708 90.000
11.11703 75.000
11.13698 108.000
11.15692 106.000
11.17687 115.000
11.19682 96.000
11.21676 97.000
11.23671 102.000
11.25666 90.000
11.27661 96.000
11.29655 104.000
11.31650 96.000
11.33645 97.000
11.35639 88.000
11.37634 98.000
11.39629 101.000
11.41623 98.000
11.43618 89.000
11.45613 105.000
11.47608 94.000
11.49602 93.000
11.51597 87.000
11.53592 117.000
11.55586 117.000
11.57581 87.000
11.59576 106.000
11.61570 100.000
11.63565 99.000
11.65560 91.000
11.67554 107.000
11.69549 86.000
11.71544 97.000
11.73539 76.000
11.75533 81.000
11.77528 108.000
11.79523 90.000
11.81517 102.000
11.83512 116.000
11.85507 96.000
11.87501 92.000
11.89496 89.000
11.91491 103.000
11.93486 85.000
11.95480 83.000
11.97475 95.000
11.99470 87.000
12.01464 94.000
12.03459 104.000
12.05454 104.000
12.07448 95.000
12.09443 89.000
12.11438 75.000
12.13432 106.000
12.15427 115.000
12.17422 80.000
12.19417 91.000
12.21411 97.000
12.23406 100.000
12.25401 107.000
12.27395 94.000
12.29390 87.000
12.31385 88.000
12.33379 74.000
12.35374 96.000
12.37369 100.000
12.39364 105.000
12.41358 99.000
12.43353 85.000
12.45348 109.000
12.47342 117.000
12.49337 107.000
12.51332 105.000
12.53326 114.000
12.55321 105.000
12.57316 97.000
12.59311 96.000
12.61305 99.000
12.63300 100.000
12.65295 96.000
12.67289 101.000
12.69284 110.000
12.71279 99.000
12.73273 106.000
12.75268 84.000
12.77263 97.000
12.79257 92.000
12.81252 96.000
12.83247 102.000
12.85242 85.000
12.87236 103.000
12.89231 95.000
12.91226 91.000
12.93220 95.000
12.95215 101.000
12.97210 125.000
12.99204 104.000
13.01199 86.000
13.03194 102.000
13.05189 100.000
13.07183 86.000
13.09178 88.000
13.11173 88.000
13.13167 105.000
13.15162 94.000
13.17157 114.000
13.19151 90.000
13.21146 99.000
13.23141 89.000
13.25135 96.000
13.27130 105.000
13.29125 85.000
13.31120 103.000
13.33114 88.000
13.35109 85.000
13.37104 113.000
13.39098 104.000
13.41093 93.000
13.43088 92.000
13.45082 96.000
13.47077 90.000
13.49072 89.000
13.51067 77.000
13.53061 90.000
13.55056 91.000
13.57051 106.000
13.59045 103.000
13.61040 81.000
13.63035 87.000
13.65029 79.000
13.67024 105.000
13.69019 111.000
13.71013 82.000
13.73008 89.000
13.75003 98.000
13.76998 89.000
13.78992 75.000
13.80987 105.000
13.82982 76.000
13.84976 94.000
13.86971 101.000
13.88966 107.000
13.90960 94.000
13.92955 84.000
13.94950 95.000
13.96945 97.000
13.98939 100.000
14.00934 106.000
14.02929 107.000
14.04923 92.000
14.06918 79.000
14.08913 105.000
14.10907 84.000
14.12902 94.000
14.14897 68.000
14.16892 104.000
14.18886 94.000
14.20881 106.000
14.22876 94.000
14.24870 93.000
14.26865 113.000
14.28860 102.000
14.30854 95.000
14.32849 100.000
14.34844 107.000
14.36838 96.000
14.38833 80.000
14.40828 101.000
14.42823 98.000
14.44817 87.000
14.46812 103.000
14.48807 92.000
14.50801 103.000
14.52796 115.000
14.54791 110.000
14.56785 82.000
14.58780 87.000
14.60775 97.000
14.62770 93.000
14.64764 83.000
14.66759 92.000
14.68754 89.000
14.70748 112.000
14.72743 107.000
14.74738 109.000
14.76732 98.000
14.78727 78.000
14.80722 97.000
14.82716 117.000
14.84711 81.000
14.86706 108.000
14.88701 103.000
14.90695 89.000
14.92690 94.000
14.94685 93.000
14.96679 94.000
14.98674 104.000
15.00669 117.000
15.02663 92.000
15.04658 93.000
15.06653 92.000
15.08648 99.000
15.10642 106.000
15.12637 89.000
15.14632 93.000
15.16626 122.000
15.18621 106.000
15.20616 110.000
15.22610 108.000
15.24605 116.000
15.26600 100.000
15.28594 100.000
15.30589 105.000
15.32584 91.000
15.34579 112.000
15.36573 109.000
15.38568 117.000
15.40563 128.000
15.42557 136.000
15.44552 111.000
15.46547 102.000
15.48541 114.000
15.50536 116.000
15.52531 135.000
15.54526 123.000
15.56520 133.000
15.58515 146.000
15.60510 186.000
15.62504 174.000
15.64499 217.000
15.66494 312.000
15.68488 451.000
15.70483 540.000
15.72478 705.000
15.74472 843.000
15.76467 914.000
15.78462 830.000
15.80457 554.000
15.82451 383.000
15.84446 264.000
15.86441 209.000
15.88435 201.000
15.90430 200.000
15.92425 263.000
15.94419 286.000
15.96414 388.000
15.98409 442.000
16.00404 555.000
16.02398 652.000
16.04393 778.000
16.06388 954.000
16.08382 1050.000
16.10377 1099.000
16.12372 1192.000
16.14366 950.000
16.16361 716.000
16.18356 626.000
16.20351 509.000
16.22345 577.000
16.24340 602.000
16.26335 653.000
16.28329 548.000
16.30324 363.000
16.32319 267.000
16.34313 211.000
16.36308 150.000
16.38303 151.000
16.40297 131.000
16.42292 128.000
16.44287 110.000
16.46282 111.000
16.48276 127.000
16.50271 128.000
16.52266 95.000
16.54260 131.000
16.56255 117.000
16.58250 120.000
16.60244 111.000
16.62239 115.000
16.64234 114.000
16.66229 112.000
16.68223 110.000
16.70218 128.000
16.72213 130.000
16.74207 106.000
16.76202 119.000
16.78197 118.000
16.80191 99.000
16.82186 119.000
16.84181 118.000
16.86175 91.000
16.88170 115.000
16.90165 111.000
16.92160 105.000
16.94154 101.000
16.96149 97.000
16.98144 110.000
17.00138 102.000
17.02133 106.000
17.04128 99.000
17.06122 114.000
17.08117 108.000
17.10112 105.000
17.12107 114.000
17.14101 112.000
17.16096 108.000
17.18091 93.000
17.20085 98.000
17.22080 119.000
17.24075 118.000
17.26069 110.000
17.28064 109.000
17.30059 119.000
17.32053 128.000
17.34048 112.000
17.36043 127.000
17.38038 113.000
17.40032 96.000
17.42027 108.000
17.44022 111.000
17.46016 113.000
17.48011 122.000
17.50006 108.000
17.52000 101.000
17.53995 84.000
17.55990 127.000
17.57985 112.000
17.59979 104.000
17.61974 113.000
17.63969 111.000
17.65963 115.000
17.67958 99.000
17.69953 93.000
17.71947 99.000
17.73942 109.000
17.75937 108.000
17.77932 101.000
17.79926 100.000
17.81921 89.000
17.83916 101.000
17.85910 118.000
17.87905 106.000
17.89900 106.000
17.91894 105.000
17.93889 98.000
17.95884 108.000
17.97878 110.000
17.99873 101.000
18.01868 97.000
18.03863 103.000
18.05857 137.000
18.07852 148.000
18.09847 159.000
18.11841 204.000
18.13836 264.000
18.15831 371.000
18.17825 506.000
18.19820 583.000
18.21815 477.000
18.23810 334.000
18.25804 282.000
18.27799 174.000
18.29794 109.000
18.31788 97.000
18.33783 105.000
18.35778 122.000
18.37772 118.000
18.39767 121.000
18.41762 121.000
18.43756 102.000
18.45751 104.000
18.47746 109.000
18.49741 106.000
18.51735 110.000
18.53730 113.000
18.55725 116.000
18.57719 124.000
18.59714 110.000
18.61709 93.000
18.63703 98.000
18.65698 101.000
18.67693 103.000
18.69688 95.000
18.71682 95.000
18.73677 98.000
18.75672 119.000
18.77666 102.000
18.79661 100.000
18.81656 114.000
18.83650 90.000
18.85645 83.000
18.87640 95.000
18.89634 92.000
18.91629 117.000
18.93624 110.000
18.95619 101.000
18.97613 129.000
18.99608 101.000
19.01603 109.000
19.03597 113.000
19.05592 117.000
19.07587 105.000
19.09581 102.000
19.11576 107.000
19.13571 128.000
19.15566 105.000
19.17560 100.000
19.19555 88.000
19.21550 113.000
19.23544 112.000
19.25539 95.000
19.27534 103.000
19.29528 108.000
19.31523 105.000
19.33518 102.000
19.35513 113.000
19.37507 102.000
19.39502 90.000
19.41497 107.000
19.43491 96.000
19.45486 80.000
19.47481 92.000
19.49475 102.000
19.51470 116.000
19.53465 113.000
19.55459 118.000
19.57454 98.000
19.59449 121.000
19.61444 103.000
19.63438 115.000
19.65433 112.000
19.67428 110.000
19.69422 129.000
19.71417 111.000
19.73412 99.000
19.75406 119.000
19.77401 102.000
19.79396 111.000
19.81391 113.000
19.83385 102.000
19.85380 111.000
19.87375 123.000
19.89369 114.000
19.91364 126.000
19.93359 94.000
19.95353 94.000
19.97348 112.000
19.99343 97.000
20.01337 103.000
20.03332 111.000
20.05327 108.000
20.07322 115.000
20.09316 115.000
20.11311 122.000
20.13306 100.000
20.15300 110.000
20.17295 99.000
20.19290 101.000
20.21284 121.000
20.23279 106.000
20.25274 122.000
20.27269 119.000
20.29263 118.000
20.31258 124.000
20.33253 117.000
20.35247 129.000
20.37242 128.000
20.39237 147.000
20.41231 156.000
20.43226 210.000
20.45221 236.000
20.47215 325.000
20.49210 308.000
20.51205 335.000
20.53200 366.000
20.55194 365.000
20.57189 377.000
20.59184 350.000
20.61178 384.000
20.63173 312.000
20.65168 303.000
20.67162 309.000
20.69157 341.000
20.71152 350.000
20.73147 359.000
20.75141 357.000
20.77136 412.000
20.79131 371.000
20.81125 432.000
20.83120 457.000
20.85115 425.000
20.87109 358.000
20.89104 367.000
20.91099 312.000
20.93094 281.000
20.95088 229.000
20.97083 218.000
20.99078 188.000
21.01072 186.000
21.03067 125.000
21.05062 122.000
21.07056 129.000
21.09051 151.000
21.11046 147.000
21.13040 110.000
21.15035 100.000
21.17030 131.000
21.19025 131.000
21.21019 118.000
21.23014 119.000
21.25009 98.000
21.27003 101.000
21.28998 108.000
21.30993 124.000
21.32987 107.000
21.34982 121.000
21.36977 119.000
21.38972 107.000
21.40966 107.000
21.42961 120.000
21.44956 115.000
21.46950 120.000
21.48945 125.000
21.50940 112.000
21.52934 117.000
21.54929 110.000
21.56924 108.000
21.58918 111.000
21.60913 121.000
21.62908 110.000
21.64903 102.000
21.66897 120.000
21.68892 115.000
21.70887 100.000
21.72881 94.000
21.74876 116.000
21.76871 121.000
21.78865 120.000
21.80860 124.000
21.82855 120.000
21.84850 111.000
21.86844 120.000
21.88839 118.000
21.90834 125.000
21.92828 111.000
21.94823 120.000
21.96818 114.000
21.98812 142.000
22.00807 97.000
22.02802 119.000
22.04796 101.000
22.06791 122.000
22.08786 120.000
22.10781 113.000
22.12775 110.000
22.14770 126.000
22.16765 131.000
22.18759 123.000
22.20754 123.000
22.22749 123.000
22.24743 96.000
22.26738 126.000
22.28733 121.000
22.30728 117.000
22.32722 103.000
22.34717 113.000
22.36712 123.000
22.38706 93.000
22.40701 137.000
22.42696 111.000
22.44690 126.000
22.46685 123.000
22.48680 120.000
22.50675 115.000
22.52669 121.000
22.54664 132.000
22.56659 128.000
22.58653 109.000
22.60648 117.000
22.62643 125.000
22.64637 116.000
22.66632 105.000
22.68627 125.000
22.70621 104.000
22.72616 111.000
22.74611 113.000
22.76606 122.000
22.78600 131.000
22.80595 129.000
22.82590 118.000
22.84584 121.000
22.86579 132.000
22.88574 117.000
22.90568 120.000
22.92563 117.000
22.94558 137.000
22.96553 118.000
22.98547 125.000
23.00542 125.000
23.02537 137.000
23.04531 108.000
23.06526 111.000
23.08521 135.000
23.10515 103.000
23.12510 142.000
23.14505 113.000
23.16499 139.000
23.18494 147.000
23.20489 121.000
23.22484 104.000
23.24478 103.000
23.26473 137.000
23.28468 115.000
23.30462 147.000
23.32457 137.000
23.34452 129.000
23.36446 113.000
23.38441 127.000
23.40436 125.000
23.42431 145.000
23.44425 114.000
23.46420 123.000
23.48415 119.000
23.50409 129.000
23.52404 125.000
23.54399 140.000
23.56393 129.000
23.58388 130.000
23.60383 126.000
23.62377 133.000
23.64372 111.000
23.66367 120.000
23.68362 105.000
23.70356 128.000
23.72351 115.000
23.74346 137.000
23.76340 131.000
23.78335 115.000
23.80330 112.000
23.82324 124.000
23.84319 122.000
23.86314 130.000
23.88309 145.000
23.90303 141.000
23.92298 128.000
23.94293 129.000
23.96287 130.000
23.98282 126.000
24.00277 136.000
24.02271 143.000
24.04266 129.000
24.06261 126.000
24.08256 133.000
24.10250 119.000
24.12245 129.000
24.14240 135.000
24.16234 147.000
24.18229 140.000
24.20224 143.000
24.22218 155.000
24.24213 131.000
24.26208 139.000
24.28202 134.000
24.30197 167.000
24.32192 121.000
24.34187 139.000
24.36181 137.000
24.38176 153.000
24.40171 128.000
24.42165 143.000
24.44160 128.000
24.46155 134.000
24.48149 141.000
24.50144 156.000
24.52139 135.000
24.54134 160.000
24.56128 131.000
24.58123 133.000
24.60118 133.000
24.62112 122.000
24.64107 148.000
24.66102 146.000
24.68096 142.000
24.70091 124.000
24.72086 116.000
24.74080 147.000
24.76075 138.000
24.78070 145.000
24.80065 148.000
24.82059 141.000
24.84054 153.000
24.86049 134.000
24.88043 144.000
24.90038 145.000
24.92033 143.000
24.94027 155.000
24.96022 153.000
24.98017 155.000
25.00012 133.000
25.02006 155.000
25.04001 138.000
25.05996 149.000
25.07990 166.000
25.09985 140.000
25.11980 139.000
25.13974 157.000
25.15969 147.000
25.17964 135.000
25.19958 160.000
25.21953 166.000
25.23948 150.000
25.25943 154.000
25.27937 131.000
25.29932 154.000
25.31927 138.000
25.33921 174.000
25.35916 152.000
25.37911 172.000
25.39905 154.000
25.41900 167.000
25.43895 141.000
25.45890 169.000
25.47884 163.000
25.49879 157.000
25.51874 142.000
25.53868 136.000
25.55863 143.000
25.57858 144.000
25.59852 124.000
25.61847 149.000
25.63842 133.000
25.65837 159.000
25.67831 176.000
25.69826 139.000
25.71821 151.000
25.73815 142.000
25.75810 157.000
25.77805 141.000
25.79799 141.000
25.81794 167.000
25.83789 172.000
25.85783 172.000
25.87778 159.000
25.89773 167.000
25.91768 147.000
25.93762 172.000
25.95757 171.000
25.97752 168.000
25.99746 184.000
26.01741 169.000
26.03736 139.000
26.05730 142.000
26.07725 169.000
26.09720 164.000
26.11715 186.000
26.13709 164.000
26.15704 177.000
26.17699 134.000
26.19693 164.000
26.21688 186.000
26.23683 174.000
26.25677 202.000
26.27672 158.000
26.29667 171.000
26.31661 156.000
26.33656 166.000
26.35651 155.000
26.37646 177.000
26.39640 169.000
26.41635 167.000
26.43630 174.000
26.45624 161.000
26.47619 183.000
26.49614 142.000
26.51608 169.000
26.53603 175.000
26.55598 185.000
26.57593 198.000
26.59587 171.000
26.61582 161.000
26.63577 182.000
26.65571 191.000
26.67566 189.000
26.69561 189.000
26.71555 176.000
26.73550 197.000
26.75545 175.000
26.77539 170.000
26.79534 161.000
26.81529 199.000
26.83524 155.000
26.85518 192.000
26.87513 165.000
26.89508 172.000
26.91502 167.000
26.93497 180.000
26.95492 176.000
26.97486 199.000
26.99481 187.000
27.01476 165.000
27.03471 217.000
27.05465 172.000
27.07460 172.000
27.09455 182.000
27.11449 182.000
27.13444 183.000
27.15439 183.000
27.17433 182.000
27.19428 188.000
27.21423 161.000
27.23417 167.000
27.25412 184.000
27.27407 159.000
27.29402 202.000
27.31396 183.000
27.33391 184.000
27.35386 193.000
27.37380 202.000
27.39375 204.000
27.41370 204.000
27.43364 195.000
27.45359 197.000
27.47354 187.000
27.49349 198.000
27.51343 158.000
27.53338 187.000
27.55333 178.000
27.57327 180.000
27.59322 193.000
27.61317 155.000
27.63311 179.000
27.65306 204.000
27.67301 209.000
27.69296 195.000
27.71290 188.000
27.73285 187.000
27.75280 200.000
27.77274 203.000
27.79269 188.000
27.81264 197.000
27.83258 197.000
27.85253 195.000
27.87248 183.000
27.89242 181.000
27.91237 210.000
27.93232 174.000
27.95227 206.000
27.97221 192.000
27.99216 203.000
28.01211 194.000
28.03205 191.000
28.05200 176.000
28.07195 201.000
28.09189 205.000
28.11184 200.000
28.13179 198.000
28.15174 183.000
28.17168 193.000
28.19163 197.000
28.21158 209.000
28.23152 211.000
28.25147 193.000
28.27142 194.000
28.29136 195.000
28.31131 204.000
28.33126 204.000
28.35120 212.000
28.37115 207.000
28.39110 202.000
28.41105 201.000
28.43099 196.000
28.45094 222.000
28.47089 174.000
28.49083 187.000
28.51078 187.000
28.53073 193.000
28.55067 201.000
28.57062 215.000
28.59057 193.000
28.61052 205.000
28.63046 194.000
28.65041 227.000
28.67036 199.000
28.69030 202.000
28.71025 197.000
28.73020 198.000
28.75014 224.000
28.77009 195.000
28.79004 216.000
28.80998 227.000
28.82993 254.000
28.84988 205.000
28.86983 209.000
28.88977 188.000
28.90972 211.000
28.92967 220.000
28.94961 234.000
28.96956 198.000
28.98951 230.000
29.00945 215.000
29.02940 208.000
29.04935 218.000
29.06930 201.000
29.08924 218.000
29.10919 217.000
29.12914 230.000
29.14908 236.000
29.16903 241.000
29.18898 213.000
29.20892 189.000
29.22887 201.000
29.24882 241.000
29.26877 201.000
29.28871 230.000
29.30866 213.000
29.32861 234.000
29.34855 219.000
29.36850 207.000
29.38845 227.000
29.40839 219.000
29.42834 212.000
29.44829 215.000
29.46823 211.000
29.48818 212.000
29.50813 227.000
29.52808 200.000
29.54802 228.000
29.56797 249.000
29.58792 213.000
29.60786 228.000
29.62781 235.000
29.64776 219.000
29.66770 253.000
29.68765 245.000
29.70760 225.000
29.72755 253.000
29.74749 255.000
29.76744 258.000
29.78739 260.000
29.80733 279.000
29.82728 268.000
29.84723 367.000
29.86717 432.000
29.88712 496.000
29.90707 651.000
29.92701 822.000
29.94696 838.000
29.96691 782.000
29.98686 637.000
30.00680 621.000
30.02675 557.000
30.04670 431.000
30.06664 343.000
30.08659 293.000
30.10654 276.000
30.12648 262.000
30.14643 256.000
30.16638 248.000
30.18633 253.000
30.20627 211.000
30.22622 231.000
30.24617 218.000
30.26611 236.000
30.28606 216.000
30.30601 216.000
30.32595 235.000
30.34590 220.000
30.36585 227.000
30.38579 213.000
30.40574 252.000
30.42569 230.000
30.44564 208.000
30.46558 225.000
30.48553 203.000
30.50548 222.000
30.52542 190.000
30.54537 216.000
30.56532 210.000
30.58526 237.000
30.60521 263.000
30.62516 223.000
30.64511 226.000
30.66505 197.000
30.68500 238.000
30.70495 215.000
30.72489 221.000
30.74484 221.000
30.76479 212.000
30.78473 201.000
30.80468 201.000
30.82463 219.000
30.84458 198.000
30.86452 216.000
30.88447 215.000
30.90442 197.000
30.92436 228.000
30.94431 219.000
30.96426 238.000
30.98420 229.000
31.00415 234.000
31.02410 224.000
31.04404 234.000
31.06399 220.000
31.08394 248.000
31.10389 204.000
31.12383 229.000
31.14378 208.000
31.16373 239.000
31.18367 245.000
31.20362 202.000
31.22357 229.000
31.24351 205.000
31.26346 226.000
31.28341 192.000
31.30336 221.000
31.32330 174.000
31.34325 223.000
31.36320 229.000
31.38314 207.000
31.40309 240.000
31.42304 174.000
31.44298 210.000
31.46293 202.000
31.48288 249.000
31.50282 226.000
31.52277 213.000
31.54272 239.000
31.56267 222.000
31.58261 229.000
31.60256 206.000
31.62251 245.000
31.64245 206.000
31.66240 216.000
31.68235 193.000
31.70229 234.000
31.72224 257.000
31.74219 239.000
31.76214 248.000
31.78208 244.000
31.80203 278.000
31.82198 255.000
31.84192 290.000
31.86187 293.000
31.88182 237.000
31.90176 245.000
31.92171 236.000
31.94166 237.000
31.96160 254.000
31.98155 229.000
32.00150 187.000
32.02145 226.000
32.04139 212.000
32.06134 218.000
32.08129 196.000
32.10123 174.000
32.12118 222.000
32.14113 222.000
32.16107 209.000
32.18102 184.000
32.20097 199.000
32.22092 228.000
32.24086 224.000
32.26081 210.000
32.28076 248.000
32.30070 223.000
32.32065 242.000
32.34060 233.000
32.36054 227.000
32.38049 241.000
32.40044 220.000
32.42039 248.000
32.44033 256.000
32.46028 266.000
32.48023 259.000
32.50017 290.000
32.52012 298.000
32.54007 298.000
32.56001 287.000
32.57996 312.000
32.59991 290.000
32.61985 332.000
32.63980 258.000
32.65975 272.000
32.67970 300.000
32.69964 277.000
32.71959 261.000
32.73954 222.000
32.75948 235.000
32.77943 222.000
32.79938 226.000
32.81932 205.000
32.83927 232.000
32.85922 253.000
32.87917 265.000
32.89911 255.000
32.91906 268.000
32.93901 269.000
32.95895 244.000
32.97890 232.000
32.99885 216.000
33.01879 222.000
33.03874 235.000
33.05869 206.000
33.07863 216.000
33.09858 189.000
33.11853 239.000
33.13848 206.000
33.15842 220.000
33.17837 198.000
33.19832 244.000
33.21826 202.000
33.23821 218.000
33.25816 243.000
33.27810 248.000
33.29805 230.000
33.31800 202.000
33.33795 206.000
33.35789 199.000
33.37784 236.000
33.39779 231.000
33.41773 225.000
33.43768 224.000
33.45763 210.000
33.47757 227.000
33.49752 251.000
33.51747 209.000
33.53741 225.000
33.55736 216.000
33.57731 242.000
33.59726 266.000
33.61720 231.000
33.63715 240.000
33.65710 263.000
33.67704 266.000
33.69699 295.000
33.71694 349.000
33.73688 391.000
33.75683 368.000
33.77678 401.000
33.79673 382.000
33.81667 433.000
33.83662 479.000
33.85657 439.000
33.87651 427.000
33.89646 421.000
33.91641 456.000
33.93635 489.000
33.95630 478.000
33.97625 476.000
33.99620 474.000
34.01614 425.000
34.03609 410.000
34.05604 369.000
34.07598 391.000
34.09593 404.000
34.11588 377.000
34.13582 373.000
34.15577 379.000
34.17572 394.000
34.19566 408.000
34.21561 405.000
34.23556 458.000
34.25551 437.000
34.27545 424.000
34.29540 468.000
34.31535 436.000
34.33529 475.000
34.35524 403.000
34.37519 393.000
34.39513 378.000
34.41508 392.000
34.43503 410.000
34.45498 372.000
34.47492 344.000
34.49487 338.000
34.51482 338.000
34.53476 299.000
34.55471 299.000
34.57466 299.000
34.59460 294.000
34.61455 290.000
34.63450 273.000
34.65444 275.000
34.67439 258.000
34.69434 243.000
34.71429 243.000
34.73423 237.000
34.75418 248.000
34.77413 264.000
34.79407 247.000
34.81402 253.000
34.83397 262.000
34.85391 266.000
34.87386 243.000
34.89381 288.000
34.91376 282.000
34.93370 282.000
34.95365 262.000
34.97360 330.000
34.99354 241.000
35.01349 285.000
35.03344 309.000
35.05338 339.000
35.07333 382.000
35.09328 373.000
35.11322 421.000
35.13317 488.000
35.15312 590.000
35.17307 721.000
35.19301 1054.000
35.21296 1402.000
35.23291 1710.000
35.25285 2065.000
35.27280 2182.000
35.29275 1981.000
35.31269 1751.000
35.33264 1548.000
35.35259 1544.000
35.37254 1282.000
35.39248 1044.000
35.41243 876.000
35.43238 688.000
35.45232 594.000
35.47227 503.000
35.49222 476.000
35.51216 463.000
35.53211 415.000
35.55206 387.000
35.57201 350.000
35.59195 348.000
35.61190 325.000
35.63185 263.000
35.65179 271.000
35.67174 255.000
35.69169 267.000
35.71163 254.000
35.73158 243.000
35.75153 217.000
35.77147 238.000
35.79142 234.000
35.81137 237.000
35.83132 216.000
35.85126 243.000
35.87121 216.000
35.89116 218.000
35.91110 228.000
35.93105 246.000
35.95100 230.000
35.97094 223.000
35.99089 220.000
36.01084 214.000
36.03079 204.000
36.05073 193.000
36.07068 220.000
36.09063 236.000
36.11057 220.000
36.13052 217.000
36.15047 206.000
36.17041 217.000
36.19036 196.000
36.21031 214.000
36.23025 226.000
36.25020 229.000
36.27015 175.000
36.29010 209.000
36.31004 204.000
36.32999 210.000
36.34994 212.000
36.36988 210.000
36.38983 234.000
36.40978 230.000
36.42972 223.000
36.44967 239.000
36.46962 257.000
36.48957 252.000
36.50951 235.000
36.52946 228.000
36.54941 242.000
36.56935 266.000
36.58930 277.000
36.60925 275.000
36.62919 312.000
36.64914 265.000
36.66909 285.000
36.68903 270.000
36.70898 274.000
36.72893 265.000
36.74888 263.000
36.76882 272.000
36.78877 266.000
36.80872 258.000
36.82866 258.000
36.84861 319.000
36.86856 331.000
36.88850 419.000
36.90845 364.000
36.92840 316.000
36.94835 311.000
36.96829 278.000
36.98824 282.000
37.00819 288.000
37.02813 229.000
37.04808 219.000
37.06803 189.000
37.08797 179.000
37.10792 180.000
37.12787 180.000
37.14781 178.000
37.16776 205.000
37.18771 164.000
37.20766 180.000
37.22760 167.000
37.24755 188.000
37.26750 180.000
37.28744 191.000
37.30739 178.000
37.32734 185.000
37.34728 198.000
37.36723 178.000
37.38718 160.000
37.40713 195.000
37.42707 171.000
37.44702 174.000
37.46697 179.000
37.48691 163.000
37.50686 154.000
37.52681 173.000
37.54675 195.000
37.56670 197.000
37.58665 169.000
37.60660 161.000
37.62654 165.000
37.64649 169.000
37.66644 158.000
37.68638 190.000
37.70633 187.000
37.72628 166.000
37.74622 178.000
37.76617 166.000
37.78612 170.000
37.80606 155.000
37.82601 167.000
37.84596 183.000
37.86591 194.000
37.88585 177.000
37.90580 187.000
37.92575 175.000
37.94569 188.000
37.96564 174.000
37.98559 155.000
38.00553 193.000
38.02548 173.000
38.04543 181.000
38.06538 176.000
38.08532 175.000
38.10527 194.000
38.12522 199.000
38.14516 185.000
38.16511 196.000
38.18506 173.000
38.20500 170.000
38.22495 181.000
38.24490 173.000
38.26484 169.000
38.28479 171.000
38.30474 179.000
38.32469 201.000
38.34463 188.000
38.36458 191.000
38.38453 183.000
38.40447 198.000
38.42442 180.000
38.44437 194.000
38.46431 190.000
38.48426 187.000
38.50421 185.000
38.52416 155.000
38.54410 185.000
38.56405 195.000
38.58400 215.000
38.60394 211.000
38.62389 199.000
38.64384 197.000
38.66378 243.000
38.68373 247.000
38.70368 246.000
38.72362 242.000
38.74357 248.000
38.76352 245.000
38.78347 244.000
38.80341 244.000
38.82336 232.000
38.84331 224.000
38.86325 253.000
38.88320 256.000
38.90315 226.000
38.92309 260.000
38.94304 283.000
38.96299 249.000
38.98294 284.000
39.00288 220.000
39.02283 241.000
39.04278 234.000
39.06272 230.000
39.08267 243.000
39.10262 212.000
39.12256 215.000
39.14251 206.000
39.16246 188.000
39.18241 178.000
39.20235 199.000
39.22230 189.000
39.24225 177.000
39.26219 189.000
39.28214 171.000
39.30209 177.000
39.32203 165.000
39.34198 179.000
39.36193 177.000
39.38187 173.000
39.40182 146.000
39.42177 195.000
39.44172 178.000
39.46166 171.000
39.48161 152.000
39.50156 175.000
39.52150 161.000
39.54145 162.000
39.56140 167.000
39.58134 177.000
39.60129 157.000
39.62124 180.000
39.64119 189.000
39.66113 141.000
39.68108 175.000
39.70103 171.000
39.72097 227.000
39.74092 189.000
39.76087 181.000
39.78081 182.000
39.80076 152.000
39.82071 179.000
39.84065 179.000
39.86060 177.000
39.88055 181.000
39.90050 187.000
39.92044 202.000
39.94039 178.000
39.96034 171.000
39.98028 185.000
40.00023 181.000
40.02018 192.000
40.04012 162.000
40.06007 189.000
40.08002 189.000
40.09997 173.000
40.11991 170.000
40.13986 188.000
40.15981 159.000
40.17975 159.000
40.19970 178.000
40.21965 167.000
40.23959 142.000
40.25954 176.000
40.27949 151.000
40.29943 172.000
40.31938 183.000
40.33933 162.000
40.35928 184.000
40.37922 160.000
40.39917 168.000
40.41912 167.000
40.43906 188.000
40.45901 183.000
40.47896 195.000
40.49890 170.000
40.51885 175.000
40.53880 173.000
40.55875 192.000
40.57869 179.000
40.59864 186.000
40.61859 173.000
40.63853 194.000
40.65848 219.000
40.67843 172.000
40.69837 182.000
40.71832 167.000
40.73827 194.000
40.75822 199.000
40.77816 191.000
40.79811 182.000
40.81806 167.000
40.83800 184.000
40.85795 185.000
40.87790 189.000
40.89784 175.000
40.91779 174.000
40.93774 199.000
40.95768 191.000
40.97763 195.000
40.99758 192.000
41.01753 238.000
41.03747 197.000
41.05742 208.000
41.07737 223.000
41.09731 191.000
41.11726 211.000
41.13721 239.000
41.15715 232.000
41.17710 248.000
41.19705 248.000
41.21700 257.000
41.23694 281.000
41.25689 331.000
41.27684 370.000
41.29678 477.000
41.31673 525.000
41.33668 629.000
41.35662 615.000
41.37657 708.000
41.39652 772.000
41.41646 837.000
41.43641 765.000
41.45636 717.000
41.47631 619.000
41.49625 594.000
41.51620 542.000
41.53615 510.000
41.55609 418.000
41.57604 363.000
41.59599 295.000
41.61593 280.000
41.63588 246.000
41.65583 242.000
41.67578 223.000
41.69572 242.000
41.71567 218.000
41.73562 182.000
41.75556 226.000
41.77551 213.000
41.79546 194.000
41.81540 178.000
41.83535 184.000
41.85530 211.000
41.87524 195.000
41.89519 170.000
41.91514 179.000
41.93509 192.000
41.95503 192.000
41.97498 196.000
41.99493 202.000
42.01487 180.000
42.03482 178.000
42.05477 193.000
42.07471 176.000
42.09466 161.000
42.11461 204.000
42.13456 172.000
42.15450 182.000
42.17445 161.000
42.19440 211.000
42.21434 168.000
42.23429 200.000
42.25424 215.000
42.27418 171.000
42.29413 185.000
42.31408 200.000
42.33403 196.000
42.35397 196.000
42.37392 161.000
42.39387 191.000
42.41381 186.000
42.43376 214.000
42.45371 202.000
42.47365 197.000
42.49360 208.000
42.51355 179.000
42.53349 184.000
42.55344 187.000
42.57339 186.000
42.59334 203.000
42.61328 201.000
42.63323 207.000
42.65318 237.000
42.67312 176.000
42.69307 219.000
42.71302 257.000
42.73296 236.000
42.75291 301.000
42.77286 335.000
42.79281 387.000
42.81275 411.000
42.83270 489.000
42.85265 505.000
42.87259 549.000
42.89254 561.000
42.91249 534.000
42.93243 477.000
42.95238 453.000
42.97233 410.000
42.99227 398.000
43.01222 367.000
43.03217 349.000
43.05212 309.000
43.07206 251.000
43.09201 247.000
43.11196 229.000
43.13190 214.000
43.15185 216.000
43.17180 217.000
43.19174 201.000
43.21169 192.000
43.23164 179.000
43.25159 201.000
43.27153 199.000
43.29148 176.000
43.31143 188.000
43.33137 185.000
43.35132 171.000
43.37127 182.000
43.39121 172.000
43.41116 186.000
43.43111 187.000
43.45105 143.000
43.47100 148.000
43.49095 187.000
43.51090 177.000
43.53084 178.000
43.55079 151.000
43.57074 146.000
43.59068 154.000
43.61063 136.000
43.63058 173.000
43.65052 159.000
43.67047 158.000
43.69042 167.000
43.71037 166.000
43.73031 167.000
43.75026 151.000
43.77021 176.000
43.79015 142.000
43.81010 187.000
43.83005 167.000
43.84999 149.000
43.86994 153.000
43.88989 139.000
43.90984 154.000
43.92978 155.000
43.94973 137.000
43.96968 122.000
43.98962 167.000
44.00957 147.000
44.02952 142.000
44.04946 140.000
44.06941 145.000
44.08936 153.000
44.10930 178.000
44.12925 151.000
44.14920 180.000
44.16915 157.000
44.18909 157.000
44.20904 144.000
44.22899 151.000
44.24893 158.000
44.26888 128.000
44.28883 154.000
44.30877 162.000
44.32872 147.000
44.34867 137.000
44.36862 154.000
44.38856 141.000
44.40851 139.000
44.42846 138.000
44.44840 142.000
44.46835 155.000
44.48830 160.000
44.50824 132.000
44.52819 153.000
44.54814 169.000
44.56808 161.000
44.58803 167.000
44.60798 175.000
44.62793 167.000
44.64787 148.000
44.66782 153.000
44.68777 192.000
44.70771 169.000
44.72766 177.000
44.74761 169.000
44.76755 180.000
44.78750 157.000
44.80745 159.000
44.82740 156.000
44.84734 168.000
44.86729 157.000
44.88724 148.000
44.90718 132.000
44.92713 160.000
44.94708 144.000
44.96702 130.000
44.98697 134.000
45.00692 141.000
45.02686 144.000
45.04681 157.000
45.06676 133.000
45.08671 162.000
45.10665 114.000
45.12660 148.000
45.14655 147.000
45.16649 151.000
45.18644 150.000
45.20639 150.000
45.22633 145.000
45.24628 136.000
45.26623 149.000
45.28618 136.000
45.30612 130.000
45.32607 151.000
45.34602 144.000
45.36596 112.000
45.38591 152.000
45.40586 130.000
45.42580 127.000
45.44575 127.000
45.46570 150.000
45.48565 137.000
45.50559 129.000
45.52554 157.000
45.54549 141.000
45.56543 138.000
45.58538 140.000
45.60533 128.000
45.62527 137.000
45.64522 141.000
45.66517 143.000
45.68511 138.000
45.70506 153.000
45.72501 155.000
45.74496 127.000
45.76490 155.000
45.78485 150.000
45.80480 148.000
45.82474 127.000
45.84469 133.000
45.86464 125.000
45.88458 158.000
45.90453 137.000
45.92448 145.000
45.94443 144.000
45.96437 143.000
45.98432 136.000
46.00427 128.000
46.02421 135.000
46.04416 162.000
46.06411 133.000
46.08405 137.000
46.10400 157.000
46.12395 143.000
46.14389 140.000
46.16384 131.000
46.18379 141.000
46.20374 141.000
46.22368 131.000
46.24363 143.000
46.26358 143.000
46.28352 128.000
46.30347 120.000
46.32342 142.000
46.34336 148.000
46.36331 161.000
46.38326 109.000
46.40321 152.000
46.42315 134.000
46.44310 121.000
46.46305 127.000
46.48299 140.000
46.50294 164.000
46.52289 125.000
46.54283 124.000
46.56278 149.000
46.58273 148.000
46.60267 148.000
46.62262 131.000
46.64257 134.000
46.66252 144.000
46.68246 142.000
46.70241 154.000
46.72236 145.000
46.74230 137.000
46.76225 146.000
46.78220 139.000
46.80214 129.000
46.82209 162.000
46.84204 128.000
46.86199 141.000
46.88193 142.000
46.90188 149.000
46.92183 171.000
46.94177 146.000
46.96172 131.000
46.98167 141.000
47.00161 143.000
47.02156 138.000
47.04151 161.000
47.06146 158.000
47.08140 137.000
47.10135 142.000
47.12130 156.000
47.14124 143.000
47.16119 169.000
47.18114 123.000
47.20108 124.000
47.22103 139.000
47.24098 125.000
47.26092 127.000
47.28087 131.000
47.30082 135.000
47.32077 107.000
47.34071 139.000
47.36066 139.000
47.38061 141.000
47.40055 142.000
47.42050 128.000
47.44045 137.000
47.46039 102.000
47.48034 150.000
47.50029 128.000
47.52024 134.000
47.54018 127.000
47.56013 148.000
47.58008 115.000
47.60002 115.000
47.61997 137.000
47.63992 130.000
47.65986 145.000
47.67981 140.000
47.69976 122.000
47.71970 143.000
47.73965 146.000
47.75960 152.000
47.77955 135.000
47.79949 133.000
47.81944 139.000
47.83939 140.000
47.85933 148.000
47.87928 138.000
47.89923 139.000
47.91917 121.000
47.93912 131.000
47.95907 147.000
47.97902 125.000
47.99896 141.000
48.01891 146.000
48.03886 141.000
48.05880 146.000
48.07875 143.000
48.09870 138.000
48.11864 135.000
48.13859 147.000
48.15854 142.000
48.17848 156.000
48.19843 160.000
48.21838 158.000
48.23833 143.000
48.25827 170.000
48.27822 147.000
48.29817 201.000
48.31811 214.000
48.33806 168.000
48.35801 208.000
48.37795 202.000
48.39790 228.000
48.41785 194.000
48.43780 173.000
48.45774 206.000
48.47769 206.000
48.49764 187.000
48.51758 190.000
48.53753 196.000
48.55748 205.000
48.57742 187.000
48.59737 176.000
48.61732 173.000
48.63726 179.000
48.65721 156.000
48.67716 176.000
48.69711 172.000
48.71705 174.000
48.73700 188.000
48.75695 155.000
48.77689 166.000
48.79684 175.000
48.81679 145.000
48.83673 172.000
48.85668 170.000
48.87663 166.000
48.89658 175.000
48.91652 146.000
48.93647 150.000
48.95642 153.000
48.97636 162.000
48.99631 174.000
49.01626 142.000
49.03620 131.000
49.05615 133.000
49.07610 139.000
49.09605 169.000
49.11599 147.000
49.13594 152.000
49.15589 134.000
49.17583 143.000
49.19578 160.000
49.21573 159.000
49.23567 134.000
49.25562 150.000
49.27557 138.000
49.29551 149.000
49.31546 137.000
49.33541 143.000
49.35536 140.000
49.37530 152.000
49.39525 150.000
49.41520 172.000
49.43514 171.000
49.45509 143.000
49.47504 123.000
49.49498 158.000
49.51493 148.000
49.53488 141.000
49.55483 136.000
49.57477 138.000
49.59472 149.000
49.61467 128.000
49.63461 149.000
49.65456 136.000
49.67451 139.000
49.69445 112.000
49.71440 122.000
49.73435 122.000
49.75429 140.000
49.77424 165.000
49.79419 131.000
49.81414 150.000
49.83408 131.000
49.85403 135.000
49.87398 115.000
49.89392 135.000
49.91387 119.000
49.93382 141.000
49.95376 118.000
49.97371 126.000
49.99366 138.000
50.01361 136.000
50.03355 130.000
50.05350 131.000
50.07345 115.000
50.09339 151.000
50.11334 130.000
50.13329 132.000
50.15323 113.000
50.17318 122.000
50.19313 134.000
50.21307 129.000
50.23302 122.000
50.25297 128.000
50.27292 150.000
50.29286 131.000
50.31281 133.000
50.33276 140.000
50.35270 113.000
50.37265 137.000
50.39260 123.000
50.41254 130.000
50.43249 135.000
50.45244 146.000
50.47239 129.000
50.49233 124.000
50.51228 137.000
50.53223 139.000
50.55217 112.000
50.57212 116.000
50.59207 110.000
50.61201 126.000
50.63196 113.000
50.65191 117.000
50.67186 117.000
50.69180 126.000
50.71175 119.000
50.73170 117.000
50.75164 118.000
50.77159 127.000
50.79154 146.000
50.81148 124.000
50.83143 117.000
50.85138 125.000
50.87132 128.000
50.89127 154.000
50.91122 114.000
50.93117 116.000
50.95111 145.000
50.97106 104.000
50.99101 118.000
51.01095 114.000
51.03090 124.000
51.05085 118.000
51.07079 121.000
51.09074 120.000
51.11069 129.000
51.13064 111.000
51.15058 149.000
51.17053 113.000
51.19048 125.000
51.21042 111.000
51.23037 119.000
51.25032 129.000
51.27026 131.000
51.29021 116.000
51.31016 118.000
51.33010 148.000
51.35005 129.000
51.37000 128.000
51.38995 108.000
51.40989 137.000
51.42984 140.000
51.44979 117.000
51.46973 146.000
51.48968 133.000
51.50963 151.000
51.52957 137.000
51.54952 115.000
51.56947 124.000
51.58942 127.000
51.60936 129.000
51.62931 136.000
51.64926 127.000
51.66920 117.000
51.68915 102.000
51.70910 115.000
51.72904 128.000
51.74899 117.000
51.76894 102.000
51.78888 156.000
51.80883 141.000
51.82878 131.000
51.84873 109.000
51.86867 118.000
51.88862 146.000
51.90857 129.000
51.92851 127.000
51.94846 124.000
51.96841 130.000
51.98835 131.000
52.00830 102.000
52.02825 135.000
52.04820 114.000
52.06814 120.000
52.08809 134.000
52.10804 130.000
52.12798 124.000
52.14793 143.000
52.16788 140.000
52.18782 105.000
52.20777 116.000
52.22772 118.000
52.24767 132.000
52.26761 112.000
52.28756 127.000
52.30751 120.000
52.32745 127.000
52.34740 140.000
52.36735 124.000
52.38729 120.000
52.40724 129.000
52.42719 144.000
52.44713 136.000
52.46708 130.000
52.48703 143.000
52.50698 129.000
52.52692 156.000
52.54687 155.000
52.56682 153.000
52.58676 163.000
52.60671 170.000
52.62666 163.000
52.64660 188.000
52.66655 189.000
52.68650 187.000
52.70645 208.000
52.72639 230.000
52.74634 201.000
52.76629 217.000
52.78623 218.000
52.80618 203.000
52.82613 199.000
52.84607 197.000
52.86602 206.000
52.88597 178.000
52.90591 153.000
52.92586 148.000
52.94581 197.000
52.96576 197.000
52.98570 184.000
53.00565 178.000
53.02560 161.000
53.04554 175.000
53.06549 181.000
53.08544 202.000
53.10538 204.000
53.12533 226.000
53.14528 220.000
53.16523 254.000
53.18517 247.000
53.20512 233.000
53.22507 206.000
53.24501 196.000
53.26496 228.000
53.28491 179.000
53.30485 195.000
53.32480 229.000
53.34475 169.000
53.36469 158.000
53.38464 184.000
53.40459 163.000
53.42454 152.000
53.44448 142.000
53.46443 143.000
53.48438 159.000
53.50432 157.000
53.52427 133.000
53.54422 133.000
53.56416 110.000
53.58411 141.000
53.60406 137.000
53.62401 126.000
53.64395 139.000
53.66390 137.000
53.68385 120.000
53.70379 135.000
53.72374 147.000
53.74369 138.000
53.76363 127.000
53.78358 138.000
53.80353 133.000
53.82348 149.000
53.84342 140.000
53.86337 133.000
53.88332 150.000
53.90326 129.000
53.92321 137.000
53.94316 147.000
53.96310 104.000
53.98305 126.000
54.00300 125.000
54.02294 137.000
54.04289 145.000
54.06284 135.000
54.08279 136.000
54.10273 129.000
54.12268 118.000
54.14263 120.000
54.16257 125.000
54.18252 145.000
54.20247 129.000
54.22241 151.000
54.24236 105.000
54.26231 119.000
54.28226 131.000
54.30220 133.000
54.32215 130.000
54.34210 108.000
54.36204 112.000
54.38199 131.000
54.40194 136.000
54.42188 133.000
54.44183 123.000
54.46178 134.000
54.48172 131.000
54.50167 121.000
54.52162 137.000
54.54157 117.000
54.56151 114.000
54.58146 110.000
54.60141 145.000
54.62135 116.000
54.64130 129.000
54.66125 134.000
54.68119 146.000
54.70114 122.000
54.72109 116.000
54.74104 133.000
54.76098 154.000
54.78093 130.000
54.80088 109.000
54.82082 119.000
54.84077 94.000
54.86072 140.000
54.88066 98.000
54.90061 127.000
54.92056 110.000
54.94050 114.000
54.96045 115.000
54.98040 111.000
55.00035 122.000
55.02029 131.000
55.04024 116.000
55.06019 139.000
55.08013 124.000
55.10008 107.000
55.12003 114.000
55.13997 126.000
55.15992 127.000
55.17987 127.000
55.19982 127.000
55.21976 116.000
55.23971 136.000
55.25966 141.000
55.27960 105.000
55.29955 102.000
55.31950 135.000
55.33944 119.000
55.35939 141.000
55.37934 127.000
55.39929 130.000
55.41923 107.000
55.43918 123.000
55.45913 117.000
55.47907 146.000
55.49902 116.000
55.51897 132.000
55.53891 145.000
55.55886 109.000
55.57881 137.000
55.59875 126.000
55.61870 117.000
55.63865 106.000
55.65860 141.000
55.67854 130.000
55.69849 128.000
55.71844 122.000
55.73838 114.000
55.75833 124.000
55.77828 120.000
55.79822 127.000
55.81817 134.000
55.83812 119.000
55.85807 122.000
55.87801 138.000
55.89796 128.000
55.91791 124.000
55.93785 128.000
55.95780 144.000
55.97775 135.000
55.99769 118.000
56.01764 138.000
56.03759 130.000
56.05753 133.000
56.07748 138.000
56.09743 153.000
56.11738 157.000
56.13732 129.000
56.15727 147.000
56.17722 116.000
56.19716 161.000
56.21711 138.000
56.23706 147.000
56.25700 142.000
56.27695 161.000
56.29690 149.000
56.31685 155.000
56.33679 142.000
56.35674 172.000
56.37669 146.000
56.39663 158.000
56.41658 167.000
56.43653 199.000
56.45647 192.000
56.47642 215.000
56.49637 218.000
56.51631 206.000
56.53626 217.000
56.55621 274.000
56.57616 289.000
56.59610 351.000
56.61605 397.000
56.63600 470.000
56.65594 501.000
56.67589 522.000
56.69584 518.000
56.71578 527.000
56.73573 456.000
56.75568 432.000
56.77563 391.000
56.79557 393.000
56.81552 343.000
56.83547 373.000
56.85541 372.000
56.87536 295.000
56.89531 283.000
56.91525 230.000
56.93520 240.000
56.95515 203.000
56.97510 204.000
56.99504 185.000
57.01499 166.000
57.03494 156.000
57.05488 158.000
57.07483 152.000
57.09478 168.000
57.11472 163.000
57.13467 153.000
57.15462 162.000
57.17456 157.000
57.19451 191.000
57.21446 175.000
57.23441 164.000
57.25435 201.000
57.27430 199.000
57.29425 210.000
57.31419 214.000
57.33414 181.000
57.35409 219.000
57.37403 201.000
57.39398 187.000
57.41393 196.000
57.43388 199.000
57.45382 194.000
57.47377 206.000
57.49372 225.000
57.51366 206.000
57.53361 189.000
57.55356 166.000
57.57350 157.000
57.59345 161.000
57.61340 172.000
57.63334 152.000
57.65329 151.000
57.67324 153.000
57.69319 161.000
57.71313 149.000
57.73308 141.000
57.75303 142.000
57.77297 133.000
57.79292 119.000
57.81287 119.000
57.83281 137.000
57.85276 134.000
57.87271 138.000
57.89266 137.000
57.91260 128.000
57.93255 139.000
57.95250 117.000
57.97244 110.000
57.99239 112.000
58.01234 122.000
58.03228 133.000
58.05223 112.000
58.07218 121.000
58.09212 121.000
58.11207 119.000
58.13202 135.000
58.15197 118.000
58.17191 133.000
58.19186 126.000
58.21181 120.000
58.23175 138.000
58.25170 111.000
58.27165 149.000
58.29159 113.000
58.31154 129.000
58.33149 115.000
58.35144 114.000
58.37138 132.000
58.39133 142.000
58.41128 127.000
58.43122 132.000
58.45117 122.000
58.47112 105.000
58.49106 108.000
58.51101 134.000
58.53096 112.000
58.55090 132.000
58.57085 127.000
58.59080 127.000
58.61075 118.000
58.63069 129.000
58.65064 128.000
58.67059 122.000
58.69053 130.000
58.71048 122.000
58.73043 102.000
58.75037 101.000
58.77032 115.000
58.79027 119.000
58.81022 135.000
58.83016 145.000
58.85011 120.000
58.87006 116.000
58.89000 121.000
58.90995 135.000
58.92990 117.000
58.94984 111.000
58.96979 122.000
58.98974 112.000
59.00969 134.000
59.02963 117.000
59.04958 132.000
59.06953 99.000
59.08947 113.000
59.10942 123.000
59.12937 124.000
59.14931 120.000
59.16926 136.000
59.18921 122.000
59.20915 115.000
59.22910 126.000
59.24905 120.000
59.26900 107.000
59.28894 117.000
59.30889 122.000
59.32884 113.000
59.34878 107.000
59.36873 140.000
59.38868 134.000
59.40862 114.000
59.42857 121.000
59.44852 124.000
59.46847 127.000
59.48841 135.000
59.50836 112.000
59.52831 119.000
59.54825 99.000
59.56820 98.000
59.58815 126.000
59.60809 103.000
59.62804 117.000
59.64799 123.000
59.66793 134.000
59.68788 134.000
59.70783 128.000
59.72778 130.000
59.74772 102.000
59.76767 128.000
59.78762 106.000
59.80756 132.000
59.82751 117.000
59.84746 134.000
59.86740 117.000
59.88735 129.000
59.90730 116.000
59.92725 135.000
59.94719 144.000
59.96714 105.000
59.98709 103.000
60.00703 111.000
60.02698 137.000
60.04693 123.000
60.06687 126.000
60.08682 130.000
60.10677 130.000
60.12671 137.000
60.14666 152.000
60.16661 138.000
60.18656 130.000
60.20650 114.000
60.22645 122.000
60.24640 132.000
60.26634 161.000
60.28629 140.000
60.30624 137.000
60.32618 138.000
60.34613 167.000
60.36608 126.000
60.38603 160.000
60.40597 145.000
60.42592 140.000
60.44587 152.000
60.46581 154.000
60.48576 173.000
60.50571 173.000
60.52565 152.000
60.54560 143.000
60.56555 162.000
60.58550 163.000
60.60544 152.000
60.62539 183.000
60.64534 132.000
60.66528 157.000
60.68523 178.000
60.70518 176.000
60.72512 171.000
60.74507 176.000
60.76502 132.000
60.78496 148.000
60.80491 178.000
60.82486 152.000
60.84481 155.000
60.86475 171.000
60.88470 154.000
60.90465 151.000
60.92459 140.000
60.94454 151.000
60.96449 153.000
60.98443 161.000
61.00438 163.000
61.02433 154.000
61.04428 156.000
61.06422 148.000
61.08417 148.000
61.10412 170.000
61.12406 147.000
61.14401 152.000
61.16396 142.000
61.18390 178.000
61.20385 178.000
61.22380 163.000
61.24374 179.000
61.26369 185.000
61.28364 166.000
61.30359 161.000
61.32353 153.000
61.34348 168.000
61.36343 187.000
61.38337 166.000
61.40332 178.000
61.42327 175.000
61.44321 208.000
61.46316 183.000
61.48311 243.000
61.50306 240.000
61.52300 212.000
61.54295 216.000
61.56290 210.000
61.58284 219.000
61.60279 216.000
61.62274 237.000
61.64268 226.000
61.66263 203.000
61.68258 203.000
61.70252 217.000
61.72247 214.000
61.74242 195.000
61.76237 192.000
61.78231 196.000
61.80226 212.000
61.82221 199.000
61.84215 219.000
61.86210 191.000
61.88205 203.000
61.90199 218.000
61.92194 188.000
61.94189 199.000
61.96184 230.000
61.98178 214.000
62.00173 223.000
62.02168 246.000
62.04162 241.000
62.06157 263.000
62.08152 273.000
62.10146 292.000
62.12141 349.000
62.14136 387.000
62.16131 424.000
62.18125 505.000
62.20120 602.000
62.22115 615.000
62.24109 653.000
62.26104 626.000
62.28099 570.000
62.30093 533.000
62.32088 491.000
62.34083 476.000
62.36077 461.000
62.38072 446.000
62.40067 414.000
62.42062 427.000
62.44056 373.000
62.46051 371.000
62.48046 310.000
62.50040 272.000
62.52035 270.000
62.54030 241.000
62.56024 211.000
62.58019 206.000
62.60014 216.000
62.62009 192.000
62.64003 161.000
62.65998 202.000
62.67993 177.000
62.69987 198.000
62.71982 174.000
62.73977 152.000
62.75971 196.000
62.77966 183.000
62.79961 185.000
62.81955 167.000
62.83950 194.000
62.85945 143.000
62.87940 159.000
62.89934 172.000
62.91929 147.000
62.93924 147.000
62.95918 133.000
62.97913 136.000
62.99908 151.000
63.01902 140.000
63.03897 137.000
63.05892 139.000
63.07887 125.000
63.09881 141.000
63.11876 144.000
63.13871 141.000
63.15865 126.000
63.17860 111.000
63.19855 121.000
63.21849 121.000
63.23844 113.000
63.25839 106.000
63.27833 132.000
63.29828 125.000
63.31823 122.000
63.33818 137.000
63.35812 117.000
63.37807 111.000
63.39802 121.000
63.41796 128.000
63.43791 118.000
63.45786 163.000
63.47780 117.000
63.49775 130.000
63.51770 123.000
63.53765 137.000
63.55759 121.000
63.57754 121.000
63.59749 155.000
63.61743 130.000
63.63738 120.000
63.65733 139.000
63.67727 144.000
63.69722 136.000
63.71717 123.000
63.73712 137.000
63.75706 110.000
63.77701 124.000
63.79696 119.000
63.81690 117.000
63.83685 107.000
63.85680 134.000
63.87674 114.000
63.89669 109.000
63.91664 135.000
63.93658 108.000
63.95653 112.000
63.97648 104.000
63.99643 116.000
64.01637 95.000
64.03632 96.000
64.05627 124.000
64.07621 124.000
64.09616 109.000
64.11611 108.000
64.13605 104.000
64.15600 98.000
64.17595 119.000
64.19590 125.000
64.21584 120.000
64.23579 116.000
64.25574 127.000
64.27568 115.000
64.29563 127.000
64.31558 101.000
64.33552 116.000
64.35547 99.000
64.37542 119.000
64.39536 109.000
64.41531 138.000
64.43526 105.000
64.45521 121.000
64.47515 149.000
64.49510 104.000
64.51505 120.000
64.53499 143.000
64.55494 118.000
64.57489 122.000
64.59483 116.000
64.61478 107.000
64.63473 106.000
64.65468 129.000
64.67462 127.000
64.69457 125.000
64.71452 122.000
64.73446 121.000
64.75441 137.000
64.77436 137.000
64.79430 127.000
64.81425 126.000
64.83420 132.000
64.85414 107.000
64.87409 141.000
64.89404 130.000
64.91399 123.000
64.93393 144.000
64.95388 142.000
64.97383 136.000
64.99377 155.000
65.01372 137.000
65.03367 141.000
65.05361 144.000
65.07356 141.000
65.09351 157.000
65.11346 151.000
65.13340 171.000
65.15335 159.000
65.17330 154.000
65.19324 140.000
65.21319 158.000
65.23314 150.000
65.25308 157.000
65.27303 136.000
65.29298 148.000
65.31293 160.000
65.33287 134.000
65.35282 143.000
65.37277 144.000
65.39271 151.000
65.41266 161.000
65.43261 150.000
65.45255 147.000
65.47250 132.000
65.49245 128.000
65.51239 140.000
65.53234 165.000
65.55229 122.000
65.57224 157.000
65.59218 138.000
65.61213 152.000
65.63208 135.000
65.65202 136.000
65.67197 159.000
65.69192 130.000
65.71186 135.000
65.73181 142.000
65.75176 150.000
65.77171 119.000
65.79165 135.000
65.81160 140.000
65.83155 124.000
65.85149 138.000
65.87144 134.000
65.89139 126.000
65.91133 131.000
65.93128 125.000
65.95123 122.000
65.97117 131.000
65.99112 121.000
66.01107 136.000
66.03102 130.000
66.05096 153.000
66.07091 130.000
66.09086 123.000
66.11080 126.000
66.13075 119.000
66.15070 129.000
66.17064 130.000
66.19059 133.000
66.21054 114.000
66.23049 119.000
66.25043 142.000
66.27038 117.000
66.29033 117.000
66.31027 126.000
66.33022 129.000
66.35017 150.000
66.37011 144.000
66.39006 123.000
66.41001 121.000
66.42995 129.000
66.44990 98.000
66.46985 107.000
66.48980 122.000
66.50974 99.000
66.52969 116.000
66.54964 116.000
66.56958 115.000
66.58953 124.000
66.60948 99.000
66.62942 110.000
66.64937 116.000
66.66932 108.000
66.68927 118.000
66.70921 112.000
66.72916 118.000
66.74911 124.000
66.76905 111.000
66.78900 126.000
66.80895 126.000
66.82889 120.000
66.84884 103.000
66.86879 113.000
66.88874 104.000
66.90868 109.000
66.92863 105.000
66.94858 105.000
66.96852 109.000
66.98847 100.000
67.00842 94.000
67.02836 122.000
67.04831 120.000
67.06826 105.000
67.08820 133.000
67.10815 131.000
67.12810 107.000
67.14805 103.000
67.16799 106.000
67.18794 134.000
67.20789 108.000
67.22783 119.000
67.24778 130.000
67.26773 107.000
67.28767 126.000
67.30762 127.000
67.32757 109.000
67.34752 130.000
67.36746 109.000
67.38741 141.000
67.40736 125.000
67.42730 124.000
67.44725 134.000
67.46720 122.000
67.48714 128.000
67.50709 129.000
67.52704 112.000
67.54698 128.000
67.56693 138.000
67.58688 137.000
67.60683 117.000
67.62677 121.000
67.64672 131.000
67.66667 129.000
67.68661 142.000
67.70656 112.000
67.72651 134.000
67.74645 131.000
67.76640 148.000
67.78635 116.000
67.80630 128.000
67.82624 121.000
67.84619 175.000
67.86614 127.000
67.88608 129.000
67.90603 137.000
67.92598 134.000
67.94592 122.000
67.96587 115.000
67.98582 128.000
68.00576 113.000
68.02571 124.000
68.04566 139.000
68.06561 129.000
68.08555 120.000
68.10550 140.000
68.12545 129.000
68.14539 120.000
68.16534 124.000
68.18529 118.000
68.20523 121.000
68.22518 114.000
68.24513 108.000
68.26508 99.000
68.28502 127.000
68.30497 111.000
68.32492 120.000
68.34486 119.000
68.36481 100.000
68.38476 94.000
68.40470 115.000
68.42465 86.000
68.44460 88.000
68.46455 117.000
68.48449 106.000
68.50444 120.000
68.52439 123.000
68.54433 111.000
68.56428 108.000
68.58423 111.000
68.60417 125.000
68.62412 113.000
68.64407 100.000
68.66401 105.000
68.68396 91.000
68.70391 123.000
68.72386 130.000
68.74380 94.000
68.76375 97.000
68.78370 114.000
68.80364 84.000
68.82359 113.000
68.84354 88.000
68.86348 105.000
68.88343 116.000
68.90338 91.000
68.92333 109.000
68.94327 106.000
68.96322 112.000
68.98317 117.000
69.00311 117.000
69.02306 115.000
69.04301 108.000
69.06295 127.000
69.08290 113.000
69.10285 106.000
69.12279 129.000
69.14274 105.000
69.16269 104.000
69.18264 91.000
69.20258 103.000
69.22253 105.000
69.24248 97.000
69.26242 115.000
69.28237 92.000
69.30232 109.000
69.32226 110.000
69.34221 101.000
69.36216 99.000
69.38211 97.000
69.40205 134.000
69.42200 108.000
69.44195 119.000
69.46189 96.000
69.48184 104.000
69.50179 119.000
69.52173 115.000
69.54168 98.000
69.56163 97.000
69.58157 100.000
69.60152 95.000
69.62147 107.000
69.64142 109.000
69.66136 119.000
69.68131 90.000
69.70126 101.000
69.72120 104.000
69.74115 109.000
69.76110 91.000
69.78104 106.000
69.80099 111.000
69.82094 115.000
69.84089 97.000
69.86083 87.000
69.88078 118.000
69.90073 116.000
69.92067 99.000
69.94062 99.000
69.96057 89.000
69.98051 114.000
70.00046 110.000
70.02041 120.000
70.04035 110.000
70.06030 99.000
70.08025 95.000
70.10020 131.000
70.12014 91.000
70.14009 105.000
70.16004 114.000
70.17998 98.000
70.19993 101.000
70.21988 100.000
70.23982 113.000
70.25977 123.000
70.27972 117.000
70.29967 110.000
70.31961 111.000
70.33956 115.000
70.35951 107.000
70.37945 125.000
70.39940 120.000
70.41935 108.000
70.43929 124.000
70.45924 105.000
70.47919 117.000
70.49914 126.000
70.51908 121.000
70.53903 148.000
70.55898 117.000
70.57892 141.000
70.59887 124.000
70.61882 133.000
70.63876 124.000
70.65871 151.000
70.67866 141.000
70.69860 132.000
70.71855 121.000
70.73850 123.000
70.75845 123.000
70.77839 102.000
70.79834 126.000
70.81829 128.000
70.83823 115.000
70.85818 100.000
70.87813 108.000
70.89807 122.000
70.91802 94.000
70.93797 97.000
70.95792 107.000
70.97786 99.000
70.99781 101.000
71.01776 101.000
71.03770 113.000
71.05765 105.000
71.07760 108.000
71.09754 98.000
71.11749 102.000
71.13744 98.000
71.15738 111.000
71.17733 107.000
71.19728 105.000
71.21723 109.000
71.23717 110.000
71.25712 113.000
71.27707 89.000
71.29701 106.000
71.31696 105.000
71.33691 93.000
71.35685 99.000
71.37680 127.000
71.39675 115.000
71.41670 104.000
71.43664 121.000
71.45659 124.000
71.47654 104.000
71.49648 115.000
71.51643 106.000
71.53638 114.000
71.55632 99.000
71.57627 100.000
71.59622 107.000
71.61616 109.000
71.63611 117.000
71.65606 105.000
71.67601 118.000
71.69595 117.000
71.71590 110.000
71.73585 107.000
71.75579 103.000
71.77574 101.000
71.79569 112.000
71.81563 118.000
71.83558 116.000
71.85553 104.000
71.87548 115.000
71.89542 102.000
71.91537 98.000
71.93532 104.000
71.95526 121.000
71.97521 118.000
71.99516 107.000
72.01510 119.000
72.03505 106.000
72.05500 126.000
72.07495 138.000
72.09489 113.000
72.11484 100.000
72.13479 131.000
72.15473 144.000
72.17468 105.000
72.19463 114.000
72.21457 146.000
72.23452 134.000
72.25447 143.000
72.27441 127.000
72.29436 125.000
72.31431 132.000
72.33426 141.000
72.35420 147.000
72.37415 136.000
72.39410 124.000
72.41404 134.000
72.43399 142.000
72.45394 134.000
72.47388 139.000
72.49383 130.000
72.51378 142.000
72.53373 149.000
72.55367 135.000
72.57362 140.000
72.59357 142.000
72.61351 134.000
72.63346 124.000
72.65341 143.000
72.67335 103.000
72.69330 129.000
72.71325 121.000
72.73319 120.000
72.75314 133.000
72.77309 101.000
72.79304 125.000
72.81298 123.000
72.83293 125.000
72.85288 107.000
72.87282 122.000
72.89277 137.000
72.91272 120.000
72.93266 157.000
72.95261 115.000
72.97256 116.000
72.99251 116.000
73.01245 112.000
73.03240 139.000
73.05235 135.000
73.07229 132.000
73.09224 134.000
73.11219 142.000
73.13213 135.000
73.15208 119.000
73.17203 149.000
73.19197 122.000
73.21192 122.000
73.23187 120.000
73.25182 133.000
73.27176 128.000
73.29171 132.000
73.31166 133.000
73.33160 111.000
73.35155 122.000
73.37150 133.000
73.39144 118.000
73.41139 135.000
73.43134 139.000
73.45129 150.000
73.47123 162.000
73.49118 172.000
73.51113 176.000
73.53107 161.000
73.55102 194.000
73.57097 178.000
73.59091 213.000
73.61086 206.000
73.63081 198.000
73.65076 177.000
73.67070 181.000
73.69065 167.000
73.71060 180.000
73.73054 175.000
73.75049 173.000
73.77044 175.000
73.79038 168.000
73.81033 167.000
73.83028 145.000
73.85022 167.000
73.87017 153.000
73.89012 151.000
73.91007 147.000
73.93001 132.000
73.94996 142.000
73.96991 139.000
73.98985 121.000
74.00980 120.000
74.02975 123.000
74.04969 115.000
74.06964 100.000
74.08959 114.000
74.10954 113.000
74.12948 106.000
74.14943 115.000
74.16938 125.000
74.18932 127.000
74.20927 121.000
74.22922 122.000
74.24916 113.000
74.26911 101.000
74.28906 118.000
74.30900 107.000
74.32895 113.000
74.34890 111.000
74.36885 122.000
74.38879 131.000
74.40874 123.000
74.42869 121.000
74.44863 115.000
74.46858 120.000
74.48853 118.000
74.50847 130.000
74.52842 142.000
74.54837 156.000
74.56832 148.000
74.58826 136.000
74.60821 138.000
74.62816 144.000
74.64810 144.000
74.66805 125.000
74.68800 124.000
74.70794 141.000
74.72789 129.000
74.74784 148.000
74.76778 135.000
74.78773 150.000
74.80768 156.000
74.82763 157.000
74.84757 135.000
74.86752 119.000
74.88747 123.000
74.90741 145.000
74.92736 108.000
74.94731 118.000
74.96725 109.000
74.98720 115.000
75.00715 128.000
75.02710 121.000
75.04704 106.000
75.06699 120.000
75.08694 130.000
75.10688 119.000
75.12683 104.000
75.14678 137.000
75.16672 141.000
75.18667 116.000
75.20662 99.000
75.22657 104.000
75.24651 109.000
75.26646 113.000
75.28641 92.000
75.30635 111.000
75.32630 131.000
75.34625 117.000
75.36619 122.000
75.38614 116.000
75.40609 100.000
75.42603 75.000
75.44598 101.000
75.46593 104.000
75.48588 103.000
75.50582 104.000
75.52577 113.000
75.54572 110.000
75.56566 95.000
75.58561 129.000
75.60556 93.000
75.62550 111.000
75.64545 82.000
75.66540 96.000
75.68535 123.000
75.70529 112.000
75.72524 100.000
75.74519 106.000
75.76513 88.000
75.78508 107.000
75.80503 98.000
75.82497 87.000
75.84492 114.000
75.86487 93.000
75.88481 99.000
75.90476 101.000
75.92471 89.000
75.94466 91.000
75.96460 103.000
75.98455 98.000
76.00450 113.000
76.02444 114.000
76.04439 102.000
76.06434 93.000
76.08428 94.000
76.10423 118.000
76.12418 100.000
76.14413 101.000
76.16407 107.000
76.18402 97.000
76.20397 101.000
76.22391 115.000
76.24386 108.000
76.26381 117.000
76.28375 100.000
76.30370 107.000
76.32365 90.000
76.34359 110.000
76.36354 109.000
76.38349 87.000
76.40344 97.000
76.42338 110.000
76.44333 105.000
76.46328 107.000
76.48322 84.000
76.50317 111.000
76.52312 114.000
76.54306 106.000
76.56301 98.000
76.58296 90.000
76.60291 107.000
76.62285 108.000
76.64280 105.000
76.66275 93.000
76.68269 105.000
76.70264 97.000
76.72259 112.000
76.74253 92.000
76.76248 95.000
76.78243 98.000
76.80238 120.000
76.82232 113.000
76.84227 89.000
76.86222 94.000
76.88216 100.000
76.90211 109.000
76.92206 105.000
76.94200 88.000
76.96195 109.000
76.98190 117.000
77.00184 107.000
77.02179 110.000
77.04174 96.000
77.06169 113.000
77.08163 99.000
77.10158 115.000
77.12153 116.000
77.14147 112.000
77.16142 96.000
77.18137 106.000
77.20131 119.000
77.22126 111.000
77.24121 87.000
77.26116 98.000
77.28110 111.000
77.30105 114.000
77.32100 101.000
77.34094 97.000
77.36089 126.000
77.38084 128.000
77.40078 114.000
77.42073 104.000
77.44068 114.000
77.46062 121.000
77.48057 129.000
77.50052 110.000
77.52047 124.000
77.54041 121.000
77.56036 108.000
77.58031 111.000
77.60025 98.000
77.62020 111.000
77.64015 119.000
77.66009 125.000
77.68004 122.000
77.69999 118.000
77.71994 131.000
77.73988 111.000
77.75983 137.000
77.77978 114.000
77.79972 98.000
77.81967 131.000
77.83962 134.000
77.85956 143.000
77.87951 124.000
77.89946 133.000
77.91940 111.000
77.93935 127.000
77.95930 99.000
77.97925 120.000
77.99919 127.000
78.01914 133.000
78.03909 129.000
78.05903 124.000
78.07898 138.000
78.09893 120.000
78.11887 106.000
78.13882 113.000
78.15877 122.000
78.17872 131.000
78.19866 120.000
78.21861 115.000
78.23856 115.000
78.25850 108.000
78.27845 110.000
78.29840 131.000
78.31834 104.000
78.33829 122.000
78.35824 109.000
78.37819 121.000
78.39813 104.000
78.41808 109.000
78.43803 102.000
78.45797 126.000
78.47792 116.000
78.49787 162.000
78.51781 144.000
78.53776 139.000
78.55771 120.000
78.57765 158.000
78.59760 139.000
78.61755 130.000
78.63750 120.000
78.65744 115.000
78.67739 117.000
78.69734 120.000
78.71728 107.000
78.73723 129.000
78.75718 111.000
78.77712 104.000
78.79707 128.000
78.81702 104.000
78.83697 119.000
78.85691 99.000
78.87686 110.000
78.89681 100.000
78.91675 107.000
78.93670 98.000
78.95665 102.000
78.97659 104.000
78.99654 92.000
79.01649 114.000
79.03643 103.000
79.05638 90.000
79.07633 104.000
79.09628 95.000
79.11622 98.000
79.13617 104.000
79.15612 95.000
79.17606 109.000
79.19601 93.000
79.21596 120.000
79.23590 96.000
79.25585 87.000
79.27580 109.000
79.29575 91.000
79.31569 105.000
79.33564 90.000
79.35559 106.000
79.37553 95.000
79.39548 93.000
79.41543 101.000
79.43537 99.000
79.45532 95.000
79.47527 85.000
79.49521 120.000
79.51516 107.000
79.53511 93.000
79.55506 106.000
79.57500 93.000
79.59495 97.000
79.61490 114.000
79.63484 103.000
79.65479 108.000
79.67474 94.000
79.69468 100.000
79.71463 108.000
79.73458 103.000
79.75453 113.000
79.77447 103.000
79.79442 111.000
79.81437 109.000
79.83431 104.000
79.85426 91.000
79.87421 90.000
79.89415 108.000
79.91410 97.000
79.93405 110.000
79.95399 108.000
79.97394 91.000
79.99389 109.000
80.01384 96.000
80.03378 105.000
80.05373 108.000
80.07368 94.000
80.09362 99.000
80.11357 108.000
80.13352 98.000
80.15346 109.000
80.17341 105.000
80.19336 91.000
80.21331 84.000
80.23325 105.000
80.25320 102.000
80.27315 104.000
80.29309 90.000
80.31304 104.000
80.33299 95.000
80.35293 106.000
80.37288 92.000
80.39283 87.000
80.41278 92.000
80.43272 101.000
80.45267 104.000
80.47262 78.000
80.49256 114.000
80.51251 106.000
80.53246 101.000
80.55240 105.000
80.57235 96.000
80.59230 85.000
80.61224 84.000
80.63219 94.000
80.65214 95.000
80.67209 104.000
80.69203 92.000
80.71198 99.000
80.73193 90.000
80.75187 102.000
80.77182 115.000
80.79177 95.000
80.81171 105.000
80.83166 88.000
80.85161 91.000
80.87156 113.000
80.89150 109.000
80.91145 97.000
80.93140 84.000
80.95134 106.000
80.97129 106.000
80.99124 112.000
81.01118 103.000
81.03113 124.000
81.05108 94.000
81.07102 108.000
81.09097 100.000
81.11092 111.000
81.13087 103.000
81.15081 112.000
81.17076 106.000
81.19071 107.000
81.21065 100.000
81.23060 109.000
81.25055 91.000
81.27049 97.000
81.29044 122.000
81.31039 107.000
81.33034 101.000
81.35028 121.000
81.37023 99.000
81.39018 118.000
81.41012 100.000
81.43007 111.000
81.45002 105.000
81.46996 106.000
81.48991 115.000
81.50986 99.000
81.52980 112.000
81.54975 122.000
81.56970 107.000
81.58965 106.000
81.60959 112.000
81.62954 111.000
81.64949 103.000
81.66943 111.000
81.68938 100.000
81.70933 119.000
81.72927 119.000
81.74922 110.000
81.76917 107.000
81.78912 97.000
81.80906 103.000
81.82901 106.000
81.84896 103.000
81.86890 98.000
81.88885 102.000
81.90880 109.000
81.92874 112.000
81.94869 108.000
81.96864 106.000
81.98859 102.000
82.00853 100.000
82.02848 95.000
82.04843 85.000
82.06837 98.000
82.08832 95.000
82.10827 100.000
82.12821 117.000
82.14816 115.000
82.16811 100.000
82.18805 111.000
82.20800 103.000
82.22795 97.000
82.24790 98.000
82.26784 116.000
82.28779 100.000
82.30774 100.000
82.32768 127.000
82.34763 90.000
82.36758 112.000
82.38752 102.000
82.40747 118.000
82.42742 117.000
82.44737 106.000
82.46731 113.000
82.48726 99.000
82.50721 94.000
82.52715 108.000
82.54710 87.000
82.56705 110.000
82.58699 102.000
82.60694 107.000
82.62689 104.000
82.64683 80.000
82.66678 97.000
82.68673 108.000
82.70668 105.000
82.72662 93.000
82.74657 115.000
82.76652 103.000
82.78646 106.000
82.80641 85.000
82.82636 93.000
82.84630 105.000
82.86625 113.000
82.88620 108.000
82.90615 118.000
82.92609 101.000
82.94604 107.000
82.96599 89.000
82.98593 106.000
83.00588 114.000
83.02583 105.000
83.04577 104.000
83.06572 102.000
83.08567 110.000
83.10561 127.000
83.12556 92.000
83.14551 93.000
83.16546 117.000
83.18540 102.000
83.20535 107.000
83.22530 124.000
83.24524 88.000
83.26519 100.000
83.28514 94.000
83.30508 97.000
83.32503 93.000
83.34498 121.000
83.36493 112.000
83.38487 122.000
83.40482 100.000
83.42477 99.000
83.44471 90.000
83.46466 128.000
83.48461 120.000
83.50455 120.000
83.52450 117.000
83.54445 99.000
83.56440 98.000
83.58434 100.000
83.60429 83.000
83.62424 110.000
83.64418 123.000
83.66413 118.000
83.68408 107.000
83.70402 129.000
83.72397 115.000
83.74392 104.000
83.76386 93.000
83.78381 104.000
83.80376 94.000
83.82371 112.000
83.84365 103.000
83.86360 114.000
83.88355 120.000
83.90349 119.000
83.92344 127.000
83.94339 113.000
83.96333 119.000
83.98328 127.000
84.00323 98.000
84.02318 124.000
84.04312 102.000
84.06307 101.000
84.08302 111.000
84.10296 91.000
84.12291 92.000
84.14286 106.000
84.16280 95.000
84.18275 95.000
84.20270 109.000
84.22264 105.000
84.24259 102.000
84.26254 95.000
84.28249 103.000
84.30243 100.000
84.32238 92.000
84.34233 83.000
84.36227 96.000
84.38222 92.000
84.40217 103.000
84.42211 111.000
84.44206 89.000
84.46201 81.000
84.48196 107.000
84.50190 101.000
84.52185 85.000
84.54180 105.000
84.56174 115.000
84.58169 100.000
84.60164 90.000
84.62158 93.000
84.64153 97.000
84.66148 107.000
84.68142 96.000
84.70137 97.000
84.72132 98.000
84.74127 105.000
84.76121 107.000
84.78116 98.000
84.80111 96.000
84.82105 114.000
84.84100 87.000
84.86095 99.000
84.88089 108.000
84.90084 98.000
84.92079 99.000
84.94074 89.000
84.96068 78.000
84.98063 114.000
85.00058 105.000
85.02052 111.000
85.04047 106.000
85.06042 86.000
85.08036 89.000
85.10031 98.000
85.12026 96.000
85.14021 84.000
85.16015 99.000
85.18010 101.000
85.20005 88.000
85.21999 105.000
85.23994 83.000
85.25989 102.000
85.27983 107.000
85.29978 111.000
85.31973 102.000
85.33967 101.000
85.35962 85.000
85.37957 112.000
85.39952 98.000
85.41946 104.000
85.43941 101.000
85.45936 105.000
85.47930 94.000
85.49925 95.000
85.51920 104.000
85.53914 114.000
85.55909 111.000
85.57904 107.000
85.59899 94.000
85.61893 120.000
85.63888 102.000
85.65883 108.000
85.67877 106.000
85.69872 92.000
85.71867 92.000
85.73861 114.000
85.75856 110.000
85.77851 113.000
85.79845 106.000
85.81840 88.000
85.83835 94.000
85.85830 110.000
85.87824 115.000
85.89819 104.000
85.91814 111.000
85.93808 112.000
85.95803 105.000
85.97798 113.000
85.99792 104.000
86.01787 136.000
86.03782 90.000
86.05777 106.000
86.07771 102.000
86.09766 104.000
86.11761 103.000
86.13755 106.000
86.15750 108.000
86.17745 139.000
86.19739 122.000
86.21734 134.000
86.23729 124.000
86.25723 136.000
86.27718 134.000
86.29713 121.000
86.31708 125.000
86.33702 129.000
86.35697 121.000
86.37692 137.000
86.39686 141.000
86.41681 131.000
86.43676 112.000
86.45670 134.000
86.47665 115.000
86.49660 106.000
86.51655 124.000
86.53649 148.000
86.55644 125.000
86.57639 114.000
86.59633 130.000
86.61628 116.000
86.63623 107.000
86.65617 111.000
86.67612 108.000
86.69607 120.000
86.71602 96.000
86.73596 94.000
86.75591 124.000
86.77586 101.000
86.79580 102.000
86.81575 98.000
86.83570 111.000
86.85564 115.000
86.87559 96.000
86.89554 92.000
86.91548 91.000
86.93543 101.000
86.95538 104.000
86.97533 101.000
86.99527 98.000
87.01522 98.000
87.03517 102.000
87.05511 99.000
87.07506 110.000
87.09501 95.000
87.11495 100.000
87.13490 109.000
87.15485 94.000
87.17480 97.000
87.19474 75.000
87.21469 101.000
87.23464 105.000
87.25458 104.000
87.27453 98.000
87.29448 103.000
87.31442 90.000
87.33437 95.000
87.35432 94.000
87.37426 103.000
87.39421 92.000
87.41416 81.000
87.43411 95.000
87.45405 79.000
87.47400 107.000
87.49395 104.000
87.51389 99.000
87.53384 91.000
87.55379 92.000
87.57373 101.000
87.59368 105.000
87.61363 114.000
87.63358 100.000
87.65352 91.000
87.67347 98.000
87.69342 112.000
87.71336 100.000
87.73331 89.000
87.75326 106.000
87.77320 122.000
87.79315 89.000
87.81310 96.000
87.83304 100.000
87.85299 81.000
87.87294 108.000
87.89289 97.000
87.91283 95.000
87.93278 112.000
87.95273 85.000
87.97267 104.000
87.99262 122.000
88.01257 88.000
88.03251 100.000
88.05246 127.000
88.07241 122.000
88.09236 93.000
88.11230 96.000
88.13225 86.000
88.15220 81.000
88.17214 111.000
88.19209 110.000
88.21204 84.000
88.23198 92.000
88.25193 90.000
88.27188 104.000
88.29183 116.000
88.31177 103.000
88.33172 96.000
88.35167 85.000
88.37161 92.000
88.39156 98.000
88.41151 99.000
88.43145 86.000
88.45140 89.000
88.47135 107.000
88.49129 117.000
88.51124 122.000
88.53119 99.000
88.55114 105.000
88.57108 95.000
88.59103 108.000
88.61098 99.000
88.63092 80.000
88.65087 98.000
88.67082 116.000
88.69076 114.000
88.71071 106.000
88.73066 135.000
88.75061 104.000
88.77055 129.000
88.79050 111.000
88.81045 96.000
88.83039 103.000
88.85034 114.000
88.87029 131.000
88.89023 113.000
88.91018 130.000
88.93013 146.000
88.95007 143.000
88.97002 157.000
88.98997 167.000
89.00992 139.000
89.02986 148.000
89.04981 189.000
89.06976 182.000
89.08970 211.000
89.10965 203.000
89.12960 215.000
89.14954 201.000
89.16949 197.000
89.18944 229.000
89.20939 192.000
89.22933 177.000
89.24928 189.000
89.26923 173.000
89.28917 157.000
89.30912 172.000
89.32907 143.000
89.34901 177.000
89.36896 144.000
89.38891 171.000
89.40885 179.000
89.42880 184.000
89.44875 154.000
89.46870 157.000
89.48864 132.000
89.50859 150.000
89.52854 136.000
89.54848 145.000
89.56843 157.000
89.58838 135.000
89.60832 117.000
89.62827 109.000
89.64822 110.000
89.66817 110.000
89.68811 100.000
89.70806 132.000
89.72801 122.000
89.74795 113.000
89.76790 113.000
89.78785 106.000
89.80779 105.000
89.82774 103.000
89.84769 121.000
89.86764 118.000
89.88758 90.000
89.90753 120.000
89.92748 109.000
89.94742 128.000
89.96737 107.000
89.98732 115.000
90.00726 105.000
