10.00000 96.000
10.01995 98.000
10.03989 123.000
10.05984 97.000
10.07979 109.000
10.09973 96.000
10.11968 106.000
10.13963 115.000
10.15958 110.000
10.17952 110.000
10.19947 109.000
10.21942 118.000
10.23936 84.000
10.25931 85.000
10.27926 84.000
10.29920 99.000
10.31915 106.000
10.33910 94.000
10.35905 98.000
10.37899 91.000
10.39894 106.000
10.41889 105.000
10.43883 88.000
10.45878 108.000
10.47873 103.000
10.49867 89.000
10.51862 116.000
10.53857 96.000
10.55851 95.000
10.57846 92.000
10.59841 109.000
10.61836 101.000
10.63830 116.000
10.65825 80.000
10.67820 83.000
10.69814 88.000
10.71809 95.000
10.73804 83.000
10.75798 94.000
10.77793 91.000
10.79788 111.000
10.81783 88.000
10.83777 107.000
10.85772 109.000
10.87767 105.000
10.89761 91.000
10.91756 89.000
10.93751 96.000
10.95745 102.000
10.97740 99.000
10.99735 110.000
11.01730 97.000
11.03724 103.000
11.05719 88.000
11.07714 95.000
11.09708 99.000
11.11703 106.000
11.13698 106.000
11.15692 108.000
11.17687 114.000
11.19682 85.000
11.21676 93.000
11.23671 92.000
11.25666 101.000
11.27661 98.000
11.29655 89.000
11.31650 90.000
11.33645 90.000
11.35639 106.000
11.37634 111.000
11.39629 115.000
11.41623 98.000
11.43618 103.000
11.45613 99.000
11.47608 89.000
11.49602 105.000
11.51597 93.000
11.53592 91.000
11.55586 81.000
11.57581 106.000
11.59576 85.000
11.61570 110.000
11.63565 92.000
11.65560 85.000
11.67554 96.000
11.69549 77.000
11.71544 83.000
11.73539 113.000
11.75533 75.000
11.77528 98.000
11.79523 106.000
11.81517 101.000
11.83512 87.000
11.85507 97.000
11.87501 81.000
11.89496 97.000
11.91491 118.000
11.93486 93.000
11.95480 118.000
11.97475 92.000
11.99470 101.000
12.01464 101.000
12.03459 121.000
12.05454 103.000
12.07448 106.000
12.09443 93.000
12.11438 107.000
12.13432 98.000
12.15427 120.000
12.17422 115.000
12.19417 101.000
12.21411 107.000
12.23406 112.000
12.25401 102.000
12.27395 105.000
12.29390 119.000
12.31385 124.000
12.33379 103.000
12.35374 116.000
12.37369 110.000
12.39364 118.000
12.41358 102.000
12.43353 107.000
12.45348 116.000
12.47342 145.000
12.49337 135.000
12.51332 135.000
12.53326 141.000
12.55321 141.000
12.57316 161.000
12.59311 160.000
12.61305 170.000
12.63300 169.000
12.65295 182.000
12.67289 183.000
12.69284 201.000
12.71279 181.000
12.73273 179.000
12.75268 156.000
12.77263 171.000
12.79257 168.000
12.81252 164.000
12.83247 163.000
12.85242 125.000
12.87236 165.000
12.89231 160.000
12.91226 123.000
12.93220 134.000
12.95215 146.000
12.97210 152.000
12.99204 132.000
13.01199 128.000
13.03194 141.000
13.05189 117.000
13.07183 146.000
13.09178 128.000
13.11173 113.000
13.13167 136.000
13.15162 140.000
13.17157 137.000
13.19151 144.000
13.21146 109.000
13.23141 129.000
13.25135 139.000
13.27130 160.000
13.29125 129.000
13.31120 156.000
13.33114 143.000
13.35109 159.000
13.37104 145.000
13.39098 120.000
13.41093 142.000
13.43088 135.000
13.45082 135.000
13.47077 152.000
13.49072 133.000
13.51067 148.000
13.53061 132.000
13.55056 156.000
13.57051 127.000
13.59045 139.000
13.61040 143.000
13.63035 140.000
13.65029 154.000
13.67024 156.000
13.69019 172.000
13.71013 183.000
13.73008 167.000
13.75003 174.000
13.76998 156.000
13.78992 173.000
13.80987 170.000
13.82982 181.000
13.84976 180.000
13.86971 164.000
13.88966 154.000
13.90960 174.000
13.92955 153.000
13.94950 171.000
13.96945 184.000
13.98939 194.000
14.00934 182.000
14.02929 162.000
14.04923 185.000
14.06918 182.000
14.08913 192.000
14.10907 199.000
14.12902 207.000
14.14897 209.000
14.16892 189.000
14.18886 215.000
14.20881 192.000
14.22876 212.000
14.24870 204.000
14.26865 189.000
14.28860 178.000
14.30854 197.000
14.32849 170.000
14.34844 172.000
14.36838 194.000
14.38833 205.000
14.40828 181.000
14.42823 174.000
14.44817 171.000
14.46812 191.000
14.48807 195.000
14.50801 173.000
14.52796 171.000
14.54791 173.000
14.56785 173.000
14.58780 174.000
14.60775 191.000
14.62770 165.000
14.64764 174.000
14.66759 181.000
14.68754 205.000
14.70748 187.000
14.72743 197.000
14.74738 183.000
14.76732 192.000
14.78727 204.000
14.80722 190.000
14.82716 187.000
14.84711 199.000
14.86706 209.000
14.88701 219.000
14.90695 205.000
14.92690 212.000
14.94685 230.000
14.96679 206.000
14.98674 235.000
15.00669 287.000
15.02663 244.000
15.04658 242.000
15.06653 225.000
15.08648 222.000
15.10642 232.000
15.12637 219.000
15.14632 238.000
15.16626 241.000
15.18621 209.000
15.20616 286.000
15.22610 253.000
15.24605 261.000
15.26600 261.000
15.28594 262.000
15.30589 300.000
15.32584 262.000
15.34579 336.000
15.36573 315.000
15.38568 344.000
15.40563 388.000
15.42557 402.000
15.44552 427.000
15.46547 476.000
15.48541 544.000
15.50536 642.000
15.52531 766.000
15.54526 956.000
15.56520 1321.000
15.58515 1957.000
15.60510 3022.000
15.62504 4931.000
15.64499 8281.000
15.66494 12610.000
15.68488 14834.000
15.70483 12758.000
15.72478 9581.000
15.74472 5983.000
15.76467 3101.000
15.78462 1815.000
15.80457 1104.000
15.82451 720.000
15.84446 526.000
15.86441 412.000
15.88435 378.000
15.90430 312.000
15.92425 235.000
15.94419 253.000
15.96414 233.000
15.98409 210.000
16.00404 200.000
16.02398 200.000
16.04393 223.000
16.06388 182.000
16.08382 189.000
16.10377 178.000
16.12372 164.000
16.14366 170.000
16.16361 164.000
16.18356 176.000
16.20351 154.000
16.22345 157.000
16.24340 154.000
16.26335 158.000
16.28329 133.000
16.30324 142.000
16.32319 145.000
16.34313 124.000
16.36308 154.000
16.38303 143.000
16.40297 134.000
16.42292 112.000
16.44287 136.000
16.46282 120.000
16.48276 136.000
16.50271 105.000
16.52266 118.000
16.54260 123.000
16.56255 105.000
16.58250 121.000
16.60244 121.000
16.62239 105.000
16.64234 127.000
16.66229 120.000
16.68223 91.000
16.70218 110.000
16.72213 95.000
16.74207 115.000
16.76202 108.000
16.78197 112.000
16.80191 116.000
16.82186 96.000
16.84181 100.000
16.86175 104.000
16.88170 104.000
16.90165 89.000
16.92160 108.000
16.94154 96.000
16.96149 107.000
16.98144 111.000
17.00138 104.000
17.02133 99.000
17.04128 88.000
17.06122 99.000
17.08117 97.000
17.10112 92.000
17.12107 92.000
17.14101 85.000
17.16096 99.000
17.18091 97.000
17.20085 92.000
17.22080 114.000
17.24075 94.000
17.26069 100.000
17.28064 94.000
17.30059 107.000
17.32053 93.000
17.34048 89.000
17.36043 88.000
17.38038 96.000
17.40032 98.000
17.42027 106.000
17.44022 92.000
17.46016 109.000
17.48011 97.000
17.50006 102.000
17.52000 111.000
17.53995 106.000
17.55990 89.000
17.57985 100.000
17.59979 99.000
17.61974 100.000
17.63969 98.000
17.65963 99.000
17.67958 98.000
17.69953 101.000
17.71947 103.000
17.73942 79.000
17.75937 107.000
17.77932 113.000
17.79926 95.000
17.81921 112.000
17.83916 112.000
17.85910 105.000
17.87905 88.000
17.89900 106.000
17.91894 104.000
17.93889 115.000
17.95884 100.000
17.97878 82.000
17.99873 93.000
18.01868 82.000
18.03863 109.000
18.05857 97.000
18.07852 76.000
18.09847 80.000
18.11841 112.000
18.13836 101.000
18.15831 93.000
18.17825 122.000
18.19820 129.000
18.21815 109.000
18.23810 117.000
18.25804 111.000
18.27799 97.000
18.29794 81.000
18.31788 81.000
18.33783 93.000
18.35778 86.000
18.37772 89.000
18.39767 90.000
18.41762 99.000
18.43756 95.000
18.45751 75.000
18.47746 86.000
18.49741 98.000
18.51735 96.000
18.53730 87.000
18.55725 98.000
18.57719 104.000
18.59714 84.000
18.61709 87.000
18.63703 108.000
18.65698 102.000
18.67693 80.000
18.69688 92.000
18.71682 103.000
18.73677 103.000
18.75672 91.000
18.77666 85.000
18.79661 96.000
18.81656 85.000
18.83650 111.000
18.85645 96.000
18.87640 104.000
18.89634 83.000
18.91629 86.000
18.93624 104.000
18.95619 91.000
18.97613 94.000
18.99608 97.000
19.01603 104.000
19.03597 92.000
19.05592 100.000
19.07587 104.000
19.09581 78.000
19.11576 103.000
19.13571 102.000
19.15566 103.000
19.17560 96.000
19.19555 89.000
19.21550 95.000
19.23544 103.000
19.25539 88.000
19.27534 96.000
19.29528 99.000
19.31523 82.000
19.33518 102.000
19.35513 108.000
19.37507 85.000
19.39502 100.000
19.41497 91.000
19.43491 97.000
19.45486 80.000
19.47481 94.000
19.49475 102.000
19.51470 93.000
19.53465 92.000
19.55459 99.000
19.57454 100.000
19.59449 95.000
19.61444 90.000
19.63438 104.000
19.65433 99.000
19.67428 90.000
19.69422 100.000
19.71417 89.000
19.73412 103.000
19.75406 106.000
19.77401 94.000
19.79396 102.000
19.81391 104.000
19.83385 98.000
19.85380 107.000
19.87375 86.000
19.89369 91.000
19.91364 93.000
19.93359 87.000
19.95353 102.000
19.97348 89.000
19.99343 94.000
20.01337 90.000
20.03332 94.000
20.05327 99.000
20.07322 78.000
20.09316 88.000
20.11311 86.000
20.13306 99.000
20.15300 96.000
20.17295 96.000
20.19290 102.000
20.21284 108.000
20.23279 111.000
20.25274 106.000
20.27269 96.000
20.29263 98.000
20.31258 98.000
20.33253 97.000
20.35247 100.000
20.37242 87.000
20.39237 93.000
20.41231 85.000
20.43226 104.000
20.45221 95.000
20.47215 94.000
20.49210 104.000
20.51205 110.000
20.53200 99.000
20.55194 109.000
20.57189 98.000
20.59184 107.000
20.61178 87.000
20.63173 101.000
20.65168 97.000
20.67162 103.000
20.69157 94.000
20.71152 104.000
20.73147 97.000
20.75141 114.000
20.77136 109.000
20.79131 81.000
20.81125 101.000
20.83120 100.000
20.85115 103.000
20.87109 105.000
20.89104 87.000
20.91099 105.000
20.93094 92.000
20.95088 121.000
20.97083 140.000
20.99078 112.000
21.01072 165.000
21.03067 131.000
21.05062 181.000
21.07056 163.000
21.09051 156.000
21.11046 137.000
21.13040 141.000
21.15035 128.000
21.17030 101.000
21.19025 120.000
21.21019 99.000
21.23014 93.000
21.25009 102.000
21.27003 114.000
21.28998 101.000
21.30993 92.000
21.32987 106.000
21.34982 87.000
21.36977 101.000
21.38972 93.000
21.40966 88.000
21.42961 125.000
21.44956 98.000
21.46950 87.000
21.48945 100.000
21.50940 93.000
21.52934 89.000
21.54929 100.000
21.56924 85.000
21.58918 103.000
21.60913 95.000
21.62908 88.000
21.64903 102.000
21.66897 98.000
21.68892 109.000
21.70887 122.000
21.72881 99.000
21.74876 109.000
21.76871 97.000
21.78865 99.000
21.80860 89.000
21.82855 102.000
21.84850 116.000
21.86844 88.000
21.88839 96.000
21.90834 90.000
21.92828 102.000
21.94823 110.000
21.96818 97.000
21.98812 90.000
22.00807 88.000
22.02802 96.000
22.04796 107.000
22.06791 91.000
22.08786 87.000
22.10781 87.000
22.12775 82.000
22.14770 70.000
22.16765 96.000
22.18759 114.000
22.20754 99.000
22.22749 110.000
22.24743 84.000
22.26738 118.000
22.28733 97.000
22.30728 82.000
22.32722 95.000
22.34717 95.000
22.36712 112.000
22.38706 97.000
22.40701 102.000
22.42696 95.000
22.44690 109.000
22.46685 93.000
22.48680 90.000
22.50675 90.000
22.52669 99.000
22.54664 115.000
22.56659 89.000
22.58653 90.000
22.60648 83.000
22.62643 104.000
22.64637 92.000
22.66632 92.000
22.68627 102.000
22.70621 117.000
22.72616 85.000
22.74611 114.000
22.76606 95.000
22.78600 82.000
22.80595 93.000
22.82590 109.000
22.84584 86.000
22.86579 93.000
22.88574 106.000
22.90568 113.000
22.92563 103.000
22.94558 72.000
22.96553 114.000
22.98547 99.000
23.00542 101.000
23.02537 100.000
23.04531 87.000
23.06526 89.000
23.08521 100.000
23.10515 89.000
23.12510 112.000
23.14505 90.000
23.16499 93.000
23.18494 110.000
23.20489 97.000
23.22484 101.000
23.24478 106.000
23.26473 87.000
23.28468 102.000
23.30462 95.000
23.32457 110.000
23.34452 113.000
23.36446 113.000
23.38441 88.000
23.40436 95.000
23.42431 108.000
23.44425 101.000
23.46420 103.000
23.48415 102.000
23.50409 84.000
23.52404 81.000
23.54399 102.000
23.56393 98.000
23.58388 105.000
23.60383 106.000
23.62377 110.000
23.64372 87.000
23.66367 98.000
23.68362 111.000
23.70356 111.000
23.72351 96.000
23.74346 103.000
23.76340 113.000
23.78335 92.000
23.80330 91.000
23.82324 92.000
23.84319 107.000
23.86314 110.000
23.88309 113.000
23.90303 110.000
23.92298 94.000
23.94293 88.000
23.96287 95.000
23.98282 94.000
24.00277 92.000
24.02271 87.000
24.04266 106.000
24.06261 94.000
24.08256 87.000
24.10250 75.000
24.12245 96.000
24.14240 106.000
24.16234 96.000
24.18229 115.000
24.20224 90.000
24.22218 91.000
24.24213 85.000
24.26208 107.000
24.28202 92.000
24.30197 97.000
24.32192 106.000
24.34187 122.000
24.36181 108.000
24.38176 109.000
24.40171 100.000
24.42165 90.000
24.44160 113.000
24.46155 110.000
24.48149 92.000
24.50144 117.000
24.52139 102.000
24.54134 116.000
24.56128 87.000
24.58123 97.000
24.60118 117.000
24.62112 115.000
24.64107 104.000
24.66102 119.000
24.68096 112.000
24.70091 107.000
24.72086 91.000
24.74080 117.000
24.76075 103.000
24.78070 96.000
24.80065 95.000
24.82059 85.000
24.84054 114.000
24.86049 94.000
24.88043 122.000
24.90038 97.000
24.92033 113.000
24.94027 122.000
24.96022 93.000
24.98017 102.000
25.00012 118.000
25.02006 106.000
25.04001 114.000
25.05996 91.000
25.07990 90.000
25.09985 104.000
25.11980 88.000
25.13974 102.000
25.15969 113.000
25.17964 98.000
25.19958 116.000
25.21953 90.000
25.23948 96.000
25.25943 123.000
25.27937 109.000
25.29932 115.000
25.31927 117.000
25.33921 124.000
25.35916 128.000
25.37911 101.000
25.39905 101.000
25.41900 140.000
25.43895 124.000
25.45890 123.000
25.47884 123.000
25.49879 113.000
25.51874 113.000
25.53868 114.000
25.55863 120.000
25.57858 96.000
25.59852 113.000
25.61847 119.000
25.63842 87.000
25.65837 132.000
25.67831 117.000
25.69826 138.000
25.71821 100.000
25.73815 118.000
25.75810 128.000
25.77805 102.000
25.79799 132.000
25.81794 102.000
25.83789 107.000
25.85783 116.000
25.87778 120.000
25.89773 122.000
25.91768 115.000
25.93762 115.000
25.95757 108.000
25.97752 99.000
25.99746 102.000
26.01741 109.000
26.03736 95.000
26.05730 127.000
26.07725 96.000
26.09720 111.000
26.11715 107.000
26.13709 110.000
26.15704 94.000
26.17699 108.000
26.19693 106.000
26.21688 106.000
26.23683 98.000
26.25677 117.000
26.27672 95.000
26.29667 105.000
26.31661 119.000
26.33656 118.000
26.35651 119.000
26.37646 112.000
26.39640 98.000
26.41635 107.000
26.43630 101.000
26.45624 100.000
26.47619 118.000
26.49614 101.000
26.51608 113.000
26.53603 98.000
26.55598 116.000
26.57593 115.000
26.59587 99.000
26.61582 111.000
26.63577 108.000
26.65571 113.000
26.67566 131.000
26.69561 118.000
26.71555 128.000
26.73550 102.000
26.75545 120.000
26.77539 115.000
26.79534 104.000
26.81529 113.000
26.83524 123.000
26.85518 104.000
26.87513 103.000
26.89508 114.000
26.91502 100.000
26.93497 111.000
26.95492 103.000
26.97486 92.000
26.99481 99.000
27.01476 115.000
27.03471 114.000
27.05465 105.000
27.07460 104.000
27.09455 118.000
27.11449 94.000
27.13444 109.000
27.15439 92.000
27.17433 111.000
27.19428 123.000
27.21423 118.000
27.23417 114.000
27.25412 106.000
27.27407 102.000
27.29402 103.000
27.31396 114.000
27.33391 93.000
27.35386 128.000
27.37380 118.000
27.39375 91.000
27.41370 129.000
27.43364 114.000
27.45359 110.000
27.47354 104.000
27.49349 131.000
27.51343 120.000
27.53338 120.000
27.55333 127.000
27.57327 130.000
27.59322 98.000
27.61317 122.000
27.63311 123.000
27.65306 112.000
27.67301 119.000
27.69296 114.000
27.71290 119.000
27.73285 111.000
27.75280 104.000
27.77274 97.000
27.79269 125.000
27.81264 126.000
27.83258 123.000
27.85253 116.000
27.87248 99.000
27.89242 103.000
27.91237 111.000
27.93232 110.000
27.95227 101.000
27.97221 106.000
27.99216 132.000
28.01211 120.000
28.03205 110.000
28.05200 112.000
28.07195 98.000
28.09189 110.000
28.11184 107.000
28.13179 104.000
28.15174 111.000
28.17168 122.000
28.19163 110.000
28.21158 123.000
28.23152 101.000
28.25147 131.000
28.27142 119.000
28.29136 101.000
28.31131 140.000
28.33126 97.000
28.35120 117.000
28.37115 122.000
28.39110 111.000
28.41105 107.000
28.43099 109.000
28.45094 112.000
28.47089 135.000
28.49083 126.000
28.51078 101.000
28.53073 108.000
28.55067 114.000
28.57062 120.000
28.59057 105.000
28.61052 130.000
28.63046 95.000
28.65041 131.000
28.67036 116.000
28.69030 113.000
28.71025 101.000
28.73020 121.000
28.75014 110.000
28.77009 119.000
28.79004 95.000
28.80998 110.000
28.82993 112.000
28.84988 121.000
28.86983 108.000
28.88977 95.000
28.90972 125.000
28.92967 102.000
28.94961 117.000
28.96956 105.000
28.98951 113.000
29.00945 98.000
29.02940 105.000
29.04935 119.000
29.06930 143.000
29.08924 112.000
29.10919 111.000
29.12914 118.000
29.14908 116.000
29.16903 109.000
29.18898 125.000
29.20892 122.000
29.22887 103.000
29.24882 138.000
29.26877 131.000
29.28871 127.000
29.30866 146.000
29.32861 122.000
29.34855 117.000
29.36850 137.000
29.38845 140.000
29.40839 129.000
29.42834 126.000
29.44829 141.000
29.46823 115.000
29.48818 134.000
29.50813 127.000
29.52808 124.000
29.54802 105.000
29.56797 112.000
29.58792 118.000
29.60786 126.000
29.62781 120.000
29.64776 112.000
29.66770 127.000
29.68765 120.000
29.70760 122.000
29.72755 114.000
29.74749 111.000
29.76744 126.000
29.78739 129.000
29.80733 109.000
29.82728 126.000
29.84723 128.000
29.86717 126.000
29.88712 101.000
29.90707 128.000
29.92701 140.000
29.94696 136.000
29.96691 140.000
29.98686 134.000
30.00680 147.000
30.02675 140.000
30.04670 145.000
30.06664 157.000
30.08659 164.000
30.10654 178.000
30.12648 153.000
30.14643 134.000
30.16638 141.000
30.18633 138.000
30.20627 154.000
30.22622 128.000
30.24617 138.000
30.26611 125.000
30.28606 125.000
30.30601 127.000
30.32595 133.000
30.34590 120.000
30.36585 106.000
30.38579 117.000
30.40574 139.000
30.42569 119.000
30.44564 121.000
30.46558 119.000
30.48553 113.000
30.50548 119.000
30.52542 114.000
30.54537 136.000
30.56532 119.000
30.58526 118.000
30.60521 116.000
30.62516 126.000
30.64511 125.000
30.66505 95.000
30.68500 123.000
30.70495 115.000
30.72489 119.000
30.74484 94.000
30.76479 130.000
30.78473 131.000
30.80468 117.000
30.82463 114.000
30.84458 121.000
30.86452 121.000
30.88447 123.000
30.90442 121.000
30.92436 130.000
30.94431 129.000
30.96426 122.000
30.98420 139.000
31.00415 115.000
31.02410 119.000
31.04404 115.000
31.06399 125.000
31.08394 141.000
31.10389 130.000
31.12383 108.000
31.14378 118.000
31.16373 132.000
31.18367 128.000
31.20362 130.000
31.22357 134.000
31.24351 106.000
31.26346 122.000
31.28341 117.000
31.30336 134.000
31.32330 143.000
31.34325 119.000
31.36320 144.000
31.38314 142.000
31.40309 136.000
31.42304 141.000
31.44298 133.000
31.46293 128.000
31.48288 131.000
31.50282 168.000
31.52277 188.000
31.54272 207.000
31.56267 225.000
31.58261 276.000
31.60256 390.000
31.62251 536.000
31.64245 774.000
31.66240 962.000
31.68235 965.000
31.70229 928.000
31.72224 828.000
31.74219 794.000
31.76214 670.000
31.78208 631.000
31.80203 483.000
31.82198 391.000
31.84192 329.000
31.86187 276.000
31.88182 235.000
31.90176 209.000
31.92171 188.000
31.94166 168.000
31.96160 160.000
31.98155 140.000
32.00150 121.000
32.02145 158.000
32.04139 126.000
32.06134 111.000
32.08129 136.000
32.10123 107.000
32.12118 106.000
32.14113 95.000
32.16107 114.000
32.18102 118.000
32.20097 125.000
32.22092 125.000
32.24086 133.000
32.26081 138.000
32.28076 114.000
32.30070 116.000
32.32065 111.000
32.34060 139.000
32.36054 133.000
32.38049 111.000
32.40044 125.000
32.42039 135.000
32.44033 123.000
32.46028 106.000
32.48023 130.000
32.50017 124.000
32.52012 135.000
32.54007 139.000
32.56001 152.000
32.57996 110.000
32.59991 124.000
32.61985 127.000
32.63980 100.000
32.65975 116.000
32.67970 113.000
32.69964 119.000
32.71959 122.000
32.73954 98.000
32.75948 117.000
32.77943 117.000
32.79938 116.000
32.81932 103.000
32.83927 115.000
32.85922 113.000
32.87917 117.000
32.89911 106.000
32.91906 106.000
32.93901 106.000
32.95895 119.000
32.97890 139.000
32.99885 118.000
33.01879 117.000
33.03874 151.000
33.05869 116.000
33.07863 125.000
33.09858 131.000
33.11853 114.000
33.13848 103.000
33.15842 125.000
33.17837 99.000
33.19832 132.000
33.21826 137.000
33.23821 104.000
33.25816 119.000
33.27810 130.000
33.29805 94.000
33.31800 106.000
33.33795 111.000
33.35789 100.000
33.37784 118.000
33.39779 110.000
33.41773 104.000
33.43768 112.000
33.45763 115.000
33.47757 106.000
33.49752 119.000
33.51747 129.000
33.53741 127.000
33.55736 105.000
33.57731 124.000
33.59726 123.000
33.61720 120.000
33.63715 93.000
33.65710 116.000
33.67704 107.000
33.69699 106.000
33.71694 122.000
33.73688 129.000
33.75683 103.000
33.77678 115.000
33.79673 104.000
33.81667 109.000
33.83662 97.000
33.85657 113.000
33.87651 119.000
33.89646 112.000
33.91641 126.000
33.93635 105.000
33.95630 104.000
33.97625 134.000
33.99620 119.000
34.01614 107.000
34.03609 116.000
34.05604 122.000
34.07598 121.000
34.09593 113.000
34.11588 131.000
34.13582 134.000
34.15577 151.000
34.17572 134.000
34.19566 134.000
34.21561 133.000
34.23556 125.000
34.25551 142.000
34.27545 148.000
34.29540 131.000
34.31535 135.000
34.33529 122.000
34.35524 148.000
34.37519 143.000
34.39513 140.000
34.41508 137.000
34.43503 133.000
34.45498 117.000
34.47492 149.000
34.49487 134.000
34.51482 151.000
34.53476 151.000
34.55471 148.000
34.57466 129.000
34.59460 148.000
34.61455 151.000
34.63450 178.000
34.65444 179.000
34.67439 154.000
34.69434 172.000
34.71429 158.000
34.73423 164.000
34.75418 159.000
34.77413 182.000
34.79407 140.000
34.81402 165.000
34.83397 153.000
34.85391 143.000
34.87386 139.000
34.89381 149.000
34.91376 131.000
34.93370 116.000
34.95365 132.000
34.97360 124.000
34.99354 148.000
35.01349 142.000
35.03344 124.000
35.05338 146.000
35.07333 111.000
35.09328 118.000
35.11322 157.000
35.13317 150.000
35.15312 164.000
35.17307 129.000
35.19301 154.000
35.21296 173.000
35.23291 173.000
35.25285 194.000
35.27280 171.000
35.29275 196.000
35.31269 195.000
35.33264 218.000
35.35259 197.000
35.37254 186.000
35.39248 216.000
35.41243 246.000
35.43238 235.000
35.45232 257.000
35.47227 251.000
35.49222 245.000
35.51216 291.000
35.53211 294.000
35.55206 284.000
35.57201 276.000
35.59195 308.000
35.61190 352.000
35.63185 389.000
35.65179 513.000
35.67174 707.000
35.69169 733.000
35.71163 811.000
35.73158 835.000
35.75153 819.000
35.77147 788.000
35.79142 788.000
35.81137 642.000
35.83132 580.000
35.85126 483.000
35.87121 447.000
35.89116 340.000
35.91110 310.000
35.93105 274.000
35.95100 199.000
35.97094 174.000
35.99089 187.000
36.01084 181.000
36.03079 168.000
36.05073 145.000
36.07068 162.000
36.09063 149.000
36.11057 134.000
36.13052 133.000
36.15047 132.000
36.17041 157.000
36.19036 131.000
36.21031 144.000
36.23025 133.000
36.25020 123.000
36.27015 132.000
36.29010 124.000
36.31004 152.000
36.32999 135.000
36.34994 147.000
36.36988 139.000
36.38983 134.000
36.40978 152.000
36.42972 127.000
36.44967 154.000
36.46962 132.000
36.48957 134.000
36.50951 170.000
36.52946 148.000
36.54941 135.000
36.56935 180.000
36.58930 190.000
36.60925 203.000
36.62919 220.000
36.64914 200.000
36.66909 182.000
36.68903 225.000
36.70898 204.000
36.72893 164.000
36.74888 161.000
36.76882 136.000
36.78877 111.000
36.80872 132.000
36.82866 142.000
36.84861 130.000
36.86856 139.000
36.88850 109.000
36.90845 136.000
36.92840 137.000
36.94835 132.000
36.96829 140.000
36.98824 123.000
37.00819 105.000
37.02813 154.000
37.04808 140.000
37.06803 123.000
37.08797 117.000
37.10792 139.000
37.12787 132.000
37.14781 133.000
37.16776 149.000
37.18771 122.000
37.20766 139.000
37.22760 122.000
37.24755 120.000
37.26750 129.000
37.28744 117.000
37.30739 135.000
37.32734 126.000
37.34728 122.000
37.36723 126.000
37.38718 133.000
37.40713 132.000
37.42707 103.000
37.44702 112.000
37.46697 108.000
37.48691 117.000
37.50686 113.000
37.52681 127.000
37.54675 112.000
37.56670 138.000
37.58665 122.000
37.60660 131.000
37.62654 119.000
37.64649 120.000
37.66644 118.000
37.68638 127.000
37.70633 122.000
37.72628 121.000
37.74622 128.000
37.76617 129.000
37.78612 125.000
37.80606 146.000
37.82601 138.000
37.84596 135.000
37.86591 136.000
37.88585 148.000
37.90580 143.000
37.92575 152.000
37.94569 155.000
37.96564 122.000
37.98559 156.000
38.00553 154.000
38.02548 140.000
38.04543 156.000
38.06538 160.000
38.08532 148.000
38.10527 166.000
38.12522 134.000
38.14516 149.000
38.16511 147.000
38.18506 139.000
38.20500 151.000
38.22495 133.000
38.24490 146.000
38.26484 150.000
38.28479 149.000
38.30474 150.000
38.32469 156.000
38.34463 138.000
38.36458 152.000
38.38453 154.000
38.40447 151.000
38.42442 138.000
38.44437 169.000
38.46431 144.000
38.48426 152.000
38.50421 172.000
38.52416 153.000
38.54410 181.000
38.56405 184.000
38.58400 164.000
38.60394 177.000
38.62389 182.000
38.64384 186.000
38.66378 210.000
38.68373 221.000
38.70368 249.000
38.72362 266.000
38.74357 257.000
38.76352 262.000
38.78347 274.000
38.80341 257.000
38.82336 261.000
38.84331 263.000
38.86325 232.000
38.88320 252.000
38.90315 244.000
38.92309 219.000
38.94304 221.000
38.96299 253.000
38.98294 255.000
39.00288 241.000
39.02283 276.000
39.04278 293.000
39.06272 304.000
39.08267 377.000
39.10262 394.000
39.12256 486.000
39.14251 616.000
39.16246 915.000
39.18241 1158.000
39.20235 1381.000
39.22230 1503.000
39.24225 1483.000
39.26219 1494.000
39.28214 1366.000
39.30209 1341.000
39.32203 1202.000
39.34198 1112.000
39.36193 946.000
39.38187 797.000
39.40182 627.000
39.42177 493.000
39.44172 420.000
39.46166 353.000
39.48161 285.000
39.50156 271.000
39.52150 256.000
39.54145 203.000
39.56140 176.000
39.58134 170.000
39.60129 193.000
39.62124 158.000
39.64119 150.000
39.66113 153.000
39.68108 147.000
39.70103 152.000
39.72097 138.000
39.74092 147.000
39.76087 134.000
39.78081 115.000
39.80076 155.000
39.82071 138.000
39.84065 139.000
39.86060 127.000
39.88055 118.000
39.90050 140.000
39.92044 134.000
39.94039 143.000
39.96034 135.000
39.98028 130.000
40.00023 124.000
40.02018 116.000
40.04012 116.000
40.06007 114.000
40.08002 129.000
40.09997 127.000
40.11991 128.000
40.13986 119.000
40.15981 133.000
40.17975 111.000
40.19970 118.000
40.21965 120.000
40.23959 125.000
40.25954 119.000
40.27949 91.000
40.29943 117.000
40.31938 118.000
40.33933 117.000
40.35928 121.000
40.37922 121.000
40.39917 121.000
40.41912 118.000
40.43906 117.000
40.45901 111.000
40.47896 102.000
40.49890 111.000
40.51885 122.000
40.53880 123.000
40.55875 108.000
40.57869 111.000
40.59864 114.000
40.61859 113.000
40.63853 115.000
40.65848 111.000
40.67843 102.000
40.69837 108.000
40.71832 127.000
40.73827 121.000
40.75822 117.000
40.77816 108.000
40.79811 89.000
40.81806 115.000
40.83800 120.000
40.85795 128.000
40.87790 113.000
40.89784 140.000
40.91779 122.000
40.93774 102.000
40.95768 99.000
40.97763 133.000
40.99758 109.000
41.01753 128.000
41.03747 114.000
41.05742 107.000
41.07737 144.000
41.09731 109.000
41.11726 116.000
41.13721 121.000
41.15715 124.000
41.17710 116.000
41.19705 109.000
41.21700 103.000
41.23694 130.000
41.25689 117.000
41.27684 128.000
41.29678 128.000
41.31673 131.000
41.33668 128.000
41.35662 128.000
41.37657 120.000
41.39652 129.000
41.41646 96.000
41.43641 136.000
41.45636 132.000
41.47631 111.000
41.49625 123.000
41.51620 113.000
41.53615 143.000
41.55609 117.000
41.57604 127.000
41.59599 112.000
41.61593 113.000
41.63588 137.000
41.65583 117.000
41.67578 129.000
41.69572 122.000
41.71567 114.000
41.73562 132.000
41.75556 110.000
41.77551 123.000
41.79546 116.000
41.81540 106.000
41.83535 120.000
41.85530 105.000
41.87524 106.000
41.89519 101.000
41.91514 113.000
41.93509 113.000
41.95503 107.000
41.97498 111.000
41.99493 102.000
42.01487 111.000
42.03482 101.000
42.05477 114.000
42.07471 111.000
42.09466 114.000
42.11461 95.000
42.13456 110.000
42.15450 117.000
42.17445 111.000
42.19440 102.000
42.21434 106.000
42.23429 121.000
42.25424 114.000
42.27418 98.000
42.29413 137.000
42.31408 115.000
42.33403 121.000
42.35397 121.000
42.37392 114.000
42.39387 103.000
42.41381 113.000
42.43376 120.000
42.45371 131.000
42.47365 138.000
42.49360 100.000
42.51355 125.000
42.53349 105.000
42.55344 117.000
42.57339 98.000
42.59334 107.000
42.61328 136.000
42.63323 118.000
42.65318 122.000
42.67312 111.000
42.69307 125.000
42.71302 137.000
42.73296 132.000
42.75291 121.000
42.77286 134.000
42.79281 127.000
42.81275 134.000
42.83270 169.000
42.85265 136.000
42.87259 136.000
42.89254 128.000
42.91249 140.000
42.93243 125.000
42.95238 160.000
42.97233 153.000
42.99227 157.000
43.01222 171.000
43.03217 163.000
43.05212 165.000
43.07206 184.000
43.09201 149.000
43.11196 186.000
43.13190 207.000
43.15185 256.000
43.17180 241.000
43.19174 293.000
43.21169 364.000
43.23164 452.000
43.25159 582.000
43.27153 649.000
43.29148 673.000
43.31143 597.000
43.33137 565.000
43.35132 572.000
43.37127 508.000
43.39121 502.000
43.41116 476.000
43.43111 378.000
43.45105 326.000
43.47100 300.000
43.49095 256.000
43.51090 218.000
43.53084 201.000
43.55079 204.000
43.57074 153.000
43.59068 182.000
43.61063 161.000
43.63058 145.000
43.65052 138.000
43.67047 147.000
43.69042 130.000
43.71037 121.000
43.73031 130.000
43.75026 127.000
43.77021 127.000
43.79015 121.000
43.81010 131.000
43.83005 121.000
43.84999 123.000
43.86994 118.000
43.88989 129.000
43.90984 116.000
43.92978 123.000
43.94973 114.000
43.96968 119.000
43.98962 124.000
44.00957 113.000
44.02952 116.000
44.04946 109.000
44.06941 122.000
44.08936 103.000
44.10930 108.000
44.12925 113.000
44.14920 101.000
44.16915 110.000
44.18909 130.000
44.20904 106.000
44.22899 118.000
44.24893 119.000
44.26888 97.000
44.28883 105.000
44.30877 104.000
44.32872 128.000
44.34867 95.000
44.36862 112.000
44.38856 117.000
44.40851 112.000
44.42846 137.000
44.44840 116.000
44.46835 98.000
44.48830 121.000
44.50824 113.000
44.52819 97.000
44.54814 115.000
44.56808 112.000
44.58803 109.000
44.60798 110.000
44.62793 101.000
44.64787 129.000
44.66782 92.000
44.68777 125.000
44.70771 112.000
44.72766 111.000
44.74761 128.000
44.76755 107.000
44.78750 136.000
44.80745 121.000
44.82740 114.000
44.84734 119.000
44.86729 113.000
44.88724 120.000
44.90718 123.000
44.92713 107.000
44.94708 103.000
44.96702 128.000
44.98697 101.000
45.00692 120.000
45.02686 117.000
45.04681 94.000
45.06676 96.000
45.08671 134.000
45.10665 119.000
45.12660 104.000
45.14655 110.000
45.16649 96.000
45.18644 112.000
45.20639 111.000
45.22633 114.000
45.24628 104.000
45.26623 110.000
45.28618 118.000
45.30612 95.000
45.32607 120.000
45.34602 114.000
45.36596 124.000
45.38591 106.000
45.40586 119.000
45.42580 108.000
45.44575 91.000
45.46570 96.000
45.48565 107.000
45.50559 132.000
45.52554 99.000
45.54549 117.000
45.56543 115.000
45.58538 111.000
45.60533 108.000
45.62527 136.000
45.64522 111.000
45.66517 121.000
45.68511 109.000
45.70506 96.000
45.72501 92.000
45.74496 117.000
45.76490 113.000
45.78485 108.000
45.80480 113.000
45.82474 107.000
45.84469 120.000
45.86464 101.000
45.88458 111.000
45.90453 100.000
45.92448 83.000
45.94443 89.000
45.96437 115.000
45.98432 108.000
46.00427 96.000
46.02421 113.000
46.04416 109.000
46.06411 116.000
46.08405 102.000
46.10400 119.000
46.12395 105.000
46.14389 124.000
46.16384 100.000
46.18379 116.000
46.20374 124.000
46.22368 114.000
46.24363 116.000
46.26358 92.000
46.28352 110.000
46.30347 108.000
46.32342 124.000
46.34336 126.000
46.36331 107.000
46.38326 111.000
46.40321 135.000
46.42315 118.000
46.44310 108.000
46.46305 120.000
46.48299 107.000
46.50294 115.000
46.52289 119.000
46.54283 123.000
46.56278 137.000
46.58273 103.000
46.60267 114.000
46.62262 133.000
46.64257 127.000
46.66252 118.000
46.68246 108.000
46.70241 108.000
46.72236 129.000
46.74230 101.000
46.76225 124.000
46.78220 99.000
46.80214 108.000
46.82209 123.000
46.84204 100.000
46.86199 119.000
46.88193 126.000
46.90188 103.000
46.92183 114.000
46.94177 123.000
46.96172 96.000
46.98167 120.000
47.00161 103.000
47.02156 125.000
47.04151 122.000
47.06146 125.000
47.08140 103.000
47.10135 97.000
47.12130 115.000
47.14124 130.000
47.16119 118.000
47.18114 105.000
47.20108 119.000
47.22103 130.000
47.24098 103.000
47.26092 100.000
47.28087 109.000
47.30082 115.000
47.32077 109.000
47.34071 101.000
47.36066 112.000
47.38061 116.000
47.40055 112.000
47.42050 134.000
47.44045 112.000
47.46039 121.000
47.48034 113.000
47.50029 124.000
47.52024 111.000
47.54018 98.000
47.56013 127.000
47.58008 121.000
47.60002 122.000
47.61997 110.000
47.63992 133.000
47.65986 95.000
47.67981 120.000
47.69976 146.000
47.71970 120.000
47.73965 113.000
47.75960 119.000
47.77955 115.000
47.79949 135.000
47.81944 133.000
47.83939 127.000
47.85933 133.000
47.87928 128.000
47.89923 123.000
47.91917 133.000
47.93912 158.000
47.95907 153.000
47.97902 141.000
47.99896 171.000
48.01891 134.000
48.03886 164.000
48.05880 162.000
48.07875 144.000
48.09870 154.000
48.11864 173.000
48.13859 167.000
48.15854 200.000
48.17848 196.000
48.19843 208.000
48.21838 195.000
48.23833 225.000
48.25827 250.000
48.27822 255.000
48.29817 298.000
48.31811 332.000
48.33806 356.000
48.35801 422.000
48.37795 479.000
48.39790 600.000
48.41785 765.000
48.43780 905.000
48.45774 1234.000
48.47769 1466.000
48.49764 1482.000
48.51758 1321.000
48.53753 1333.000
48.55748 1085.000
48.57742 1086.000
48.59737 1155.000
48.61732 1075.000
48.63726 957.000
48.65721 862.000
48.67716 747.000
48.69711 583.000
48.71705 490.000
48.73700 483.000
48.75695 376.000
48.77689 315.000
48.79684 285.000
48.81679 258.000
48.83673 252.000
48.85668 208.000
48.87663 223.000
48.89658 187.000
48.91652 176.000
48.93647 148.000
48.95642 165.000
48.97636 158.000
48.99631 187.000
49.01626 149.000
49.03620 151.000
49.05615 155.000
49.07610 146.000
49.09605 130.000
49.11599 126.000
49.13594 134.000
49.15589 128.000
49.17583 140.000
49.19578 126.000
49.21573 133.000
49.23567 111.000
49.25562 131.000
49.27557 115.000
49.29551 109.000
49.31546 123.000
49.33541 140.000
49.35536 125.000
49.37530 128.000
49.39525 137.000
49.41520 122.000
49.43514 131.000
49.45509 128.000
49.47504 126.000
49.49498 135.000
49.51493 122.000
49.53488 127.000
49.55483 106.000
49.57477 106.000
49.59472 129.000
49.61467 122.000
49.63461 96.000
49.65456 89.000
49.67451 105.000
49.69445 118.000
49.71440 132.000
49.73435 129.000
49.75429 108.000
49.77424 117.000
49.79419 124.000
49.81414 127.000
49.83408 110.000
49.85403 140.000
49.87398 113.000
49.89392 99.000
49.91387 97.000
49.93382 127.000
49.95376 129.000
49.97371 111.000
49.99366 97.000
50.01361 116.000
50.03355 99.000
50.05350 100.000
50.07345 120.000
50.09339 107.000
50.11334 116.000
50.13329 107.000
50.15323 103.000
50.17318 110.000
50.19313 110.000
50.21307 113.000
50.23302 82.000
50.25297 120.000
50.27292 103.000
50.29286 117.000
50.31281 88.000
50.33276 106.000
50.35270 87.000
50.37265 109.000
50.39260 108.000
50.41254 109.000
50.43249 105.000
50.45244 109.000
50.47239 82.000
50.49233 125.000
50.51228 107.000
50.53223 103.000
50.55217 111.000
50.57212 108.000
50.59207 117.000
50.61201 128.000
50.63196 105.000
50.65191 126.000
50.67186 121.000
50.69180 123.000
50.71175 116.000
50.73170 104.000
50.75164 110.000
50.77159 114.000
50.79154 119.000
50.81148 101.000
50.83143 115.000
50.85138 124.000
50.87132 93.000
50.89127 108.000
50.91122 127.000
50.93117 112.000
50.95111 81.000
50.97106 96.000
50.99101 114.000
51.01095 104.000
51.03090 102.000
51.05085 116.000
51.07079 114.000
51.09074 93.000
51.11069 93.000
51.13064 107.000
51.15058 107.000
51.17053 114.000
51.19048 105.000
51.21042 105.000
51.23037 86.000
51.25032 95.000
51.27026 106.000
51.29021 117.000
51.31016 99.000
51.33010 114.000
51.35005 112.000
51.37000 97.000
51.38995 135.000
51.40989 112.000
51.42984 97.000
51.44979 117.000
51.46973 100.000
51.48968 98.000
51.50963 115.000
51.52957 100.000
51.54952 105.000
51.56947 117.000
51.58942 98.000
51.60936 102.000
51.62931 99.000
51.64926 98.000
51.66920 115.000
51.68915 78.000
51.70910 107.000
51.72904 101.000
51.74899 113.000
51.76894 87.000
51.78888 101.000
51.80883 99.000
51.82878 94.000
51.84873 100.000
51.86867 107.000
51.88862 93.000
51.90857 89.000
51.92851 111.000
51.94846 114.000
51.96841 104.000
51.98835 120.000
52.00830 122.000
52.02825 96.000
52.04820 119.000
52.06814 84.000
52.08809 100.000
52.10804 116.000
52.12798 112.000
52.14793 118.000
52.16788 107.000
52.18782 109.000
52.20777 98.000
52.22772 125.000
52.24767 104.000
52.26761 101.000
52.28756 107.000
52.30751 106.000
52.32745 90.000
52.34740 117.000
52.36735 111.000
52.38729 94.000
52.40724 104.000
52.42719 112.000
52.44713 90.000
52.46708 93.000
52.48703 112.000
52.50698 121.000
52.52692 111.000
52.54687 84.000
52.56682 103.000
52.58676 123.000
52.60671 112.000
52.62666 100.000
52.64660 100.000
52.66655 101.000
52.68650 99.000
52.70645 113.000
52.72639 94.000
52.74634 98.000
52.76629 109.000
52.78623 84.000
52.80618 83.000
52.82613 83.000
52.84607 128.000
52.86602 105.000
52.88597 107.000
52.90591 107.000
52.92586 106.000
52.94581 96.000
52.96576 120.000
52.98570 89.000
53.00565 85.000
53.02560 89.000
53.04554 86.000
53.06549 115.000
53.08544 110.000
53.10538 115.000
53.12533 103.000
53.14528 105.000
53.16523 113.000
53.18517 97.000
53.20512 106.000
53.22507 108.000
53.24501 113.000
53.26496 115.000
53.28491 116.000
53.30485 75.000
53.32480 117.000
53.34475 98.000
53.36469 107.000
53.38464 96.000
53.40459 112.000
53.42454 110.000
53.44448 115.000
53.46443 112.000
53.48438 117.000
53.50432 99.000
53.52427 97.000
53.54422 116.000
53.56416 103.000
53.58411 102.000
53.60406 106.000
53.62401 110.000
53.64395 115.000
53.66390 109.000
53.68385 108.000
53.70379 98.000
53.72374 110.000
53.74369 97.000
53.76363 99.000
53.78358 100.000
53.80353 104.000
53.82348 105.000
53.84342 94.000
53.86337 100.000
53.88332 122.000
53.90326 98.000
53.92321 112.000
53.94316 98.000
53.96310 107.000
53.98305 108.000
54.00300 110.000
54.02294 96.000
54.04289 107.000
54.06284 88.000
54.08279 110.000
54.10273 95.000
54.12268 98.000
54.14263 110.000
54.16257 99.000
54.18252 93.000
54.20247 104.000
54.22241 104.000
54.24236 95.000
54.26231 94.000
54.28226 80.000
54.30220 111.000
54.32215 106.000
54.34210 103.000
54.36204 91.000
54.38199 105.000
54.40194 99.000
54.42188 92.000
54.44183 114.000
54.46178 98.000
54.48172 122.000
54.50167 95.000
54.52162 104.000
54.54157 79.000
54.56151 110.000
54.58146 90.000
54.60141 100.000
54.62135 92.000
54.64130 112.000
54.66125 123.000
54.68119 114.000
54.70114 85.000
54.72109 97.000
54.74104 106.000
54.76098 103.000
54.78093 91.000
54.80088 86.000
54.82082 104.000
54.84077 110.000
54.86072 100.000
54.88066 106.000
54.90061 80.000
54.92056 100.000
54.94050 97.000
54.96045 103.000
54.98040 96.000
55.00035 90.000
55.02029 106.000
55.04024 88.000
55.06019 91.000
55.08013 95.000
55.10008 124.000
55.12003 93.000
55.13997 95.000
55.15992 105.000
55.17987 116.000
55.19982 111.000
55.21976 88.000
55.23971 86.000
55.25966 81.000
55.27960 90.000
55.29955 97.000
55.31950 103.000
55.33944 98.000
55.35939 90.000
55.37934 82.000
55.39929 94.000
55.41923 94.000
55.43918 95.000
55.45913 106.000
55.47907 102.000
55.49902 98.000
55.51897 98.000
55.53891 98.000
55.55886 110.000
55.57881 98.000
55.59875 98.000
55.61870 98.000
55.63865 94.000
55.65860 112.000
55.67854 91.000
55.69849 101.000
55.71844 99.000
55.73838 105.000
55.75833 114.000
55.77828 97.000
55.79822 110.000
55.81817 109.000
55.83812 101.000
55.85807 81.000
55.87801 83.000
55.89796 101.000
55.91791 94.000
55.93785 100.000
55.95780 97.000
55.97775 77.000
55.99769 116.000
56.01764 121.000
56.03759 102.000
56.05753 81.000
56.07748 114.000
56.09743 116.000
56.11738 99.000
56.13732 94.000
56.15727 105.000
56.17722 108.000
56.19716 99.000
56.21711 98.000
56.23706 108.000
56.25700 104.000
56.27695 100.000
56.29690 93.000
56.31685 98.000
56.33679 111.000
56.35674 103.000
56.37669 104.000
56.39663 91.000
56.41658 102.000
56.43653 96.000
56.45647 105.000
56.47642 110.000
56.49637 101.000
56.51631 83.000
56.53626 98.000
56.55621 101.000
56.57616 96.000
56.59610 104.000
56.61605 91.000
56.63600 112.000
56.65594 97.000
56.67589 110.000
56.69584 97.000
56.71578 90.000
56.73573 101.000
56.75568 118.000
56.77563 113.000
56.79557 101.000
56.81552 87.000
56.83547 92.000
56.85541 95.000
56.87536 87.000
56.89531 98.000
56.91525 96.000
56.93520 98.000
56.95515 95.000
56.97510 89.000
56.99504 98.000
57.01499 108.000
57.03494 107.000
57.05488 74.000
57.07483 98.000
57.09478 92.000
57.11472 96.000
57.13467 94.000
57.15462 117.000
57.17456 111.000
57.19451 104.000
57.21446 117.000
57.23441 107.000
57.25435 109.000
57.27430 117.000
57.29425 92.000
57.31419 107.000
57.33414 98.000
57.35409 99.000
57.37403 97.000
57.39398 119.000
57.41393 119.000
57.43388 101.000
57.45382 108.000
57.47377 95.000
57.49372 104.000
57.51366 98.000
57.53361 100.000
57.55356 85.000
57.57350 99.000
57.59345 89.000
57.61340 97.000
57.63334 91.000
57.65329 97.000
57.67324 93.000
57.69319 97.000
57.71313 95.000
57.73308 96.000
57.75303 101.000
57.77297 110.000
57.79292 118.000
57.81287 117.000
57.83281 99.000
57.85276 98.000
57.87271 98.000
57.89266 89.000
57.91260 101.000
57.93255 103.000
57.95250 102.000
57.97244 84.000
57.99239 102.000
58.01234 109.000
58.03228 97.000
58.05223 101.000
58.07218 107.000
58.09212 113.000
58.11207 103.000
58.13202 103.000
58.15197 111.000
58.17191 92.000
58.19186 102.000
58.21181 79.000
58.23175 81.000
58.25170 108.000
58.27165 95.000
58.29159 95.000
58.31154 119.000
58.33149 109.000
58.35144 111.000
58.37138 110.000
58.39133 115.000
58.41128 101.000
58.43122 115.000
58.45117 114.000
58.47112 106.000
58.49106 104.000
58.51101 110.000
58.53096 110.000
58.55090 108.000
58.57085 106.000
58.59080 92.000
58.61075 96.000
58.63069 95.000
58.65064 115.000
58.67059 111.000
58.69053 93.000
58.71048 97.000
58.73043 109.000
58.75037 94.000
58.77032 120.000
58.79027 106.000
58.81022 116.000
58.83016 109.000
58.85011 107.000
58.87006 102.000
58.89000 106.000
58.90995 108.000
58.92990 100.000
58.94984 92.000
58.96979 123.000
58.98974 89.000
59.00969 100.000
59.02963 118.000
59.04958 106.000
59.06953 97.000
59.08947 97.000
59.10942 102.000
59.12937 113.000
59.14931 115.000
59.16926 104.000
59.18921 106.000
59.20915 94.000
59.22910 109.000
59.24905 107.000
59.26900 109.000
59.28894 105.000
59.30889 121.000
59.32884 109.000
59.34878 112.000
59.36873 107.000
59.38868 99.000
59.40862 99.000
59.42857 92.000
59.44852 119.000
59.46847 115.000
59.48841 86.000
59.50836 98.000
59.52831 112.000
59.54825 99.000
59.56820 124.000
59.58815 100.000
59.60809 95.000
59.62804 89.000
59.64799 110.000
59.66793 101.000
59.68788 109.000
59.70783 107.000
59.72778 103.000
59.74772 105.000
59.76767 101.000
59.78762 92.000
59.80756 93.000
59.82751 113.000
59.84746 97.000
59.86740 104.000
59.88735 93.000
59.90730 86.000
59.92725 100.000
59.94719 91.000
59.96714 106.000
59.98709 103.000
60.00703 111.000
60.02698 97.000
60.04693 112.000
60.06687 109.000
60.08682 99.000
60.10677 102.000
60.12671 94.000
60.14666 112.000
60.16661 98.000
60.18656 108.000
60.20650 105.000
60.22645 99.000
60.24640 110.000
60.26634 101.000
60.28629 92.000
60.30624 113.000
60.32618 108.000
60.34613 109.000
60.36608 89.000
60.38603 114.000
60.40597 100.000
60.42592 103.000
60.44587 114.000
60.46581 112.000
60.48576 101.000
60.50571 101.000
60.52565 117.000
60.54560 103.000
60.56555 105.000
60.58550 93.000
60.60544 104.000
60.62539 116.000
60.64534 100.000
60.66528 99.000
60.68523 112.000
60.70518 98.000
60.72512 120.000
60.74507 86.000
60.76502 116.000
60.78496 122.000
60.80491 118.000
60.82486 102.000
60.84481 96.000
60.86475 103.000
60.88470 140.000
60.90465 103.000
60.92459 95.000
60.94454 130.000
60.96449 102.000
60.98443 109.000
61.00438 115.000
61.02433 104.000
61.04428 123.000
61.06422 114.000
61.08417 123.000
61.10412 116.000
61.12406 112.000
61.14401 139.000
61.16396 111.000
61.18390 138.000
61.20385 143.000
61.22380 140.000
61.24374 153.000
61.26369 148.000
61.28364 145.000
61.30359 173.000
61.32353 182.000
61.34348 185.000
61.36343 205.000
61.38337 211.000
61.40332 234.000
61.42327 267.000
61.44321 272.000
61.46316 331.000
61.48311 365.000
61.50306 456.000
61.52300 473.000
61.54295 509.000
61.56290 641.000
61.58284 632.000
61.60279 610.000
61.62274 576.000
61.64268 529.000
61.66263 481.000
61.68258 472.000
61.70252 479.000
61.72247 506.000
61.74242 435.000
61.76237 432.000
61.78231 387.000
61.80226 313.000
61.82221 348.000
61.84215 269.000
61.86210 232.000
61.88205 243.000
61.90199 238.000
61.92194 208.000
61.94189 204.000
61.96184 173.000
61.98178 163.000
62.00173 151.000
62.02168 164.000
62.04162 155.000
62.06157 170.000
62.08152 153.000
62.10146 150.000
62.12141 168.000
62.14136 150.000
62.16131 145.000
62.18125 115.000
62.20120 151.000
62.22115 133.000
62.24109 147.000
62.26104 117.000
62.28099 138.000
62.30093 141.000
62.32088 133.000
62.34083 140.000
62.36077 127.000
62.38072 136.000
62.40067 113.000
62.42062 127.000
62.44056 142.000
62.46051 120.000
62.48046 114.000
62.50040 118.000
62.52035 109.000
62.54030 132.000
62.56024 107.000
62.58019 122.000
62.60014 107.000
62.62009 110.000
62.64003 117.000
62.65998 136.000
62.67993 104.000
62.69987 130.000
62.71982 120.000
62.73977 131.000
62.75971 116.000
62.77966 121.000
62.79961 113.000
62.81955 115.000
62.83950 88.000
62.85945 108.000
62.87940 132.000
62.89934 122.000
62.91929 114.000
62.93924 104.000
62.95918 125.000
62.97913 135.000
62.99908 123.000
63.01902 112.000
63.03897 92.000
63.05892 99.000
63.07887 125.000
63.09881 94.000
63.11876 100.000
63.13871 113.000
63.15865 115.000
63.17860 119.000
63.19855 111.000
63.21849 104.000
63.23844 117.000
63.25839 107.000
63.27833 104.000
63.29828 101.000
63.31823 106.000
63.33818 98.000
63.35812 89.000
63.37807 104.000
63.39802 110.000
63.41796 112.000
63.43791 121.000
63.45786 97.000
63.47780 133.000
63.49775 109.000
63.51770 99.000
63.53765 122.000
63.55759 103.000
63.57754 130.000
63.59749 115.000
63.61743 108.000
63.63738 122.000
63.65733 115.000
63.67727 119.000
63.69722 119.000
63.71717 117.000
63.73712 134.000
63.75706 116.000
63.77701 121.000
63.79696 131.000
63.81690 116.000
63.83685 138.000
63.85680 120.000
63.87674 139.000
63.89669 167.000
63.91664 143.000
63.93658 151.000
63.95653 164.000
63.97648 186.000
63.99643 194.000
64.01637 225.000
64.03632 258.000
64.05627 271.000
64.07621 292.000
64.09616 310.000
64.11611 341.000
64.13605 385.000
64.15600 360.000
64.17595 390.000
64.19590 380.000
64.21584 400.000
64.23579 394.000
64.25574 401.000
64.27568 396.000
64.29563 400.000
64.31558 367.000
64.33552 321.000
64.35547 340.000
64.37542 328.000
64.39536 316.000
64.41531 292.000
64.43526 270.000
64.45521 247.000
64.47515 214.000
64.49510 236.000
64.51505 199.000
64.53499 183.000
64.55494 173.000
64.57489 192.000
64.59483 161.000
64.61478 149.000
64.63473 122.000
64.65468 150.000
64.67462 136.000
64.69457 129.000
64.71452 124.000
64.73446 121.000
64.75441 142.000
64.77436 125.000
64.79430 132.000
64.81425 120.000
64.83420 107.000
64.85414 112.000
64.87409 126.000
64.89404 125.000
64.91399 93.000
64.93393 114.000
64.95388 108.000
64.97383 116.000
64.99377 106.000
65.01372 112.000
65.03367 135.000
65.05361 102.000
65.07356 120.000
65.09351 95.000
65.11346 80.000
65.13340 97.000
65.15335 100.000
65.17330 120.000
65.19324 101.000
65.21319 113.000
65.23314 117.000
65.25308 125.000
65.27303 117.000
65.29298 98.000
65.31293 123.000
65.33287 95.000
65.35282 117.000
65.37277 99.000
65.39271 101.000
65.41266 78.000
65.43261 120.000
65.45255 100.000
65.47250 106.000
65.49245 133.000
65.51239 139.000
65.53234 133.000
65.55229 101.000
65.57224 134.000
65.59218 115.000
65.61213 125.000
65.63208 106.000
65.65202 128.000
65.67197 117.000
65.69192 135.000
65.71186 127.000
65.73181 126.000
65.75176 108.000
65.77171 130.000
65.79165 119.000
65.81160 116.000
65.83155 137.000
65.85149 111.000
65.87144 123.000
65.89139 159.000
65.91133 121.000
65.93128 132.000
65.95123 129.000
65.97117 145.000
65.99112 132.000
66.01107 143.000
66.03102 143.000
66.05096 158.000
66.07091 161.000
66.09086 156.000
66.11080 173.000
66.13075 192.000
66.15070 186.000
66.17064 193.000
66.19059 192.000
66.21054 227.000
66.23049 203.000
66.25043 197.000
66.27038 227.000
66.29033 203.000
66.31027 222.000
66.33022 204.000
66.35017 215.000
66.37011 243.000
66.39006 233.000
66.41001 273.000
66.42995 278.000
66.44990 316.000
66.46985 310.000
66.48980 299.000
66.50974 330.000
66.52969 320.000
66.54964 329.000
66.56958 309.000
66.58953 334.000
66.60948 304.000
66.62942 283.000
66.64937 300.000
66.66932 269.000
66.68927 273.000
66.70921 272.000
66.72916 264.000
66.74911 237.000
66.76905 239.000
66.78900 200.000
66.80895 192.000
66.82889 204.000
66.84884 160.000
66.86879 158.000
66.88874 159.000
66.90868 159.000
66.92863 134.000
66.94858 162.000
66.96852 133.000
66.98847 135.000
67.00842 132.000
67.02836 118.000
67.04831 118.000
67.06826 125.000
67.08820 124.000
67.10815 120.000
67.12810 110.000
67.14805 112.000
67.16799 105.000
67.18794 96.000
67.20789 107.000
67.22783 110.000
67.24778 95.000
67.26773 100.000
67.28767 106.000
67.30762 108.000
67.32757 112.000
67.34752 106.000
67.36746 99.000
67.38741 124.000
67.40736 96.000
67.42730 102.000
67.44725 103.000
67.46720 82.000
67.48714 91.000
67.50709 98.000
67.52704 110.000
67.54698 95.000
67.56693 99.000
67.58688 113.000
67.60683 85.000
67.62677 99.000
67.64672 116.000
67.66667 99.000
67.68661 84.000
67.70656 93.000
67.72651 98.000
67.74645 108.000
67.76640 92.000
67.78635 105.000
67.80630 98.000
67.82624 96.000
67.84619 110.000
67.86614 108.000
67.88608 135.000
67.90603 118.000
67.92598 95.000
67.94592 116.000
67.96587 106.000
67.98582 109.000
68.00576 101.000
68.02571 106.000
68.04566 106.000
68.06561 99.000
68.08555 118.000
68.10550 103.000
68.12545 95.000
68.14539 112.000
68.16534 100.000
68.18529 92.000
68.20523 115.000
68.22518 115.000
68.24513 115.000
68.26508 103.000
68.28502 110.000
68.30497 91.000
68.32492 93.000
68.34486 98.000
68.36481 97.000
68.38476 105.000
68.40470 111.000
68.42465 99.000
68.44460 90.000
68.46455 102.000
68.48449 95.000
68.50444 122.000
68.52439 113.000
68.54433 97.000
68.56428 78.000
68.58423 90.000
68.60417 107.000
68.62412 86.000
68.64407 93.000
68.66401 92.000
68.68396 93.000
68.70391 93.000
68.72386 88.000
68.74380 105.000
68.76375 103.000
68.78370 83.000
68.80364 90.000
68.82359 95.000
68.84354 93.000
68.86348 102.000
68.88343 95.000
68.90338 94.000
68.92333 97.000
68.94327 93.000
68.96322 89.000
68.98317 84.000
69.00311 104.000
69.02306 94.000
69.04301 93.000
69.06295 100.000
69.08290 110.000
69.10285 83.000
69.12279 101.000
69.14274 100.000
69.16269 87.000
69.18264 90.000
69.20258 106.000
69.22253 88.000
69.24248 90.000
69.26242 99.000
69.28237 104.000
69.30232 99.000
69.32226 89.000
69.34221 101.000
69.36216 79.000
69.38211 111.000
69.40205 93.000
69.42200 90.000
69.44195 121.000
69.46189 85.000
69.48184 91.000
69.50179 99.000
69.52173 89.000
69.54168 84.000
69.56163 107.000
69.58157 86.000
69.60152 100.000
69.62147 92.000
69.64142 85.000
69.66136 88.000
69.68131 91.000
69.70126 89.000
69.72120 101.000
69.74115 98.000
69.76110 97.000
69.78104 87.000
69.80099 70.000
69.82094 79.000
69.84089 87.000
69.86083 85.000
69.88078 102.000
69.90073 78.000
69.92067 92.000
69.94062 111.000
69.96057 85.000
69.98051 88.000
70.00046 86.000
70.02041 104.000
70.04035 95.000
70.06030 108.000
70.08025 107.000
70.10020 70.000
70.12014 88.000
70.14009 100.000
70.16004 95.000
70.17998 89.000
70.19993 100.000
70.21988 94.000
70.23982 100.000
70.25977 94.000
70.27972 102.000
70.29967 115.000
70.31961 79.000
70.33956 94.000
70.35951 93.000
70.37945 104.000
70.39940 94.000
70.41935 89.000
70.43929 113.000
70.45924 85.000
70.47919 94.000
70.49914 113.000
70.51908 96.000
70.53903 98.000
70.55898 94.000
70.57892 87.000
70.59887 103.000
70.61882 95.000
70.63876 103.000
70.65871 83.000
70.67866 94.000
70.69860 106.000
70.71855 98.000
70.73850 86.000
70.75845 88.000
70.77839 96.000
70.79834 102.000
70.81829 100.000
70.83823 78.000
70.85818 97.000
70.87813 102.000
70.89807 90.000
70.91802 86.000
70.93797 80.000
70.95792 87.000
70.97786 101.000
70.99781 111.000
71.01776 87.000
71.03770 109.000
71.05765 84.000
71.07760 88.000
71.09754 85.000
71.11749 104.000
71.13744 96.000
71.15738 74.000
71.17733 105.000
71.19728 74.000
71.21723 84.000
71.23717 96.000
71.25712 97.000
71.27707 98.000
71.29701 79.000
71.31696 90.000
71.33691 89.000
71.35685 88.000
71.37680 84.000
71.39675 78.000
71.41670 85.000
71.43664 83.000
71.45659 90.000
71.47654 95.000
71.49648 82.000
71.51643 93.000
71.53638 90.000
71.55632 105.000
71.57627 80.000
71.59622 92.000
71.61616 94.000
71.63611 107.000
71.65606 107.000
71.67601 101.000
71.69595 90.000
71.71590 79.000
71.73585 93.000
71.75579 90.000
71.77574 76.000
71.79569 83.000
71.81563 96.000
71.83558 87.000
71.85553 90.000
71.87548 90.000
71.89542 93.000
71.91537 106.000
71.93532 106.000
71.95526 96.000
71.97521 103.000
71.99516 101.000
72.01510 84.000
72.03505 98.000
72.05500 92.000
72.07495 111.000
72.09489 93.000
72.11484 103.000
72.13479 116.000
72.15473 102.000
72.17468 94.000
72.19463 88.000
72.21457 93.000
72.23452 91.000
72.25447 81.000
72.27441 109.000
72.29436 83.000
72.31431 100.000
72.33426 104.000
72.35420 120.000
72.37415 91.000
72.39410 93.000
72.41404 108.000
72.43399 98.000
72.45394 84.000
72.47388 82.000
72.49383 93.000
72.51378 92.000
72.53373 88.000
72.55367 89.000
72.57362 93.000
72.59357 96.000
72.61351 85.000
72.63346 82.000
72.65341 95.000
72.67335 88.000
72.69330 86.000
72.71325 105.000
72.73319 99.000
72.75314 109.000
72.77309 78.000
72.79304 99.000
72.81298 102.000
72.83293 93.000
72.85288 102.000
72.87282 99.000
72.89277 101.000
72.91272 77.000
72.93266 93.000
72.95261 97.000
72.97256 96.000
72.99251 94.000
73.01245 100.000
73.03240 102.000
73.05235 78.000
73.07229 115.000
73.09224 115.000
73.11219 110.000
73.13213 109.000
73.15208 137.000
73.17203 120.000
73.19197 121.000
73.21192 131.000
73.23187 147.000
73.25182 147.000
73.27176 149.000
73.29171 159.000
73.31166 175.000
73.33160 194.000
73.35155 209.000
73.37150 186.000
73.39144 185.000
73.41139 179.000
73.43134 182.000
73.45129 184.000
73.47123 170.000
73.49118 190.000
73.51113 189.000
73.53107 156.000
73.55102 161.000
73.57097 178.000
73.59091 163.000
73.61086 148.000
73.63081 144.000
73.65076 136.000
73.67070 111.000
73.69065 129.000
73.71060 128.000
73.73054 122.000
73.75049 106.000
73.77044 110.000
73.79038 116.000
73.81033 99.000
73.83028 113.000
73.85022 123.000
73.87017 94.000
73.89012 112.000
73.91007 103.000
73.93001 85.000
73.94996 111.000
73.96991 103.000
73.98985 75.000
74.00980 105.000
74.02975 112.000
74.04969 104.000
74.06964 95.000
74.08959 104.000
74.10954 100.000
74.12948 96.000
74.14943 98.000
74.16938 99.000
74.18932 82.000
74.20927 92.000
74.22922 95.000
74.24916 89.000
74.26911 91.000
74.28906 85.000
74.30900 89.000
74.32895 88.000
74.34890 78.000
74.36885 97.000
74.38879 97.000
74.40874 83.000
74.42869 105.000
74.44863 109.000
74.46858 84.000
74.48853 93.000
74.50847 99.000
74.52842 107.000
74.54837 96.000
74.56832 98.000
74.58826 99.000
74.60821 84.000
74.62816 94.000
74.64810 121.000
74.66805 94.000
74.68800 87.000
74.70794 79.000
74.72789 96.000
74.74784 95.000
74.76778 91.000
74.78773 93.000
74.80768 83.000
74.82763 89.000
74.84757 93.000
74.86752 98.000
74.88747 110.000
74.90741 95.000
74.92736 101.000
74.94731 103.000
74.96725 94.000
74.98720 93.000
75.00715 113.000
75.02710 113.000
75.04704 106.000
75.06699 111.000
75.08694 110.000
75.10688 110.000
75.12683 106.000
75.14678 68.000
75.16672 117.000
75.18667 102.000
75.20662 106.000
75.22657 111.000
75.24651 110.000
75.26646 126.000
75.28641 101.000
75.30635 115.000
75.32630 93.000
75.34625 91.000
75.36619 131.000
75.38614 121.000
75.40609 128.000
75.42603 86.000
75.44598 108.000
75.46593 99.000
75.48588 106.000
75.50582 97.000
75.52577 116.000
75.54572 110.000
75.56566 115.000
75.58561 129.000
75.60556 133.000
75.62550 135.000
75.64545 127.000
75.66540 124.000
75.68535 118.000
75.70529 97.000
75.72524 135.000
75.74519 136.000
75.76513 143.000
75.78508 131.000
75.80503 150.000
75.82497 139.000
75.84492 138.000
75.86487 124.000
75.88481 119.000
75.90476 109.000
75.92471 106.000
75.94466 114.000
75.96460 111.000
75.98455 116.000
76.00450 87.000
76.02444 104.000
76.04439 106.000
76.06434 118.000
76.08428 102.000
76.10423 103.000
76.12418 114.000
76.14413 105.000
76.16407 78.000
76.18402 97.000
76.20397 107.000
76.22391 98.000
76.24386 104.000
76.26381 110.000
76.28375 116.000
76.30370 102.000
76.32365 102.000
76.34359 111.000
76.36354 91.000
76.38349 114.000
76.40344 95.000
76.42338 119.000
76.44333 105.000
76.46328 92.000
76.48322 98.000
76.50317 89.000
76.52312 77.000
76.54306 97.000
76.56301 110.000
76.58296 112.000
76.60291 92.000
76.62285 94.000
76.64280 88.000
76.66275 94.000
76.68269 105.000
76.70264 109.000
76.72259 105.000
76.74253 110.000
76.76248 111.000
76.78243 98.000
76.80238 81.000
76.82232 89.000
76.84227 115.000
76.86222 115.000
76.88216 109.000
76.90211 119.000
76.92206 107.000
76.94200 99.000
76.96195 99.000
76.98190 93.000
77.00184 94.000
77.02179 101.000
77.04174 94.000
77.06169 113.000
77.08163 93.000
77.10158 114.000
77.12153 107.000
77.14147 103.000
77.16142 115.000
77.18137 125.000
77.20131 125.000
77.22126 102.000
77.24121 117.000
77.26116 130.000
77.28110 122.000
77.30105 124.000
77.32100 122.000
77.34094 138.000
77.36089 125.000
77.38084 117.000
77.40078 133.000
77.42073 153.000
77.44068 184.000
77.46062 170.000
77.48057 182.000
77.50052 202.000
77.52047 221.000
77.54041 213.000
77.56036 203.000
77.58031 242.000
77.60025 259.000
77.62020 238.000
77.64015 213.000
77.66009 230.000
77.68004 255.000
77.69999 230.000
77.71994 226.000
77.73988 224.000
77.75983 244.000
77.77978 237.000
77.79972 250.000
77.81967 257.000
77.83962 227.000
77.85956 259.000
77.87951 238.000
77.89946 238.000
77.91940 249.000
77.93935 228.000
77.95930 234.000
77.97925 217.000
77.99919 210.000
78.01914 193.000
78.03909 180.000
78.05903 192.000
78.07898 194.000
78.09893 166.000
78.11887 169.000
78.13882 137.000
78.15877 156.000
78.17872 136.000
78.19866 149.000
78.21861 111.000
78.23856 113.000
78.25850 132.000
78.27845 116.000
78.29840 123.000
78.31834 126.000
78.33829 129.000
78.35824 109.000
78.37819 126.000
78.39813 91.000
78.41808 113.000
78.43803 103.000
78.45797 106.000
78.47792 90.000
78.49787 91.000
78.51781 96.000
78.53776 124.000
78.55771 101.000
78.57765 94.000
78.59760 99.000
78.61755 84.000
78.63750 108.000
78.65744 100.000
78.67739 102.000
78.69734 101.000
78.71728 79.000
78.73723 110.000
78.75718 98.000
78.77712 88.000
78.79707 89.000
78.81702 101.000
78.83697 81.000
78.85691 96.000
78.87686 98.000
78.89681 97.000
78.91675 91.000
78.93670 97.000
78.95665 103.000
78.97659 86.000
78.99654 80.000
79.01649 85.000
79.03643 88.000
79.05638 111.000
79.07633 112.000
79.09628 118.000
79.11622 85.000
79.13617 99.000
79.15612 114.000
79.17606 100.000
79.19601 116.000
79.21596 90.000
79.23590 102.000
79.25585 99.000
79.27580 89.000
79.29575 79.000
79.31569 104.000
79.33564 101.000
79.35559 94.000
79.37553 86.000
79.39548 94.000
79.41543 82.000
79.43537 93.000
79.45532 88.000
79.47527 85.000
79.49521 87.000
79.51516 78.000
79.53511 105.000
79.55506 92.000
79.57500 94.000
79.59495 92.000
79.61490 81.000
79.63484 98.000
79.65479 89.000
79.67474 80.000
79.69468 88.000
79.71463 114.000
79.73458 97.000
79.75453 91.000
79.77447 100.000
79.79442 104.000
79.81437 112.000
79.83431 86.000
79.85426 96.000
79.87421 100.000
79.89415 97.000
79.91410 91.000
79.93405 101.000
79.95399 101.000
79.97394 104.000
79.99389 89.000
80.01384 80.000
80.03378 94.000
80.05373 97.000
80.07368 94.000
80.09362 110.000
80.11357 70.000
80.13352 111.000
80.15346 105.000
80.17341 87.000
80.19336 94.000
80.21331 103.000
80.23325 89.000
80.25320 97.000
80.27315 98.000
80.29309 92.000
80.31304 94.000
80.33299 106.000
80.35293 103.000
80.37288 77.000
80.39283 70.000
80.41278 106.000
80.43272 85.000
80.45267 105.000
80.47262 103.000
80.49256 92.000
80.51251 107.000
80.53246 99.000
80.55240 108.000
80.57235 92.000
80.59230 97.000
80.61224 107.000
80.63219 91.000
80.65214 115.000
80.67209 104.000
80.69203 92.000
80.71198 114.000
80.73193 119.000
80.75187 95.000
80.77182 114.000
80.79177 117.000
80.81171 95.000
80.83166 91.000
80.85161 94.000
80.87156 105.000
80.89150 100.000
80.91145 91.000
80.93140 96.000
80.95134 93.000
80.97129 108.000
80.99124 96.000
81.01118 91.000
81.03113 97.000
81.05108 97.000
81.07102 97.000
81.09097 115.000
81.11092 90.000
81.13087 101.000
81.15081 96.000
81.17076 91.000
81.19071 104.000
81.21065 89.000
81.23060 91.000
81.25055 79.000
81.27049 77.000
81.29044 102.000
81.31039 111.000
81.33034 86.000
81.35028 113.000
81.37023 78.000
81.39018 83.000
81.41012 106.000
81.43007 81.000
81.45002 81.000
81.46996 87.000
81.48991 84.000
81.50986 103.000
81.52980 93.000
81.54975 83.000
81.56970 91.000
81.58965 87.000
81.60959 100.000
81.62954 109.000
81.64949 91.000
81.66943 71.000
81.68938 74.000
81.70933 98.000
81.72927 84.000
81.74922 105.000
81.76917 89.000
81.78912 94.000
81.80906 78.000
81.82901 96.000
81.84896 90.000
81.86890 92.000
81.88885 92.000
81.90880 100.000
81.92874 74.000
81.94869 103.000
81.96864 81.000
81.98859 95.000
82.00853 75.000
82.02848 94.000
82.04843 92.000
82.06837 94.000
82.08832 100.000
82.10827 101.000
82.12821 93.000
82.14816 75.000
82.16811 90.000
82.18805 89.000
82.20800 107.000
82.22795 88.000
82.24790 94.000
82.26784 85.000
82.28779 96.000
82.30774 104.000
82.32768 104.000
82.34763 85.000
82.36758 113.000
82.38752 81.000
82.40747 102.000
82.42742 94.000
82.44737 88.000
82.46731 108.000
82.48726 98.000
82.50721 95.000
82.52715 81.000
82.54710 104.000
82.56705 92.000
82.58699 105.000
82.60694 85.000
82.62689 102.000
82.64683 92.000
82.66678 97.000
82.68673 85.000
82.70668 100.000
82.72662 90.000
82.74657 96.000
82.76652 94.000
82.78646 90.000
82.80641 81.000
82.82636 97.000
82.84630 103.000
82.86625 91.000
82.88620 89.000
82.90615 86.000
82.92609 73.000
82.94604 97.000
82.96599 90.000
82.98593 92.000
83.00588 91.000
83.02583 107.000
83.04577 91.000
83.06572 96.000
83.08567 89.000
83.10561 88.000
83.12556 97.000
83.14551 112.000
83.16546 85.000
83.18540 98.000
83.20535 91.000
83.22530 96.000
83.24524 92.000
83.26519 90.000
83.28514 90.000
83.30508 98.000
83.32503 90.000
83.34498 83.000
83.36493 110.000
83.38487 92.000
83.40482 104.000
83.42477 117.000
83.44471 95.000
83.46466 88.000
83.48461 110.000
83.50455 101.000
83.52450 94.000
83.54445 94.000
83.56440 105.000
83.58434 99.000
83.60429 122.000
83.62424 94.000
83.64418 83.000
83.66413 94.000
83.68408 85.000
83.70402 99.000
83.72397 91.000
83.74392 77.000
83.76386 87.000
83.78381 112.000
83.80376 98.000
83.82371 92.000
83.84365 100.000
83.86360 107.000
83.88355 88.000
83.90349 98.000
83.92344 104.000
83.94339 104.000
83.96333 102.000
83.98328 106.000
84.00323 95.000
84.02318 93.000
84.04312 102.000
84.06307 102.000
84.08302 108.000
84.10296 115.000
84.12291 145.000
84.14286 144.000
84.16280 144.000
84.18275 140.000
84.20270 148.000
84.22264 126.000
84.24259 168.000
84.26254 172.000
84.28249 190.000
84.30243 178.000
84.32238 160.000
84.34233 187.000
84.36227 188.000
84.38222 177.000
84.40217 160.000
84.42211 186.000
84.44206 167.000
84.46201 173.000
84.48196 176.000
84.50190 180.000
84.52185 187.000
84.54180 163.000
84.56174 179.000
84.58169 174.000
84.60164 174.000
84.62158 144.000
84.64153 164.000
84.66148 158.000
84.68142 156.000
84.70137 128.000
84.72132 129.000
84.74127 140.000
84.76121 142.000
84.78116 138.000
84.80111 121.000
84.82105 97.000
84.84100 108.000
84.86095 116.000
84.88089 125.000
84.90084 98.000
84.92079 102.000
84.94074 97.000
84.96068 83.000
84.98063 83.000
85.00058 111.000
85.02052 104.000
85.04047 92.000
85.06042 106.000
85.08036 103.000
85.10031 102.000
85.12026 110.000
85.14021 92.000
85.16015 81.000
85.18010 93.000
85.20005 129.000
85.21999 105.000
85.23994 101.000
85.25989 117.000
85.27983 86.000
85.29978 100.000
85.31973 106.000
85.33967 98.000
85.35962 85.000
85.37957 89.000
85.39952 91.000
85.41946 96.000
85.43941 97.000
85.45936 94.000
85.47930 99.000
85.49925 98.000
85.51920 102.000
85.53914 90.000
85.55909 103.000
85.57904 80.000
85.59899 96.000
85.61893 99.000
85.63888 100.000
85.65883 94.000
85.67877 75.000
85.69872 80.000
85.71867 96.000
85.73861 87.000
85.75856 104.000
85.77851 93.000
85.79845 89.000
85.81840 73.000
85.83835 88.000
85.85830 92.000
85.87824 126.000
85.89819 121.000
85.91814 100.000
85.93808 96.000
85.95803 106.000
85.97798 91.000
85.99792 92.000
86.01787 93.000
86.03782 99.000
86.05777 104.000
86.07771 105.000
86.09766 106.000
86.11761 99.000
86.13755 117.000
86.15750 101.000
86.17745 99.000
86.19739 113.000
86.21734 118.000
86.23729 124.000
86.25723 121.000
86.27718 92.000
86.29713 92.000
86.31708 103.000
86.33702 119.000
86.35697 102.000
86.37692 89.000
86.39686 106.000
86.41681 92.000
86.43676 96.000
86.45670 78.000
86.47665 113.000
86.49660 108.000
86.51655 92.000
86.53649 109.000
86.55644 112.000
86.57639 105.000
86.59633 106.000
86.61628 98.000
86.63623 107.000
86.65617 117.000
86.67612 102.000
86.69607 90.000
86.71602 95.000
86.73596 102.000
86.75591 98.000
86.77586 119.000
86.79580 116.000
86.81575 125.000
86.83570 102.000
86.85564 106.000
86.87559 111.000
86.89554 111.000
86.91548 100.000
86.93543 126.000
86.95538 90.000
86.97533 101.000
86.99527 104.000
87.01522 89.000
87.03517 96.000
87.05511 104.000
87.07506 100.000
87.09501 113.000
87.11495 107.000
87.13490 87.000
87.15485 83.000
87.17480 88.000
87.19474 90.000
87.21469 100.000
87.23464 94.000
87.25458 98.000
87.27453 96.000
87.29448 91.000
87.31442 79.000
87.33437 92.000
87.35432 101.000
87.37426 95.000
87.39421 109.000
87.41416 85.000
87.43411 88.000
87.45405 99.000
87.47400 94.000
87.49395 80.000
87.51389 86.000
87.53384 101.000
87.55379 72.000
87.57373 83.000
87.59368 102.000
87.61363 94.000
87.63358 81.000
87.65352 85.000
87.67347 77.000
87.69342 99.000
87.71336 80.000
87.73331 89.000
87.75326 87.000
87.77320 107.000
87.79315 95.000
87.81310 88.000
87.83304 89.000
87.85299 89.000
87.87294 89.000
87.89289 83.000
87.91283 103.000
87.93278 83.000
87.95273 79.000
87.97267 83.000
87.99262 86.000
88.01257 88.000
88.03251 97.000
88.05246 89.000
88.07241 97.000
88.09236 86.000
88.11230 80.000
88.13225 81.000
88.15220 77.000
88.17214 78.000
88.19209 91.000
88.21204 86.000
88.23198 89.000
88.25193 92.000
88.27188 82.000
88.29183 99.000
88.31177 84.000
88.33172 85.000
88.35167 76.000
88.37161 81.000
88.39156 81.000
88.41151 97.000
88.43145 85.000
88.45140 82.000
88.47135 76.000
88.49129 90.000
88.51124 101.000
88.53119 81.000
88.55114 102.000
88.57108 82.000
88.59103 61.000
88.61098 86.000
88.63092 88.000
88.65087 88.000
88.67082 99.000
88.69076 92.000
88.71071 101.000
88.73066 89.000
88.75061 86.000
88.77055 79.000
88.79050 91.000
88.81045 88.000
88.83039 81.000
88.85034 105.000
88.87029 80.000
88.89023 97.000
88.91018 94.000
88.93013 89.000
88.95007 80.000
88.97002 92.000
88.98997 82.000
89.00992 94.000
89.02986 78.000
89.04981 84.000
89.06976 96.000
89.08970 85.000
89.10965 100.000
89.12960 86.000
89.14954 83.000
89.16949 88.000
89.18944 99.000
89.20939 90.000
89.22933 79.000
89.24928 103.000
89.26923 79.000
89.28917 68.000
89.30912 95.000
89.32907 87.000
89.34901 103.000
89.36896 89.000
89.38891 88.000
89.40885 103.000
89.42880 104.000
89.44875 87.000
89.46870 82.000
89.48864 79.000
89.50859 83.000
89.52854 82.000
89.54848 85.000
89.56843 78.000
89.58838 95.000
89.60832 89.000
89.62827 101.000
89.64822 82.000
89.66817 75.000
89.68811 85.000
89.70806 81.000
89.72801 81.000
89.74795 110.000
89.76790 88.000
89.78785 72.000
89.80779 92.000
89.82774 111.000
89.84769 88.000
89.86764 84.000
89.88758 90.000
89.90753 94.000
89.92748 98.000
89.94742 75.000
89.96737 97.000
89.98732 88.000
90.00726 75.000
