10.00000 142.000
10.01995 128.000
10.03989 130.000
10.05984 169.000
10.07979 134.000
10.09973 149.000
10.11968 132.000
10.13963 127.000
10.15958 118.000
10.17952 146.000
10.19947 146.000
10.21942 140.000
10.23936 147.000
10.25931 146.000
10.27926 157.000
10.29920 141.000
10.31915 106.000
10.33910 141.000
10.35905 120.000
10.37899 137.000
10.39894 138.000
10.41889 146.000
10.43883 146.000
10.45878 123.000
10.47873 133.000
10.49867 123.000
10.51862 133.000
10.53857 130.000
10.55851 154.000
10.57846 130.000
10.59841 129.000
10.61836 118.000
10.63830 125.000
10.65825 121.000
10.67820 124.000
10.69814 136.000
10.71809 146.000
10.73804 137.000
10.75798 142.000
10.77793 155.000
10.79788 141.000
10.81783 157.000
10.83777 130.000
10.85772 115.000
10.87767 137.000
10.89761 138.000
10.91756 142.000
10.93751 113.000
10.95745 138.000
10.97740 135.000
10.99735 147.000
11.01730 134.000
11.03724 119.000
11.05719 132.000
11.07714 125.000
11.09708 124.000
11.11703 128.000
11.13698 122.000
11.15692 127.000
11.17687 130.000
11.19682 125.000
11.21676 142.000
11.23671 141.000
11.25666 122.000
11.27661 113.000
11.29655 145.000
11.31650 149.000
11.33645 131.000
11.35639 144.000
11.37634 142.000
11.39629 133.000
11.41623 132.000
11.43618 149.000
11.45613 119.000
11.47608 140.000
11.49602 119.000
11.51597 103.000
11.53592 157.000
11.55586 129.000
11.57581 165.000
11.59576 118.000
11.61570 139.000
11.63565 144.000
11.65560 130.000
11.67554 129.000
11.69549 123.000
11.71544 149.000
11.73539 143.000
11.75533 147.000
11.77528 134.000
11.79523 161.000
11.81517 129.000
11.83512 136.000
11.85507 144.000
11.87501 142.000
11.89496 139.000
11.91491 131.000
11.93486 135.000
11.95480 135.000
11.97475 125.000
11.99470 139.000
12.01464 120.000
12.03459 136.000
12.05454 139.000
12.07448 146.000
12.09443 132.000
12.11438 130.000
12.13432 150.000
12.15427 157.000
12.17422 143.000
12.19417 153.000
12.21411 127.000
12.23406 120.000
12.25401 142.000
12.27395 129.000
12.29390 135.000
12.31385 154.000
12.33379 141.000
12.35374 119.000
12.37369 152.000
12.39364 131.000
12.41358 144.000
12.43353 133.000
12.45348 138.000
12.47342 123.000
12.49337 158.000
12.51332 136.000
12.53326 123.000
12.55321 109.000
12.57316 135.000
12.59311 129.000
12.61305 142.000
12.63300 146.000
12.65295 132.000
12.67289 124.000
12.69284 147.000
12.71279 146.000
12.73273 116.000
12.75268 123.000
12.77263 117.000
12.79257 135.000
12.81252 149.000
12.83247 153.000
12.85242 133.000
12.87236 151.000
12.89231 141.000
12.91226 124.000
12.93220 134.000
12.95215 109.000
12.97210 138.000
12.99204 124.000
13.01199 134.000
13.03194 129.000
13.05189 133.000
13.07183 137.000
13.09178 136.000
13.11173 139.000
13.13167 151.000
13.15162 142.000
13.17157 120.000
13.19151 154.000
13.21146 148.000
13.23141 137.000
13.25135 130.000
13.27130 119.000
13.29125 126.000
13.31120 115.000
13.33114 136.000
13.35109 154.000
13.37104 140.000
13.39098 140.000
13.41093 129.000
13.43088 118.000
13.45082 138.000
13.47077 145.000
13.49072 149.000
13.51067 114.000
13.53061 133.000
13.55056 130.000
13.57051 130.000
13.59045 135.000
13.61040 113.000
13.63035 142.000
13.65029 123.000
13.67024 134.000
13.69019 126.000
13.71013 140.000
13.73008 142.000
13.75003 136.000
13.76998 142.000
13.78992 141.000
13.80987 137.000
13.82982 136.000
13.84976 129.000
13.86971 141.000
13.88966 128.000
13.90960 102.000
13.92955 145.000
13.94950 131.000
13.96945 121.000
13.98939 140.000
14.00934 125.000
14.02929 143.000
14.04923 140.000
14.06918 122.000
14.08913 136.000
14.10907 126.000
14.12902 150.000
14.14897 143.000
14.16892 143.000
14.18886 146.000
14.20881 131.000
14.22876 131.000
14.24870 135.000
14.26865 137.000
14.28860 151.000
14.30854 131.000
14.32849 170.000
14.34844 123.000
14.36838 123.000
14.38833 141.000
14.40828 128.000
14.42823 146.000
14.44817 160.000
14.46812 134.000
14.48807 144.000
14.50801 141.000
14.52796 133.000
14.54791 142.000
14.56785 153.000
14.58780 157.000
14.60775 138.000
14.62770 131.000
14.64764 140.000
14.66759 150.000
14.68754 137.000
14.70748 115.000
14.72743 145.000
14.74738 138.000
14.76732 133.000
14.78727 121.000
14.80722 130.000
14.82716 159.000
14.84711 160.000
14.86706 133.000
14.88701 159.000
14.90695 156.000
14.92690 146.000
14.94685 142.000
14.96679 134.000
14.98674 135.000
15.00669 156.000
15.02663 152.000
15.04658 144.000
15.06653 159.000
15.08648 154.000
15.10642 149.000
15.12637 148.000
15.14632 170.000
15.16626 162.000
15.18621 172.000
15.20616 168.000
15.22610 163.000
15.24605 165.000
15.26600 148.000
15.28594 173.000
15.30589 156.000
15.32584 192.000
15.34579 177.000
15.36573 168.000
15.38568 205.000
15.40563 181.000
15.42557 217.000
15.44552 212.000
15.46547 202.000
15.48541 211.000
15.50536 219.000
15.52531 230.000
15.54526 268.000
15.56520 319.000
15.58515 314.000
15.60510 371.000
15.62504 415.000
15.64499 587.000
15.66494 798.000
15.68488 1015.000
15.70483 1350.000
15.72478 1885.000
15.74472 2568.000
15.76467 3254.000
15.78462 4101.000
15.80457 4814.000
15.82451 5066.000
15.84446 4483.000
15.86441 3461.000
15.88435 2368.000
15.90430 1430.000
15.92425 830.000
15.94419 525.000
15.96414 421.000
15.98409 362.000
16.00404 335.000
16.02398 283.000
16.04393 292.000
16.06388 309.000
16.08382 325.000
16.10377 376.000
16.12372 392.000
16.14366 388.000
16.16361 351.000
16.18356 361.000
16.20351 319.000
16.22345 261.000
16.24340 242.000
16.26335 226.000
16.28329 208.000
16.30324 204.000
16.32319 191.000
16.34313 176.000
16.36308 193.000
16.38303 180.000
16.40297 159.000
16.42292 143.000
16.44287 160.000
16.46282 150.000
16.48276 151.000
16.50271 145.000
16.52266 162.000
16.54260 134.000
16.56255 163.000
16.58250 138.000
16.60244 142.000
16.62239 146.000
16.64234 148.000
16.66229 164.000
16.68223 154.000
16.70218 143.000
16.72213 156.000
16.74207 147.000
16.76202 131.000
16.78197 145.000
16.80191 150.000
16.82186 134.000
16.84181 157.000
16.86175 128.000
16.88170 157.000
16.90165 163.000
16.92160 140.000
16.94154 142.000
16.96149 159.000
16.98144 144.000
17.00138 152.000
17.02133 131.000
17.04128 163.000
17.06122 127.000
17.08117 141.000
17.10112 125.000
17.12107 130.000
17.14101 147.000
17.16096 158.000
17.18091 148.000
17.20085 135.000
17.22080 144.000
17.24075 161.000
17.26069 127.000
17.28064 140.000
17.30059 140.000
17.32053 137.000
17.34048 142.000
17.36043 158.000
17.38038 117.000
17.40032 147.000
17.42027 145.000
17.44022 156.000
17.46016 130.000
17.48011 153.000
17.50006 148.000
17.52000 132.000
17.53995 131.000
17.55990 142.000
17.57985 172.000
17.59979 129.000
17.61974 124.000
17.63969 116.000
17.65963 129.000
17.67958 147.000
17.69953 124.000
17.71947 145.000
17.73942 120.000
17.75937 127.000
17.77932 141.000
17.79926 139.000
17.81921 127.000
17.83916 145.000
17.85910 152.000
17.87905 140.000
17.89900 141.000
17.91894 155.000
17.93889 130.000
17.95884 146.000
17.97878 127.000
17.99873 155.000
18.01868 153.000
18.03863 135.000
18.05857 132.000
18.07852 136.000
18.09847 159.000
18.11841 125.000
18.13836 138.000
18.15831 149.000
18.17825 161.000
18.19820 156.000
18.21815 147.000
18.23810 163.000
18.25804 210.000
18.27799 243.000
18.29794 250.000
18.31788 323.000
18.33783 370.000
18.35778 394.000
18.37772 303.000
18.39767 288.000
18.41762 222.000
18.43756 200.000
18.45751 168.000
18.47746 135.000
18.49741 129.000
18.51735 133.000
18.53730 138.000
18.55725 134.000
18.57719 152.000
18.59714 145.000
18.61709 133.000
18.63703 127.000
18.65698 125.000
18.67693 129.000
18.69688 137.000
18.71682 129.000
18.73677 141.000
18.75672 139.000
18.77666 115.000
18.79661 129.000
18.81656 123.000
18.83650 129.000
18.85645 129.000
18.87640 148.000
18.89634 146.000
18.91629 156.000
18.93624 122.000
18.95619 132.000
18.97613 131.000
18.99608 141.000
19.01603 129.000
19.03597 147.000
19.05592 133.000
19.07587 134.000
19.09581 146.000
19.11576 147.000
19.13571 137.000
19.15566 137.000
19.17560 144.000
19.19555 109.000
19.21550 128.000
19.23544 145.000
19.25539 135.000
19.27534 119.000
19.29528 121.000
19.31523 131.000
19.33518 129.000
19.35513 134.000
19.37507 140.000
19.39502 134.000
19.41497 119.000
19.43491 153.000
19.45486 161.000
19.47481 126.000
19.49475 118.000
19.51470 145.000
19.53465 126.000
19.55459 136.000
19.57454 145.000
19.59449 145.000
19.61444 125.000
19.63438 129.000
19.65433 173.000
19.67428 141.000
19.69422 146.000
19.71417 160.000
19.73412 155.000
19.75406 143.000
19.77401 148.000
19.79396 130.000
19.81391 127.000
19.83385 130.000
19.85380 130.000
19.87375 152.000
19.89369 139.000
19.91364 123.000
19.93359 141.000
19.95353 128.000
19.97348 158.000
19.99343 137.000
20.01337 144.000
20.03332 126.000
20.05327 169.000
20.07322 136.000
20.09316 147.000
20.11311 151.000
20.13306 124.000
20.15300 136.000
20.17295 133.000
20.19290 127.000
20.21284 127.000
20.23279 140.000
20.25274 153.000
20.27269 133.000
20.29263 141.000
20.31258 153.000
20.33253 134.000
20.35247 144.000
20.37242 149.000
20.39237 146.000
20.41231 154.000
20.43226 121.000
20.45221 158.000
20.47215 135.000
20.49210 125.000
20.51205 136.000
20.53200 140.000
20.55194 134.000
20.57189 138.000
20.59184 143.000
20.61178 142.000
20.63173 158.000
20.65168 146.000
20.67162 171.000
20.69157 169.000
20.71152 173.000
20.73147 162.000
20.75141 197.000
20.77136 209.000
20.79131 216.000
20.81125 214.000
20.83120 272.000
20.85115 234.000
20.87109 288.000
20.89104 262.000
20.91099 273.000
20.93094 274.000
20.95088 299.000
20.97083 289.000
20.99078 319.000
21.01072 306.000
21.03067 274.000
21.05062 255.000
21.07056 249.000
21.09051 203.000
21.11046 170.000
21.13040 161.000
21.15035 138.000
21.17030 137.000
21.19025 150.000
21.21019 140.000
21.23014 143.000
21.25009 143.000
21.27003 145.000
21.28998 133.000
21.30993 154.000
21.32987 140.000
21.34982 139.000
21.36977 139.000
21.38972 144.000
21.40966 146.000
21.42961 122.000
21.44956 132.000
21.46950 157.000
21.48945 116.000
21.50940 134.000
21.52934 141.000
21.54929 143.000
21.56924 150.000
21.58918 126.000
21.60913 141.000
21.62908 128.000
21.64903 126.000
21.66897 137.000
21.68892 129.000
21.70887 141.000
21.72881 109.000
21.74876 126.000
21.76871 132.000
21.78865 138.000
21.80860 132.000
21.82855 126.000
21.84850 148.000
21.86844 139.000
21.88839 140.000
21.90834 136.000
21.92828 138.000
21.94823 146.000
21.96818 156.000
21.98812 121.000
22.00807 141.000
22.02802 126.000
22.04796 127.000
22.06791 129.000
22.08786 145.000
22.10781 134.000
22.12775 139.000
22.14770 152.000
22.16765 138.000
22.18759 158.000
22.20754 151.000
22.22749 150.000
22.24743 130.000
22.26738 135.000
22.28733 131.000
22.30728 142.000
22.32722 130.000
22.34717 135.000
22.36712 132.000
22.38706 130.000
22.40701 145.000
22.42696 122.000
22.44690 135.000
22.46685 119.000
22.48680 148.000
22.50675 134.000
22.52669 113.000
22.54664 136.000
22.56659 118.000
22.58653 138.000
22.60648 132.000
22.62643 155.000
22.64637 127.000
22.66632 140.000
22.68627 114.000
22.70621 131.000
22.72616 126.000
22.74611 136.000
22.76606 152.000
22.78600 158.000
22.80595 117.000
22.82590 122.000
22.84584 150.000
22.86579 122.000
22.88574 121.000
22.90568 122.000
22.92563 122.000
22.94558 161.000
22.96553 151.000
22.98547 148.000
23.00542 155.000
23.02537 141.000
23.04531 122.000
23.06526 141.000
23.08521 142.000
23.10515 143.000
23.12510 147.000
23.14505 137.000
23.16499 162.000
23.18494 149.000
23.20489 145.000
23.22484 154.000
23.24478 139.000
23.26473 159.000
23.28468 131.000
23.30462 135.000
23.32457 147.000
23.34452 142.000
23.36446 138.000
23.38441 160.000
23.40436 147.000
23.42431 135.000
23.44425 135.000
23.46420 139.000
23.48415 136.000
23.50409 153.000
23.52404 120.000
23.54399 161.000
23.56393 145.000
23.58388 121.000
23.60383 128.000
23.62377 157.000
23.64372 140.000
23.66367 136.000
23.68362 128.000
23.70356 143.000
23.72351 142.000
23.74346 127.000
23.76340 151.000
23.78335 142.000
23.80330 148.000
23.82324 135.000
23.84319 142.000
23.86314 129.000
23.88309 107.000
23.90303 139.000
23.92298 139.000
23.94293 126.000
23.96287 144.000
23.98282 152.000
24.00277 148.000
24.02271 130.000
24.04266 151.000
24.06261 130.000
24.08256 151.000
24.10250 135.000
24.12245 127.000
24.14240 150.000
24.16234 146.000
24.18229 143.000
24.20224 139.000
24.22218 147.000
24.24213 143.000
24.26208 163.000
24.28202 153.000
24.30197 151.000
24.32192 143.000
24.34187 114.000
24.36181 136.000
24.38176 138.000
24.40171 144.000
24.42165 138.000
24.44160 142.000
24.46155 140.000
24.48149 121.000
24.50144 155.000
24.52139 152.000
24.54134 140.000
24.56128 142.000
24.58123 135.000
24.60118 155.000
24.62112 132.000
24.64107 116.000
24.66102 162.000
24.68096 137.000
24.70091 158.000
24.72086 138.000
24.74080 140.000
24.76075 145.000
24.78070 155.000
24.80065 137.000
24.82059 129.000
24.84054 138.000
24.86049 161.000
24.88043 121.000
24.90038 160.000
24.92033 140.000
24.94027 137.000
24.96022 170.000
24.98017 156.000
25.00012 154.000
25.02006 127.000
25.04001 152.000
25.05996 155.000
25.07990 142.000
25.09985 141.000
25.11980 146.000
25.13974 141.000
25.15969 148.000
25.17964 137.000
25.19958 147.000
25.21953 158.000
25.23948 155.000
25.25943 140.000
25.27937 143.000
25.29932 142.000
25.31927 129.000
25.33921 139.000
25.35916 144.000
25.37911 134.000
25.39905 130.000
25.41900 149.000
25.43895 164.000
25.45890 154.000
25.47884 143.000
25.49879 140.000
25.51874 139.000
25.53868 158.000
25.55863 122.000
25.57858 141.000
25.59852 151.000
25.61847 135.000
25.63842 132.000
25.65837 141.000
25.67831 143.000
25.69826 132.000
25.71821 144.000
25.73815 152.000
25.75810 149.000
25.77805 145.000
25.79799 158.000
25.81794 142.000
25.83789 143.000
25.85783 155.000
25.87778 142.000
25.89773 160.000
25.91768 143.000
25.93762 135.000
25.95757 163.000
25.97752 138.000
25.99746 151.000
26.01741 144.000
26.03736 127.000
26.05730 140.000
26.07725 144.000
26.09720 140.000
26.11715 146.000
26.13709 120.000
26.15704 139.000
26.17699 139.000
26.19693 142.000
26.21688 150.000
26.23683 138.000
26.25677 153.000
26.27672 161.000
26.29667 139.000
26.31661 135.000
26.33656 139.000
26.35651 124.000
26.37646 145.000
26.39640 158.000
26.41635 142.000
26.43630 134.000
26.45624 141.000
26.47619 139.000
26.49614 141.000
26.51608 125.000
26.53603 147.000
26.55598 132.000
26.57593 137.000
26.59587 151.000
26.61582 153.000
26.63577 137.000
26.65571 148.000
26.67566 145.000
26.69561 143.000
26.71555 133.000
26.73550 138.000
26.75545 136.000
26.77539 149.000
26.79534 157.000
26.81529 145.000
26.83524 139.000
26.85518 149.000
26.87513 157.000
26.89508 142.000
26.91502 149.000
26.93497 134.000
26.95492 155.000
26.97486 154.000
26.99481 140.000
27.01476 136.000
27.03471 131.000
27.05465 135.000
27.07460 138.000
27.09455 151.000
27.11449 150.000
27.13444 142.000
27.15439 140.000
27.17433 140.000
27.19428 158.000
27.21423 137.000
27.23417 169.000
27.25412 149.000
27.27407 162.000
27.29402 166.000
27.31396 143.000
27.33391 141.000
27.35386 147.000
27.37380 135.000
27.39375 156.000
27.41370 136.000
27.43364 130.000
27.45359 153.000
27.47354 177.000
27.49349 156.000
27.51343 141.000
27.53338 151.000
27.55333 133.000
27.57327 145.000
27.59322 140.000
27.61317 136.000
27.63311 166.000
27.65306 136.000
27.67301 149.000
27.69296 126.000
27.71290 163.000
27.73285 139.000
27.75280 162.000
27.77274 128.000
27.79269 162.000
27.81264 146.000
27.83258 136.000
27.85253 150.000
27.87248 138.000
27.89242 154.000
27.91237 151.000
27.93232 144.000
27.95227 131.000
27.97221 163.000
27.99216 152.000
28.01211 127.000
28.03205 160.000
28.05200 156.000
28.07195 152.000
28.09189 173.000
28.11184 165.000
28.13179 158.000
28.15174 144.000
28.17168 138.000
28.19163 177.000
28.21158 163.000
28.23152 148.000
28.25147 150.000
28.27142 166.000
28.29136 155.000
28.31131 164.000
28.33126 143.000
28.35120 154.000
28.37115 151.000
28.39110 159.000
28.41105 155.000
28.43099 144.000
28.45094 160.000
28.47089 147.000
28.49083 152.000
28.51078 145.000
28.53073 168.000
28.55067 130.000
28.57062 141.000
28.59057 125.000
28.61052 147.000
28.63046 129.000
28.65041 152.000
28.67036 143.000
28.69030 142.000
28.71025 137.000
28.73020 148.000
28.75014 138.000
28.77009 150.000
28.79004 156.000
28.80998 181.000
28.82993 151.000
28.84988 145.000
28.86983 136.000
28.88977 161.000
28.90972 164.000
28.92967 157.000
28.94961 148.000
28.96956 161.000
28.98951 157.000
29.00945 152.000
29.02940 137.000
29.04935 140.000
29.06930 132.000
29.08924 142.000
29.10919 146.000
29.12914 141.000
29.14908 125.000
29.16903 146.000
29.18898 156.000
29.20892 148.000
29.22887 144.000
29.24882 186.000
29.26877 161.000
29.28871 162.000
29.30866 164.000
29.32861 187.000
29.34855 176.000
29.36850 157.000
29.38845 184.000
29.40839 168.000
29.42834 160.000
29.44829 150.000
29.46823 155.000
29.48818 151.000
29.50813 149.000
29.52808 153.000
29.54802 170.000
29.56797 129.000
29.58792 150.000
29.60786 162.000
29.62781 124.000
29.64776 142.000
29.66770 148.000
29.68765 146.000
29.70760 148.000
29.72755 166.000
29.74749 179.000
29.76744 165.000
29.78739 154.000
29.80733 169.000
29.82728 146.000
29.84723 145.000
29.86717 135.000
29.88712 177.000
29.90707 138.000
29.92701 168.000
29.94696 187.000
29.96691 153.000
29.98686 173.000
30.00680 204.000
30.02675 178.000
30.04670 181.000
30.06664 206.000
30.08659 241.000
30.10654 237.000
30.12648 292.000
30.14643 400.000
30.16638 467.000
30.18633 601.000
30.20627 723.000
30.22622 839.000
30.24617 706.000
30.26611 637.000
30.28606 547.000
30.30601 514.000
30.32595 394.000
30.34590 310.000
30.36585 218.000
30.38579 207.000
30.40574 191.000
30.42569 185.000
30.44564 180.000
30.46558 172.000
30.48553 144.000
30.50548 153.000
30.52542 176.000
30.54537 149.000
30.56532 165.000
30.58526 158.000
30.60521 155.000
30.62516 187.000
30.64511 156.000
30.66505 179.000
30.68500 164.000
30.70495 179.000
30.72489 157.000
30.74484 136.000
30.76479 152.000
30.78473 141.000
30.80468 145.000
30.82463 156.000
30.84458 183.000
30.86452 164.000
30.88447 140.000
30.90442 147.000
30.92436 144.000
30.94431 164.000
30.96426 144.000
30.98420 144.000
31.00415 132.000
31.02410 146.000
31.04404 172.000
31.06399 168.000
31.08394 150.000
31.10389 154.000
31.12383 161.000
31.14378 181.000
31.16373 162.000
31.18367 154.000
31.20362 166.000
31.22357 155.000
31.24351 163.000
31.26346 167.000
31.28341 193.000
31.30336 154.000
31.32330 181.000
31.34325 143.000
31.36320 170.000
31.38314 173.000
31.40309 188.000
31.42304 162.000
31.44298 157.000
31.46293 164.000
31.48288 150.000
31.50282 160.000
31.52277 160.000
31.54272 148.000
31.56267 153.000
31.58261 150.000
31.60256 148.000
31.62251 152.000
31.64245 177.000
31.66240 182.000
31.68235 179.000
31.70229 148.000
31.72224 171.000
31.74219 176.000
31.76214 173.000
31.78208 191.000
31.80203 193.000
31.82198 220.000
31.84192 235.000
31.86187 256.000
31.88182 277.000
31.90176 351.000
31.92171 370.000
31.94166 443.000
31.96160 442.000
31.98155 493.000
32.00150 559.000
32.02145 551.000
32.04139 551.000
32.06134 551.000
32.08129 470.000
32.10123 441.000
32.12118 353.000
32.14113 337.000
32.16107 328.000
32.18102 233.000
32.20097 233.000
32.22092 199.000
32.24086 166.000
32.26081 184.000
32.28076 149.000
32.30070 185.000
32.32065 181.000
32.34060 161.000
32.36054 180.000
32.38049 184.000
32.40044 155.000
32.42039 176.000
32.44033 165.000
32.46028 158.000
32.48023 173.000
32.50017 178.000
32.52012 158.000
32.54007 173.000
32.56001 161.000
32.57996 179.000
32.59991 174.000
32.61985 180.000
32.63980 162.000
32.65975 168.000
32.67970 163.000
32.69964 178.000
32.71959 183.000
32.73954 160.000
32.75948 179.000
32.77943 168.000
32.79938 153.000
32.81932 183.000
32.83927 165.000
32.85922 150.000
32.87917 140.000
32.89911 152.000
32.91906 172.000
32.93901 144.000
32.95895 167.000
32.97890 176.000
32.99885 181.000
33.01879 180.000
33.03874 174.000
33.05869 140.000
33.07863 132.000
33.09858 172.000
33.11853 161.000
33.13848 150.000
33.15842 137.000
33.17837 162.000
33.19832 163.000
33.21826 165.000
33.23821 155.000
33.25816 151.000
33.27810 151.000
33.29805 145.000
33.31800 168.000
33.33795 126.000
33.35789 155.000
33.37784 168.000
33.39779 175.000
33.41773 174.000
33.43768 165.000
33.45763 177.000
33.47757 151.000
33.49752 159.000
33.51747 156.000
33.53741 148.000
33.55736 153.000
33.57731 158.000
33.59726 177.000
33.61720 169.000
33.63715 163.000
33.65710 163.000
33.67704 171.000
33.69699 165.000
33.71694 152.000
33.73688 136.000
33.75683 145.000
33.77678 139.000
33.79673 177.000
33.81667 155.000
33.83662 134.000
33.85657 173.000
33.87651 161.000
33.89646 146.000
33.91641 162.000
33.93635 169.000
33.95630 174.000
33.97625 176.000
33.99620 173.000
34.01614 203.000
34.03609 154.000
34.05604 180.000
34.07598 182.000
34.09593 190.000
34.11588 167.000
34.13582 172.000
34.15577 196.000
34.17572 175.000
34.19566 198.000
34.21561 210.000
34.23556 214.000
34.25551 223.000
34.27545 220.000
34.29540 229.000
34.31535 194.000
34.33529 233.000
34.35524 246.000
34.37519 260.000
34.39513 237.000
34.41508 278.000
34.43503 264.000
34.45498 263.000
34.47492 275.000
34.49487 306.000
34.51482 298.000
34.53476 287.000
34.55471 279.000
34.57466 303.000
34.59460 281.000
34.61455 285.000
34.63450 301.000
34.65444 274.000
34.67439 292.000
34.69434 298.000
34.71429 292.000
34.73423 264.000
34.75418 270.000
34.77413 257.000
34.79407 211.000
34.81402 232.000
34.83397 198.000
34.85391 200.000
34.87386 178.000
34.89381 186.000
34.91376 209.000
34.93370 176.000
34.95365 179.000
34.97360 177.000
34.99354 162.000
35.01349 172.000
35.03344 181.000
35.05338 188.000
35.07333 191.000
35.09328 182.000
35.11322 176.000
35.13317 216.000
35.15312 224.000
35.17307 223.000
35.19301 235.000
35.21296 258.000
35.23291 242.000
35.25285 237.000
35.27280 251.000
35.29275 278.000
35.31269 336.000
35.33264 346.000
35.35259 368.000
35.37254 441.000
35.39248 519.000
35.41243 535.000
35.43238 634.000
35.45232 695.000
35.47227 819.000
35.49222 858.000
35.51216 983.000
35.53211 1316.000
35.55206 1622.000
35.57201 1973.000
35.59195 2360.000
35.61190 2379.000
35.63185 2160.000
35.65179 1979.000
35.67174 1791.000
35.69169 1714.000
35.71163 1400.000
35.73158 1243.000
35.75153 888.000
35.77147 693.000
35.79142 569.000
35.81137 468.000
35.83132 419.000
35.85126 385.000
35.87121 314.000
35.89116 313.000
35.91110 257.000
35.93105 263.000
35.95100 264.000
35.97094 219.000
35.99089 193.000
36.01084 164.000
36.03079 229.000
36.05073 212.000
36.07068 213.000
36.09063 221.000
36.11057 192.000
36.13052 199.000
36.15047 191.000
36.17041 187.000
36.19036 170.000
36.21031 200.000
36.23025 179.000
36.25020 206.000
36.27015 199.000
36.29010 201.000
36.31004 185.000
36.32999 198.000
36.34994 202.000
36.36988 177.000
36.38983 178.000
36.40978 180.000
36.42972 199.000
36.44967 185.000
36.46962 203.000
36.48957 184.000
36.50951 200.000
36.52946 198.000
36.54941 203.000
36.56935 167.000
36.58930 203.000
36.60925 219.000
36.62919 188.000
36.64914 229.000
36.66909 245.000
36.68903 219.000
36.70898 187.000
36.72893 209.000
36.74888 234.000
36.76882 243.000
36.78877 271.000
36.80872 246.000
36.82866 270.000
36.84861 305.000
36.86856 278.000
36.88850 303.000
36.90845 321.000
36.92840 360.000
36.94835 387.000
36.96829 459.000
36.98824 519.000
37.00819 560.000
37.02813 666.000
37.04808 730.000
37.06803 761.000
37.08797 674.000
37.10792 666.000
37.12787 636.000
37.14781 569.000
37.16776 553.000
37.18771 478.000
37.20766 451.000
37.22760 470.000
37.24755 416.000
37.26750 392.000
37.28744 331.000
37.30739 305.000
37.32734 266.000
37.34728 264.000
37.36723 287.000
37.38718 234.000
37.40713 173.000
37.42707 172.000
37.44702 181.000
37.46697 156.000
37.48691 164.000
37.50686 162.000
37.52681 152.000
37.54675 177.000
37.56670 182.000
37.58665 162.000
37.60660 187.000
37.62654 174.000
37.64649 178.000
37.66644 155.000
37.68638 170.000
37.70633 156.000
37.72628 165.000
37.74622 166.000
37.76617 192.000
37.78612 167.000
37.80606 152.000
37.82601 167.000
37.84596 184.000
37.86591 171.000
37.88585 150.000
37.90580 180.000
37.92575 147.000
37.94569 166.000
37.96564 152.000
37.98559 184.000
38.00553 152.000
38.02548 190.000
38.04543 182.000
38.06538 164.000
38.08532 171.000
38.10527 176.000
38.12522 160.000
38.14516 170.000
38.16511 178.000
38.18506 168.000
38.20500 175.000
38.22495 145.000
38.24490 167.000
38.26484 186.000
38.28479 197.000
38.30474 177.000
38.32469 180.000
38.34463 187.000
38.36458 163.000
38.38453 177.000
38.40447 179.000
38.42442 200.000
38.44437 190.000
38.46431 208.000
38.48426 217.000
38.50421 255.000
38.52416 262.000
38.54410 258.000
38.56405 272.000
38.58400 291.000
38.60394 307.000
38.62389 299.000
38.64384 315.000
38.66378 313.000
38.68373 336.000
38.70368 301.000
38.72362 308.000
38.74357 285.000
38.76352 267.000
38.78347 281.000
38.80341 287.000
38.82336 243.000
38.84331 311.000
38.86325 284.000
38.88320 336.000
38.90315 303.000
38.92309 327.000
38.94304 320.000
38.96299 363.000
38.98294 412.000
39.00288 418.000
39.02283 488.000
39.04278 541.000
39.06272 591.000
39.08267 675.000
39.10262 695.000
39.12256 762.000
39.14251 789.000
39.16246 835.000
39.18241 806.000
39.20235 808.000
39.22230 765.000
39.24225 806.000
39.26219 722.000
39.28214 791.000
39.30209 730.000
39.32203 755.000
39.34198 662.000
39.36193 599.000
39.38187 598.000
39.40182 482.000
39.42177 467.000
39.44172 389.000
39.46166 365.000
39.48161 291.000
39.50156 280.000
39.52150 231.000
39.54145 222.000
39.56140 211.000
39.58134 206.000
39.60129 207.000
39.62124 186.000
39.64119 207.000
39.66113 180.000
39.68108 189.000
39.70103 188.000
39.72097 188.000
39.74092 171.000
39.76087 161.000
39.78081 191.000
39.80076 174.000
39.82071 177.000
39.84065 185.000
39.86060 170.000
39.88055 131.000
39.90050 171.000
39.92044 176.000
39.94039 159.000
39.96034 166.000
39.98028 161.000
40.00023 175.000
40.02018 178.000
40.04012 148.000
40.06007 175.000
40.08002 146.000
40.09997 150.000
40.11991 171.000
40.13986 138.000
40.15981 141.000
40.17975 167.000
40.19970 164.000
40.21965 154.000
40.23959 141.000
40.25954 168.000
40.27949 149.000
40.29943 132.000
40.31938 137.000
40.33933 160.000
40.35928 167.000
40.37922 154.000
40.39917 175.000
40.41912 153.000
40.43906 155.000
40.45901 165.000
40.47896 163.000
40.49890 158.000
40.51885 164.000
40.53880 137.000
40.55875 158.000
40.57869 117.000
40.59864 130.000
40.61859 169.000
40.63853 168.000
40.65848 162.000
40.67843 148.000
40.69837 118.000
40.71832 138.000
40.73827 148.000
40.75822 161.000
40.77816 166.000
40.79811 139.000
40.81806 172.000
40.83800 150.000
40.85795 163.000
40.87790 165.000
40.89784 154.000
40.91779 178.000
40.93774 166.000
40.95768 170.000
40.97763 166.000
40.99758 148.000
41.01753 165.000
41.03747 129.000
41.05742 133.000
41.07737 173.000
41.09731 178.000
41.11726 157.000
41.13721 151.000
41.15715 166.000
41.17710 183.000
41.19705 158.000
41.21700 142.000
41.23694 163.000
41.25689 162.000
41.27684 166.000
41.29678 157.000
41.31673 179.000
41.33668 141.000
41.35662 158.000
41.37657 173.000
41.39652 162.000
41.41646 174.000
41.43641 152.000
41.45636 186.000
41.47631 178.000
41.49625 185.000
41.51620 255.000
41.53615 233.000
41.55609 256.000
41.57604 262.000
41.59599 280.000
41.61593 273.000
41.63588 275.000
41.65583 269.000
41.67578 249.000
41.69572 243.000
41.71567 224.000
41.73562 220.000
41.75556 188.000
41.77551 185.000
41.79546 154.000
41.81540 191.000
41.83535 162.000
41.85530 171.000
41.87524 157.000
41.89519 166.000
41.91514 146.000
41.93509 164.000
41.95503 165.000
41.97498 163.000
41.99493 173.000
42.01487 174.000
42.03482 151.000
42.05477 144.000
42.07471 159.000
42.09466 174.000
42.11461 153.000
42.13456 159.000
42.15450 155.000
42.17445 154.000
42.19440 184.000
42.21434 167.000
42.23429 184.000
42.25424 162.000
42.27418 181.000
42.29413 143.000
42.31408 174.000
42.33403 155.000
42.35397 172.000
42.37392 157.000
42.39387 167.000
42.41381 181.000
42.43376 158.000
42.45371 170.000
42.47365 191.000
42.49360 161.000
42.51355 182.000
42.53349 131.000
42.55344 181.000
42.57339 198.000
42.59334 201.000
42.61328 202.000
42.63323 187.000
42.65318 204.000
42.67312 217.000
42.69307 214.000
42.71302 229.000
42.73296 234.000
42.75291 248.000
42.77286 278.000
42.79281 298.000
42.81275 290.000
42.83270 330.000
42.85265 313.000
42.87259 375.000
42.89254 388.000
42.91249 451.000
42.93243 449.000
42.95238 507.000
42.97233 575.000
42.99227 587.000
43.01222 668.000
43.03217 741.000
43.05212 710.000
43.07206 779.000
43.09201 841.000
43.11196 811.000
43.13190 826.000
43.15185 815.000
43.17180 867.000
43.19174 860.000
43.21169 897.000
43.23164 971.000
43.25159 1048.000
43.27153 1007.000
43.29148 1026.000
43.31143 948.000
43.33137 893.000
43.35132 790.000
43.37127 817.000
43.39121 727.000
43.41116 723.000
43.43111 694.000
43.45105 590.000
43.47100 503.000
43.49095 415.000
43.51090 353.000
43.53084 377.000
43.55079 332.000
43.57074 275.000
43.59068 242.000
43.61063 258.000
43.63058 201.000
43.65052 208.000
43.67047 190.000
43.69042 214.000
43.71037 168.000
43.73031 185.000
43.75026 153.000
43.77021 188.000
43.79015 153.000
43.81010 190.000
43.83005 141.000
43.84999 187.000
43.86994 178.000
43.88989 180.000
43.90984 176.000
43.92978 167.000
43.94973 145.000
43.96968 185.000
43.98962 159.000
44.00957 154.000
44.02952 189.000
44.04946 163.000
44.06941 170.000
44.08936 135.000
44.10930 164.000
44.12925 167.000
44.14920 155.000
44.16915 169.000
44.18909 144.000
44.20904 167.000
44.22899 140.000
44.24893 149.000
44.26888 126.000
44.28883 156.000
44.30877 163.000
44.32872 150.000
44.34867 154.000
44.36862 162.000
44.38856 166.000
44.40851 138.000
44.42846 152.000
44.44840 163.000
44.46835 153.000
44.48830 169.000
44.50824 136.000
44.52819 147.000
44.54814 126.000
44.56808 158.000
44.58803 142.000
44.60798 177.000
44.62793 133.000
44.64787 164.000
44.66782 137.000
44.68777 161.000
44.70771 159.000
44.72766 145.000
44.74761 156.000
44.76755 152.000
44.78750 142.000
44.80745 151.000
44.82740 147.000
44.84734 141.000
44.86729 149.000
44.88724 150.000
44.90718 170.000
44.92713 149.000
44.94708 147.000
44.96702 163.000
44.98697 148.000
45.00692 169.000
45.02686 153.000
45.04681 149.000
45.06676 153.000
45.08671 153.000
45.10665 156.000
45.12660 165.000
45.14655 144.000
45.16649 144.000
45.18644 144.000
45.20639 147.000
45.22633 147.000
45.24628 156.000
45.26623 143.000
45.28618 154.000
45.30612 130.000
45.32607 140.000
45.34602 159.000
45.36596 149.000
45.38591 145.000
45.40586 139.000
45.42580 156.000
45.44575 142.000
45.46570 133.000
45.48565 158.000
45.50559 139.000
45.52554 135.000
45.54549 126.000
45.56543 135.000
45.58538 142.000
45.60533 165.000
45.62527 146.000
45.64522 149.000
45.66517 180.000
45.68511 149.000
45.70506 136.000
45.72501 145.000
45.74496 149.000
45.76490 161.000
45.78485 153.000
45.80480 168.000
45.82474 144.000
45.84469 164.000
45.86464 142.000
45.88458 149.000
45.90453 168.000
45.92448 133.000
45.94443 150.000
45.96437 136.000
45.98432 159.000
46.00427 141.000
46.02421 125.000
46.04416 137.000
46.06411 144.000
46.08405 143.000
46.10400 139.000
46.12395 134.000
46.14389 142.000
46.16384 154.000
46.18379 132.000
46.20374 133.000
46.22368 149.000
46.24363 134.000
46.26358 140.000
46.28352 146.000
46.30347 147.000
46.32342 145.000
46.34336 149.000
46.36331 166.000
46.38326 162.000
46.40321 157.000
46.42315 134.000
46.44310 154.000
46.46305 150.000
46.48299 165.000
46.50294 149.000
46.52289 137.000
46.54283 125.000
46.56278 137.000
46.58273 142.000
46.60267 141.000
46.62262 133.000
46.64257 159.000
46.66252 154.000
46.68246 157.000
46.70241 138.000
46.72236 158.000
46.74230 148.000
46.76225 163.000
46.78220 125.000
46.80214 141.000
46.82209 131.000
46.84204 153.000
46.86199 155.000
46.88193 131.000
46.90188 135.000
46.92183 143.000
46.94177 134.000
46.96172 137.000
46.98167 127.000
47.00161 148.000
47.02156 152.000
47.04151 169.000
47.06146 140.000
47.08140 146.000
47.10135 151.000
47.12130 125.000
47.14124 150.000
47.16119 152.000
47.18114 131.000
47.20108 144.000
47.22103 161.000
47.24098 177.000
47.26092 140.000
47.28087 159.000
47.30082 159.000
47.32077 160.000
47.34071 133.000
47.36066 175.000
47.38061 171.000
47.40055 159.000
47.42050 171.000
47.44045 164.000
47.46039 136.000
47.48034 155.000
47.50029 174.000
47.52024 165.000
47.54018 160.000
47.56013 164.000
47.58008 135.000
47.60002 132.000
47.61997 127.000
47.63992 150.000
47.65986 137.000
47.67981 163.000
47.69976 146.000
47.71970 138.000
47.73965 155.000
47.75960 158.000
47.77955 164.000
47.79949 177.000
47.81944 142.000
47.83939 147.000
47.85933 164.000
47.87928 155.000
47.89923 165.000
47.91917 163.000
47.93912 170.000
47.95907 153.000
47.97902 162.000
47.99896 157.000
48.01891 174.000
48.03886 169.000
48.05880 172.000
48.07875 178.000
48.09870 157.000
48.11864 154.000
48.13859 200.000
48.15854 171.000
48.17848 197.000
48.19843 163.000
48.21838 198.000
48.23833 228.000
48.25827 190.000
48.27822 189.000
48.29817 185.000
48.31811 228.000
48.33806 226.000
48.35801 241.000
48.37795 233.000
48.39790 269.000
48.41785 266.000
48.43780 302.000
48.45774 320.000
48.47769 389.000
48.49764 438.000
48.51758 503.000
48.53753 557.000
48.55748 611.000
48.57742 720.000
48.59737 736.000
48.61732 799.000
48.63726 867.000
48.65721 871.000
48.67716 906.000
48.69711 873.000
48.71705 847.000
48.73700 875.000
48.75695 792.000
48.77689 689.000
48.79684 664.000
48.81679 584.000
48.83673 554.000
48.85668 490.000
48.87663 439.000
48.89658 369.000
48.91652 333.000
48.93647 299.000
48.95642 282.000
48.97636 288.000
48.99631 230.000
49.01626 224.000
49.03620 190.000
49.05615 229.000
49.07610 198.000
49.09605 194.000
49.11599 185.000
49.13594 176.000
49.15589 162.000
49.17583 187.000
49.19578 202.000
49.21573 164.000
49.23567 151.000
49.25562 168.000
49.27557 177.000
49.29551 159.000
49.31546 189.000
49.33541 167.000
49.35536 169.000
49.37530 166.000
49.39525 162.000
49.41520 171.000
49.43514 171.000
49.45509 163.000
49.47504 159.000
49.49498 181.000
49.51493 167.000
49.53488 177.000
49.55483 188.000
49.57477 142.000
49.59472 165.000
49.61467 164.000
49.63461 163.000
49.65456 167.000
49.67451 163.000
49.69445 155.000
49.71440 169.000
49.73435 163.000
49.75429 150.000
49.77424 181.000
49.79419 160.000
49.81414 171.000
49.83408 151.000
49.85403 152.000
49.87398 155.000
49.89392 143.000
49.91387 173.000
49.93382 159.000
49.95376 178.000
49.97371 146.000
49.99366 142.000
50.01361 135.000
50.03355 171.000
50.05350 143.000
50.07345 139.000
50.09339 153.000
50.11334 136.000
50.13329 141.000
50.15323 154.000
50.17318 155.000
50.19313 161.000
50.21307 155.000
50.23302 160.000
50.25297 138.000
50.27292 146.000
50.29286 158.000
50.31281 140.000
50.33276 133.000
50.35270 132.000
50.37265 155.000
50.39260 141.000
50.41254 132.000
50.43249 132.000
50.45244 148.000
50.47239 164.000
50.49233 139.000
50.51228 150.000
50.53223 139.000
50.55217 133.000
50.57212 166.000
50.59207 149.000
50.61201 159.000
50.63196 142.000
50.65191 130.000
50.67186 150.000
50.69180 157.000
50.71175 128.000
50.73170 158.000
50.75164 143.000
50.77159 148.000
50.79154 140.000
50.81148 129.000
50.83143 143.000
50.85138 137.000
50.87132 138.000
50.89127 145.000
50.91122 148.000
50.93117 149.000
50.95111 160.000
50.97106 136.000
50.99101 132.000
51.01095 127.000
51.03090 138.000
51.05085 155.000
51.07079 136.000
51.09074 142.000
51.11069 166.000
51.13064 147.000
51.15058 137.000
51.17053 162.000
51.19048 132.000
51.21042 155.000
51.23037 149.000
51.25032 160.000
51.27026 123.000
51.29021 151.000
51.31016 154.000
51.33010 128.000
51.35005 142.000
51.37000 158.000
51.38995 152.000
51.40989 152.000
51.42984 135.000
51.44979 164.000
51.46973 129.000
51.48968 129.000
51.50963 136.000
51.52957 151.000
51.54952 165.000
51.56947 133.000
51.58942 160.000
51.60936 118.000
51.62931 148.000
51.64926 148.000
51.66920 144.000
51.68915 145.000
51.70910 145.000
51.72904 137.000
51.74899 140.000
51.76894 147.000
51.78888 153.000
51.80883 146.000
51.82878 149.000
51.84873 130.000
51.86867 148.000
51.88862 141.000
51.90857 145.000
51.92851 164.000
51.94846 134.000
51.96841 134.000
51.98835 140.000
52.00830 155.000
52.02825 169.000
52.04820 154.000
52.06814 154.000
52.08809 156.000
52.10804 142.000
52.12798 142.000
52.14793 180.000
52.16788 173.000
52.18782 148.000
52.20777 145.000
52.22772 138.000
52.24767 138.000
52.26761 152.000
52.28756 150.000
52.30751 159.000
52.32745 142.000
52.34740 153.000
52.36735 130.000
52.38729 137.000
52.40724 140.000
52.42719 139.000
52.44713 138.000
52.46708 152.000
52.48703 148.000
52.50698 176.000
52.52692 158.000
52.54687 133.000
52.56682 155.000
52.58676 157.000
52.60671 136.000
52.62666 131.000
52.64660 148.000
52.66655 151.000
52.68650 140.000
52.70645 134.000
52.72639 164.000
52.74634 145.000
52.76629 155.000
52.78623 136.000
52.80618 146.000
52.82613 158.000
52.84607 143.000
52.86602 147.000
52.88597 148.000
52.90591 152.000
52.92586 167.000
52.94581 141.000
52.96576 176.000
52.98570 172.000
53.00565 185.000
53.02560 165.000
53.04554 161.000
53.06549 155.000
53.08544 162.000
53.10538 163.000
53.12533 151.000
53.14528 163.000
53.16523 155.000
53.18517 148.000
53.20512 154.000
53.22507 173.000
53.24501 163.000
53.26496 155.000
53.28491 147.000
53.30485 156.000
53.32480 144.000
53.34475 155.000
53.36469 149.000
53.38464 161.000
53.40459 156.000
53.42454 150.000
53.44448 171.000
53.46443 147.000
53.48438 162.000
53.50432 135.000
53.52427 189.000
53.54422 167.000
53.56416 158.000
53.58411 173.000
53.60406 175.000
53.62401 169.000
53.64395 209.000
53.66390 202.000
53.68385 249.000
53.70379 267.000
53.72374 280.000
53.74369 327.000
53.76363 266.000
53.78358 234.000
53.80353 244.000
53.82348 212.000
53.84342 229.000
53.86337 220.000
53.88332 225.000
53.90326 202.000
53.92321 212.000
53.94316 203.000
53.96310 158.000
53.98305 157.000
54.00300 161.000
54.02294 146.000
54.04289 142.000
54.06284 137.000
54.08279 145.000
54.10273 132.000
54.12268 167.000
54.14263 143.000
54.16257 153.000
54.18252 153.000
54.20247 150.000
54.22241 141.000
54.24236 141.000
54.26231 155.000
54.28226 136.000
54.30220 177.000
54.32215 148.000
54.34210 151.000
54.36204 159.000
54.38199 130.000
54.40194 151.000
54.42188 164.000
54.44183 155.000
54.46178 133.000
54.48172 148.000
54.50167 133.000
54.52162 148.000
54.54157 145.000
54.56151 145.000
54.58146 139.000
54.60141 152.000
54.62135 152.000
54.64130 138.000
54.66125 154.000
54.68119 143.000
54.70114 146.000
54.72109 151.000
54.74104 166.000
54.76098 137.000
54.78093 153.000
54.80088 150.000
54.82082 162.000
54.84077 146.000
54.86072 135.000
54.88066 118.000
54.90061 147.000
54.92056 106.000
54.94050 119.000
54.96045 161.000
54.98040 141.000
55.00035 150.000
55.02029 139.000
55.04024 149.000
55.06019 153.000
55.08013 133.000
55.10008 171.000
55.12003 131.000
55.13997 146.000
55.15992 151.000
55.17987 144.000
55.19982 136.000
55.21976 146.000
55.23971 147.000
55.25966 149.000
55.27960 149.000
55.29955 144.000
55.31950 146.000
55.33944 163.000
55.35939 140.000
55.37934 137.000
55.39929 131.000
55.41923 131.000
55.43918 126.000
55.45913 145.000
55.47907 148.000
55.49902 155.000
55.51897 146.000
55.53891 160.000
55.55886 164.000
55.57881 164.000
55.59875 116.000
55.61870 148.000
55.63865 154.000
55.65860 155.000
55.67854 151.000
55.69849 141.000
55.71844 144.000
55.73838 137.000
55.75833 136.000
55.77828 131.000
55.79822 148.000
55.81817 140.000
55.83812 134.000
55.85807 129.000
55.87801 170.000
55.89796 134.000
55.91791 149.000
55.93785 151.000
55.95780 159.000
55.97775 153.000
55.99769 141.000
56.01764 128.000
56.03759 173.000
56.05753 130.000
56.07748 136.000
56.09743 149.000
56.11738 138.000
56.13732 148.000
56.15727 137.000
56.17722 142.000
56.19716 143.000
56.21711 152.000
56.23706 129.000
56.25700 139.000
56.27695 155.000
56.29690 130.000
56.31685 155.000
56.33679 144.000
56.35674 154.000
56.37669 136.000
56.39663 155.000
56.41658 157.000
56.43653 153.000
56.45647 137.000
56.47642 156.000
56.49637 150.000
56.51631 141.000
56.53626 161.000
56.55621 161.000
56.57616 135.000
56.59610 168.000
56.61605 153.000
56.63600 157.000
56.65594 127.000
56.67589 159.000
56.69584 141.000
56.71578 173.000
56.73573 152.000
56.75568 160.000
56.77563 142.000
56.79557 154.000
56.81552 151.000
56.83547 150.000
56.85541 168.000
56.87536 165.000
56.89531 142.000
56.91525 141.000
56.93520 159.000
56.95515 173.000
56.97510 144.000
56.99504 168.000
57.01499 167.000
57.03494 199.000
57.05488 178.000
57.07483 171.000
57.09478 177.000
57.11472 227.000
57.13467 212.000
57.15462 263.000
57.17456 295.000
57.19451 337.000
57.21446 383.000
57.23441 459.000
57.25435 518.000
57.27430 580.000
57.29425 569.000
57.31419 589.000
57.33414 485.000
57.35409 429.000
57.37403 436.000
57.39398 436.000
57.41393 397.000
57.43388 384.000
57.45382 421.000
57.47377 381.000
57.49372 320.000
57.51366 280.000
57.53361 253.000
57.55356 217.000
57.57350 226.000
57.59345 194.000
57.61340 218.000
57.63334 181.000
57.65329 178.000
57.67324 167.000
57.69319 169.000
57.71313 191.000
57.73308 163.000
57.75303 188.000
57.77297 171.000
57.79292 163.000
57.81287 173.000
57.83281 176.000
57.85276 136.000
57.87271 165.000
57.89266 155.000
57.91260 157.000
57.93255 156.000
57.95250 163.000
57.97244 147.000
57.99239 159.000
58.01234 177.000
58.03228 138.000
58.05223 170.000
58.07218 155.000
58.09212 152.000
58.11207 180.000
58.13202 173.000
58.15197 163.000
58.17191 141.000
58.19186 161.000
58.21181 181.000
58.23175 190.000
58.25170 172.000
58.27165 179.000
58.29159 160.000
58.31154 174.000
58.33149 164.000
58.35144 174.000
58.37138 161.000
58.39133 168.000
58.41128 178.000
58.43122 170.000
58.45117 164.000
58.47112 142.000
58.49106 140.000
58.51101 163.000
58.53096 162.000
58.55090 133.000
58.57085 166.000
58.59080 143.000
58.61075 140.000
58.63069 160.000
58.65064 164.000
58.67059 157.000
58.69053 154.000
58.71048 123.000
58.73043 150.000
58.75037 146.000
58.77032 150.000
58.79027 140.000
58.81022 142.000
58.83016 143.000
58.85011 153.000
58.87006 147.000
58.89000 149.000
58.90995 150.000
58.92990 155.000
58.94984 175.000
58.96979 147.000
58.98974 147.000
59.00969 145.000
59.02963 169.000
59.04958 137.000
59.06953 160.000
59.08947 143.000
59.10942 150.000
59.12937 143.000
59.14931 142.000
59.16926 126.000
59.18921 138.000
59.20915 133.000
59.22910 131.000
59.24905 148.000
59.26900 142.000
59.28894 160.000
59.30889 125.000
59.32884 144.000
59.34878 132.000
59.36873 160.000
59.38868 165.000
59.40862 146.000
59.42857 165.000
59.44852 154.000
59.46847 147.000
59.48841 143.000
59.50836 122.000
59.52831 151.000
59.54825 172.000
59.56820 133.000
59.58815 158.000
59.60809 143.000
59.62804 148.000
59.64799 123.000
59.66793 148.000
59.68788 130.000
59.70783 155.000
59.72778 136.000
59.74772 125.000
59.76767 145.000
59.78762 155.000
59.80756 125.000
59.82751 141.000
59.84746 147.000
59.86740 147.000
59.88735 156.000
59.90730 159.000
59.92725 149.000
59.94719 144.000
59.96714 141.000
59.98709 161.000
60.00703 159.000
60.02698 139.000
60.04693 147.000
60.06687 167.000
60.08682 143.000
60.10677 148.000
60.12671 154.000
60.14666 136.000
60.16661 158.000
60.18656 169.000
60.20650 153.000
60.22645 145.000
60.24640 152.000
60.26634 160.000
60.28629 139.000
60.30624 154.000
60.32618 140.000
60.34613 168.000
60.36608 156.000
60.38603 167.000
60.40597 139.000
60.42592 149.000
60.44587 131.000
60.46581 152.000
60.48576 163.000
60.50571 147.000
60.52565 145.000
60.54560 148.000
60.56555 161.000
60.58550 155.000
60.60544 139.000
60.62539 167.000
60.64534 133.000
60.66528 140.000
60.68523 170.000
60.70518 123.000
60.72512 169.000
60.74507 155.000
60.76502 149.000
60.78496 170.000
60.80491 145.000
60.82486 132.000
60.84481 143.000
60.86475 163.000
60.88470 165.000
60.90465 171.000
60.92459 167.000
60.94454 149.000
60.96449 144.000
60.98443 165.000
61.00438 161.000
61.02433 157.000
61.04428 177.000
61.06422 142.000
61.08417 139.000
61.10412 173.000
61.12406 176.000
61.14401 154.000
61.16396 171.000
61.18390 170.000
61.20385 158.000
61.22380 180.000
61.24374 148.000
61.26369 155.000
61.28364 182.000
61.30359 158.000
61.32353 177.000
61.34348 178.000
61.36343 162.000
61.38337 181.000
61.40332 195.000
61.42327 187.000
61.44321 202.000
61.46316 203.000
61.48311 220.000
61.50306 183.000
61.52300 203.000
61.54295 202.000
61.56290 224.000
61.58284 222.000
61.60279 200.000
61.62274 212.000
61.64268 257.000
61.66263 218.000
61.68258 238.000
61.70252 235.000
61.72247 247.000
61.74242 247.000
61.76237 274.000
61.78231 293.000
61.80226 304.000
61.82221 291.000
61.84215 347.000
61.86210 379.000
61.88205 427.000
61.90199 434.000
61.92194 510.000
61.94189 499.000
61.96184 526.000
61.98178 508.000
62.00173 465.000
62.02168 504.000
62.04162 489.000
62.06157 481.000
62.08152 466.000
62.10146 422.000
62.12141 418.000
62.14136 419.000
62.16131 382.000
62.18125 369.000
62.20120 342.000
62.22115 336.000
62.24109 289.000
62.26104 322.000
62.28099 288.000
62.30093 333.000
62.32088 301.000
62.34083 273.000
62.36077 286.000
62.38072 345.000
62.40067 343.000
62.42062 337.000
62.44056 355.000
62.46051 381.000
62.48046 333.000
62.50040 389.000
62.52035 394.000
62.54030 430.000
62.56024 400.000
62.58019 395.000
62.60014 486.000
62.62009 446.000
62.64003 463.000
62.65998 447.000
62.67993 426.000
62.69987 494.000
62.71982 445.000
62.73977 452.000
62.75971 409.000
62.77966 478.000
62.79961 528.000
62.81955 507.000
62.83950 546.000
62.85945 666.000
62.87940 731.000
62.89934 826.000
62.91929 788.000
62.93924 790.000
62.95918 758.000
62.97913 639.000
62.99908 553.000
63.01902 523.000
63.03897 462.000
63.05892 523.000
63.07887 524.000
63.09881 539.000
63.11876 488.000
63.13871 408.000
63.15865 395.000
63.17860 293.000
63.19855 310.000
63.21849 244.000
63.23844 245.000
63.25839 218.000
63.27833 208.000
63.29828 191.000
63.31823 186.000
63.33818 198.000
63.35812 169.000
63.37807 168.000
63.39802 190.000
63.41796 162.000
63.43791 179.000
63.45786 180.000
63.47780 192.000
63.49775 181.000
63.51770 212.000
63.53765 177.000
63.55759 198.000
63.57754 230.000
63.59749 200.000
63.61743 206.000
63.63738 212.000
63.65733 208.000
63.67727 211.000
63.69722 193.000
63.71717 202.000
63.73712 238.000
63.75706 237.000
63.77701 218.000
63.79696 253.000
63.81690 270.000
63.83685 279.000
63.85680 242.000
63.87674 279.000
63.89669 291.000
63.91664 273.000
63.93658 290.000
63.95653 273.000
63.97648 260.000
63.99643 271.000
64.01637 235.000
64.03632 276.000
64.05627 271.000
64.07621 257.000
64.09616 280.000
64.11611 257.000
64.13605 271.000
64.15600 263.000
64.17595 250.000
64.19590 274.000
64.21584 262.000
64.23579 255.000
64.25574 261.000
64.27568 246.000
64.29563 256.000
64.31558 237.000
64.33552 236.000
64.35547 254.000
64.37542 216.000
64.39536 224.000
64.41531 222.000
64.43526 212.000
64.45521 189.000
64.47515 207.000
64.49510 208.000
64.51505 195.000
64.53499 218.000
64.55494 172.000
64.57489 200.000
64.59483 169.000
64.61478 201.000
64.63473 170.000
64.65468 168.000
64.67462 151.000
64.69457 165.000
64.71452 170.000
64.73446 164.000
64.75441 165.000
64.77436 177.000
64.79430 156.000
64.81425 151.000
64.83420 161.000
64.85414 149.000
64.87409 133.000
64.89404 154.000
64.91399 141.000
64.93393 173.000
64.95388 137.000
64.97383 158.000
64.99377 163.000
65.01372 154.000
65.03367 157.000
65.05361 157.000
65.07356 179.000
65.09351 140.000
65.11346 174.000
65.13340 159.000
65.15335 163.000
65.17330 144.000
65.19324 149.000
65.21319 155.000
65.23314 157.000
65.25308 161.000
65.27303 158.000
65.29298 159.000
65.31293 150.000
65.33287 131.000
65.35282 127.000
65.37277 165.000
65.39271 127.000
65.41266 169.000
65.43261 173.000
65.45255 178.000
65.47250 154.000
65.49245 176.000
65.51239 197.000
65.53234 159.000
65.55229 206.000
65.57224 199.000
65.59218 179.000
65.61213 204.000
65.63208 169.000
65.65202 184.000
65.67197 194.000
65.69192 161.000
65.71186 159.000
65.73181 192.000
65.75176 175.000
65.77171 202.000
65.79165 176.000
65.81160 192.000
65.83155 180.000
65.85149 196.000
65.87144 196.000
65.89139 183.000
65.91133 155.000
65.93128 149.000
65.95123 162.000
65.97117 191.000
65.99112 171.000
66.01107 179.000
66.03102 177.000
66.05096 198.000
66.07091 190.000
66.09086 216.000
66.11080 195.000
66.13075 209.000
66.15070 231.000
66.17064 239.000
66.19059 264.000
66.21054 236.000
66.23049 206.000
66.25043 238.000
66.27038 231.000
66.29033 234.000
66.31027 241.000
66.33022 236.000
66.35017 233.000
66.37011 260.000
66.39006 258.000
66.41001 237.000
66.42995 230.000
66.44990 245.000
66.46985 229.000
66.48980 238.000
66.50974 238.000
66.52969 224.000
66.54964 240.000
66.56958 233.000
66.58953 246.000
66.60948 242.000
66.62942 206.000
66.64937 218.000
66.66932 227.000
66.68927 203.000
66.70921 238.000
66.72916 208.000
66.74911 207.000
66.76905 235.000
66.78900 227.000
66.80895 229.000
66.82889 265.000
66.84884 254.000
66.86879 209.000
66.88874 223.000
66.90868 192.000
66.92863 185.000
66.94858 201.000
66.96852 206.000
66.98847 175.000
67.00842 217.000
67.02836 201.000
67.04831 185.000
67.06826 184.000
67.08820 209.000
67.10815 173.000
67.12810 195.000
67.14805 168.000
67.16799 197.000
67.18794 174.000
67.20789 179.000
67.22783 191.000
67.24778 185.000
67.26773 167.000
67.28767 160.000
67.30762 154.000
67.32757 182.000
67.34752 163.000
67.36746 156.000
67.38741 153.000
67.40736 188.000
67.42730 177.000
67.44725 166.000
67.46720 156.000
67.48714 135.000
67.50709 161.000
67.52704 147.000
67.54698 150.000
67.56693 169.000
67.58688 160.000
67.60683 175.000
67.62677 167.000
67.64672 172.000
67.66667 146.000
67.68661 158.000
67.70656 174.000
67.72651 167.000
67.74645 168.000
67.76640 160.000
67.78635 145.000
67.80630 165.000
67.82624 155.000
67.84619 161.000
67.86614 180.000
67.88608 160.000
67.90603 190.000
67.92598 179.000
67.94592 163.000
67.96587 155.000
67.98582 159.000
68.00576 174.000
68.02571 151.000
68.04566 164.000
68.06561 141.000
68.08555 169.000
68.10550 173.000
68.12545 178.000
68.14539 172.000
68.16534 156.000
68.18529 174.000
68.20523 187.000
68.22518 169.000
68.24513 135.000
68.26508 164.000
68.28502 170.000
68.30497 156.000
68.32492 148.000
68.34486 175.000
68.36481 159.000
68.38476 162.000
68.40470 157.000
68.42465 143.000
68.44460 141.000
68.46455 150.000
68.48449 141.000
68.50444 138.000
68.52439 159.000
68.54433 135.000
68.56428 134.000
68.58423 163.000
68.60417 141.000
68.62412 128.000
68.64407 138.000
68.66401 143.000
68.68396 143.000
68.70391 135.000
68.72386 173.000
68.74380 130.000
68.76375 130.000
68.78370 141.000
68.80364 147.000
68.82359 157.000
68.84354 132.000
68.86348 135.000
68.88343 135.000
68.90338 167.000
68.92333 148.000
68.94327 154.000
68.96322 131.000
68.98317 140.000
69.00311 126.000
69.02306 136.000
69.04301 153.000
69.06295 142.000
69.08290 158.000
69.10285 138.000
69.12279 151.000
69.14274 139.000
69.16269 162.000
69.18264 143.000
69.20258 137.000
69.22253 151.000
69.24248 141.000
69.26242 139.000
69.28237 150.000
69.30232 151.000
69.32226 154.000
69.34221 116.000
69.36216 120.000
69.38211 150.000
69.40205 148.000
69.42200 120.000
69.44195 145.000
69.46189 150.000
69.48184 147.000
69.50179 137.000
69.52173 150.000
69.54168 135.000
69.56163 142.000
69.58157 128.000
69.60152 137.000
69.62147 141.000
69.64142 125.000
69.66136 137.000
69.68131 134.000
69.70126 139.000
69.72120 139.000
69.74115 141.000
69.76110 158.000
69.78104 140.000
69.80099 142.000
69.82094 128.000
69.84089 140.000
69.86083 125.000
69.88078 156.000
69.90073 148.000
69.92067 140.000
69.94062 139.000
69.96057 133.000
69.98051 161.000
70.00046 156.000
70.02041 157.000
70.04035 164.000
70.06030 146.000
70.08025 140.000
70.10020 139.000
70.12014 138.000
70.14009 118.000
70.16004 147.000
70.17998 146.000
70.19993 156.000
70.21988 125.000
70.23982 127.000
70.25977 153.000
70.27972 142.000
70.29967 153.000
70.31961 144.000
70.33956 142.000
70.35951 159.000
70.37945 140.000
70.39940 129.000
70.41935 155.000
70.43929 147.000
70.45924 119.000
70.47919 142.000
70.49914 136.000
70.51908 127.000
70.53903 147.000
70.55898 146.000
70.57892 155.000
70.59887 151.000
70.61882 135.000
70.63876 154.000
70.65871 137.000
70.67866 118.000
70.69860 117.000
70.71855 139.000
70.73850 143.000
70.75845 149.000
70.77839 116.000
70.79834 164.000
70.81829 126.000
70.83823 159.000
70.85818 125.000
70.87813 141.000
70.89807 146.000
70.91802 147.000
70.93797 131.000
70.95792 141.000
70.97786 147.000
70.99781 136.000
71.01776 134.000
71.03770 138.000
71.05765 133.000
71.07760 135.000
71.09754 145.000
71.11749 153.000
71.13744 139.000
71.15738 125.000
71.17733 164.000
71.19728 155.000
71.21723 136.000
71.23717 166.000
71.25712 166.000
71.27707 142.000
71.29701 179.000
71.31696 137.000
71.33691 153.000
71.35685 175.000
71.37680 159.000
71.39675 204.000
71.41670 172.000
71.43664 175.000
71.45659 157.000
71.47654 178.000
71.49648 142.000
71.51643 163.000
71.53638 162.000
71.55632 189.000
71.57627 163.000
71.59622 164.000
71.61616 166.000
71.63611 147.000
71.65606 184.000
71.67601 154.000
71.69595 150.000
71.71590 171.000
71.73585 146.000
71.75579 129.000
71.77574 132.000
71.79569 160.000
71.81563 152.000
71.83558 163.000
71.85553 144.000
71.87548 136.000
71.89542 136.000
71.91537 165.000
71.93532 152.000
71.95526 150.000
71.97521 141.000
71.99516 165.000
72.01510 130.000
72.03505 144.000
72.05500 148.000
72.07495 140.000
72.09489 156.000
72.11484 156.000
72.13479 164.000
72.15473 152.000
72.17468 143.000
72.19463 157.000
72.21457 144.000
72.23452 139.000
72.25447 162.000
72.27441 138.000
72.29436 144.000
72.31431 127.000
72.33426 153.000
72.35420 145.000
72.37415 146.000
72.39410 155.000
72.41404 170.000
72.43399 139.000
72.45394 162.000
72.47388 148.000
72.49383 144.000
72.51378 170.000
72.53373 168.000
72.55367 154.000
72.57362 170.000
72.59357 136.000
72.61351 155.000
72.63346 132.000
72.65341 139.000
72.67335 147.000
72.69330 146.000
72.71325 170.000
72.73319 161.000
72.75314 152.000
72.77309 142.000
72.79304 153.000
72.81298 168.000
72.83293 159.000
72.85288 144.000
72.87282 140.000
72.89277 147.000
72.91272 165.000
72.93266 172.000
72.95261 164.000
72.97256 146.000
72.99251 172.000
73.01245 163.000
73.03240 167.000
73.05235 165.000
73.07229 157.000
73.09224 163.000
73.11219 168.000
73.13213 170.000
73.15208 189.000
73.17203 167.000
73.19197 192.000
73.21192 179.000
73.23187 182.000
73.25182 176.000
73.27176 201.000
73.29171 196.000
73.31166 170.000
73.33160 198.000
73.35155 195.000
73.37150 214.000
73.39144 159.000
73.41139 203.000
73.43134 177.000
73.45129 180.000
73.47123 203.000
73.49118 190.000
73.51113 196.000
73.53107 174.000
73.55102 172.000
73.57097 190.000
73.59091 191.000
73.61086 186.000
73.63081 173.000
73.65076 202.000
73.67070 147.000
73.69065 183.000
73.71060 175.000
73.73054 150.000
73.75049 175.000
73.77044 192.000
73.79038 160.000
73.81033 177.000
73.83028 154.000
73.85022 177.000
73.87017 156.000
73.89012 148.000
73.91007 137.000
73.93001 143.000
73.94996 175.000
73.96991 157.000
73.98985 168.000
74.00980 164.000
74.02975 161.000
74.04969 153.000
74.06964 147.000
74.08959 172.000
74.10954 175.000
74.12948 181.000
74.14943 160.000
74.16938 148.000
74.18932 143.000
74.20927 157.000
74.22922 148.000
74.24916 154.000
74.26911 165.000
74.28906 147.000
74.30900 193.000
74.32895 180.000
74.34890 146.000
74.36885 204.000
74.38879 177.000
74.40874 232.000
74.42869 226.000
74.44863 260.000
74.46858 256.000
74.48853 242.000
74.50847 259.000
74.52842 234.000
74.54837 234.000
74.56832 223.000
74.58826 201.000
74.60821 179.000
74.62816 176.000
74.64810 222.000
74.66805 225.000
74.68800 219.000
74.70794 212.000
74.72789 228.000
74.74784 240.000
74.76778 193.000
74.78773 183.000
74.80768 217.000
74.82763 212.000
74.84757 209.000
74.86752 206.000
74.88747 224.000
74.90741 190.000
74.92736 206.000
74.94731 200.000
74.96725 221.000
74.98720 224.000
75.00715 203.000
75.02710 208.000
75.04704 233.000
75.06699 251.000
75.08694 243.000
75.10688 251.000
75.12683 245.000
75.14678 227.000
75.16672 212.000
75.18667 209.000
75.20662 234.000
75.22657 227.000
75.24651 177.000
75.26646 230.000
75.28641 221.000
75.30635 199.000
75.32630 235.000
75.34625 191.000
75.36619 193.000
75.38614 225.000
75.40609 216.000
75.42603 220.000
75.44598 224.000
75.46593 240.000
75.48588 242.000
75.50582 209.000
75.52577 207.000
75.54572 190.000
75.56566 214.000
75.58561 193.000
75.60556 177.000
75.62550 204.000
75.64545 186.000
75.66540 209.000
75.68535 195.000
75.70529 201.000
75.72524 185.000
75.74519 185.000
75.76513 173.000
75.78508 165.000
75.80503 182.000
75.82497 165.000
75.84492 154.000
75.86487 150.000
75.88481 173.000
75.90476 165.000
75.92471 165.000
75.94466 143.000
75.96460 172.000
75.98455 167.000
76.00450 143.000
76.02444 154.000
76.04439 146.000
76.06434 148.000
76.08428 148.000
76.10423 155.000
76.12418 149.000
76.14413 134.000
76.16407 137.000
76.18402 151.000
76.20397 134.000
76.22391 134.000
76.24386 133.000
76.26381 144.000
76.28375 137.000
76.30370 140.000
76.32365 141.000
76.34359 147.000
76.36354 145.000
76.38349 158.000
76.40344 138.000
76.42338 159.000
76.44333 144.000
76.46328 145.000
76.48322 154.000
76.50317 158.000
76.52312 147.000
76.54306 134.000
76.56301 151.000
76.58296 164.000
76.60291 137.000
76.62285 155.000
76.64280 157.000
76.66275 130.000
76.68269 146.000
76.70264 131.000
76.72259 158.000
76.74253 146.000
76.76248 129.000
76.78243 135.000
76.80238 124.000
76.82232 160.000
76.84227 126.000
76.86222 129.000
76.88216 170.000
76.90211 136.000
76.92206 164.000
76.94200 137.000
76.96195 149.000
76.98190 151.000
77.00184 147.000
77.02179 136.000
77.04174 130.000
77.06169 172.000
77.08163 113.000
77.10158 151.000
77.12153 143.000
77.14147 137.000
77.16142 138.000
77.18137 126.000
77.20131 149.000
77.22126 163.000
77.24121 168.000
77.26116 143.000
77.28110 143.000
77.30105 150.000
77.32100 164.000
77.34094 169.000
77.36089 175.000
77.38084 140.000
77.40078 160.000
77.42073 190.000
77.44068 172.000
77.46062 182.000
77.48057 157.000
77.50052 166.000
77.52047 129.000
77.54041 161.000
77.56036 157.000
77.58031 160.000
77.60025 175.000
77.62020 185.000
77.64015 189.000
77.66009 176.000
77.68004 155.000
77.69999 170.000
77.71994 150.000
77.73988 180.000
77.75983 182.000
77.77978 195.000
77.79972 166.000
77.81967 181.000
77.83962 171.000
77.85956 163.000
77.87951 174.000
77.89946 173.000
77.91940 193.000
77.93935 193.000
77.95930 173.000
77.97925 185.000
77.99919 162.000
78.01914 182.000
78.03909 172.000
78.05903 215.000
78.07898 198.000
78.09893 180.000
78.11887 229.000
78.13882 200.000
78.15877 206.000
78.17872 233.000
78.19866 230.000
78.21861 189.000
78.23856 221.000
78.25850 210.000
78.27845 222.000
78.29840 239.000
78.31834 255.000
78.33829 247.000
78.35824 226.000
78.37819 255.000
78.39813 202.000
78.41808 234.000
78.43803 212.000
78.45797 170.000
78.47792 200.000
78.49787 191.000
78.51781 196.000
78.53776 208.000
78.55771 193.000
78.57765 181.000
78.59760 216.000
78.61755 185.000
78.63750 174.000
78.65744 195.000
78.67739 183.000
78.69734 156.000
78.71728 181.000
78.73723 177.000
78.75718 202.000
78.77712 162.000
78.79707 173.000
78.81702 171.000
78.83697 176.000
78.85691 198.000
78.87686 198.000
78.89681 197.000
78.91675 184.000
78.93670 199.000
78.95665 213.000
78.97659 184.000
78.99654 197.000
79.01649 185.000
79.03643 211.000
79.05638 207.000
79.07633 216.000
79.09628 227.000
79.11622 175.000
79.13617 187.000
79.15612 190.000
79.17606 197.000
79.19601 212.000
79.21596 184.000
79.23590 192.000
79.25585 207.000
79.27580 181.000
79.29575 181.000
79.31569 193.000
79.33564 192.000
79.35559 146.000
79.37553 191.000
79.39548 161.000
79.41543 196.000
79.43537 177.000
79.45532 175.000
79.47527 196.000
79.49521 179.000
79.51516 190.000
79.53511 176.000
79.55506 202.000
79.57500 163.000
79.59495 175.000
79.61490 165.000
79.63484 176.000
79.65479 167.000
79.67474 156.000
79.69468 173.000
79.71463 148.000
79.73458 178.000
79.75453 156.000
79.77447 160.000
79.79442 141.000
79.81437 148.000
79.83431 169.000
79.85426 151.000
79.87421 139.000
79.89415 133.000
79.91410 137.000
79.93405 136.000
79.95399 155.000
79.97394 162.000
79.99389 129.000
80.01384 143.000
80.03378 150.000
80.05373 138.000
80.07368 146.000
80.09362 136.000
80.11357 152.000
80.13352 152.000
80.15346 162.000
80.17341 143.000
80.19336 152.000
80.21331 157.000
80.23325 153.000
80.25320 161.000
80.27315 117.000
80.29309 144.000
80.31304 140.000
80.33299 161.000
80.35293 140.000
80.37288 134.000
80.39283 153.000
80.41278 167.000
80.43272 162.000
80.45267 172.000
80.47262 133.000
80.49256 152.000
80.51251 160.000
80.53246 156.000
80.55240 158.000
80.57235 162.000
80.59230 154.000
80.61224 132.000
80.63219 159.000
80.65214 162.000
80.67209 132.000
80.69203 136.000
80.71198 122.000
80.73193 146.000
80.75187 152.000
80.77182 164.000
80.79177 137.000
80.81171 137.000
80.83166 132.000
80.85161 137.000
80.87156 138.000
80.89150 148.000
80.91145 129.000
80.93140 140.000
80.95134 111.000
80.97129 152.000
80.99124 124.000
81.01118 141.000
81.03113 179.000
81.05108 142.000
81.07102 141.000
81.09097 142.000
81.11092 160.000
81.13087 128.000
81.15081 140.000
81.17076 148.000
81.19071 137.000
81.21065 130.000
81.23060 127.000
81.25055 138.000
81.27049 145.000
81.29044 137.000
81.31039 142.000
81.33034 121.000
81.35028 137.000
81.37023 139.000
81.39018 141.000
81.41012 144.000
81.43007 126.000
81.45002 118.000
81.46996 140.000
81.48991 143.000
81.50986 139.000
81.52980 133.000
81.54975 127.000
81.56970 141.000
81.58965 133.000
81.60959 149.000
81.62954 118.000
81.64949 149.000
81.66943 156.000
81.68938 131.000
81.70933 134.000
81.72927 138.000
81.74922 151.000
81.76917 129.000
81.78912 152.000
81.80906 131.000
81.82901 135.000
81.84896 145.000
81.86890 141.000
81.88885 141.000
81.90880 151.000
81.92874 128.000
81.94869 159.000
81.96864 130.000
81.98859 149.000
82.00853 139.000
82.02848 135.000
82.04843 149.000
82.06837 129.000
82.08832 150.000
82.10827 116.000
82.12821 143.000
82.14816 120.000
82.16811 141.000
82.18805 157.000
82.20800 174.000
82.22795 142.000
82.24790 158.000
82.26784 135.000
82.28779 149.000
82.30774 159.000
82.32768 141.000
82.34763 142.000
82.36758 152.000
82.38752 158.000
82.40747 148.000
82.42742 160.000
82.44737 145.000
82.46731 154.000
82.48726 165.000
82.50721 147.000
82.52715 157.000
82.54710 150.000
82.56705 146.000
82.58699 120.000
82.60694 146.000
82.62689 151.000
82.64683 149.000
82.66678 160.000
82.68673 146.000
82.70668 126.000
82.72662 174.000
82.74657 154.000
82.76652 140.000
82.78646 148.000
82.80641 157.000
82.82636 158.000
82.84630 135.000
82.86625 123.000
82.88620 159.000
82.90615 153.000
82.92609 168.000
82.94604 150.000
82.96599 146.000
82.98593 145.000
83.00588 152.000
83.02583 153.000
83.04577 147.000
83.06572 130.000
83.08567 143.000
83.10561 127.000
83.12556 137.000
83.14551 156.000
83.16546 142.000
83.18540 162.000
83.20535 136.000
83.22530 137.000
83.24524 148.000
83.26519 148.000
83.28514 143.000
83.30508 141.000
83.32503 152.000
83.34498 132.000
83.36493 143.000
83.38487 176.000
83.40482 153.000
83.42477 113.000
83.44471 143.000
83.46466 133.000
83.48461 131.000
83.50455 147.000
83.52450 149.000
83.54445 154.000
83.56440 156.000
83.58434 144.000
83.60429 138.000
83.62424 150.000
83.64418 146.000
83.66413 147.000
83.68408 148.000
83.70402 157.000
83.72397 148.000
83.74392 135.000
83.76386 139.000
83.78381 160.000
83.80376 166.000
83.82371 154.000
83.84365 143.000
83.86360 157.000
83.88355 139.000
83.90349 168.000
83.92344 154.000
83.94339 142.000
83.96333 173.000
83.98328 152.000
84.00323 163.000
84.02318 177.000
84.04312 156.000
84.06307 175.000
84.08302 166.000
84.10296 171.000
84.12291 169.000
84.14286 166.000
84.16280 191.000
84.18275 177.000
84.20270 183.000
84.22264 169.000
84.24259 167.000
84.26254 180.000
84.28249 196.000
84.30243 174.000
84.32238 173.000
84.34233 176.000
84.36227 220.000
84.38222 200.000
84.40217 188.000
84.42211 187.000
84.44206 178.000
84.46201 187.000
84.48196 198.000
84.50190 160.000
84.52185 216.000
84.54180 184.000
84.56174 201.000
84.58169 176.000
84.60164 204.000
84.62158 204.000
84.64153 171.000
84.66148 176.000
84.68142 181.000
84.70137 192.000
84.72132 191.000
84.74127 169.000
84.76121 171.000
84.78116 166.000
84.80111 180.000
84.82105 187.000
84.84100 158.000
84.86095 176.000
84.88089 162.000
84.90084 158.000
84.92079 158.000
84.94074 154.000
84.96068 164.000
84.98063 153.000
85.00058 167.000
85.02052 160.000
85.04047 152.000
85.06042 123.000
85.08036 141.000
85.10031 150.000
85.12026 120.000
85.14021 166.000
85.16015 142.000
85.18010 152.000
85.20005 141.000
85.21999 132.000
85.23994 138.000
85.25989 141.000
85.27983 130.000
85.29978 145.000
85.31973 142.000
85.33967 159.000
85.35962 140.000
85.37957 129.000
85.39952 149.000
85.41946 166.000
85.43941 141.000
85.45936 153.000
85.47930 146.000
85.49925 154.000
85.51920 126.000
85.53914 135.000
85.55909 146.000
85.57904 150.000
85.59899 141.000
85.61893 155.000
85.63888 145.000
85.65883 121.000
85.67877 136.000
85.69872 127.000
85.71867 133.000
85.73861 136.000
85.75856 140.000
85.77851 150.000
85.79845 134.000
85.81840 118.000
85.83835 129.000
85.85830 138.000
85.87824 142.000
85.89819 152.000
85.91814 144.000
85.93808 149.000
85.95803 125.000
85.97798 145.000
85.99792 143.000
86.01787 162.000
86.03782 142.000
86.05777 149.000
86.07771 156.000
86.09766 135.000
86.11761 153.000
86.13755 150.000
86.15750 140.000
86.17745 152.000
86.19739 132.000
86.21734 166.000
86.23729 139.000
86.25723 134.000
86.27718 125.000
86.29713 138.000
86.31708 142.000
86.33702 122.000
86.35697 144.000
86.37692 139.000
86.39686 126.000
86.41681 153.000
86.43676 121.000
86.45670 137.000
86.47665 150.000
86.49660 146.000
86.51655 146.000
86.53649 149.000
86.55644 118.000
86.57639 142.000
86.59633 110.000
86.61628 153.000
86.63623 151.000
86.65617 140.000
86.67612 136.000
86.69607 133.000
86.71602 125.000
86.73596 140.000
86.75591 129.000
86.77586 135.000
86.79580 129.000
86.81575 130.000
86.83570 133.000
86.85564 134.000
86.87559 153.000
86.89554 149.000
86.91548 144.000
86.93543 139.000
86.95538 131.000
86.97533 165.000
86.99527 125.000
87.01522 146.000
87.03517 158.000
87.05511 158.000
87.07506 156.000
87.09501 146.000
87.11495 171.000
87.13490 143.000
87.15485 151.000
87.17480 152.000
87.19474 140.000
87.21469 140.000
87.23464 186.000
87.25458 180.000
87.27453 184.000
87.29448 173.000
87.31442 180.000
87.33437 192.000
87.35432 176.000
87.37426 208.000
87.39421 167.000
87.41416 188.000
87.43411 193.000
87.45405 186.000
87.47400 180.000
87.49395 173.000
87.51389 179.000
87.53384 159.000
87.55379 192.000
87.57373 169.000
87.59368 151.000
87.61363 175.000
87.63358 172.000
87.65352 182.000
87.67347 173.000
87.69342 199.000
87.71336 169.000
87.73331 191.000
87.75326 185.000
87.77320 175.000
87.79315 148.000
87.81310 140.000
87.83304 134.000
87.85299 173.000
87.87294 180.000
87.89289 158.000
87.91283 152.000
87.93278 138.000
87.95273 156.000
87.97267 134.000
87.99262 139.000
88.01257 149.000
88.03251 144.000
88.05246 153.000
88.07241 149.000
88.09236 128.000
88.11230 121.000
88.13225 147.000
88.15220 124.000
88.17214 144.000
88.19209 144.000
88.21204 128.000
88.23198 135.000
88.25193 125.000
88.27188 148.000
88.29183 146.000
88.31177 141.000
88.33172 142.000
88.35167 155.000
88.37161 146.000
88.39156 134.000
88.41151 135.000
88.43145 150.000
88.45140 159.000
88.47135 133.000
88.49129 130.000
88.51124 120.000
88.53119 141.000
88.55114 149.000
88.57108 115.000
88.59103 161.000
88.61098 131.000
88.63092 138.000
88.65087 115.000
88.67082 153.000
88.69076 133.000
88.71071 128.000
88.73066 138.000
88.75061 144.000
88.77055 114.000
88.79050 148.000
88.81045 143.000
88.83039 122.000
88.85034 156.000
88.87029 123.000
88.89023 131.000
88.91018 141.000
88.93013 128.000
88.95007 138.000
88.97002 151.000
88.98997 149.000
89.00992 154.000
89.02986 136.000
89.04981 131.000
89.06976 143.000
89.08970 122.000
89.10965 134.000
89.12960 150.000
89.14954 143.000
89.16949 134.000
89.18944 131.000
89.20939 136.000
89.22933 135.000
89.24928 124.000
89.26923 141.000
89.28917 137.000
89.30912 122.000
89.32907 155.000
89.34901 138.000
89.36896 159.000
89.38891 125.000
89.40885 147.000
89.42880 143.000
89.44875 154.000
89.46870 151.000
89.48864 149.000
89.50859 154.000
89.52854 156.000
89.54848 159.000
89.56843 150.000
89.58838 129.000
89.60832 142.000
89.62827 164.000
89.64822 145.000
89.66817 143.000
89.68811 155.000
89.70806 149.000
89.72801 147.000
89.74795 128.000
89.76790 151.000
89.78785 135.000
89.80779 148.000
89.82774 146.000
89.84769 159.000
89.86764 142.000
89.88758 171.000
89.90753 143.000
89.92748 170.000
89.94742 160.000
89.96737 153.000
89.98732 136.000
90.00726 153.000
